-14523.6650390625,-15942.2548828125,-5544.02685546875,-1486.1424560546875,-1622.8358154296875,8327.9609375,-5544.8212890625,-2868.97021484375,-1398.7222900390625,5717.27734375,-8068.87890625,-13247.3310546875,-3527.80029296875,4783.4716796875,-258.28680419921875,-9597.9375,-881.35400390625,-65.1677474975586,2600.35205078125,12692.6103515625,1904.9644775390625,5771.31884765625,-1215.1400146484375,11578.400390625,-3902.117431640625,-6628.03662109375,-4561.7421875,-4287.56103515625,-7971.12744140625,-3404.6171875,3190.04052734375,1635.551513671875,-522.13671875,-1605.351806640625,-2670.2880859375,3362.49658203125,-4368.623046875,15086.3330078125,-5421.638671875,-0.0,-8400.28125,4886.7861328125,-6280.740234375,-4661.8779296875,-1084.009765625,5233.28759765625,-7597.60546875,758.1710815429688,-6047.88427734375,-3764.62939453125,-2319.01806640625,6372.9287109375,12051.2646484375,-21670.66015625,-9195.009765625,-1324.017822265625,974.3372802734375,-9904.7021484375,-1835.0283203125,-3979.2060546875,-16146.501953125,324.249267578125,-1479.78466796875,1608.5306396484375,-11017.322265625,-3270.308349609375,0.0,-1542.5682373046875,0.0,-3554.0263671875,-0.0,2216.498046875
-14437.8349609375,-15943.845703125,-5542.43701171875,-1495.67919921875,-1621.246337890625,8320.013671875,-5548.00048828125,-2872.94384765625,-1401.9012451171875,5712.50927734375,-8053.77978515625,-13247.3310546875,-3525.416015625,4779.49755859375,-255.90261840820312,-9594.7578125,-882.1487426757812,-67.55193328857422,2596.37841796875,12689.431640625,1903.375,5770.5244140625,-1219.1136474609375,11574.427734375,-3890.9912109375,-6639.95751953125,-4564.9208984375,-4292.3291015625,-7967.154296875,-3408.591064453125,3186.06689453125,1635.551513671875,-521.3419799804688,-1603.7623291015625,-2671.082763671875,3355.343994140625,-4371.00732421875,15080.76953125,-5429.5859375,-0.0,-8393.923828125,4886.7861328125,-6280.740234375,-4669.03076171875,-1087.9835205078125,5230.90380859375,-7566.61083984375,747.839599609375,-6046.294921875,-3779.729248046875,-2315.04443359375,6369.74951171875,12783.2099609375,-21677.8125,-9192.6259765625,-1336.7335205078125,977.5161743164062,-9899.93359375,-1836.6177978515625,-3978.4111328125,-16152.8583984375,317.8914489746094,-1482.963623046875,1606.146484375,-11025.26953125,-3271.8974609375,0.0,-1548.926025390625,0.0,-3557.205078125,-0.0,2214.90869140625
-14384.5869140625,-15916.82421875,-5533.6953125,-1506.805419921875,-1612.50439453125,8316.0400390625,-5543.23193359375,-2869.76513671875,-1401.1064453125,5715.68798828125,-8027.5537109375,-13259.251953125,-3529.3896484375,4785.85595703125,-248.75006103515625,-9582.8369140625,-877.38037109375,-62.78356170654297,2601.146728515625,12694.19921875,1908.9381103515625,5770.5244140625,-1214.3453369140625,11575.2216796875,-3880.659912109375,-6646.31494140625,-4556.17919921875,-4293.12353515625,-7955.2333984375,-3405.411865234375,3189.245849609375,1639.5250244140625,-513.3946533203125,-1602.1728515625,-2663.93017578125,3357.728271484375,-4367.03369140625,15085.5380859375,-5440.7119140625,-0.0,-8382.796875,4883.607421875,-6273.587890625,-4666.646484375,-1084.009765625,5235.671875,-7553.8955078125,735.918701171875,-6035.96337890625,-3782.908203125,-2308.6865234375,6375.31298828125,12940.56640625,-21685.7578125,-9179.115234375,-1341.5018310546875,985.4635009765625,-9903.908203125,-1832.6441650390625,-3979.2060546875,-16155.2431640625,322.6598205566406,-1478.989990234375,1608.5306396484375,-11019.70703125,-3267.924072265625,0.0,-1544.952392578125,0.0,-3557.205078125,-0.0,2217.292724609375
-14382.203125,-15887.4189453125,-5521.7744140625,-1479.78466796875,-1601.3780517578125,8336.703125,-5529.7216796875,-2861.02294921875,-1396.338134765625,5720.45654296875,-8019.6064453125,-13271.9677734375,-3511.111083984375,4776.31884765625,-216.1661834716797,-9581.248046875,-864.6647338867188,-50.86262893676758,2610.683349609375,12697.37890625,1921.65380859375,5783.23974609375,-1201.629638671875,11586.3486328125,-3878.275634765625,-6608.16796875,-4539.48974609375,-4281.20263671875,-7944.10693359375,-3352.165283203125,3201.96142578125,1653.0355224609375,-503.85791015625,-1587.072998046875,-2652.80419921875,3371.23876953125,-4354.318359375,15094.2802734375,-5423.22802734375,-0.0,-8376.439453125,4905.06494140625,-6260.8720703125,-4653.9306640625,-1072.883544921875,5242.02978515625,-7553.8955078125,764.5289306640625,-6023.248046875,-3761.450439453125,-2276.102783203125,6381.67041015625,13144.810546875,-21669.865234375,-9167.9892578125,-1289.0498046875,1008.5106201171875,-9894.37109375,-1808.80224609375,-3968.87451171875,-16129.0166015625,334.58074951171875,-1471.0426025390625,1610.1201171875,-11010.96484375,-3277.460693359375,0.0,-1540.978759765625,0.0,-3550.052734375,-0.0,2217.292724609375
-14449.755859375,-15892.1875,-5517.005859375,-1478.989990234375,-1602.9676513671875,8335.11328125,-5533.6953125,-2866.5859375,-1398.7222900390625,5715.68798828125,-8000.533203125,-13264.01953125,-3492.03759765625,4778.703125,-224.90818786621094,-9577.2744140625,-865.45947265625,-52.45208740234375,2608.29931640625,12692.6103515625,1922.448486328125,5781.650390625,-1203.2191162109375,11585.552734375,-3882.2490234375,-6611.34716796875,-4538.69482421875,-4285.97119140625,-7944.9013671875,-3348.19140625,3199.577392578125,1654.625,-500.67901611328125,-1589.4571533203125,-2653.598876953125,3368.8544921875,-4356.7021484375,15091.1015625,-5393.0283203125,-0.0,-8374.0546875,4901.09130859375,-6263.255859375,-4656.31494140625,-1076.857177734375,5235.671875,-7553.8955078125,765.3236083984375,-6026.4267578125,-3765.424072265625,-2284.050048828125,6375.31298828125,12896.85546875,-21680.197265625,-9168.7841796875,-1283.4866943359375,1009.3053588867188,-9889.6025390625,-1824.6968994140625,-3974.437744140625,-16117.8916015625,333.7860107421875,-1476.605712890625,1605.351806640625,-11009.3759765625,-3283.02392578125,0.0,-1552.10498046875,0.0,-3556.41064453125,-0.0,2210.934814453125
-14457.703125,-15927.9501953125,-5545.6162109375,-1516.3421630859375,-1625.219970703125,8316.0400390625,-5555.15283203125,-2877.712158203125,-1410.6431884765625,5705.3564453125,-8044.24267578125,-13233.8212890625,-3527.80029296875,4779.49755859375,-267.82354736328125,-9586.8115234375,-885.32763671875,-70.73084259033203,2592.404541015625,12683.8681640625,1905.7591552734375,5761.7822265625,-1219.9083251953125,11569.6591796875,-3906.8857421875,-6649.494140625,-4567.30517578125,-4296.302734375,-7961.5908203125,-3418.127685546875,3180.50390625,1634.7567138671875,-518.1630249023438,-1610.914794921875,-2671.877685546875,3352.9599609375,-4375.77587890625,15076.796875,-5414.48583984375,-0.0,-8389.9501953125,4872.48095703125,-6283.9189453125,-4669.03076171875,-1095.9306640625,5222.16162109375,-7600.7841796875,727.9713745117188,-6054.24267578125,-3783.702880859375,-2326.96533203125,6366.57080078125,13027.9853515625,-21708.01171875,-9187.0625,-1314.4810791015625,971.1583251953125,-9902.318359375,-1853.30712890625,-3991.126953125,-16151.26953125,317.8914489746094,-1490.1160888671875,1596.6097412109375,-10998.2490234375,-3279.050048828125,0.0,-1567.99951171875,0.0,-3571.51025390625,-0.0,2200.603515625
-14396.5078125,-15938.2822265625,-5555.15283203125,-1519.5211181640625,-1622.0411376953125,8316.0400390625,-5550.384765625,-2876.122802734375,-1410.6431884765625,5703.76708984375,-8079.21142578125,-13233.025390625,-3538.92626953125,4775.52392578125,-256.69732666015625,-9603.5,-890.0960083007812,-69.14138793945312,2593.994140625,12684.6630859375,1904.9644775390625,5760.19287109375,-1219.1136474609375,11571.248046875,-3904.501708984375,-6656.646484375,-4560.947265625,-4293.12353515625,-7952.849609375,-3423.69091796875,3180.50390625,1628.39892578125,-526.1103515625,-1615.6832275390625,-2670.2880859375,3354.54931640625,-4371.8017578125,15079.1806640625,-5442.30126953125,-0.0,-8386.771484375,4870.0966796875,-6279.9453125,-4667.44091796875,-1091.95703125,5225.34033203125,-7605.552734375,722.4083251953125,-6045.50048828125,-3780.52392578125,-2315.839111328125,6369.74951171875,13512.7705078125,-21702.447265625,-9175.9365234375,-1304.9443359375,974.3372802734375,-9908.67578125,-1839.001953125,-3995.8955078125,-16163.984375,317.0967102050781,-1486.1424560546875,1596.6097412109375,-10995.0703125,-3283.818603515625,0.0,-1555.283935546875,0.0,-3566.741943359375,-0.0,2202.98779296875
-14441.8076171875,-15917.6201171875,-5546.4111328125,-1513.9580078125,-1612.50439453125,8323.9873046875,-5539.25830078125,-2867.380859375,-1402.696044921875,5709.330078125,-8046.626953125,-13242.5625,-3516.674072265625,4781.08740234375,-236.03439331054688,-9595.5537109375,-885.32763671875,-60.39937210083008,2600.35205078125,12691.0205078125,1906.5538330078125,5768.14013671875,-1209.576904296875,11579.990234375,-3890.196533203125,-6644.7255859375,-4541.8740234375,-4287.56103515625,-7940.92822265625,-3419.717041015625,3184.4775390625,1633.9620361328125,-521.3419799804688,-1610.1201171875,-2661.5458984375,3360.9072265625,-4359.880859375,15087.1279296875,-5420.84375,-0.0,-8387.5654296875,4878.0439453125,-6268.8193359375,-4661.8779296875,-1080.0361328125,5232.4931640625,-7576.1474609375,727.9713745117188,-6031.990234375,-3783.702880859375,-2295.17626953125,6377.69677734375,14425.1181640625,-21692.1171875,-9163.220703125,-1309.7127685546875,997.3843994140625,-9903.908203125,-1823.902099609375,-3991.921875,-16151.26953125,325.8387145996094,-1480.579345703125,1605.351806640625,-10993.48046875,-3282.229248046875,0.0,-1551.3101806640625,0.0,-3560.384033203125,-0.0,2211.729736328125
-14475.9814453125,-15931.9248046875,-5544.8212890625,-1513.1632080078125,-1618.0673828125,8326.37109375,-5543.23193359375,-2868.175537109375,-1397.9276123046875,5713.30419921875,-8041.064453125,-13260.046875,-3521.4423828125,4796.18701171875,-259.0815124511719,-9583.6328125,-886.1223754882812,-61.98883056640625,2601.146728515625,12695.7890625,1903.375,5769.7294921875,-1212.755859375,11578.400390625,-3887.017578125,-6627.24169921875,-4549.8212890625,-4289.150390625,-7948.87548828125,-3434.022216796875,3184.4775390625,1634.7567138671875,-522.13671875,-1606.941162109375,-2666.314453125,3359.31787109375,-4364.6494140625,15085.5380859375,-5407.33349609375,-0.0,-8400.28125,4885.99169921875,-6275.1767578125,-4662.67236328125,-1084.009765625,5232.4931640625,-7568.20068359375,727.1766357421875,-6040.73193359375,-3790.060791015625,-2315.839111328125,6375.31298828125,15075.20703125,-21698.474609375,-9171.16796875,-1337.5281982421875,991.8212890625,-9912.650390625,-1831.0546875,-3987.153564453125,-16141.7333984375,325.04400634765625,-1480.579345703125,1610.914794921875,-10997.455078125,-3280.6396484375,0.0,-1558.4627685546875,0.0,-3561.178955078125,-0.0,2212.5244140625
-14475.1865234375,-15947.818359375,-5527.33740234375,-1511.57373046875,-1600.5833740234375,8335.11328125,-5526.54248046875,-2854.6650390625,-1386.8013916015625,5722.0458984375,-8033.91162109375,-13256.8671875,-3507.931884765625,4801.75,-230.47129821777344,-9576.4794921875,-874.9962158203125,-51.6573600769043,2614.6572265625,12705.326171875,1917.68017578125,5780.85546875,-1199.2454833984375,11591.1171875,-3871.917724609375,-6613.7314453125,-4535.51611328125,-4274.84521484375,-7940.92822265625,-3445.943115234375,3195.603515625,1648.26708984375,-508.62628173828125,-1595.8150634765625,-2653.598876953125,3371.23876953125,-4351.13916015625,15098.25390625,-5397.796875,-0.0,-8378.029296875,4901.09130859375,-6260.0771484375,-4651.54638671875,-1069.7047119140625,5245.208984375,-7561.84228515625,728.76611328125,-6021.658203125,-3779.729248046875,-2288.023681640625,6388.8232421875,14574.52734375,-21697.6796875,-9161.6318359375,-1358.191162109375,1010.1000366210938,-9895.1650390625,-1811.981201171875,-3977.61669921875,-16113.123046875,336.1701965332031,-1467.0689697265625,1618.8621826171875,-10999.8388671875,-3274.28173828125,0.0,-1550.5155029296875,0.0,-3557.205078125,-0.0,2219.677001953125
-14420.349609375,-15938.2822265625,-5524.15869140625,-1499.65283203125,-1597.404541015625,8335.11328125,-5524.15869140625,-2856.254638671875,-1389.185546875,5719.66162109375,-8023.57958984375,-13251.3046875,-3496.805908203125,4788.23974609375,-220.93455505371094,-9580.453125,-871.8172607421875,-50.86262893676758,2617.041259765625,12703.736328125,1921.65380859375,5781.650390625,-1196.0665283203125,11591.9111328125,-3871.917724609375,-6612.9365234375,-4530.748046875,-4278.81884765625,-7926.62353515625,-3433.2275390625,3196.3984375,1653.0355224609375,-504.6526794433594,-1593.430908203125,-2651.214599609375,3370.444091796875,-4346.37060546875,15098.25390625,-5400.9755859375,-0.0,-8374.0546875,4900.296875,-6256.103515625,-4651.54638671875,-1067.3204345703125,5242.02978515625,-7571.37939453125,743.0712280273438,-6015.30078125,-3768.60302734375,-2280.076171875,6388.02880859375,12847.5830078125,-21687.349609375,-9149.7109375,-1348.6544189453125,1018.04736328125,-9895.1650390625,-1815.16015625,-3981.59033203125,-16123.453125,336.9649353027344,-1465.4794921875,1615.6832275390625,-10983.9443359375,-3272.6923828125,0.0,-1547.3365478515625,0.0,-3554.0263671875,-0.0,2220.4716796875
-14394.9189453125,-15911.2607421875,-5544.8212890625,-1510.779052734375,-1618.0673828125,8322.3984375,-5541.642578125,-2867.380859375,-1398.7222900390625,5714.0986328125,-8043.4482421875,-13249.71484375,-3516.674072265625,4790.6240234375,-258.28680419921875,-9574.890625,-886.9171142578125,-65.1677474975586,2602.736328125,12696.583984375,1905.7591552734375,5768.14013671875,-1211.961181640625,11577.6064453125,-3886.222900390625,-6633.599609375,-4559.35791015625,-4286.76611328125,-7948.0810546875,-3415.74365234375,3181.298583984375,1637.9356689453125,-520.5472412109375,-1605.351806640625,-2668.698486328125,3355.343994140625,-4365.4443359375,15087.1279296875,-5431.97021484375,-0.0,-8393.1279296875,4882.017578125,-6275.1767578125,-4662.67236328125,-1084.009765625,5231.69873046875,-7580.916015625,731.945068359375,-6042.32177734375,-3770.1923828125,-2317.4287109375,6379.2861328125,9690.9208984375,-21691.322265625,-9170.373046875,-1335.14404296875,975.1319580078125,-9918.212890625,-1838.207275390625,-3989.53759765625,-16156.83203125,322.6598205566406,-1478.989990234375,1610.914794921875,-10988.7119140625,-3273.487060546875,0.0,-1548.926025390625,0.0,-3561.178955078125,-0.0,2216.498046875
-14422.734375,-15909.671875,-5567.86865234375,-1532.2366943359375,-1633.9620361328125,8298.556640625,-5554.35791015625,-2887.2490234375,-1415.41162109375,5695.81982421875,-8060.1376953125,-13263.2255859375,-3530.979248046875,4768.37158203125,-259.8762512207031,-9620.189453125,-905.1958618164062,-85.8306884765625,2587.63623046875,12677.5107421875,1884.301513671875,5748.27197265625,-1228.650390625,11557.73828125,-3900.52783203125,-6671.74658203125,-4567.30517578125,-4311.40283203125,-7966.359375,-3416.538330078125,3162.22509765625,1618.0673828125,-541.210205078125,-1624.42529296875,-2683.798583984375,3331.502197265625,-4379.74951171875,15070.4384765625,-5443.89111328125,-0.0,-8409.0234375,4855.79150390625,-6288.68701171875,-4685.7197265625,-1096.7254638671875,5214.21435546875,-7597.60546875,710.4873657226562,-6053.44775390625,-3784.49755859375,-2319.01806640625,6355.4443359375,4836.71826171875,-21706.421875,-9189.4462890625,-1329.5809326171875,971.1583251953125,-9974.638671875,-1839.796630859375,-4005.43212890625,-16165.5751953125,304.38104248046875,-1495.67919921875,1591.84130859375,-11014.9384765625,-3289.3818359375,0.0,-1559.257568359375,0.0,-3569.9208984375,-0.0,2202.98779296875
-14446.576171875,-15908.8759765625,-5551.9736328125,-1513.1632080078125,-1627.6041259765625,8308.0927734375,-5553.5634765625,-2879.3017578125,-1411.43798828125,5698.2041015625,-8052.18994140625,-13255.2783203125,-3536.542236328125,4771.55078125,-268.6182556152344,-9613.8310546875,-899.6327514648438,-82.65177154541016,2590.815185546875,12683.8681640625,1892.248779296875,5754.62939453125,-1224.6767578125,11564.095703125,-3887.812255859375,-6660.6201171875,-4566.5107421875,-4305.83935546875,-7970.3330078125,-3391.901611328125,3166.993408203125,1622.8358154296875,-532.4681396484375,-1619.6568603515625,-2679.82470703125,3334.68115234375,-4377.365234375,15076.796875,-5455.01708984375,-0.0,-8397.896484375,4862.14990234375,-6285.5087890625,-4679.36181640625,-1093.5465087890625,5222.9560546875,-7581.7109375,730.3555908203125,-6047.88427734375,-3782.11328125,-2326.170654296875,6362.59716796875,-283.7181091308594,-21692.912109375,-9191.8310546875,-1312.8916015625,966.3899536132812,-9992.9169921875,-1842.180908203125,-3995.8955078125,-16160.01171875,307.5599670410156,-1491.70556640625,1598.19921875,-11028.44921875,-3286.20263671875,0.0,-1564.8206787109375,0.0,-3573.89453125,-0.0,2202.98779296875
-14451.3447265625,-15886.625,-5524.15869140625,-1483.75830078125,-1604.5570068359375,8337.498046875,-5529.7216796875,-2853.07568359375,-1390.7750244140625,5721.2509765625,-8037.884765625,-13240.177734375,-3507.13720703125,4804.92919921875,-239.2133026123047,-9578.8642578125,-875.7908935546875,-59.604644775390625,2615.451904296875,12710.0947265625,1917.68017578125,5780.85546875,-1202.4244384765625,11592.7060546875,-3859.996826171875,-6624.06298828125,-4544.25830078125,-4274.84521484375,-7946.4912109375,-3358.523193359375,3190.835205078125,1646.6776123046875,-506.2420959472656,-1595.020263671875,-2657.572509765625,3359.31787109375,-4353.5234375,15102.2275390625,-5430.38037109375,-0.0,-8373.2607421875,4893.9384765625,-6259.28271484375,-4654.7255859375,-1069.7047119140625,5249.18212890625,-7541.1796875,758.1710815429688,-6026.4267578125,-3764.62939453125,-2296.765625,6391.20703125,-5063.2158203125,-21663.5078125,-9171.16796875,-1285.870849609375,988.642333984375,-9980.2021484375,-1815.954833984375,-3971.258544921875,-16137.7578125,332.1965637207031,-1469.4532470703125,1626.8094482421875,-11022.0908203125,-3263.950439453125,0.0,-1546.5418701171875,0.0,-3552.436767578125,-0.0,2223.650634765625
-14466.4453125,-15884.2412109375,-5507.46923828125,-1475.81103515625,-1595.020263671875,8351.802734375,-5511.44287109375,-2834.002197265625,-1374.0858154296875,5740.32470703125,-8037.09033203125,-13233.8212890625,-3500.779296875,4810.4921875,-212.9872589111328,-9561.3798828125,-863.0752563476562,-45.299530029296875,2632.935791015625,12726.7841796875,1931.9852294921875,5794.3662109375,-1186.52978515625,11608.6005859375,-3856.81787109375,-6606.57861328125,-4525.9794921875,-4254.9765625,-7935.36474609375,-3356.138916015625,3204.345703125,1654.625,-494.3211669921875,-1581.5098876953125,-2644.06201171875,3373.622802734375,-4336.0390625,15118.9169921875,-5420.84375,-0.0,-8362.9296875,4910.6279296875,-6244.9775390625,-4636.4462890625,-1049.8365478515625,5267.46142578125,-7546.74267578125,769.2973022460938,-6013.71142578125,-3755.88720703125,-2270.53955078125,6413.4599609375,-7885.296875,-21667.48046875,-9159.2470703125,-1271.5657958984375,1010.894775390625,-9960.333984375,-1777.807861328125,-3956.95361328125,-16133.78515625,348.09112548828125,-1452.763916015625,1641.9093017578125,-10992.6865234375,-3252.029296875,0.0,-1528.2630615234375,0.0,-3540.515869140625,-0.0,2234.77685546875
-14479.16015625,-15889.009765625,-5510.6484375,-1469.4532470703125,-1598.19921875,8356.5712890625,-5511.44287109375,-2836.386474609375,-1352.6280517578125,5759.39794921875,-8056.16357421875,-13220.310546875,-3503.16357421875,4839.89697265625,-221.72927856445312,-9562.96875,-863.0752563476562,-41.32588577270508,2635.320068359375,12747.447265625,1930.395751953125,5795.95556640625,-1187.324462890625,11607.806640625,-3870.328125,-6596.2470703125,-4531.54248046875,-4257.36083984375,-7948.87548828125,-3353.754638671875,3205.935302734375,1660.1881103515625,-494.3211669921875,-1580.7152099609375,-2645.651611328125,3378.391357421875,-4335.24462890625,15120.505859375,-5400.9755859375,-0.0,-8366.1083984375,4913.80712890625,-6247.36181640625,-4633.26806640625,-1047.4522705078125,5266.66650390625,-7570.5849609375,774.8603515625,-6017.68505859375,-3734.4296875,-2280.87109375,6407.10205078125,-7684.23095703125,-21661.916015625,-9170.373046875,-1269.181640625,1006.921142578125,-9945.2333984375,-1798.4708251953125,-3956.1591796875,-16126.6328125,349.6805725097656,-1445.611328125,1661.7774658203125,-10990.3017578125,-3238.51904296875,0.0,-1520.3157958984375,0.0,-3521.4423828125,-0.0,2256.234375
-14458.4970703125,-15904.1083984375,-5529.7216796875,-1478.1951904296875,-1609.325439453125,8347.0341796875,-5523.36376953125,-2838.7705078125,-1353.4227294921875,5746.6826171875,-8063.31640625,-13229.052734375,-3503.95849609375,4852.61279296875,-239.2133026123047,-9563.763671875,-874.2014770507812,-53.2468147277832,2626.578125,12746.6513671875,1916.8853759765625,5784.03466796875,-1199.2454833984375,11599.8583984375,-3878.275634765625,-6615.32080078125,-4545.84765625,-4260.5400390625,-7963.97509765625,-3360.112548828125,3195.603515625,1652.24072265625,-508.62628173828125,-1591.046630859375,-2655.98291015625,3370.444091796875,-4346.37060546875,15114.1484375,-5398.59130859375,-0.0,-8380.4130859375,4902.6806640625,-6261.6669921875,-4641.21484375,-1054.6048583984375,5266.66650390625,-7578.53173828125,765.3236083984375,-6027.2216796875,-3742.376953125,-2295.970947265625,6406.30712890625,-5315.939453125,-21665.095703125,-9185.4736328125,-1286.66552734375,992.6160278320312,-9926.955078125,-1815.16015625,-3962.516845703125,-16128.2216796875,340.1438293457031,-1451.1744384765625,1652.24072265625,-11003.017578125,-3251.23486328125,0.0,-1542.5682373046875,0.0,-3542.900146484375,-0.0,2242.72412109375
-14420.349609375,-15900.134765625,-5520.18505859375,-1485.3477783203125,-1601.3780517578125,8351.802734375,-5518.59521484375,-2834.002197265625,-1357.396484375,5732.37744140625,-8053.77978515625,-13221.900390625,-3512.700439453125,4843.076171875,-227.29237365722656,-9544.6904296875,-865.45947265625,-46.88898849487305,2628.16748046875,12736.3203125,1922.448486328125,5789.59814453125,-1193.682373046875,11603.83203125,-3860.79150390625,-6613.7314453125,-4540.28466796875,-4251.79833984375,-7944.10693359375,-3365.67578125,3201.166748046875,1659.393310546875,-499.08953857421875,-1585.4835205078125,-2648.830322265625,3376.8017578125,-4342.39697265625,15116.5322265625,-5405.744140625,-0.0,-8367.697265625,4906.654296875,-6255.30859375,-4634.0625,-1051.4259033203125,5265.0771484375,-7559.45849609375,756.5816040039062,-6025.63232421875,-3739.197998046875,-2286.43408203125,6416.638671875,-3551.64208984375,-21663.5078125,-9166.400390625,-1288.255126953125,997.3843994140625,-9915.8291015625,-1804.033935546875,-3964.90087890625,-16123.453125,343.32275390625,-1451.1744384765625,1634.7567138671875,-10991.0966796875,-3255.208251953125,0.0,-1553.6943359375,0.0,-3554.0263671875,-0.0,2230.80322265625
-14426.7080078125,-15931.9248046875,-5510.6484375,-1494.0897216796875,-1591.84130859375,8343.060546875,-5520.18505859375,-2857.04931640625,-1379.6488037109375,5733.171875,-8056.9580078125,-13237.0,-3503.16357421875,4805.7236328125,-220.1398162841797,-9589.9892578125,-865.45947265625,-48.47844314575195,2621.014892578125,12714.86328125,1926.422119140625,5787.2138671875,-1192.0928955078125,11596.6796875,-3840.128662109375,-6618.5,-4530.748046875,-4268.4873046875,-7931.3916015625,-3393.490966796875,3201.166748046875,1657.8038330078125,-498.2948303222656,-1587.86767578125,-2648.830322265625,3371.23876953125,-4344.78125,15103.8173828125,-5391.43896484375,-0.0,-8355.7763671875,4904.27001953125,-6249.74560546875,-4646.7783203125,-1060.962646484375,5244.4140625,-7546.74267578125,747.839599609375,-6009.7373046875,-3751.913818359375,-2281.665771484375,6386.43896484375,-1672.9036865234375,-21696.08984375,-9153.68359375,-1307.32861328125,1011.6895141601562,-9950.001953125,-1808.80224609375,-3971.258544921875,-16135.3740234375,338.55438232421875,-1464.684814453125,1626.0146484375,-11001.427734375,-3264.7451171875,0.0,-1542.5682373046875,0.0,-3544.489501953125,-0.0,2233.1875
-14472.0078125,-16002.6552734375,-5515.41650390625,-1494.884521484375,-1597.404541015625,8335.11328125,-5530.51611328125,-2864.201904296875,-1398.7222900390625,5714.0986328125,-8055.369140625,-13242.5625,-3499.190185546875,4773.93505859375,-230.47129821777344,-9592.3740234375,-875.7908935546875,-55.63100051879883,2610.683349609375,12694.9951171875,1920.0643310546875,5780.06103515625,-1202.4244384765625,11588.732421875,-3852.84423828125,-6620.8837890625,-4535.51611328125,-4281.20263671875,-7936.16015625,-3410.97509765625,3193.219482421875,1642.7039794921875,-509.4210510253906,-1595.8150634765625,-2656.777587890625,3364.880859375,-4355.9072265625,15094.2802734375,-5420.04931640625,-0.0,-8362.9296875,4899.501953125,-6259.28271484375,-4657.10986328125,-1076.0625,5236.466796875,-7562.63720703125,748.6343383789062,-6014.505859375,-3766.218994140625,-2291.20263671875,6380.0810546875,141.46168518066406,-21757.283203125,-9158.4521484375,-1335.14404296875,1008.5106201171875,-9942.849609375,-1827.875732421875,-3972.848388671875,-16135.3740234375,329.01763916015625,-1478.1951904296875,1601.3780517578125,-11003.8115234375,-3267.129150390625,0.0,-1554.4891357421875,0.0,-3556.41064453125,-0.0,2218.88232421875
-14477.5703125,-16028.880859375,-5521.7744140625,-1488.5267333984375,-1620.4515380859375,8323.9873046875,-5543.23193359375,-2872.94384765625,-1413.8221435546875,5702.177734375,-8044.24267578125,-13249.71484375,-3512.700439453125,4769.16650390625,-251.928955078125,-9593.9638671875,-879.7645263671875,-62.78356170654297,2603.53076171875,12677.5107421875,1908.9381103515625,5773.703125,-1211.961181640625,11579.1962890625,-3898.143798828125,-6623.26806640625,-4553.794921875,-4298.68701171875,-7947.28564453125,-3403.02783203125,3188.451171875,1638.7303466796875,-517.3682861328125,-1596.6097412109375,-2667.90380859375,3356.93359375,-4368.623046875,15087.1279296875,-5425.61181640625,-0.0,-8385.181640625,4896.32275390625,-6277.56103515625,-4669.8251953125,-1090.36767578125,5227.724609375,-7549.126953125,753.4027099609375,-6043.1162109375,-3786.881591796875,-2310.276123046875,6372.1337890625,2178.35107421875,-21752.515625,-9170.373046875,-1357.396484375,987.84765625,-9922.1865234375,-1842.9755859375,-3983.974365234375,-16142.5263671875,321.0703430175781,-1488.5267333984375,1602.9676513671875,-10993.48046875,-3267.924072265625,0.0,-1548.13134765625,0.0,-3554.0263671875,-0.0,2222.855712890625
-14497.439453125,-15966.0966796875,-5534.490234375,-1496.473876953125,-1634.7567138671875,8316.833984375,-5549.58984375,-2880.096435546875,-1411.43798828125,5707.74072265625,-8056.9580078125,-13263.2255859375,-3527.00537109375,4790.6240234375,-260.6709899902344,-9609.8583984375,-887.7118530273438,-69.93611907958984,2599.55712890625,12682.2783203125,1900.9908447265625,5764.16650390625,-1219.1136474609375,11572.04296875,-3915.6279296875,-6624.857421875,-4564.12646484375,-4309.0185546875,-7958.412109375,-3414.154052734375,3181.298583984375,1637.140869140625,-523.7261352539062,-1604.5570068359375,-2675.85107421875,3351.37060546875,-4371.00732421875,15081.564453125,-5435.14892578125,-0.0,-8404.2548828125,4887.5810546875,-6284.7138671875,-4676.18310546875,-1088.7781982421875,5222.9560546875,-7571.37939453125,744.6607055664062,-6059.0107421875,-3793.239501953125,-2316.634033203125,6362.59716796875,3909.269775390625,-21723.111328125,-9182.2939453125,-1348.6544189453125,968.774169921875,-9929.33984375,-1839.796630859375,-3987.947998046875,-16156.83203125,315.50726318359375,-1488.5267333984375,1612.50439453125,-11003.017578125,-3287.792236328125,0.0,-1546.5418701171875,0.0,-3555.61572265625,-0.0,2222.06103515625
-14500.6181640625,-15899.33984375,-5522.5693359375,-1502.831787109375,-1619.6568603515625,8325.5771484375,-5536.87451171875,-2872.149169921875,-1397.1328125,5716.482421875,-8052.9853515625,-13252.0986328125,-3510.316162109375,4799.3662109375,-244.77639770507812,-9607.474609375,-879.7645263671875,-62.78356170654297,2606.709716796875,12695.7890625,1908.1434326171875,5768.9345703125,-1211.1663818359375,11579.1962890625,-3901.322509765625,-6633.599609375,-4554.58984375,-4294.71337890625,-7944.9013671875,-3419.717041015625,3186.86181640625,1642.7039794921875,-516.5736083984375,-1600.5833740234375,-2667.109130859375,3358.523193359375,-4363.85498046875,15089.51171875,-5433.5595703125,-0.0,-8391.5400390625,4882.8125,-6275.1767578125,-4664.26220703125,-1076.857177734375,5232.4931640625,-7577.7373046875,739.892333984375,-6045.50048828125,-3770.9873046875,-2303.12353515625,6369.74951171875,6502.4697265625,-21696.88671875,-9167.9892578125,-1325.6072998046875,983.0792846679688,-9908.67578125,-1826.286376953125,-3980.79541015625,-16156.83203125,324.249267578125,-1478.989990234375,1619.6568603515625,-10990.3017578125,-3279.844970703125,0.0,-1545.7471923828125,0.0,-3551.64208984375,-0.0,2225.239990234375
-14426.7080078125,-15859.603515625,-5528.1318359375,-1492.500244140625,-1608.5306396484375,8340.6767578125,-5528.9267578125,-2858.638671875,-1396.338134765625,5722.8408203125,-8027.5537109375,-13229.8466796875,-3519.852783203125,4790.6240234375,-240.00804138183594,-9589.1953125,-867.8436279296875,-50.067901611328125,2614.6572265625,12699.763671875,1916.8853759765625,5780.06103515625,-1200.0401611328125,11591.9111328125,-3884.63330078125,-6628.03662109375,-4544.25830078125,-4275.64013671875,-7946.4912109375,-3389.517578125,3197.98779296875,1657.8038330078125,-511.0104675292969,-1591.046630859375,-2658.3671875,3372.828125,-4353.5234375,15099.048828125,-5404.94921875,-0.0,-8382.796875,4892.34912109375,-6266.43505859375,-4648.3671875,-1072.0888671875,5242.82470703125,-7563.43212890625,752.6079711914062,-6031.990234375,-3751.118896484375,-2299.149658203125,6385.64453125,10025.5009765625,-21661.123046875,-9167.1943359375,-1293.0234375,988.642333984375,-9879.271484375,-1823.902099609375,-3970.464111328125,-16130.60546875,332.99127197265625,-1469.4532470703125,1623.6304931640625,-10992.6865234375,-3268.71875,0.0,-1542.5682373046875,0.0,-3546.873779296875,-0.0,2233.982177734375
-14404.4560546875,-15861.98828125,-5525.74755859375,-1488.5267333984375,-1598.19921875,8343.85546875,-5520.18505859375,-2848.307373046875,-1389.185546875,5735.55615234375,-7995.7646484375,-13228.2568359375,-3527.80029296875,4796.18701171875,-226.49765014648438,-9568.5322265625,-862.280517578125,-41.32588577270508,2624.988525390625,12711.6845703125,1923.2431640625,5787.2138671875,-1189.708740234375,11599.8583984375,-3875.891357421875,-6619.29443359375,-4529.158203125,-4266.8974609375,-7941.72265625,-3373.622802734375,3207.524658203125,1666.5458984375,-503.0632019042969,-1585.4835205078125,-2648.03564453125,3381.570068359375,-4343.986328125,15106.9951171875,-5383.49169921875,-0.0,-8374.8505859375,4897.91259765625,-6255.30859375,-4642.009765625,-1063.346923828125,5253.15625,-7549.92138671875,754.9921875,-6014.505859375,-3749.529541015625,-2286.43408203125,6396.7705078125,13098.716796875,-21652.380859375,-9163.220703125,-1276.3341064453125,995.000244140625,-9860.1982421875,-1819.928466796875,-3958.543212890625,-16124.248046875,341.7333068847656,-1459.1217041015625,1633.9620361328125,-10981.5595703125,-3259.9765625,0.0,-1534.620849609375,0.0,-3534.952880859375,-0.0,2247.492431640625
-14450.5498046875,-15877.8818359375,-5531.31103515625,-1500.4476318359375,-1602.1728515625,8335.11328125,-5520.9794921875,-2848.307373046875,-1372.4962158203125,5741.9140625,-8011.65869140625,-13249.71484375,-3492.03759765625,4816.05517578125,-214.57672119140625,-9564.55859375,-870.227783203125,-46.88898849487305,2624.19384765625,12727.578125,1916.8853759765625,5781.650390625,-1193.682373046875,11594.2958984375,-3882.2490234375,-6624.857421875,-4525.1845703125,-4273.255859375,-7942.51708984375,-3379.18603515625,3200.3720703125,1653.8302001953125,-510.21575927734375,-1595.8150634765625,-2652.00927734375,3376.007080078125,-4342.39697265625,15106.201171875,-5384.28662109375,-0.0,-8382.0029296875,4889.96484375,-6256.8984375,-4646.7783203125,-1055.3995361328125,5253.95068359375,-7546.74267578125,743.0712280273438,-6023.248046875,-3760.65576171875,-2275.307861328125,6397.5654296875,15053.7490234375,-21657.943359375,-9164.810546875,-1287.4603271484375,1015.6631469726562,-9865.7607421875,-1803.2392578125,-3963.311767578125,-16144.9111328125,338.55438232421875,-1455.9427490234375,1641.9093017578125,-10994.275390625,-3275.871337890625,0.0,-1541.7734375,0.0,-3540.515869140625,-0.0,2243.518798828125
-14473.59765625,-15888.2138671875,-5525.74755859375,-1500.4476318359375,-1607.7359619140625,8331.9345703125,-5526.54248046875,-2857.843994140625,-1358.98583984375,5747.47705078125,-8038.68017578125,-13260.046875,-3513.4951171875,4839.10205078125,-231.26602172851562,-9585.2216796875,-877.38037109375,-53.2468147277832,2619.425537109375,12744.267578125,1914.501220703125,5776.08740234375,-1200.8348388671875,11587.9375,-3883.838623046875,-6622.47314453125,-4538.69482421875,-4284.3818359375,-7945.69677734375,-3367.264892578125,3193.219482421875,1641.9093017578125,-513.3946533203125,-1602.9676513671875,-2657.572509765625,3368.8544921875,-4348.7548828125,15100.638671875,-5427.20166015625,-0.0,-8379.6181640625,4887.5810546875,-6264.84521484375,-4656.31494140625,-1056.989013671875,5250.77197265625,-7540.384765625,746.2501220703125,-6029.60595703125,-3767.013671875,-2290.407958984375,6387.23388671875,15875.498046875,-21651.5859375,-9170.373046875,-1295.4075927734375,1001.3580322265625,-9885.62890625,-1802.4444580078125,-3967.28515625,-16155.2431640625,331.4018249511719,-1455.1480712890625,1646.6776123046875,-11010.96484375,-3284.61328125,0.0,-1542.5682373046875,0.0,-3550.052734375,-0.0,2230.80322265625
-14423.529296875,-15868.345703125,-5508.26416015625,-1476.605712890625,-1583.8941650390625,8357.365234375,-5503.49560546875,-2835.591552734375,-1335.14404296875,5771.31884765625,-8020.40087890625,-13215.5419921875,-3521.4423828125,4860.56005859375,-226.49765014648438,-9568.5322265625,-851.154296875,-29.404958724975586,2643.267333984375,12773.6728515625,1939.1378173828125,5799.92919921875,-1177.787841796875,11612.57421875,-3858.4072265625,-6597.8369140625,-4523.59521484375,-4258.95068359375,-7930.59619140625,-3352.165283203125,3218.65087890625,1670.51953125,-487.9633483886719,-1575.94677734375,-2633.730712890625,3392.6962890625,-4327.29736328125,15126.0693359375,-5390.64404296875,-0.0,-8359.75,4913.80712890625,-6242.59326171875,-4630.8837890625,-1035.5313720703125,5274.61376953125,-7553.1005859375,769.2973022460938,-6004.96923828125,-3740.78759765625,-2282.46044921875,6409.486328125,15406.6083984375,-21630.921875,-9156.0673828125,-1271.5657958984375,991.8212890625,-9876.091796875,-1786.5499267578125,-3946.622314453125,-16121.0693359375,355.2436828613281,-1430.511474609375,1657.8038330078125,-10989.5068359375,-3245.671630859375,0.0,-1517.136962890625,0.0,-3525.416015625,-0.0,2246.69775390625
-14426.7080078125,-15861.98828125,-5501.111328125,-1475.0162353515625,-1575.94677734375,8364.5185546875,-5495.54833984375,-2826.849609375,-1347.06494140625,5759.39794921875,-7999.73779296875,-13187.7255859375,-3505.5478515625,4846.2548828125,-206.6294403076172,-9547.8701171875,-839.2333984375,-21.457672119140625,2648.830322265625,12760.95703125,1949.46923828125,5810.2607421875,-1169.8404541015625,11621.31640625,-3846.486328125,-6601.810546875,-4512.46875,-4247.02978515625,-7919.470703125,-3370.444091796875,3228.982177734375,1683.235107421875,-476.837158203125,-1567.204833984375,-2625.783203125,3402.233154296875,-4320.939453125,15131.6328125,-5363.623046875,-0.0,-8351.0087890625,4919.3701171875,-6233.056640625,-4621.34716796875,-1033.94189453125,5276.203125,-7560.2529296875,768.5025634765625,-5997.81640625,-3732.84033203125,-2263.386962890625,6422.20166015625,14975.0712890625,-21630.921875,-9143.3525390625,-1281.897216796875,1010.1000366210938,-9865.7607421875,-1783.3709716796875,-3949.006591796875,-16099.611328125,363.19097900390625,-1429.7166748046875,1646.6776123046875,-10970.43359375,-3222.62451171875,0.0,-1523.4947509765625,0.0,-3529.3896484375,-0.0,2249.081787109375
-14421.1455078125,-15889.009765625,-5519.39013671875,-1481.3741455078125,-1587.072998046875,8353.392578125,-5509.853515625,-2844.333740234375,-1393.1593017578125,5725.22509765625,-8005.30126953125,-13210.7734375,-3501.57421875,4768.37158203125,-185.96649169921875,-9554.2265625,-851.9490356445312,-34.1733283996582,2633.730712890625,12702.94140625,1935.9588623046875,5799.92919921875,-1181.7613525390625,11607.806640625,-3863.175537109375,-6612.9365234375,-4513.263671875,-4257.36083984375,-7929.00732421875,-3373.622802734375,3217.856201171875,1672.1090087890625,-490.3475646972656,-1575.94677734375,-2637.7041015625,3389.517578125,-4334.44970703125,15115.73828125,-5389.84912109375,-0.0,-8365.3134765625,4910.6279296875,-6242.59326171875,-4635.65185546875,-1054.6048583984375,5251.56640625,-7562.63720703125,763.7341918945312,-6007.353515625,-3749.529541015625,-2245.1083984375,6406.30712890625,14057.9541015625,-21649.99609375,-9150.5048828125,-1295.4075927734375,1029.1734619140625,-9860.9921875,-1799.2655029296875,-3957.74853515625,-16109.943359375,351.2700500488281,-1459.1217041015625,1609.325439453125,-10986.328125,-3230.57177734375,0.0,-1519.5211181640625,0.0,-3529.3896484375,-0.0,2239.545166015625
-14413.9931640625,-15930.333984375,-5540.84765625,-1500.4476318359375,-1611.7095947265625,8325.5771484375,-5540.84765625,-2872.94384765625,-1435.27978515625,5685.48828125,-8026.75927734375,-13241.767578125,-3506.342529296875,4723.072265625,-232.85548400878906,-9601.1162109375,-878.9698486328125,-57.220458984375,2602.736328125,12649.6953125,1911.322265625,5773.703125,-1207.9874267578125,11579.990234375,-3894.170166015625,-6639.16259765625,-4537.900390625,-4285.97119140625,-7941.72265625,-3391.10693359375,3194.014404296875,1645.8829345703125,-514.984130859375,-1600.5833740234375,-2663.135498046875,3362.49658203125,-4365.4443359375,15087.921875,-5416.8701171875,-0.0,-8391.5400390625,4885.99169921875,-6268.8193359375,-4663.46728515625,-1091.162353515625,5219.77734375,-7579.32666015625,742.2764892578125,-6028.0166015625,-3781.318603515625,-2292.7919921875,6376.10791015625,13295.0146484375,-21678.60546875,-9166.400390625,-1309.7127685546875,1006.1264038085938,-9899.93359375,-1835.0283203125,-3994.30615234375,-16146.501953125,323.45452880859375,-1494.0897216796875,1570.3836669921875,-11005.4013671875,-3261.566162109375,0.0,-1529.8525390625,0.0,-3550.847412109375,-0.0,2211.729736328125
-14474.3916015625,-15939.87109375,-5540.84765625,-1509.1895751953125,-1623.6304931640625,8322.3984375,-5555.94775390625,-2879.3017578125,-1449.5849609375,5677.541015625,-8037.884765625,-13246.5361328125,-3519.05810546875,4723.86669921875,-290.075927734375,-9606.6787109375,-888.506591796875,-65.1677474975586,2592.404541015625,12640.953125,1902.580322265625,5764.96142578125,-1221.4979248046875,11573.6318359375,-3898.9384765625,-6628.83154296875,-4565.7158203125,-4289.9453125,-7944.10693359375,-3417.3330078125,3182.887939453125,1632.37255859375,-523.7261352539062,-1609.325439453125,-2674.26171875,3356.138916015625,-4381.33837890625,15079.1806640625,-5431.17529296875,-0.0,-8397.1025390625,4882.8125,-6285.5087890625,-4668.23583984375,-1108.6463623046875,5212.625,-7580.12158203125,732.73974609375,-6046.294921875,-3777.344970703125,-2349.2177734375,6368.955078125,12911.9560546875,-21700.064453125,-9169.578125,-1318.4547119140625,960.826904296875,-9921.3916015625,-1865.22802734375,-3993.51123046875,-16163.1904296875,313.1230773925781,-1506.0106201171875,1564.8206787109375,-11006.9912109375,-3275.871337890625,0.0,-1548.926025390625,0.0,-3565.947265625,-0.0,2201.398193359375
-14510.94921875,-15943.845703125,-5532.10595703125,-1494.0897216796875,-1614.09375,8336.703125,-5544.8212890625,-2866.5859375,-1424.9483642578125,5697.4091796875,-8038.68017578125,-13239.3837890625,-3526.210693359375,4757.24560546875,-274.9761047363281,-9586.0166015625,-884.532958984375,-56.42573165893555,2603.53076171875,12667.9736328125,1909.7327880859375,5774.498046875,-1212.755859375,11583.1689453125,-3877.480712890625,-6589.8896484375,-4558.5634765625,-4281.99755859375,-7952.05419921875,-3431.637939453125,3189.245849609375,1633.9620361328125,-517.3682861328125,-1601.3780517578125,-2665.519775390625,3364.086181640625,-4368.623046875,15089.51171875,-5427.20166015625,-0.0,-8382.796875,4902.6806640625,-6275.9716796875,-4661.0830078125,-1094.34130859375,5226.93017578125,-7559.45849609375,749.4290771484375,-6040.73193359375,-3778.139892578125,-2333.3232421875,6382.46533203125,12489.955078125,-21721.521484375,-9175.9365234375,-1327.19677734375,966.3899536132812,-9893.576171875,-1854.101806640625,-3991.921875,-16155.2431640625,322.6598205566406,-1489.3214111328125,1587.072998046875,-11028.44921875,-3269.513427734375,0.0,-1544.952392578125,0.0,-3554.821044921875,-0.0,2214.90869140625
-14427.5029296875,-15959.7392578125,-5520.9794921875,-1481.3741455078125,-1598.993896484375,8340.6767578125,-5525.74755859375,-2849.10205078125,-1400.311767578125,5719.66162109375,-8038.68017578125,-13236.205078125,-3508.726806640625,4785.85595703125,-243.98167419433594,-9557.40625,-871.8172607421875,-43.7100715637207,2620.22021484375,12691.8154296875,1920.8590087890625,5785.6240234375,-1196.861328125,11594.2958984375,-3868.73876953125,-6606.57861328125,-4537.900390625,-4267.6923828125,-7938.54443359375,-3419.717041015625,3200.3720703125,1646.6776123046875,-505.4473876953125,-1590.251953125,-2650.419921875,3374.41748046875,-4351.93408203125,15106.201171875,-5409.7177734375,-0.0,-8370.8759765625,4907.44921875,-6257.69287109375,-4648.3671875,-1072.883544921875,5246.00341796875,-7549.92138671875,762.939453125,-6022.453125,-3770.1923828125,-2302.328857421875,6403.1279296875,11308.9873046875,-21714.369140625,-9164.810546875,-1318.4547119140625,995.000244140625,-9884.0400390625,-1835.822998046875,-3980.79541015625,-16140.9375,335.3754577636719,-1470.2479248046875,1611.7095947265625,-10999.0439453125,-3258.38720703125,0.0,-1535.4156494140625,0.0,-3540.515869140625,-0.0,2232.392578125
-14438.62890625,-15945.4345703125,-5528.1318359375,-1506.0106201171875,-1605.351806640625,8333.5234375,-5528.9267578125,-2856.254638671875,-1407.46435546875,5716.482421875,-8046.626953125,-13245.7421875,-3499.98486328125,4781.8818359375,-236.03439331054688,-9560.5849609375,-874.2014770507812,-52.45208740234375,2615.451904296875,12691.0205078125,1915.2958984375,5779.2666015625,-1203.2191162109375,11588.732421875,-3878.275634765625,-6634.39404296875,-4541.0791015625,-4274.84521484375,-7936.95458984375,-3407.796142578125,3194.014404296875,1649.8565673828125,-508.62628173828125,-1592.6361083984375,-2656.777587890625,3364.086181640625,-4355.11279296875,15101.4326171875,-5414.48583984375,-0.0,-8376.439453125,4897.91259765625,-6260.0771484375,-4654.7255859375,-1076.0625,5240.4404296875,-7574.55810546875,734.3292236328125,-6028.81103515625,-3765.424072265625,-2293.586669921875,6394.38623046875,7795.49267578125,-21694.501953125,-9162.42578125,-1315.2757568359375,1004.5369873046875,-9916.623046875,-1836.6177978515625,-3976.82177734375,-16137.7578125,328.222900390625,-1473.4267578125,1616.47802734375,-10986.328125,-3269.513427734375,0.0,-1537.005126953125,0.0,-3539.72119140625,-0.0,2237.955810546875
-14447.37109375,-15896.955078125,-5524.953125,-1512.3685302734375,-1607.7359619140625,8341.4716796875,-5528.1318359375,-2854.6650390625,-1410.6431884765625,5708.53564453125,-8026.75927734375,-13254.4833984375,-3508.726806640625,4766.7822265625,-233.65020751953125,-9561.3798828125,-869.43310546875,-53.2468147277832,2615.451904296875,12686.2529296875,1921.65380859375,5783.23974609375,-1201.629638671875,11592.7060546875,-3879.864990234375,-6623.26806640625,-4540.28466796875,-4270.87158203125,-7940.92822265625,-3387.13330078125,3197.98779296875,1659.393310546875,-502.26849365234375,-1589.4571533203125,-2655.188232421875,3364.880859375,-4353.5234375,15101.4326171875,-5405.744140625,-0.0,-8375.64453125,4905.06494140625,-6259.28271484375,-4651.54638671875,-1075.267822265625,5239.6455078125,-7565.81640625,730.3555908203125,-6027.2216796875,-3755.092529296875,-2292.7919921875,6396.7705078125,1853.30712890625,-21677.017578125,-9166.400390625,-1302.5601806640625,995.000244140625,-9946.0283203125,-1819.928466796875,-3988.742919921875,-16131.4013671875,329.8123779296875,-1476.605712890625,1606.146484375,-10981.5595703125,-3264.7451171875,0.0,-1548.13134765625,0.0,-3553.2314453125,-0.0,2226.82958984375
-14448.9599609375,-15874.7041015625,-5528.1318359375,-1475.0162353515625,-1606.941162109375,8347.0341796875,-5528.1318359375,-2841.15478515625,-1401.9012451171875,5718.072265625,-8037.884765625,-13251.3046875,-3519.05810546875,4780.29248046875,-251.928955078125,-9564.55859375,-873.40673828125,-51.6573600769043,2620.22021484375,12700.5576171875,1922.448486328125,5784.03466796875,-1200.8348388671875,11599.8583984375,-3882.2490234375,-6616.91064453125,-4544.25830078125,-4262.92431640625,-7943.3125,-3360.9072265625,3197.98779296875,1651.446044921875,-505.4473876953125,-1592.6361083984375,-2655.98291015625,3365.67578125,-4351.93408203125,15109.3798828125,-5422.43359375,-0.0,-8378.029296875,4899.501953125,-6260.0771484375,-4642.009765625,-1073.6783447265625,5254.74560546875,-7576.1474609375,771.6814575195312,-6025.63232421875,-3747.1455078125,-2310.276123046875,6414.2548828125,-3821.05517578125,-21669.865234375,-9167.1943359375,-1294.6129150390625,979.1055908203125,-9977.0234375,-1828.6705322265625,-3985.563720703125,-16148.8857421875,331.4018249511719,-1469.4532470703125,1606.146484375,-10981.5595703125,-3269.513427734375,0.0,-1549.720703125,0.0,-3562.768310546875,-0.0,2226.034912109375
-14447.37109375,-15890.5986328125,-5520.18505859375,-1479.78466796875,-1599.7886962890625,8349.4189453125,-5520.9794921875,-2830.8232421875,-1390.7750244140625,5729.9931640625,-8032.32177734375,-13225.873046875,-3512.700439453125,4793.802734375,-243.18695068359375,-9564.55859375,-874.2014770507812,-47.6837158203125,2628.16748046875,12716.4521484375,1922.448486328125,5784.82958984375,-1196.0665283203125,11603.83203125,-3871.123046875,-6624.06298828125,-4535.51611328125,-4249.4140625,-7940.92822265625,-3376.007080078125,3197.98779296875,1650.6513671875,-504.6526794433594,-1591.84130859375,-2652.80419921875,3367.264892578125,-4347.16552734375,15118.1220703125,-5425.61181640625,-0.0,-8371.6708984375,4898.70703125,-6252.92431640625,-4634.857421875,-1064.936279296875,5265.87158203125,-7556.27978515625,765.3236083984375,-6014.505859375,-3742.376953125,-2301.533935546875,6423.79150390625,-8693.5361328125,-21680.197265625,-9164.015625,-1298.5865478515625,987.0529174804688,-10000.0693359375,-1830.2598876953125,-3956.95361328125,-16148.8857421875,336.9649353027344,-1461.505859375,1611.7095947265625,-10988.7119140625,-3253.618896484375,0.0,-1552.10498046875,0.0,-3555.61572265625,-0.0,2227.624267578125
-14464.060546875,-15938.2822265625,-5526.54248046875,-1508.3948974609375,-1612.50439453125,8327.9609375,-5535.28466796875,-2867.380859375,-1400.311767578125,5734.76171875,-8055.369140625,-13254.4833984375,-3516.674072265625,4788.23974609375,-249.54476928710938,-9596.34765625,-890.0960083007812,-65.1677474975586,2613.067626953125,12707.7099609375,1908.9381103515625,5766.55078125,-1210.37158203125,11582.375,-3875.891357421875,-6638.3681640625,-4545.05322265625,-4288.35546875,-7948.0810546875,-3417.3330078125,3179.709228515625,1635.551513671875,-518.957763671875,-1608.5306396484375,-2667.90380859375,3348.19140625,-4359.880859375,15096.6640625,-5442.30126953125,-0.0,-8382.0029296875,4882.017578125,-6265.64013671875,-4663.46728515625,-1076.857177734375,5238.85107421875,-7549.126953125,733.5344848632812,-6022.453125,-3778.139892578125,-2307.09716796875,6378.49169921875,-12209.4150390625,-21717.548828125,-9171.962890625,-1335.9388427734375,986.2581787109375,-10010.4013671875,-1843.7703857421875,-3974.437744140625,-16160.806640625,320.275634765625,-1477.400390625,1605.351806640625,-11014.9384765625,-3267.924072265625,0.0,-1545.7471923828125,0.0,-3541.310546875,-0.0,2222.06103515625
-14540.3544921875,-15959.7392578125,-5526.54248046875,-1503.62646484375,-1621.246337890625,8329.55078125,-5542.43701171875,-2868.97021484375,-1405.0802001953125,5725.22509765625,-8099.0791015625,-13271.9677734375,-3523.031982421875,4783.4716796875,-260.6709899902344,-9588.400390625,-892.480224609375,-65.96247100830078,2607.504638671875,12698.9677734375,1904.169677734375,5768.14013671875,-1216.7294921875,11579.990234375,-3887.812255859375,-6606.57861328125,-4555.38427734375,-4291.5341796875,-7955.2333984375,-3418.127685546875,3176.530029296875,1626.0146484375,-522.931396484375,-1608.5306396484375,-2672.67236328125,3348.19140625,-4365.4443359375,15093.4853515625,-5445.48046875,-0.0,-8385.181640625,4897.91259765625,-6274.38232421875,-4665.056640625,-1083.215087890625,5233.28759765625,-7571.37939453125,735.918701171875,-6041.52685546875,-3782.908203125,-2318.22314453125,6376.90234375,-12570.2216796875,-21719.13671875,-9180.705078125,-1339.912353515625,988.642333984375,-9984.17578125,-1844.5650634765625,-3979.2060546875,-16180.673828125,318.6861572265625,-1482.963623046875,1604.5570068359375,-11014.1435546875,-3275.07666015625,0.0,-1543.3629150390625,0.0,-3544.489501953125,-0.0,2223.650634765625
-14607.1123046875,-15950.998046875,-5518.59521484375,-1481.3741455078125,-1611.7095947265625,8343.060546875,-5536.07958984375,-2857.04931640625,-1404.285400390625,5715.68798828125,-8110.20556640625,-13248.9208984375,-3516.674072265625,4783.4716796875,-250.33950805664062,-9582.04296875,-881.35400390625,-58.01518630981445,2614.6572265625,12695.7890625,1912.9117431640625,5779.2666015625,-1207.1927490234375,11591.9111328125,-3880.659912109375,-6582.73681640625,-4552.20556640625,-4275.64013671875,-7955.2333984375,-3396.670166015625,3188.451171875,1641.1146240234375,-511.80523681640625,-1595.8150634765625,-2662.3408203125,3362.49658203125,-4358.29150390625,15100.638671875,-5426.40673828125,-0.0,-8376.439453125,4909.83349609375,-6267.2294921875,-4649.95703125,-1078.44677734375,5239.6455078125,-7580.916015625,762.1447143554688,-6035.96337890625,-3757.476806640625,-2307.09716796875,6391.20703125,-10147.888671875,-21702.447265625,-9179.115234375,-1316.8653564453125,990.2318725585938,-9939.6708984375,-1835.0283203125,-3973.642822265625,-16156.0380859375,326.6334533691406,-1477.400390625,1613.299072265625,-11010.169921875,-3269.513427734375,0.0,-1537.005126953125,0.0,-3540.515869140625,-0.0,2239.545166015625
-14537.1748046875,-15956.560546875,-5523.36376953125,-1498.0634765625,-1614.8885498046875,8331.1396484375,-5540.052734375,-2863.4072265625,-1406.669677734375,5729.1982421875,-8095.900390625,-13235.41015625,-3509.521484375,4774.7294921875,-243.18695068359375,-9597.9375,-888.506591796875,-66.7572021484375,2608.29931640625,12702.94140625,1907.3486328125,5768.9345703125,-1213.550537109375,11583.9638671875,-3882.2490234375,-6614.5263671875,-4550.61572265625,-4289.150390625,-7953.6435546875,-3418.92236328125,3182.09326171875,1633.167236328125,-517.3682861328125,-1606.146484375,-2666.314453125,3353.754638671875,-4362.26513671875,15095.07421875,-5439.12255859375,-0.0,-8383.591796875,4889.96484375,-6271.20361328125,-4660.28857421875,-1081.6256103515625,5241.2353515625,-7565.021484375,744.6607055664062,-6035.96337890625,-3763.039794921875,-2301.533935546875,6380.8759765625,-6578.763671875,-21718.34375,-9179.115234375,-1332.7598876953125,998.1790771484375,-9947.6171875,-1836.6177978515625,-3957.74853515625,-16149.6787109375,321.0703430175781,-1480.579345703125,1610.914794921875,-11005.4013671875,-3276.666015625,0.0,-1538.5946044921875,0.0,-3530.979248046875,-0.0,2250.67138671875
-14441.8076171875,-15949.4072265625,-5536.87451171875,-1504.4212646484375,-1613.299072265625,8327.1669921875,-5536.07958984375,-2853.07568359375,-1397.9276123046875,5762.5771484375,-8046.626953125,-13229.052734375,-3518.263671875,4779.49755859375,-253.5184326171875,-9578.068359375,-885.32763671875,-62.78356170654297,2614.6572265625,12725.9892578125,1908.1434326171875,5770.5244140625,-1209.576904296875,11587.142578125,-3887.017578125,-6643.93115234375,-4545.84765625,-4281.99755859375,-7944.9013671875,-3413.359375,3185.272216796875,1641.9093017578125,-516.5736083984375,-1606.146484375,-2663.93017578125,3356.93359375,-4360.67578125,15103.0224609375,-5427.99609375,-0.0,-8386.771484375,4882.8125,-6268.0244140625,-4657.10986328125,-1075.267822265625,5260.30859375,-7573.76318359375,741.4818115234375,-6028.81103515625,-3770.1923828125,-2310.276123046875,6392.796875,-3393.490966796875,-21706.421875,-9171.16796875,-1330.375732421875,984.668701171875,-9929.33984375,-1834.233642578125,-3939.4697265625,-16144.1171875,324.249267578125,-1466.2742919921875,1623.6304931640625,-11014.1435546875,-3272.6923828125,0.0,-1542.5682373046875,0.0,-3525.416015625,-0.0,2271.33447265625
-14410.0185546875,-15896.162109375,-5526.54248046875,-1498.0634765625,-1606.146484375,8336.703125,-5528.9267578125,-2842.744140625,-1389.9803466796875,5765.75634765625,-8003.7119140625,-13221.900390625,-3511.111083984375,4796.98193359375,-250.33950805664062,-9560.5849609375,-871.8172607421875,-50.86262893676758,2624.988525390625,12733.9365234375,1920.8590087890625,5784.03466796875,-1199.2454833984375,11598.26953125,-3883.0439453125,-6643.13671875,-4544.25830078125,-4266.10302734375,-7934.5703125,-3382.364990234375,3197.193115234375,1658.5985107421875,-503.85791015625,-1594.2255859375,-2655.98291015625,3368.8544921875,-4352.728515625,15112.5595703125,-5391.43896484375,-0.0,-8382.796875,4892.34912109375,-6262.46142578125,-4645.9833984375,-1067.3204345703125,5265.0771484375,-7554.68994140625,747.0448608398438,-6024.04248046875,-3759.861083984375,-2307.891845703125,6403.9228515625,-734.3292236328125,-21675.427734375,-9159.2470703125,-1302.5601806640625,983.0792846679688,-9905.4970703125,-1829.4652099609375,-3943.443359375,-16140.142578125,334.58074951171875,-1458.326904296875,1626.8094482421875,-11010.96484375,-3256.7978515625,0.0,-1534.620849609375,0.0,-3520.647705078125,-0.0,2260.2080078125
-14414.787109375,-15877.0888671875,-5524.15869140625,-1495.67919921875,-1602.1728515625,8345.4443359375,-5524.15869140625,-2844.333740234375,-1396.338134765625,5734.76171875,-8016.42724609375,-13218.720703125,-3502.368896484375,4795.392578125,-238.4185791015625,-9555.0224609375,-863.0752563476562,-42.91534423828125,2627.372802734375,12712.478515625,1927.2169189453125,5790.392578125,-1195.2718505859375,11603.83203125,-3871.917724609375,-6636.7783203125,-4540.28466796875,-4258.95068359375,-7936.95458984375,-3377.5966796875,3205.140380859375,1662.572265625,-496.7053527832031,-1588.6624755859375,-2649.625,3376.007080078125,-4347.9599609375,15113.353515625,-5401.77001953125,-0.0,-8376.439453125,4896.32275390625,-6258.48779296875,-4640.42041015625,-1067.3204345703125,5253.95068359375,-7560.2529296875,749.4290771484375,-6024.83740234375,-3749.529541015625,-2296.765625,6406.30712890625,1842.180908203125,-21669.865234375,-9162.42578125,-1287.4603271484375,996.5896606445312,-9898.3447265625,-1822.312744140625,-3964.90087890625,-16136.96484375,338.55438232421875,-1463.0953369140625,1607.7359619140625,-10989.5068359375,-3244.082275390625,0.0,-1527.4683837890625,0.0,-3532.568603515625,-0.0,2214.90869140625
-14468.0341796875,-15896.955078125,-5532.10595703125,-1490.1160888671875,-1604.5570068359375,8343.060546875,-5526.54248046875,-2857.04931640625,-1396.338134765625,5712.50927734375,-8042.6533203125,-13219.515625,-3498.395263671875,4796.98193359375,-236.03439331054688,-9566.943359375,-866.254150390625,-45.299530029296875,2621.809814453125,12700.5576171875,1924.8326416015625,5788.00830078125,-1198.45068359375,11596.6796875,-3879.864990234375,-6629.6259765625,-4541.0791015625,-4270.87158203125,-7932.98046875,-3374.41748046875,3205.140380859375,1655.419677734375,-501.4737243652344,-1590.251953125,-2652.80419921875,3374.41748046875,-4351.13916015625,15104.611328125,-5395.41259765625,-0.0,-8380.4130859375,4897.91259765625,-6260.8720703125,-4648.3671875,-1069.7047119140625,5238.05615234375,-7585.68408203125,754.9921875,-6035.1689453125,-3750.32421875,-2292.7919921875,6390.41259765625,4674.59326171875,-21669.865234375,-9157.6572265625,-1284.2813720703125,998.1790771484375,-9896.7548828125,-1817.5443115234375,-3983.974365234375,-16152.0634765625,336.1701965332031,-1471.0426025390625,1621.246337890625,-10972.8173828125,-3250.43994140625,0.0,-1539.3892822265625,0.0,-3553.2314453125,-0.0,2217.292724609375
-14475.9814453125,-15951.7919921875,-5520.9794921875,-1480.579345703125,-1594.2255859375,8355.7763671875,-5519.39013671875,-2842.744140625,-1384.417236328125,5738.7353515625,-8029.1435546875,-13216.3359375,-3492.03759765625,4803.33935546875,-220.1398162841797,-9555.0224609375,-861.4857788085938,-36.55751419067383,2632.14111328125,12723.60546875,1930.395751953125,5795.95556640625,-1188.9139404296875,11606.216796875,-3874.302001953125,-6616.11572265625,-4530.748046875,-4252.5927734375,-7932.18603515625,-3370.444091796875,3210.70361328125,1656.21435546875,-495.1159362792969,-1584.6888427734375,-2645.651611328125,3384.749267578125,-4341.6025390625,15117.328125,-5383.49169921875,-0.0,-8370.8759765625,4907.44921875,-6251.3349609375,-4635.65185546875,-1057.78369140625,5254.74560546875,-7571.37939453125,763.7341918945312,-6020.86376953125,-3732.84033203125,-2278.487060546875,6407.896484375,7861.455078125,-21669.865234375,-9154.4794921875,-1277.923583984375,1009.3053588867188,-9861.787109375,-1811.1864013671875,-3975.232666015625,-16167.958984375,345.7069396972656,-1456.737548828125,1639.5250244140625,-10995.0703125,-3245.671630859375,0.0,-1533.826171875,0.0,-3541.310546875,-0.0,2237.160888671875
-14439.423828125,-15962.9189453125,-5490.77978515625,-1480.579345703125,-1571.178466796875,8364.5185546875,-5505.0849609375,-2831.6181640625,-1378.8541259765625,5758.603515625,-7967.94873046875,-13223.4892578125,-3475.34814453125,4787.4453125,-192.32432556152344,-9570.916015625,-847.9754028320312,-27.815500259399414,2641.677734375,12736.3203125,1946.2904052734375,5803.9033203125,-1174.60888671875,11614.958984375,-3826.6181640625,-6608.16796875,-4509.2900390625,-4246.23486328125,-7918.67529296875,-3371.23876953125,3221.82958984375,1667.340576171875,-476.837158203125,-1576.7415771484375,-2631.346435546875,3393.490966796875,-4329.681640625,15126.8642578125,-5364.41796875,-0.0,-8343.85546875,4914.6015625,-6237.0302734375,-4627.70458984375,-1046.6575927734375,5269.845703125,-7523.6953125,764.5289306640625,-5993.84326171875,-3721.714111328125,-2250.67138671875,6418.22802734375,11591.1171875,-21667.48046875,-9140.173828125,-1281.1025390625,1033.147216796875,-9861.787109375,-1802.4444580078125,-3960.132568359375,-16155.2431640625,356.8331298828125,-1447.2008056640625,1616.47802734375,-10993.48046875,-3256.7978515625,0.0,-1514.752685546875,0.0,-3530.979248046875,-0.0,2222.855712890625
-14456.11328125,-15957.35546875,-5513.82666015625,-1502.831787109375,-1597.404541015625,8340.6767578125,-5532.900390625,-2863.4072265625,-1401.9012451171875,5701.38330078125,-8021.99072265625,-13249.71484375,-3495.21630859375,4781.08740234375,-237.6238555908203,-9592.3740234375,-867.8436279296875,-50.86262893676758,2613.067626953125,12697.37890625,1924.8326416015625,5783.23974609375,-1198.45068359375,11591.1171875,-3851.254638671875,-6624.06298828125,-4536.310546875,-4274.05029296875,-7943.3125,-3395.875244140625,3201.96142578125,1649.8565673828125,-498.2948303222656,-1595.8150634765625,-2652.80419921875,3372.033447265625,-4356.7021484375,15097.458984375,-5392.2333984375,-0.0,-8365.3134765625,4896.32275390625,-6261.6669921875,-4653.1357421875,-1074.4730224609375,5234.08251953125,-7529.2587890625,743.0712280273438,-6023.248046875,-3749.529541015625,-2296.765625,6386.43896484375,15654.5634765625,-21704.0390625,-9167.9892578125,-1309.7127685546875,1008.5106201171875,-9870.529296875,-1826.286376953125,-3985.563720703125,-16152.8583984375,334.58074951171875,-1477.400390625,1591.84130859375,-10995.0703125,-3278.25537109375,0.0,-1538.5946044921875,0.0,-3565.947265625,-0.0,2190.27197265625
-14455.318359375,-15935.1025390625,-5538.46337890625,-1512.3685302734375,-1621.246337890625,8318.423828125,-5552.7685546875,-2888.043701171875,-1422.564208984375,5658.4677734375,-8072.85302734375,-13271.1728515625,-3491.24267578125,4774.7294921875,-263.05517578125,-9608.2685546875,-886.1223754882812,-69.14138793945312,2592.404541015625,12659.232421875,1904.9644775390625,5764.16650390625,-1220.703125,11568.0693359375,-3890.9912109375,-6635.18896484375,-4560.15234375,-4301.0712890625,-7950.46533203125,-3397.46484375,3183.6826171875,1633.9620361328125,-521.3419799804688,-1611.7095947265625,-2672.67236328125,3356.93359375,-4376.5703125,15072.822265625,-5431.97021484375,-0.0,-8392.333984375,4882.8125,-6283.9189453125,-4678.5673828125,-1094.34130859375,5206.26708984375,-7546.74267578125,730.3555908203125,-6048.67919921875,-3782.908203125,-2320.607421875,6361.0078125,20289.421875,-21714.369140625,-9175.1416015625,-1323.22314453125,993.4107055664062,-9853.0458984375,-1834.233642578125,-4003.0478515625,-16167.958984375,312.3283386230469,-1501.2423095703125,1581.5098876953125,-11006.1962890625,-3290.970947265625,0.0,-1545.7471923828125,0.0,-3575.484130859375,-0.0,2184.708740234375
-14490.287109375,-15913.64453125,-5532.10595703125,-1511.57373046875,-1612.50439453125,8317.6298828125,-5545.6162109375,-2883.275390625,-1423.35888671875,5648.13623046875,-8050.60107421875,-13269.583984375,-3510.316162109375,4773.14013671875,-239.2133026123047,-9606.6787109375,-883.7382202148438,-65.1677474975586,2597.173095703125,12656.052734375,1908.9381103515625,5766.55078125,-1215.934814453125,11569.6591796875,-3885.42822265625,-6635.98388671875,-4547.43701171875,-4297.09765625,-7944.9013671875,-3405.411865234375,3186.86181640625,1641.1146240234375,-515.7788696289062,-1610.914794921875,-2667.90380859375,3357.728271484375,-4369.41748046875,15076.0009765625,-5408.9228515625,-0.0,-8385.9755859375,4885.19677734375,-6276.76611328125,-4676.9775390625,-1089.5728759765625,5207.8564453125,-7566.61083984375,730.3555908203125,-6037.55322265625,-3786.881591796875,-2295.970947265625,6368.16015625,23563.703125,-21696.88671875,-9168.7841796875,-1324.8125,990.2318725585938,-9853.0458984375,-1827.0810546875,-4014.174072265625,-16167.1640625,316.3019714355469,-1498.0634765625,1589.4571533203125,-10994.275390625,-3285.407958984375,0.0,-1544.952392578125,0.0,-3579.45751953125,-0.0,2192.65625
-14557.8388671875,-15912.0556640625,-5510.6484375,-1509.1895751953125,-1587.072998046875,8329.55078125,-5531.31103515625,-2872.149169921875,-1413.8221435546875,5659.26220703125,-8025.9638671875,-13248.1259765625,-3517.46875,4773.14013671875,-209.808349609375,-9586.0166015625,-870.227783203125,-51.6573600769043,2609.093994140625,12666.384765625,1924.8326416015625,5779.2666015625,-1200.0401611328125,11583.9638671875,-3850.4599609375,-6631.21533203125,-4522.00537109375,-4277.2294921875,-7932.98046875,-3428.459228515625,3197.98779296875,1656.21435546875,-500.67901611328125,-1598.993896484375,-2652.00927734375,3370.444091796875,-4355.11279296875,15088.7177734375,-5373.95458984375,-0.0,-8362.9296875,4896.32275390625,-6256.103515625,-4661.8779296875,-1077.6519775390625,5216.5986328125,-7557.07421875,730.3555908203125,-5999.40625,-3775.755615234375,-2267.360595703125,6382.46533203125,25808.015625,-21690.52734375,-9154.4794921875,-1318.4547119140625,1005.3316650390625,-9843.5087890625,-1813.5706787109375,-4024.505615234375,-16140.9375,329.01763916015625,-1487.73193359375,1599.7886962890625,-10987.91796875,-3270.308349609375,0.0,-1556.07861328125,0.0,-3581.841796875,-0.0,2205.371826171875
-14564.1962890625,-15908.0830078125,-5510.6484375,-1507.6002197265625,-1587.072998046875,8327.9609375,-5533.6953125,-2876.122802734375,-1405.0802001953125,5684.69384765625,-8028.34814453125,-13243.357421875,-3494.421630859375,4781.08740234375,-223.31874084472656,-9592.3740234375,-865.45947265625,-51.6573600769043,2608.29931640625,12677.5107421875,1926.422119140625,5779.2666015625,-1200.8348388671875,11582.375,-3846.486328125,-6632.009765625,-4524.3896484375,-4285.1767578125,-7931.3916015625,-3419.717041015625,3201.166748046875,1657.8038330078125,-497.5001220703125,-1593.430908203125,-2652.00927734375,3370.444091796875,-4357.49658203125,15087.1279296875,-5371.57080078125,-0.0,-8361.33984375,4897.11767578125,-6256.8984375,-4665.8515625,-1076.0625,5218.98291015625,-7549.126953125,735.918701171875,-6000.99560546875,-3780.52392578125,-2282.46044921875,6375.31298828125,27893.384765625,-21697.6796875,-9155.2734375,-1316.070556640625,1023.6104736328125,-9838.740234375,-1810.3917236328125,-4010.200439453125,-16139.3486328125,325.8387145996094,-1482.963623046875,1606.941162109375,-10988.7119140625,-3271.10302734375,0.0,-1554.4891357421875,0.0,-3565.947265625,-0.0,2218.88232421875
-14441.013671875,-15915.2353515625,-5512.2373046875,-1505.2159423828125,-1598.19921875,8327.1669921875,-5534.490234375,-2867.380859375,-1401.1064453125,5687.078125,-8021.1953125,-13250.509765625,-3513.4951171875,4790.6240234375,-230.47129821777344,-9574.095703125,-867.0488891601562,-54.04154586791992,2609.093994140625,12684.6630859375,1924.0379638671875,5776.88232421875,-1204.80859375,11583.9638671875,-3867.944091796875,-6632.009765625,-4532.33740234375,-4285.97119140625,-7944.10693359375,-3409.3857421875,3199.577392578125,1653.0355224609375,-498.2948303222656,-1595.020263671875,-2656.777587890625,3367.264892578125,-4360.67578125,15089.51171875,-5394.61767578125,-0.0,-8371.6708984375,4893.9384765625,-6264.05078125,-4666.646484375,-1079.241455078125,5226.93017578125,-7553.1005859375,738.3028564453125,-6020.86376953125,-3775.755615234375,-2287.228759765625,6385.64453125,29273.828125,-21701.654296875,-9166.400390625,-1328.7862548828125,1018.8421020507812,-9833.1767578125,-1813.5706787109375,-4005.43212890625,-16163.984375,323.45452880859375,-1479.78466796875,1608.5306396484375,-10994.275390625,-3271.8974609375,0.0,-1557.6680908203125,0.0,-3572.304931640625,-0.0,2217.292724609375
-14455.318359375,-15918.4130859375,-5526.54248046875,-1513.1632080078125,-1608.5306396484375,8316.0400390625,-5541.642578125,-2880.89111328125,-1407.46435546875,5684.69384765625,-8028.34814453125,-13263.2255859375,-3534.157958984375,4781.8818359375,-236.82911682128906,-9610.6533203125,-878.9698486328125,-64.37301635742188,2601.94140625,12678.3056640625,1915.2958984375,5766.55078125,-1212.755859375,11572.04296875,-3879.0703125,-6639.95751953125,-4542.6689453125,-4303.45556640625,-7971.9228515625,-3415.74365234375,3189.245849609375,1643.498779296875,-510.21575927734375,-1604.5570068359375,-2667.109130859375,3356.93359375,-4367.828125,15078.3857421875,-5414.48583984375,-0.0,-8383.591796875,4881.22314453125,-6271.998046875,-4679.36181640625,-1084.8045654296875,5216.5986328125,-7575.35302734375,731.1503295898438,-6032.78515625,-3794.8291015625,-2293.586669921875,6362.59716796875,29921.53125,-21711.19140625,-9194.21484375,-1360.5753173828125,989.4371337890625,-9856.2236328125,-1814.3653564453125,-3990.33203125,-16178.2890625,313.91778564453125,-1486.9371337890625,1601.3780517578125,-11014.9384765625,-3281.434326171875,0.0,-1546.5418701171875,0.0,-3565.15234375,-0.0,2212.5244140625
-14480.75,-15921.5927734375,-5532.10595703125,-1503.62646484375,-1606.941162109375,8322.3984375,-5540.84765625,-2880.89111328125,-1398.7222900390625,5702.97265625,-8037.884765625,-13256.8671875,-3519.852783203125,4800.955078125,-247.16058349609375,-9612.2431640625,-876.5856323242188,-61.19409942626953,2606.709716796875,12691.8154296875,1915.2958984375,5769.7294921875,-1210.37158203125,11574.427734375,-3878.275634765625,-6623.26806640625,-4546.64208984375,-4301.8662109375,-7970.3330078125,-3426.074951171875,3190.835205078125,1648.26708984375,-512.5999755859375,-1602.9676513671875,-2662.3408203125,3360.112548828125,-4364.6494140625,15082.359375,-5394.61767578125,-0.0,-8384.38671875,4888.3759765625,-6271.998046875,-4676.18310546875,-1079.241455078125,5222.16162109375,-7568.9951171875,740.6870727539062,-6032.78515625,-3790.060791015625,-2306.30224609375,6357.0341796875,29726.029296875,-21711.984375,-9194.21484375,-1355.8070068359375,975.9266967773438,-9859.40234375,-1819.1337890625,-3983.974365234375,-16167.1640625,315.50726318359375,-1480.579345703125,1618.8621826171875,-11019.70703125,-3278.25537109375,0.0,-1540.978759765625,0.0,-3548.463134765625,-0.0,2226.82958984375
-14449.755859375,-15927.9501953125,-5526.54248046875,-1485.3477783203125,-1600.5833740234375,8343.060546875,-5529.7216796875,-2862.612548828125,-1389.9803466796875,5710.125,-8039.474609375,-13249.71484375,-3514.289794921875,4812.08203125,-232.85548400878906,-9578.8642578125,-867.8436279296875,-49.27317428588867,2619.425537109375,12707.7099609375,1920.8590087890625,5782.4453125,-1198.45068359375,11589.52734375,-3873.50732421875,-6581.1474609375,-4536.310546875,-4276.4345703125,-7947.28564453125,-3430.048583984375,3199.577392578125,1656.21435546875,-505.4473876953125,-1591.84130859375,-2652.00927734375,3376.007080078125,-4353.5234375,15100.638671875,-5383.49169921875,-0.0,-8372.4658203125,4910.6279296875,-6262.46142578125,-4656.31494140625,-1068.9100341796875,5236.466796875,-7538.00048828125,758.1710815429688,-6027.2216796875,-3782.908203125,-2292.7919921875,6382.46533203125,29741.921875,-21706.421875,-9170.373046875,-1344.6807861328125,999.7686157226562,-9854.634765625,-1814.3653564453125,-3980.79541015625,-16148.8857421875,327.4281921386719,-1467.8636474609375,1628.39892578125,-11014.1435546875,-3271.8974609375,0.0,-1549.720703125,0.0,-3557.999755859375,-0.0,2228.4189453125
-14445.78125,-15944.6396484375,-5514.62158203125,-1478.1951904296875,-1592.6361083984375,8344.650390625,-5517.80078125,-2853.870361328125,-1385.2119140625,5710.125,-8032.32177734375,-13251.3046875,-3517.46875,4800.955078125,-221.72927856445312,-9578.8642578125,-860.6910400390625,-40.531158447265625,2626.578125,12709.2998046875,1928.0115966796875,5789.59814453125,-1190.50341796875,11599.0634765625,-3875.891357421875,-6590.6845703125,-4525.1845703125,-4274.84521484375,-7942.51708984375,-3415.74365234375,3209.114013671875,1661.7774658203125,-495.91064453125,-1581.5098876953125,-2644.856689453125,3383.954345703125,-4340.8076171875,15110.9697265625,-5404.94921875,-0.0,-8366.90234375,4916.19091796875,-6252.1298828125,-4648.3671875,-1056.1943359375,5244.4140625,-7567.40576171875,764.5289306640625,-6018.47998046875,-3763.834716796875,-2279.28173828125,6390.41259765625,29623.5078125,-21693.70703125,-9164.015625,-1336.7335205078125,1000.5632934570312,-9837.9453125,-1776.2183837890625,-3970.464111328125,-16145.7060546875,337.7596435546875,-1459.91650390625,1626.8094482421875,-10994.275390625,-3262.36083984375,0.0,-1540.978759765625,0.0,-3554.0263671875,-0.0,2233.982177734375
-14468.8291015625,-15989.9384765625,-5541.642578125,-1501.2423095703125,-1614.09375,8322.3984375,-5540.84765625,-2870.5595703125,-1395.54345703125,5702.97265625,-8036.2958984375,-13265.609375,-3538.92626953125,4796.18701171875,-262.26043701171875,-9601.91015625,-880.5592651367188,-60.39937210083008,2607.504638671875,12691.8154296875,1907.3486328125,5768.14013671875,-1212.755859375,11579.1962890625,-3898.143798828125,-6647.10986328125,-4553.794921875,-4293.91845703125,-7952.849609375,-3398.259521484375,3189.245849609375,1643.498779296875,-514.1893920898438,-1603.7623291015625,-2667.90380859375,3360.112548828125,-4363.85498046875,15091.1015625,-5427.20166015625,-0.0,-8393.1279296875,4885.99169921875,-6274.38232421875,-4666.646484375,-1078.44677734375,5230.90380859375,-7596.01611328125,743.0712280273438,-6039.142578125,-3767.80810546875,-2319.01806640625,6372.1337890625,26400.884765625,-21701.654296875,-9175.1416015625,-1315.2757568359375,966.3899536132812,-9892.78125,-1827.0810546875,-3987.153564453125,-16165.5751953125,318.6861572265625,-1476.605712890625,1614.8885498046875,-11000.6328125,-3282.229248046875,0.0,-1551.3101806640625,0.0,-3561.9736328125,-0.0,2222.06103515625
-14463.265625,-15923.181640625,-5541.642578125,-1509.984375,-1613.299072265625,8320.80859375,-5546.4111328125,-2874.533447265625,-1396.338134765625,5708.53564453125,-8036.2958984375,-13252.0986328125,-3534.952880859375,4800.955078125,-270.2077331542969,-9593.9638671875,-884.532958984375,-61.98883056640625,2604.325439453125,12695.7890625,1907.3486328125,5762.5771484375,-1214.3453369140625,11575.2216796875,-3884.63330078125,-6657.44140625,-4554.58984375,-4294.71337890625,-7947.28564453125,-3395.08056640625,3186.06689453125,1642.7039794921875,-515.7788696289062,-1610.1201171875,-2667.109130859375,3352.9599609375,-4369.41748046875,15087.1279296875,-5437.53271484375,-0.0,-8391.5400390625,4876.45458984375,-6276.76611328125,-4668.23583984375,-1084.8045654296875,5222.9560546875,-7580.12158203125,735.918701171875,-6032.78515625,-3770.9873046875,-2327.760009765625,6365.77587890625,19793.509765625,-21698.474609375,-9170.373046875,-1309.7127685546875,964.800537109375,-9942.0546875,-1854.101806640625,-3995.8955078125,-16175.9052734375,316.3019714355469,-1479.78466796875,1618.8621826171875,-10995.865234375,-3285.407958984375,0.0,-1563.2310791015625,0.0,-3560.384033203125,-0.0,2225.239990234375
-14481.544921875,-15872.3203125,-5542.43701171875,-1515.54736328125,-1608.5306396484375,8319.21875,-5540.84765625,-2872.149169921875,-1400.311767578125,5706.1513671875,-8034.7060546875,-13246.5361328125,-3517.46875,4789.8291015625,-255.10787963867188,-9583.6328125,-886.9171142578125,-63.578285217285156,2605.9150390625,12693.4052734375,1908.1434326171875,5762.5771484375,-1210.37158203125,11578.400390625,-3875.0966796875,-6664.59423828125,-4543.46337890625,-4288.35546875,-7935.36474609375,-3401.4384765625,3183.6826171875,1638.7303466796875,-517.3682861328125,-1614.09375,-2664.72509765625,3350.57568359375,-4363.85498046875,15090.306640625,-5423.22802734375,-0.0,-8386.771484375,4868.50732421875,-6268.0244140625,-4665.8515625,-1080.8309326171875,5224.5458984375,-7581.7109375,730.3555908203125,-6024.04248046875,-3772.57666015625,-2311.865478515625,6372.1337890625,12802.283203125,-21699.26953125,-9160.8359375,-1305.739013671875,984.668701171875,-9949.20703125,-1838.207275390625,-3996.690185546875,-16178.2890625,314.7125244140625,-1481.3741455078125,1610.1201171875,-10980.765625,-3283.818603515625,0.0,-1564.02587890625,0.0,-3569.9208984375,-0.0,2217.292724609375
-14487.107421875,-15878.677734375,-5544.02685546875,-1517.136962890625,-1615.6832275390625,8318.423828125,-5541.642578125,-2876.91748046875,-1406.669677734375,5701.38330078125,-8041.064453125,-13252.89453125,-3512.700439453125,4778.703125,-249.54476928710938,-9611.447265625,-891.6854858398438,-68.3466567993164,2602.736328125,12688.63671875,1904.169677734375,5760.19287109375,-1215.934814453125,11576.8115234375,-3885.42822265625,-6654.2626953125,-4548.2314453125,-4297.09765625,-7948.87548828125,-3394.285888671875,3178.914306640625,1636.34619140625,-522.13671875,-1614.8885498046875,-2667.90380859375,3345.807373046875,-4364.6494140625,15087.1279296875,-5423.22802734375,-0.0,-8390.744140625,4873.27587890625,-6271.20361328125,-4671.4150390625,-1084.009765625,5222.16162109375,-7582.505859375,729.5608520507812,-6031.990234375,-3774.960693359375,-2307.09716796875,6365.77587890625,6944.33837890625,-21699.26953125,-9172.7568359375,-1307.32861328125,987.0529174804688,-9971.458984375,-1832.6441650390625,-3999.868896484375,-16175.111328125,309.94415283203125,-1486.1424560546875,1603.7623291015625,-11010.96484375,-3292.560546875,0.0,-1560.846923828125,0.0,-3567.53662109375,-0.0,2210.934814453125
-14458.4970703125,-15900.134765625,-5547.20556640625,-1522.699951171875,-1621.246337890625,8320.80859375,-5543.23193359375,-2876.91748046875,-1409.0538330078125,5696.61474609375,-8060.93212890625,-13256.0732421875,-3482.500732421875,4773.14013671875,-243.18695068359375,-9607.474609375,-895.6591186523438,-70.73084259033203,2601.146728515625,12690.2265625,1902.580322265625,5758.603515625,-1219.9083251953125,11575.2216796875,-3888.60693359375,-6655.0576171875,-4553.794921875,-4292.3291015625,-7943.3125,-3407.796142578125,3174.14599609375,1635.551513671875,-525.3156127929688,-1616.47802734375,-2671.877685546875,3341.833740234375,-4367.828125,15086.3330078125,-5442.30126953125,-0.0,-8393.1279296875,4873.27587890625,-6275.9716796875,-4670.6201171875,-1085.5992431640625,5222.16162109375,-7589.658203125,721.6135864257812,-6043.9111328125,-3770.9873046875,-2302.328857421875,6368.16015625,3084.341796875,-21696.88671875,-9166.400390625,-1312.8916015625,998.973876953125,-9977.8173828125,-1837.4124755859375,-4005.43212890625,-16174.31640625,308.3547058105469,-1487.73193359375,1601.3780517578125,-11024.474609375,-3286.99755859375,0.0,-1569.5889892578125,0.0,-3574.689208984375,-0.0,2206.96142578125
-14478.3662109375,-15910.466796875,-5547.20556640625,-1537.005126953125,-1622.0411376953125,8318.423828125,-5546.4111328125,-2881.68603515625,-1419.38525390625,5679.13037109375,-8069.67431640625,-13288.6572265625,-3466.606201171875,4753.271484375,-228.8818359375,-9611.447265625,-898.8380126953125,-77.08867645263672,2595.583740234375,12677.5107421875,1898.606689453125,5755.42431640625,-1222.2926025390625,11570.4541015625,-3894.170166015625,-6646.31494140625,-4549.0263671875,-4296.302734375,-7932.18603515625,-3403.82275390625,3168.5830078125,1630.7830810546875,-527.6997680664062,-1618.0673828125,-2676.64599609375,3337.860107421875,-4371.00732421875,15079.9755859375,-5445.48046875,-0.0,-8395.5126953125,4877.2490234375,-6276.76611328125,-4674.59326171875,-1089.5728759765625,5213.41943359375,-7593.6318359375,704.9242553710938,-6043.1162109375,-3785.29248046875,-2290.407958984375,6365.77587890625,836.0545043945312,-21698.474609375,-9157.6572265625,-1318.4547119140625,1022.815673828125,-9977.0234375,-1844.5650634765625,-4016.55810546875,-16179.0849609375,304.38104248046875,-1496.473876953125,1576.7415771484375,-10998.2490234375,-3299.713134765625,0.0,-1591.84130859375,0.0,-3600.12060546875,-0.0,2184.708740234375
-14512.5390625,-15927.15625,-5568.6630859375,-1548.926025390625,-1635.551513671875,8307.2978515625,-5563.10009765625,-2903.1435546875,-1426.537841796875,5677.541015625,-8083.9794921875,-13301.3720703125,-3532.568603515625,4759.6298828125,-267.02880859375,-9632.1103515625,-913.1431884765625,-89.00960540771484,2578.894287109375,12668.7685546875,1882.7120361328125,5741.119140625,-1236.59765625,11555.3544921875,-3906.8857421875,-6651.87841796875,-4565.7158203125,-4317.76025390625,-7955.2333984375,-3409.3857421875,3156.662109375,1614.09375,-542.7996215820312,-1632.37255859375,-2690.951171875,3327.52880859375,-4386.10693359375,15064.080078125,-5446.275390625,-0.0,-8411.4072265625,4870.0966796875,-6293.45556640625,-4691.28271484375,-1103.8780517578125,5201.49853515625,-7606.34765625,695.3875122070312,-6049.47412109375,-3788.47119140625,-2323.786376953125,6342.72900390625,216.1661834716797,-21708.806640625,-9179.115234375,-1324.017822265625,980.6951293945312,-9988.1484375,-1853.30712890625,-4025.300537109375,-16194.978515625,289.2812194824219,-1508.3948974609375,1573.5626220703125,-11023.6806640625,-3315.607666015625,0.0,-1595.020263671875,0.0,-3596.941650390625,-0.0,2183.9140625
-14502.2080078125,-15940.666015625,-5564.689453125,-1539.3892822265625,-1631.577880859375,8292.1982421875,-5563.10009765625,-2900.759521484375,-1417.0010986328125,5686.283203125,-8056.9580078125,-13271.1728515625,-3548.463134765625,4773.93505859375,-274.9761047363281,-9622.57421875,-915.52734375,-89.80432891845703,2581.278564453125,12679.89453125,1883.5068359375,5736.35107421875,-1235.802978515625,11551.3798828125,-3895.759521484375,-6690.025390625,-4566.5107421875,-4318.55517578125,-7967.154296875,-3465.0166015625,3153.483154296875,1608.5306396484375,-544.3890991210938,-1639.5250244140625,-2690.15625,3321.965576171875,-4385.3125,15066.46484375,-5451.837890625,-0.0,-8409.0234375,4843.076171875,-6291.8662109375,-4695.2568359375,-1099.9044189453125,5205.47265625,-7593.6318359375,704.9242553710938,-6041.52685546875,-3810.7236328125,-2331.733642578125,6346.70263671875,1254.081787109375,-21736.62109375,-9191.0361328125,-1365.34375,962.4163208007812,-9971.458984375,-1843.7703857421875,-4020.5322265625,-16204.515625,289.2812194824219,-1502.831787109375,1586.2783203125,-11045.9326171875,-3308.455322265625,0.0,-1584.6888427734375,0.0,-3594.5576171875,-0.0,2190.27197265625
-14485.5185546875,-15943.05078125,-5554.35791015625,-1535.4156494140625,-1626.8094482421875,8295.376953125,-5558.33203125,-2904.73291015625,-1405.8748779296875,5694.23046875,-8033.1162109375,-13260.046875,-3539.72119140625,4780.29248046875,-267.82354736328125,-9629.7265625,-909.1694946289062,-86.62541961669922,2586.841552734375,12690.2265625,1888.275146484375,5744.29833984375,-1230.2398681640625,11556.1484375,-3890.9912109375,-6680.48876953125,-4563.33154296875,-4318.55517578125,-7969.53857421875,-3448.327392578125,3161.430419921875,1617.272705078125,-538.03125,-1632.37255859375,-2684.59326171875,3327.52880859375,-4379.74951171875,15067.259765625,-5447.86474609375,-0.0,-8401.87109375,4851.0234375,-6287.09814453125,-4692.87255859375,-1092.7518310546875,5202.29345703125,-7583.30029296875,709.692626953125,-6036.75830078125,-3809.928955078125,-2325.375732421875,6341.93408203125,3176.530029296875,-21724.701171875,-9193.419921875,-1365.34375,960.826904296875,-9963.5126953125,-1835.0283203125,-4017.35302734375,-16199.7470703125,294.84429931640625,-1495.67919921875,1591.046630859375,-11030.0380859375,-3303.686767578125,0.0,-1582.3045654296875,0.0,-3589.7890625,-0.0,2192.65625
-14472.8017578125,-15939.0771484375,-5548.79541015625,-1525.0841064453125,-1622.0411376953125,8309.681640625,-5548.00048828125,-2892.017333984375,-1396.338134765625,5705.3564453125,-8036.2958984375,-13263.2255859375,-3519.852783203125,4796.18701171875,-257.4920654296875,-9614.626953125,-895.6591186523438,-74.7044906616211,2599.55712890625,12700.5576171875,1896.222412109375,5756.21923828125,-1220.703125,11566.4794921875,-3894.96484375,-6659.82568359375,-4554.58984375,-4307.4287109375,-7951.259765625,-3426.074951171875,3175.7353515625,1632.37255859375,-528.4945068359375,-1618.0673828125,-2674.26171875,3339.44970703125,-4369.41748046875,15079.1806640625,-5436.73828125,-0.0,-8397.896484375,4867.71240234375,-6278.35595703125,-4680.15673828125,-1083.215087890625,5215.8037109375,-7583.30029296875,720.0241088867188,-6036.75830078125,-3793.239501953125,-2315.04443359375,6355.4443359375,4386.10693359375,-21707.216796875,-9175.1416015625,-1347.06494140625,980.6951293945312,-9959.5380859375,-1827.875732421875,-3992.71630859375,-16182.2646484375,305.97052001953125,-1483.75830078125,1600.5833740234375,-10995.865234375,-3298.12353515625,0.0,-1564.8206787109375,0.0,-3573.89453125,-0.0,2204.5771484375
-14466.4453125,-15920.796875,-5532.10595703125,-1513.1632080078125,-1603.7623291015625,8326.37109375,-5533.6953125,-2878.5068359375,-1397.9276123046875,5712.50927734375,-8021.1953125,-13248.9208984375,-3496.010986328125,4788.23974609375,-238.4185791015625,-9599.5263671875,-878.1751098632812,-58.80991744995117,2611.47802734375,12701.3525390625,1915.2958984375,5770.5244140625,-1207.1927490234375,11580.78515625,-3879.0703125,-6647.90478515625,-4536.310546875,-4292.3291015625,-7934.5703125,-3417.3330078125,3190.04052734375,1650.6513671875,-511.0104675292969,-1601.3780517578125,-2658.3671875,3354.54931640625,-4356.7021484375,15091.1015625,-5413.69091796875,-0.0,-8381.20703125,4880.42822265625,-6261.6669921875,-4666.646484375,-1073.6783447265625,5228.51953125,-7568.20068359375,729.5608520507812,-6019.2744140625,-3778.139892578125,-2297.560546875,6368.16015625,5212.625,-21692.912109375,-9159.2470703125,-1330.375732421875,999.7686157226562,-9945.2333984375,-1820.72314453125,-3979.2060546875,-16158.4228515625,320.275634765625,-1475.81103515625,1610.914794921875,-10987.1220703125,-3278.25537109375,0.0,-1551.3101806640625,0.0,-3557.205078125,-0.0,2223.650634765625
-14435.4501953125,-15896.955078125,-5497.9326171875,-1495.67919921875,-1580.7152099609375,8344.650390625,-5520.9794921875,-2861.817626953125,-1390.7750244140625,5725.22509765625,-7955.2333984375,-13233.8212890625,-3499.98486328125,4793.802734375,-225.7029266357422,-9578.068359375,-856.7174072265625,-39.73643112182617,2624.19384765625,12709.2998046875,1938.343017578125,5789.59814453125,-1190.50341796875,11598.26953125,-3835.3603515625,-6630.4208984375,-4524.3896484375,-4272.4609375,-7932.18603515625,-3402.233154296875,3209.90869140625,1672.1090087890625,-484.7844543457031,-1580.7152099609375,-2638.4990234375,3372.828125,-4344.78125,15106.201171875,-5382.69677734375,-0.0,-8350.212890625,4898.70703125,-6245.77197265625,-4648.3671875,-1063.346923828125,5243.61962890625,-7527.66943359375,747.839599609375,-6001.79052734375,-3760.65576171875,-2284.050048828125,6388.8232421875,6488.16455078125,-21680.197265625,-9156.0673828125,-1320.044189453125,1002.9474487304688,-9915.8291015625,-1810.3917236328125,-3973.642822265625,-16136.169921875,337.7596435546875,-1464.684814453125,1624.42529296875,-10987.91796875,-3258.38720703125,0.0,-1537.7998046875,0.0,-3544.489501953125,-0.0,2243.518798828125
-14447.37109375,-15892.1875,-5486.01171875,-1478.989990234375,-1564.8206787109375,8357.365234375,-5509.853515625,-2849.896728515625,-1391.5697021484375,5726.814453125,-7975.1015625,-13223.4892578125,-3496.805908203125,4791.41845703125,-207.42416381835938,-9559.791015625,-849.5648803710938,-28.6102294921875,2634.525390625,12709.2998046875,1951.8533935546875,5799.92919921875,-1178.58251953125,11610.1904296875,-3798.008056640625,-6613.7314453125,-4509.2900390625,-4258.15576171875,-7939.3388671875,-3385.5439453125,3221.034912109375,1676.0826416015625,-475.2477111816406,-1573.5626220703125,-2625.783203125,3387.13330078125,-4333.65478515625,15115.73828125,-5381.90234375,-0.0,-8329.55078125,4914.6015625,-6234.64599609375,-4637.2412109375,-1053.015380859375,5252.361328125,-7519.72216796875,763.7341918945312,-5986.6904296875,-3746.3505859375,-2264.9765625,6403.9228515625,7746.2197265625,-21667.48046875,-9164.015625,-1309.7127685546875,1014.868408203125,-9888.80859375,-1804.033935546875,-3969.66943359375,-16142.5263671875,347.29638671875,-1457.5322265625,1624.42529296875,-11026.859375,-3253.618896484375,0.0,-1534.620849609375,0.0,-3541.310546875,-0.0,2243.518798828125
-14466.4453125,-15904.1083984375,-5505.8798828125,-1480.579345703125,-1571.97314453125,8355.7763671875,-5513.82666015625,-2847.512451171875,-1391.5697021484375,5722.0458984375,-8041.85888671875,-13229.8466796875,-3493.626953125,4788.23974609375,-212.19253540039062,-9554.2265625,-858.306884765625,-34.1733283996582,2631.346435546875,12708.5048828125,1943.9061279296875,5794.3662109375,-1183.3509521484375,11607.0107421875,-3830.591796875,-6615.32080078125,-4512.46875,-4258.95068359375,-7940.13330078125,-3393.490966796875,3213.087890625,1664.16162109375,-487.16864013671875,-1581.5098876953125,-2633.730712890625,3381.570068359375,-4336.833984375,15114.1484375,-5400.9755859375,-0.0,-8339.087890625,4912.2177734375,-6239.4140625,-4637.2412109375,-1055.3995361328125,5251.56640625,-7554.68994140625,760.5552978515625,-5993.84326171875,-3746.3505859375,-2270.53955078125,6405.51220703125,8412.2021484375,-21675.427734375,-9164.810546875,-1299.3812255859375,1018.8421020507812,-9892.78125,-1804.82861328125,-3979.2060546875,-16156.0380859375,342.52801513671875,-1460.711181640625,1619.6568603515625,-10981.5595703125,-3256.003173828125,0.0,-1540.978759765625,0.0,-3549.258056640625,-0.0,2236.3662109375
-14475.9814453125,-15917.6201171875,-5501.111328125,-1484.552978515625,-1578.3310546875,8351.802734375,-5519.39013671875,-2849.10205078125,-1387.59619140625,5722.0458984375,-8055.369140625,-13231.4365234375,-3489.6533203125,4802.544921875,-228.0871124267578,-9555.81640625,-863.0752563476562,-40.531158447265625,2626.578125,12711.6845703125,1938.343017578125,5789.59814453125,-1189.708740234375,11602.2421875,-3840.128662109375,-6622.47314453125,-4525.1845703125,-4256.56640625,-7941.72265625,-3390.312255859375,3208.3193359375,1658.5985107421875,-491.14227294921875,-1585.4835205078125,-2639.293701171875,3378.391357421875,-4341.6025390625,15111.763671875,-5396.20751953125,-0.0,-8339.8818359375,4909.83349609375,-6247.36181640625,-4639.62548828125,-1056.989013671875,5249.97705078125,-7546.74267578125,757.3763427734375,-6002.5849609375,-3746.3505859375,-2286.43408203125,6405.51220703125,9456.4755859375,-21672.248046875,-9166.400390625,-1294.6129150390625,1006.921142578125,-9884.833984375,-1808.80224609375,-3986.358642578125,-16156.83203125,337.7596435546875,-1461.505859375,1621.246337890625,-10986.328125,-3256.7978515625,0.0,-1554.4891357421875,0.0,-3556.41064453125,-0.0,2234.77685546875
-14510.94921875,-15929.541015625,-5513.82666015625,-1501.2423095703125,-1593.430908203125,8340.6767578125,-5523.36376953125,-2861.817626953125,-1390.7750244140625,5724.43017578125,-8043.4482421875,-13249.71484375,-3507.13720703125,4796.18701171875,-217.75563049316406,-9567.7373046875,-876.5856323242188,-51.6573600769043,2618.630615234375,12710.888671875,1921.65380859375,5776.88232421875,-1201.629638671875,11592.7060546875,-3859.996826171875,-6629.6259765625,-4531.54248046875,-4270.07666015625,-7942.51708984375,-3395.08056640625,3197.193115234375,1646.6776123046875,-505.4473876953125,-1596.6097412109375,-2651.214599609375,3368.8544921875,-4347.16552734375,15102.2275390625,-5400.1806640625,-0.0,-8364.5185546875,4898.70703125,-6256.103515625,-4653.1357421875,-1060.962646484375,5239.6455078125,-7535.6162109375,739.892333984375,-6011.3271484375,-3758.271484375,-2276.8974609375,6389.6181640625,12358.8251953125,-21688.142578125,-9166.400390625,-1302.5601806640625,1004.5369873046875,-9875.2978515625,-1800.85498046875,-3978.4111328125,-16170.34375,326.6334533691406,-1467.0689697265625,1618.0673828125,-11026.064453125,-3269.513427734375,0.0,-1550.5155029296875,0.0,-3547.66845703125,-0.0,2236.3662109375
-14498.2333984375,-15931.1298828125,-5528.9267578125,-1497.2686767578125,-1606.941162109375,8340.6767578125,-5532.10595703125,-2865.791259765625,-1394.7486572265625,5714.8935546875,-8049.01123046875,-13273.556640625,-3515.08447265625,4786.650390625,-238.4185791015625,-9578.068359375,-882.1487426757812,-56.42573165893555,2613.8623046875,12703.736328125,1909.7327880859375,5774.498046875,-1207.1927490234375,11588.732421875,-3874.302001953125,-6616.11572265625,-4543.46337890625,-4269.28173828125,-7952.849609375,-3380.775390625,3191.630126953125,1641.9093017578125,-514.984130859375,-1599.7886962890625,-2660.75146484375,3368.8544921875,-4355.11279296875,15096.6640625,-5403.35986328125,-0.0,-8386.771484375,4901.8857421875,-6267.2294921875,-4654.7255859375,-1067.3204345703125,5234.876953125,-7529.2587890625,744.6607055664062,-6028.81103515625,-3755.88720703125,-2299.149658203125,6383.26025390625,15234.15234375,-21700.859375,-9176.7314453125,-1304.149658203125,991.8212890625,-9872.119140625,-1808.80224609375,-3978.4111328125,-16179.8798828125,321.8650817871094,-1471.0426025390625,1607.7359619140625,-11029.2431640625,-3283.02392578125,0.0,-1567.204833984375,0.0,-3559.58935546875,-0.0,2222.06103515625
-14514.12890625,-15946.2294921875,-5540.052734375,-1479.78466796875,-1616.47802734375,8352.59765625,-5532.900390625,-2857.843994140625,-1389.9803466796875,5713.30419921875,-8073.6474609375,-13276.736328125,-3494.421630859375,4797.77685546875,-243.98167419433594,-9580.453125,-880.5592651367188,-54.04154586791992,2617.041259765625,12706.1201171875,1905.7591552734375,5780.85546875,-1207.1927490234375,11594.2958984375,-3905.29638671875,-6591.47900390625,-4548.2314453125,-4266.10302734375,-7952.849609375,-3360.9072265625,3192.4248046875,1642.7039794921875,-516.5736083984375,-1595.8150634765625,-2663.93017578125,3376.007080078125,-4356.7021484375,15103.0224609375,-5427.20166015625,-0.0,-8399.486328125,4916.98583984375,-6271.998046875,-4645.9833984375,-1068.9100341796875,5242.82470703125,-7589.658203125,762.1447143554688,-6043.1162109375,-3743.171630859375,-2302.328857421875,6395.18115234375,17176.470703125,-21691.322265625,-9177.525390625,-1293.0234375,998.1790771484375,-9868.14453125,-1819.928466796875,-3984.769287109375,-16186.2373046875,324.249267578125,-1467.8636474609375,1610.1201171875,-10998.2490234375,-3280.6396484375,0.0,-1557.6680908203125,0.0,-3565.15234375,-0.0,2219.677001953125
-14526.84375,-15935.8974609375,-5539.25830078125,-1500.4476318359375,-1610.914794921875,8346.240234375,-5525.74755859375,-2856.254638671875,-1378.8541259765625,5729.1982421875,-8054.57421875,-13213.9521484375,-3483.29541015625,4813.6708984375,-231.26602172851562,-9583.6328125,-875.7908935546875,-50.86262893676758,2620.22021484375,12722.8095703125,1908.9381103515625,5780.06103515625,-1203.2191162109375,11594.2958984375,-3898.143798828125,-6614.5263671875,-4542.6689453125,-4270.87158203125,-7947.28564453125,-3415.74365234375,3194.80908203125,1648.26708984375,-512.5999755859375,-1595.8150634765625,-2659.956787109375,3376.007080078125,-4349.5498046875,15105.4072265625,-5404.154296875,-0.0,-8395.5126953125,4906.654296875,-6267.2294921875,-4648.3671875,-1064.1416015625,5249.18212890625,-7600.7841796875,740.6870727539062,-6042.32177734375,-3757.476806640625,-2288.818359375,6390.41259765625,18536.25,-21688.142578125,-9172.7568359375,-1310.5074462890625,1007.7158203125,-9876.8876953125,-1815.954833984375,-3961.721923828125,-16175.9052734375,328.222900390625,-1460.711181640625,1629.98828125,-10989.5068359375,-3256.003173828125,0.0,-1523.4947509765625,0.0,-3536.542236328125,-0.0,2237.955810546875
-14503.796875,-15939.87109375,-5533.6953125,-1524.2894287109375,-1603.7623291015625,8331.1396484375,-5524.15869140625,-2863.4072265625,-1382.032958984375,5732.37744140625,-8061.7265625,-13216.3359375,-3505.5478515625,4809.69775390625,-218.5503692626953,-9588.400390625,-880.5592651367188,-55.63100051879883,2620.22021484375,12722.8095703125,1910.527587890625,5772.90869140625,-1201.629638671875,11588.732421875,-3891.785888671875,-6644.7255859375,-4532.33740234375,-4278.0244140625,-7932.98046875,-3441.1748046875,3190.835205078125,1646.6776123046875,-514.1893920898438,-1602.9676513671875,-2659.161865234375,3368.8544921875,-4347.16552734375,15101.4326171875,-5407.33349609375,-0.0,-8389.1552734375,4886.7861328125,-6260.8720703125,-4657.904296875,-1061.7574462890625,5246.7978515625,-7569.7900390625,719.2293701171875,-6027.2216796875,-3778.9345703125,-2277.692138671875,6380.8759765625,19809.404296875,-21708.806640625,-9158.4521484375,-1331.17041015625,1006.1264038085938,-9868.939453125,-1804.82861328125,-3959.337646484375,-16176.7001953125,324.249267578125,-1461.505859375,1635.551513671875,-10987.91796875,-3259.9765625,0.0,-1517.931640625,0.0,-3524.621337890625,-0.0,2248.287109375
-14471.212890625,-15925.5654296875,-5514.62158203125,-1503.62646484375,-1585.4835205078125,8347.0341796875,-5510.6484375,-2851.486328125,-1386.0067138671875,5735.55615234375,-8045.037109375,-13226.66796875,-3516.674072265625,4793.802734375,-194.70851135253906,-9566.943359375,-867.8436279296875,-40.531158447265625,2629.7568359375,12720.42578125,1928.8062744140625,5786.4189453125,-1188.9139404296875,11600.6533203125,-3864.76513671875,-6616.11572265625,-4516.44287109375,-4266.8974609375,-7929.8017578125,-3413.359375,3203.551025390625,1658.5985107421875,-499.8843078613281,-1588.6624755859375,-2644.856689453125,3383.15966796875,-4336.0390625,15114.943359375,-5398.59130859375,-0.0,-8368.4921875,4905.859375,-6246.56689453125,-4645.9833984375,-1053.015380859375,5256.3349609375,-7548.33203125,739.892333984375,-6005.76416015625,-3759.06640625,-2254.64501953125,6394.38623046875,20665.326171875,-21701.654296875,-9152.0947265625,-1309.7127685546875,1010.1000366210938,-9844.302734375,-1785.755126953125,-3950.595947265625,-16167.958984375,336.1701965332031,-1455.1480712890625,1635.551513671875,-10975.201171875,-3256.003173828125,0.0,-1521.110595703125,0.0,-3526.210693359375,-0.0,2252.260986328125
-14469.6240234375,-15918.4130859375,-5524.15869140625,-1503.62646484375,-1596.6097412109375,8339.8818359375,-5527.33740234375,-2856.254638671875,-1389.9803466796875,5726.01953125,-8035.50048828125,-13250.509765625,-3509.521484375,4796.18701171875,-230.47129821777344,-9572.505859375,-877.38037109375,-52.45208740234375,2618.630615234375,12712.478515625,1917.68017578125,5776.08740234375,-1201.629638671875,11593.5009765625,-3867.1494140625,-6620.8837890625,-4534.72119140625,-4270.07666015625,-7943.3125,-3415.74365234375,3194.014404296875,1650.6513671875,-509.4210510253906,-1598.993896484375,-2656.777587890625,3372.828125,-4349.5498046875,15106.201171875,-5403.35986328125,-0.0,-8377.234375,4900.296875,-6258.48779296875,-4649.95703125,-1065.7310791015625,5247.5927734375,-7546.74267578125,740.6870727539062,-6020.86376953125,-3761.450439453125,-2287.228759765625,6392.001953125,19954.83984375,-21713.576171875,-9165.6044921875,-1312.096923828125,995.794921875,-9867.3505859375,-1815.16015625,-3960.927490234375,-16172.7275390625,324.249267578125,-1463.89013671875,1629.98828125,-10998.2490234375,-3272.6923828125,0.0,-1529.057861328125,0.0,-3538.1318359375,-0.0,2242.72412109375
-14507.7705078125,-15914.4404296875,-5524.953125,-1485.3477783203125,-1602.1728515625,8343.060546875,-5530.51611328125,-2857.04931640625,-1384.417236328125,5725.22509765625,-8037.09033203125,-13279.1201171875,-3501.57421875,4805.7236328125,-244.77639770507812,-9574.890625,-878.1751098632812,-51.6573600769043,2618.630615234375,12718.041015625,1916.8853759765625,5777.67724609375,-1203.2191162109375,11592.7060546875,-3875.891357421875,-6616.11572265625,-4539.48974609375,-4273.255859375,-7947.28564453125,-3401.4384765625,3193.219482421875,1649.8565673828125,-510.21575927734375,-1596.6097412109375,-2656.777587890625,3369.649169921875,-4353.5234375,15105.4072265625,-5406.53857421875,-0.0,-8378.029296875,4905.06494140625,-6262.46142578125,-4648.3671875,-1067.3204345703125,5247.5927734375,-7545.1533203125,758.1710815429688,-6025.63232421875,-3755.88720703125,-2303.12353515625,6392.796875,18319.2890625,-21715.1640625,-9171.962890625,-1308.123291015625,998.973876953125,-9876.091796875,-1831.0546875,-3971.258544921875,-16165.5751953125,325.04400634765625,-1462.3006591796875,1630.7830810546875,-11010.96484375,-3283.02392578125,0.0,-1537.005126953125,0.0,-3546.873779296875,-0.0,2238.75048828125
-14550.685546875,-15935.8974609375,-5516.2109375,-1482.1688232421875,-1594.2255859375,8346.240234375,-5524.15869140625,-2857.04931640625,-1381.23828125,5732.37744140625,-8030.73193359375,-13271.9677734375,-3511.111083984375,4809.69775390625,-251.928955078125,-9578.068359375,-872.6119995117188,-45.299530029296875,2622.6044921875,12722.015625,1923.2431640625,5782.4453125,-1197.656005859375,11595.8857421875,-3871.123046875,-6612.9365234375,-4533.1318359375,-4271.666015625,-7948.87548828125,-3391.901611328125,3199.577392578125,1650.6513671875,-501.4737243652344,-1593.430908203125,-2652.00927734375,3373.622802734375,-4347.9599609375,15109.3798828125,-5416.0751953125,-0.0,-8373.2607421875,4908.24365234375,-6256.8984375,-4646.7783203125,-1060.962646484375,5249.97705078125,-7551.51123046875,761.3499755859375,-6012.12158203125,-3759.06640625,-2309.4814453125,6391.20703125,16072.591796875,-21704.83203125,-9172.7568359375,-1314.4810791015625,983.0792846679688,-9886.423828125,-1821.5179443359375,-3958.543212890625,-16172.7275390625,331.4018249511719,-1459.91650390625,1635.551513671875,-10995.865234375,-3285.407958984375,0.0,-1533.031494140625,0.0,-3538.1318359375,-0.0,2243.518798828125
-14506.9765625,-15962.9189453125,-5525.74755859375,-1499.65283203125,-1601.3780517578125,8337.498046875,-5528.9267578125,-2861.02294921875,-1385.2119140625,5733.171875,-8018.81103515625,-13247.3310546875,-3518.263671875,4806.5185546875,-245.57113647460938,-9580.453125,-878.1751098632812,-54.04154586791992,2619.425537109375,12719.630859375,1916.8853759765625,5776.08740234375,-1202.4244384765625,11590.3212890625,-3875.0966796875,-6640.75244140625,-4536.310546875,-4272.4609375,-7956.822265625,-3401.4384765625,3191.630126953125,1649.061767578125,-507.036865234375,-1600.5833740234375,-2655.98291015625,3360.9072265625,-4351.13916015625,15106.201171875,-5427.20166015625,-0.0,-8378.029296875,4893.14404296875,-6261.6669921875,-4653.1357421875,-1061.7574462890625,5246.7978515625,-7574.55810546875,746.2501220703125,-6020.86376953125,-3765.424072265625,-2303.12353515625,6390.41259765625,11593.5009765625,-21708.01171875,-9179.115234375,-1329.5809326171875,982.2845458984375,-9921.3916015625,-1815.16015625,-3962.516845703125,-16183.853515625,325.04400634765625,-1463.89013671875,1633.9620361328125,-11012.5537109375,-3275.07666015625,0.0,-1533.031494140625,0.0,-3536.542236328125,-0.0,2241.134765625
-14483.1337890625,-15949.4072265625,-5544.8212890625,-1511.57373046875,-1618.8621826171875,8326.37109375,-5539.25830078125,-2864.99658203125,-1397.1328125,5711.71435546875,-8024.375,-13259.251953125,-3529.3896484375,4789.8291015625,-247.16058349609375,-9584.4267578125,-889.30126953125,-67.55193328857422,2610.683349609375,12709.2998046875,1902.580322265625,5764.16650390625,-1215.934814453125,11580.78515625,-3896.55419921875,-6656.646484375,-4553.794921875,-4279.61328125,-7950.46533203125,-3421.306640625,3178.914306640625,1642.7039794921875,-520.5472412109375,-1610.1201171875,-2668.698486328125,3347.39697265625,-4362.26513671875,15097.458984375,-5436.73828125,-0.0,-8396.3076171875,4879.63330078125,-6275.1767578125,-4660.28857421875,-1072.0888671875,5245.208984375,-7587.27392578125,735.1239624023438,-6046.294921875,-3773.371337890625,-2305.507568359375,6385.64453125,5728.40380859375,-21717.548828125,-9174.3466796875,-1347.06494140625,979.1055908203125,-9973.048828125,-1819.928466796875,-3970.464111328125,-16178.2890625,311.5335998535156,-1473.4267578125,1614.09375,-11012.5537109375,-3274.28173828125,0.0,-1554.4891357421875,0.0,-3562.768310546875,-0.0,2217.292724609375
-14466.4453125,-15922.3876953125,-5549.58984375,-1490.910888671875,-1617.272705078125,8340.6767578125,-5535.28466796875,-2861.02294921875,-1397.1328125,5709.330078125,-8037.09033203125,-13264.8154296875,-3524.621337890625,4788.23974609375,-245.57113647460938,-9563.763671875,-886.9171142578125,-67.55193328857422,2611.47802734375,12709.2998046875,1904.9644775390625,5769.7294921875,-1212.755859375,11586.3486328125,-3901.322509765625,-6618.5,-4550.61572265625,-4269.28173828125,-7945.69677734375,-3382.364990234375,3181.298583984375,1646.6776123046875,-519.7525024414062,-1603.7623291015625,-2668.698486328125,3351.37060546875,-4358.29150390625,15100.638671875,-5436.73828125,-0.0,-8397.1025390625,4897.91259765625,-6271.998046875,-4653.9306640625,-1072.0888671875,5244.4140625,-7597.60546875,754.1974487304688,-6037.55322265625,-3765.424072265625,-2302.328857421875,6393.59130859375,-589.6885986328125,-21696.08984375,-9170.373046875,-1320.044189453125,984.668701171875,-9987.3544921875,-1825.4915771484375,-3972.848388671875,-16168.7529296875,315.50726318359375,-1474.2215576171875,1614.09375,-10990.3017578125,-3281.434326171875,0.0,-1559.257568359375,0.0,-3561.9736328125,-0.0,2217.292724609375
-14472.8017578125,-15924.7724609375,-5548.79541015625,-1500.4476318359375,-1616.47802734375,8337.498046875,-5533.6953125,-2864.99658203125,-1397.9276123046875,5724.43017578125,-8040.26904296875,-13243.357421875,-3517.46875,4789.8291015625,-239.2133026123047,-9579.658203125,-890.0960083007812,-66.7572021484375,2613.067626953125,12710.0947265625,1904.169677734375,5768.14013671875,-1210.37158203125,11586.3486328125,-3898.143798828125,-6624.857421875,-4545.84765625,-4275.64013671875,-7945.69677734375,-3403.02783203125,3178.914306640625,1640.31982421875,-521.3419799804688,-1606.146484375,-2668.698486328125,3348.19140625,-4356.7021484375,15099.048828125,-5461.375,-0.0,-8395.5126953125,4894.7333984375,-6267.2294921875,-4656.31494140625,-1071.294189453125,5238.05615234375,-7603.16845703125,743.0712280273438,-6031.1953125,-3761.450439453125,-2295.17626953125,6384.849609375,-5762.5771484375,-21695.294921875,-9168.7841796875,-1327.991455078125,991.0265502929688,-9988.1484375,-1823.902099609375,-3996.690185546875,-16182.2646484375,315.50726318359375,-1473.4267578125,1619.6568603515625,-10988.7119140625,-3277.460693359375,0.0,-1556.873291015625,0.0,-3557.205078125,-0.0,2230.00830078125
-14495.849609375,-15922.3876953125,-5548.79541015625,-1513.1632080078125,-1609.325439453125,8338.2919921875,-5526.54248046875,-2860.228271484375,-1394.7486572265625,5723.63525390625,-8028.34814453125,-13227.462890625,-3513.4951171875,4792.21337890625,-232.0607452392578,-9582.8369140625,-890.8907470703125,-61.19409942626953,2619.425537109375,12714.86328125,1906.5538330078125,5770.5244140625,-1202.4244384765625,11590.3212890625,-3882.2490234375,-6631.21533203125,-4536.310546875,-4273.255859375,-7942.51708984375,-3437.995849609375,3182.887939453125,1638.7303466796875,-520.5472412109375,-1606.146484375,-2663.135498046875,3350.57568359375,-4349.5498046875,15105.4072265625,-5429.5859375,-0.0,-8387.5654296875,4892.34912109375,-6260.0771484375,-4652.34130859375,-1064.936279296875,5246.7978515625,-7583.30029296875,729.5608520507812,-6020.86376953125,-3762.2451171875,-2288.023681640625,6389.6181640625,-8962.94921875,-21719.931640625,-9166.400390625,-1324.8125,1000.5632934570312,-9973.84375,-1810.3917236328125,-3984.769287109375,-16186.2373046875,322.6598205566406,-1470.2479248046875,1618.8621826171875,-10995.865234375,-3252.823974609375,0.0,-1564.02587890625,0.0,-3559.58935546875,-0.0,2225.239990234375
-14489.4912109375,-15903.314453125,-5524.15869140625,-1490.1160888671875,-1587.86767578125,8354.1875,-5512.2373046875,-2846.7177734375,-1378.8541259765625,5740.32470703125,-7994.1748046875,-13219.515625,-3488.063720703125,4803.33935546875,-219.3450927734375,-9571.7119140625,-873.40673828125,-43.7100715637207,2636.909423828125,12733.9365234375,1928.8062744140625,5788.80322265625,-1184.1456298828125,11606.216796875,-3854.433837890625,-6621.6787109375,-4516.44287109375,-4262.12939453125,-7919.470703125,-3404.6171875,3201.96142578125,1656.21435546875,-500.67901611328125,-1589.4571533203125,-2644.06201171875,3367.264892578125,-4335.24462890625,15118.9169921875,-5401.77001953125,-0.0,-8363.7236328125,4907.44921875,-6243.3876953125,-4638.83056640625,-1053.015380859375,5262.69287109375,-7557.07421875,752.6079711914062,-6000.20068359375,-3746.3505859375,-2276.8974609375,6395.9755859375,-10751.087890625,-21707.216796875,-9145.736328125,-1293.818115234375,1025.99462890625,-9967.486328125,-1813.5706787109375,-3950.595947265625,-16172.7275390625,340.9385681152344,-1453.55859375,1631.577880859375,-10995.0703125,-3251.23486328125,0.0,-1533.826171875,0.0,-3532.568603515625,-0.0,2240.340087890625
-14510.94921875,-15912.8515625,-5523.36376953125,-1490.1160888671875,-1591.84130859375,8349.4189453125,-5509.853515625,-2839.565185546875,-1375.6751708984375,5736.35107421875,-8023.57958984375,-13235.41015625,-3484.090087890625,4806.5185546875,-206.6294403076172,-9563.763671875,-875.7908935546875,-45.299530029296875,2640.08837890625,12740.294921875,1925.6273193359375,5786.4189453125,-1185.735107421875,11605.421875,-3867.1494140625,-6630.4208984375,-4514.85302734375,-4261.3349609375,-7922.6494140625,-3391.10693359375,3197.193115234375,1649.061767578125,-503.0632019042969,-1590.251953125,-2646.4462890625,3367.264892578125,-4332.0654296875,15122.890625,-5432.7646484375,-0.0,-8371.6708984375,4904.27001953125,-6241.00341796875,-4638.83056640625,-1049.041748046875,5265.87158203125,-7559.45849609375,751.813232421875,-6003.3798828125,-3754.2978515625,-2265.771240234375,6403.9228515625,-11519.591796875,-21692.1171875,-9147.326171875,-1301.765380859375,1037.120849609375,-9959.5380859375,-1809.5970458984375,-3949.801025390625,-16177.49609375,340.1438293457031,-1449.5849609375,1631.577880859375,-10994.275390625,-3265.539794921875,0.0,-1517.931640625,0.0,-3537.337158203125,-0.0,2233.982177734375
-14530.0224609375,-15921.5927734375,-5542.43701171875,-1490.910888671875,-1606.941162109375,8346.240234375,-5520.9794921875,-2851.486328125,-1384.417236328125,5721.2509765625,-8070.46875,-13248.9208984375,-3507.13720703125,4796.18701171875,-230.47129821777344,-9562.1748046875,-882.1487426757812,-53.2468147277832,2628.962158203125,12725.1943359375,1912.9117431640625,5779.2666015625,-1196.861328125,11597.4736328125,-3883.838623046875,-6619.29443359375,-4533.92626953125,-4269.28173828125,-7936.95458984375,-3383.15966796875,3190.04052734375,1643.498779296875,-518.1630249023438,-1598.19921875,-2657.572509765625,3361.701904296875,-4343.19140625,15112.5595703125,-5417.6650390625,-0.0,-8388.3603515625,4903.47509765625,-6255.30859375,-4645.9833984375,-1058.5784912109375,5251.56640625,-7574.55810546875,751.0185546875,-6020.86376953125,-3757.476806640625,-2288.023681640625,6395.9755859375,-10008.8115234375,-21684.96484375,-9163.220703125,-1302.5601806640625,1000.5632934570312,-9964.306640625,-1805.6234130859375,-3966.490234375,-16179.8798828125,332.1965637207031,-1462.3006591796875,1618.0673828125,-10999.8388671875,-3271.10302734375,0.0,-1540.978759765625,0.0,-3550.052734375,-0.0,2222.06103515625
-14562.6064453125,-15920.00390625,-5540.84765625,-1509.1895751953125,-1610.1201171875,8337.498046875,-5524.953125,-2860.228271484375,-1383.62255859375,5733.171875,-8099.87353515625,-13248.1259765625,-3518.263671875,4800.16064453125,-235.2396697998047,-9583.6328125,-888.506591796875,-56.42573165893555,2624.988525390625,12721.220703125,1910.527587890625,5772.90869140625,-1200.8348388671875,11591.9111328125,-3879.0703125,-6639.16259765625,-4542.6689453125,-4270.07666015625,-7944.9013671875,-3410.97509765625,3184.4775390625,1634.7567138671875,-521.3419799804688,-1607.7359619140625,-2662.3408203125,3357.728271484375,-4347.9599609375,15108.5849609375,-5432.7646484375,-0.0,-8388.3603515625,4889.96484375,-6263.255859375,-4651.54638671875,-1060.962646484375,5245.208984375,-7580.916015625,735.1239624023438,-6029.60595703125,-3759.861083984375,-2292.7919921875,6387.23388671875,-7431.50732421875,-21695.294921875,-9170.373046875,-1309.7127685546875,983.0792846679688,-9953.9755859375,-1808.80224609375,-3978.4111328125,-16197.36328125,329.8123779296875,-1464.684814453125,1621.246337890625,-10996.6591796875,-3275.07666015625,0.0,-1544.952392578125,0.0,-3545.2841796875,-0.0,2233.1875
-14482.3388671875,-15918.4130859375,-5531.31103515625,-1506.805419921875,-1599.7886962890625,8343.85546875,-5517.80078125,-2851.486328125,-1375.6751708984375,5741.9140625,-8064.90625,-13222.6943359375,-3512.700439453125,4817.64453125,-228.0871124267578,-9574.890625,-882.1487426757812,-50.86262893676758,2631.346435546875,12729.9619140625,1919.26953125,5780.06103515625,-1194.47705078125,11598.26953125,-3863.175537109375,-6632.8046875,-4537.10546875,-4266.10302734375,-7946.4912109375,-3418.127685546875,3190.04052734375,1641.9093017578125,-513.3946533203125,-1601.3780517578125,-2652.80419921875,3364.880859375,-4342.39697265625,15116.5322265625,-5431.97021484375,-0.0,-8376.439453125,4894.7333984375,-6256.8984375,-4645.18896484375,-1053.81005859375,5257.1298828125,-7576.9423828125,735.918701171875,-6023.248046875,-3756.68212890625,-2286.43408203125,6396.7705078125,-4889.17041015625,-21692.1171875,-9169.578125,-1308.91796875,987.0529174804688,-9926.16015625,-1812.7760009765625,-3961.721923828125,-16185.4423828125,338.55438232421875,-1454.353271484375,1637.9356689453125,-10982.3544921875,-3263.950439453125,0.0,-1528.2630615234375,0.0,-3534.157958984375,-0.0,2241.92919921875
-14460.880859375,-15931.9248046875,-5535.28466796875,-1497.2686767578125,-1602.1728515625,8340.6767578125,-5517.80078125,-2853.07568359375,-1373.291015625,5741.9140625,-8019.6064453125,-13233.8212890625,-3516.674072265625,4818.439453125,-213.78199768066406,-9567.7373046875,-882.1487426757812,-54.04154586791992,2629.7568359375,12734.73046875,1916.8853759765625,5779.2666015625,-1196.861328125,11596.6796875,-3878.275634765625,-6625.65234375,-4533.1318359375,-4274.84521484375,-7951.259765625,-3406.206787109375,3188.451171875,1641.1146240234375,-516.5736083984375,-1602.1728515625,-2655.98291015625,3364.086181640625,-4340.8076171875,15114.1484375,-5431.97021484375,-0.0,-8382.796875,4897.91259765625,-6254.51416015625,-4649.162109375,-1052.220703125,5255.54052734375,-7583.30029296875,745.4554443359375,-6018.47998046875,-3763.039794921875,-2272.923828125,6393.59130859375,-3104.2099609375,-21702.447265625,-9175.9365234375,-1310.5074462890625,998.1790771484375,-9921.3916015625,-1805.6234130859375,-3963.311767578125,-16180.673828125,336.9649353027344,-1456.737548828125,1640.31982421875,-10993.48046875,-3265.539794921875,0.0,-1529.8525390625,0.0,-3534.157958984375,-0.0,2243.518798828125
-14481.544921875,-15951.7919921875,-5535.28466796875,-1501.2423095703125,-1605.351806640625,8337.498046875,-5520.18505859375,-2852.28076171875,-1370.112060546875,5741.119140625,-8001.32763671875,-13248.9208984375,-3510.316162109375,4821.61865234375,-228.8818359375,-9567.7373046875,-886.9171142578125,-58.01518630981445,2628.16748046875,12737.115234375,1910.527587890625,5772.90869140625,-1201.629638671875,11594.2958984375,-3900.52783203125,-6636.7783203125,-4533.92626953125,-4270.87158203125,-7958.412109375,-3407.00146484375,3185.272216796875,1633.9620361328125,-519.7525024414062,-1606.941162109375,-2659.956787109375,3360.112548828125,-4343.986328125,15112.5595703125,-5435.14892578125,-0.0,-8385.181640625,4889.96484375,-6256.8984375,-4649.162109375,-1053.81005859375,5255.54052734375,-7577.7373046875,743.0712280273438,-6022.453125,-3763.834716796875,-2287.228759765625,6397.5654296875,-1139.640869140625,-21719.13671875,-9181.4990234375,-1321.6336669921875,993.4107055664062,-9913.4443359375,-1797.676025390625,-3975.232666015625,-16190.2099609375,337.7596435546875,-1457.5322265625,1632.37255859375,-11005.4013671875,-3271.10302734375,0.0,-1542.5682373046875,0.0,-3545.2841796875,-0.0,2241.92919921875
-14477.5703125,-15946.2294921875,-5514.62158203125,-1506.0106201171875,-1589.4571533203125,8339.8818359375,-5517.005859375,-2845.12841796875,-1374.0858154296875,5742.70849609375,-8036.2958984375,-13249.71484375,-3502.368896484375,4808.90283203125,-220.1398162841797,-9565.353515625,-885.32763671875,-50.86262893676758,2632.935791015625,12734.73046875,1920.0643310546875,5776.08740234375,-1195.2718505859375,11599.0634765625,-3860.79150390625,-6637.5732421875,-4525.1845703125,-4264.513671875,-7952.849609375,-3418.92236328125,3191.630126953125,1633.9620361328125,-509.4210510253906,-1606.146484375,-2652.00927734375,3365.67578125,-4339.21826171875,15117.328125,-5433.5595703125,-0.0,-8360.544921875,4889.96484375,-6250.5400390625,-4645.18896484375,-1052.220703125,5262.69287109375,-7554.68994140625,737.5081176757812,-6009.7373046875,-3770.9873046875,-2279.28173828125,6408.69140625,1118.18310546875,-21725.49609375,-9176.7314453125,-1332.7598876953125,995.000244140625,-9898.3447265625,-1789.728759765625,-3970.464111328125,-16194.978515625,345.7069396972656,-1453.55859375,1627.6041259765625,-11027.6533203125,-3266.33447265625,0.0,-1533.031494140625,0.0,-3540.515869140625,-0.0,2243.518798828125
-14505.38671875,-15939.0771484375,-5531.31103515625,-1507.6002197265625,-1599.7886962890625,8337.498046875,-5525.74755859375,-2850.691650390625,-1383.62255859375,5738.7353515625,-8053.77978515625,-13254.4833984375,-3522.237060546875,4800.16064453125,-229.6765594482422,-9582.04296875,-892.480224609375,-57.220458984375,2625.783203125,12729.16796875,1914.501220703125,5771.31884765625,-1201.629638671875,11593.5009765625,-3861.58642578125,-6634.39404296875,-4537.10546875,-4265.30859375,-7940.13330078125,-3418.127685546875,3184.4775390625,1626.8094482421875,-519.7525024414062,-1612.50439453125,-2659.956787109375,3362.49658203125,-4346.37060546875,15112.5595703125,-5448.6591796875,-0.0,-8369.2861328125,4888.3759765625,-6259.28271484375,-4649.95703125,-1060.16796875,5256.3349609375,-7571.37939453125,737.5081176757812,-6020.86376953125,-3766.218994140625,-2288.023681640625,6398.35986328125,2703.666748046875,-21716.75390625,-9164.015625,-1333.5545654296875,991.0265502929688,-9919.802734375,-1808.80224609375,-3968.87451171875,-16200.5419921875,340.1438293457031,-1458.326904296875,1623.6304931640625,-11027.6533203125,-3279.844970703125,0.0,-1544.1575927734375,0.0,-3546.873779296875,-0.0,2226.034912109375
-14591.216796875,-15945.4345703125,-5556.7421875,-1521.110595703125,-1619.6568603515625,8328.755859375,-5536.87451171875,-2861.02294921875,-1381.23828125,5729.9931640625,-8058.5478515625,-13267.994140625,-3534.952880859375,4812.87646484375,-251.13424682617188,-9582.04296875,-903.6064453125,-69.14138793945312,2617.041259765625,12727.578125,1895.427734375,5760.19287109375,-1215.1400146484375,11582.375,-3883.0439453125,-6647.90478515625,-4549.8212890625,-4278.0244140625,-7952.849609375,-3429.25390625,3170.967041015625,1620.4515380859375,-536.4417724609375,-1624.42529296875,-2675.85107421875,3349.781005859375,-4359.880859375,15101.4326171875,-5435.943359375,-0.0,-8405.0498046875,4877.2490234375,-6274.38232421875,-4661.8779296875,-1069.7047119140625,5248.3876953125,-7597.60546875,723.2030029296875,-6035.1689453125,-3761.450439453125,-2308.6865234375,6388.02880859375,4035.631591796875,-21720.728515625,-9176.7314453125,-1337.5281982421875,978.3109130859375,-9910.265625,-1823.107421875,-3975.232666015625,-16206.1064453125,328.222900390625,-1463.89013671875,1613.299072265625,-11011.759765625,-3292.560546875,0.0,-1554.4891357421875,0.0,-3561.178955078125,-0.0,2211.729736328125
-14565.78515625,-15947.0234375,-5560.71630859375,-1527.4683837890625,-1624.42529296875,8320.013671875,-5542.43701171875,-2868.97021484375,-1388.390869140625,5714.0986328125,-8049.01123046875,-13254.4833984375,-3536.542236328125,4805.7236328125,-254.31314086914062,-9573.30078125,-905.1958618164062,-74.7044906616211,2609.093994140625,12712.478515625,1891.4541015625,5757.80859375,-1219.1136474609375,11576.0166015625,-3901.322509765625,-6655.85205078125,-4551.41064453125,-4285.1767578125,-7958.412109375,-3425.2802734375,3168.5830078125,1619.6568603515625,-535.6470947265625,-1626.8094482421875,-2681.414306640625,3345.807373046875,-4364.6494140625,15095.07421875,-5429.5859375,-0.0,-8414.5859375,4872.48095703125,-6279.150390625,-4669.03076171875,-1073.6783447265625,5235.671875,-7592.8369140625,715.2557373046875,-6042.32177734375,-3778.9345703125,-2311.865478515625,6381.67041015625,6565.2529296875,-21719.13671875,-9182.2939453125,-1331.17041015625,974.3372802734375,-9889.6025390625,-1819.1337890625,-3980.0009765625,-16210.875,325.04400634765625,-1474.2215576171875,1607.7359619140625,-11014.1435546875,-3282.229248046875,0.0,-1561.6417236328125,0.0,-3560.384033203125,-0.0,2223.650634765625
-14487.90234375,-15940.666015625,-5547.20556640625,-1517.931640625,-1621.246337890625,8327.9609375,-5543.23193359375,-2863.4072265625,-1410.6431884765625,5706.94580078125,-8049.8056640625,-13245.7421875,-3524.621337890625,4765.1923828125,-253.5184326171875,-9565.353515625,-898.0433349609375,-67.55193328857422,2609.888671875,12690.2265625,1897.8118896484375,5764.16650390625,-1215.1400146484375,11581.580078125,-3895.759521484375,-6647.10986328125,-4552.20556640625,-4274.05029296875,-7947.28564453125,-3411.769775390625,3175.7353515625,1627.6041259765625,-530.8787231445312,-1618.8621826171875,-2675.85107421875,3356.138916015625,-4365.4443359375,15097.458984375,-5433.5595703125,-0.0,-8403.4609375,4880.42822265625,-6280.740234375,-4660.28857421875,-1080.0361328125,5238.85107421875,-7555.48486328125,725.5872192382812,-6038.34765625,-3770.1923828125,-2311.07080078125,6390.41259765625,10511.0810546875,-21712.779296875,-9169.578125,-1317.6600341796875,978.3109130859375,-9874.5029296875,-1827.0810546875,-3983.974365234375,-16206.8994140625,328.222900390625,-1479.78466796875,1589.4571533203125,-11014.9384765625,-3273.487060546875,0.0,-1567.204833984375,0.0,-3563.56298828125,-0.0,2218.08740234375
