-14851.8876953125,-17847.21875,-5489.1904296875,-1420.179931640625,-790.7549438476562,9600.3212890625,-5273.02392578125,-2423.12744140625,-1332.7598876953125,5977.94873046875,-8202.3935546875,-13190.1103515625,-3631.90966796875,5383.49169921875,107.28836059570312,-9367.4658203125,-965.59521484375,-175.63502502441406,2626.578125,13131.30078125,2253.0556640625,6617.705078125,-1278.7183837890625,11978.1494140625,-3741.582275390625,-6350.67626953125,-4297.09765625,-4285.1767578125,-8145.96826171875,-3317.991943359375,3618.3994140625,2318.22314453125,-373.5224304199219,-735.1239624023438,-2610.683349609375,3739.197998046875,-4103.18359375,15439.1923828125,-5689.46240234375,-0.0,-7788.34033203125,5280.1767578125,-5954.9013671875,-4770.755859375,-518.957763671875,5602.83642578125,-7477.6015625,820.159912109375,-5870.66015625,-3433.2275390625,-1889.8646240234375,6615.32080078125,8683.9990234375,-21346.41015625,-8982.8173828125,-1021.2262573242188,1348.6544189453125,-10035.0380859375,-1428.9219970703125,-3798.008056640625,-15880.2666015625,672.3403930664062,-1130.10400390625,1823.107421875,-10763.8046875,-3325.14453125,0.0,-1738.8662109375,0.0,-3568.33154296875,-0.0,2427.895751953125
-14979.044921875,-17900.466796875,-5493.1640625,-1428.1273193359375,-795.5233154296875,9578.8642578125,-5281.7666015625,-2442.995849609375,-1340.7071533203125,5965.23291015625,-8215.109375,-13206.0048828125,-3646.21484375,5375.5439453125,110.46727752685547,-9387.333984375,-979.1055908203125,-190.73486328125,2613.8623046875,13121.7646484375,2243.518798828125,6599.42626953125,-1290.6392822265625,11960.666015625,-3744.76123046875,-6371.33935546875,-4298.68701171875,-4306.63427734375,-8159.47802734375,-3349.781005859375,3601.7099609375,2300.7392578125,-385.443359375,-749.4290771484375,-2621.809814453125,3723.303466796875,-4111.92578125,15422.50390625,-5684.69384765625,-0.0,-7795.49267578125,5261.89794921875,-5963.6435546875,-4789.8291015625,-526.905029296875,5586.1474609375,-7487.13818359375,811.4179077148438,-5874.6337890625,-3459.45361328125,-1885.8909912109375,6596.2470703125,9326.140625,-21392.50390625,-8997.9169921875,-1053.81005859375,1342.296630859375,-10042.1904296875,-1430.511474609375,-3816.286865234375,-15897.7509765625,658.8300170898438,-1142.8197021484375,1806.4180908203125,-10778.904296875,-3347.39697265625,0.0,-1746.8134765625,0.0,-3583.43115234375,-0.0,2412.7958984375
-14955.203125,-17939.41015625,-5496.34326171875,-1436.8692626953125,-793.13916015625,9570.916015625,-5282.56103515625,-2440.611572265625,-1332.7598876953125,5981.92236328125,-8223.8515625,-13207.5947265625,-3664.49365234375,5384.28662109375,108.87781524658203,-9382.5654296875,-983.8739624023438,-195.50323486328125,2613.8623046875,13134.4794921875,2238.75048828125,6594.65771484375,-1290.6392822265625,11957.486328125,-3739.992919921875,-6380.0810546875,-4297.09765625,-4313.787109375,-8170.6044921875,-3372.033447265625,3596.941650390625,2295.17626953125,-390.21173095703125,-756.5816040039062,-2624.988525390625,3719.329833984375,-4112.720703125,15421.7080078125,-5684.69384765625,-0.0,-7797.876953125,5253.95068359375,-5962.8486328125,-4795.392578125,-522.931396484375,5591.71044921875,-7484.75390625,802.6759033203125,-5874.6337890625,-3472.964111328125,-1889.8646240234375,6593.86279296875,9104.4111328125,-21413.16796875,-9009.0439453125,-1069.7047119140625,1333.5545654296875,-10033.4482421875,-1420.179931640625,-3803.571044921875,-15917.6201171875,655.651123046875,-1138.8460693359375,1806.4180908203125,-10779.6982421875,-3352.165283203125,0.0,-1732.50830078125,0.0,-3565.15234375,-0.0,2428.690673828125
-14928.9765625,-17891.724609375,-5496.34326171875,-1430.511474609375,-791.5496826171875,9578.8642578125,-5276.998046875,-2430.280029296875,-1325.6072998046875,5994.63818359375,-8219.8779296875,-13203.62109375,-3650.983154296875,5393.0283203125,100.13580322265625,-9366.671875,-976.721435546875,-186.76121520996094,2619.425537109375,13140.837890625,2243.518798828125,6601.810546875,-1286.66552734375,11967.0224609375,-3740.78759765625,-6377.69677734375,-4301.0712890625,-4297.09765625,-8169.01513671875,-3359.31787109375,3603.29931640625,2303.12353515625,-386.23809814453125,-747.839599609375,-2617.8359375,3728.072021484375,-4108.7470703125,15431.2451171875,-5681.5146484375,-0.0,-7796.28759765625,5260.30859375,-5960.46435546875,-4782.6767578125,-518.957763671875,5601.2470703125,-7476.806640625,812.212646484375,-5874.6337890625,-3465.8115234375,-1897.8118896484375,6608.16796875,9888.0126953125,-21393.298828125,-9007.4541015625,-1075.267822265625,1338.322998046875,-10017.5546875,-1421.76953125,-3796.41845703125,-15910.466796875,662.8036499023438,-1130.8988037109375,1810.3917236328125,-10777.314453125,-3340.244384765625,0.0,-1743.634521484375,0.0,-3569.9208984375,-0.0,2427.895751953125
-14918.64453125,-17859.140625,-5487.6005859375,-1428.9219970703125,-801.8811645507812,9571.7119140625,-5285.73974609375,-2441.40625,-1338.322998046875,5971.59033203125,-8218.2880859375,-13204.4150390625,-3646.21484375,5385.0810546875,85.03595733642578,-9399.2548828125,-979.900390625,-190.73486328125,2610.683349609375,13124.9423828125,2241.134765625,6595.45263671875,-1294.6129150390625,11959.076171875,-3760.65576171875,-6387.23388671875,-4317.76025390625,-4312.197265625,-8166.630859375,-3346.602294921875,3599.325927734375,2298.35498046875,-387.8275451660156,-753.4027099609375,-2625.783203125,3722.5087890625,-4119.078125,15423.2978515625,-5718.86669921875,-0.0,-7801.8505859375,5250.77197265625,-5972.38525390625,-4790.6240234375,-529.2892456054688,5590.12060546875,-7471.2431640625,813.00732421875,-5888.93896484375,-3463.42724609375,-1911.322265625,6595.45263671875,11758.8046875,-21385.3515625,-9005.0693359375,-1088.7781982421875,1321.6336669921875,-10016.7587890625,-1434.485107421875,-3808.33935546875,-15890.5986328125,658.0352783203125,-1142.8197021484375,1801.649658203125,-10779.6982421875,-3339.44970703125,0.0,-1738.0714111328125,0.0,-3577.8681640625,-0.0,2411.20654296875
-14871.7568359375,-17868.677734375,-5479.65380859375,-1424.1536865234375,-780.4234619140625,9582.8369140625,-5269.845703125,-2427.895751953125,-1322.4283447265625,5985.8955078125,-8204.77734375,-13195.673828125,-3659.72509765625,5392.2333984375,108.08309173583984,-9380.9765625,-967.9794311523438,-178.0192108154297,2627.372802734375,13141.6318359375,2256.234375,6608.16796875,-1278.7183837890625,11972.5869140625,-3736.813720703125,-6376.10791015625,-4296.302734375,-4300.2763671875,-8163.4521484375,-3332.297119140625,3612.04150390625,2312.66015625,-379.0855407714844,-744.6607055664062,-2610.683349609375,3735.224365234375,-4102.388671875,15437.6025390625,-5671.18310546875,-0.0,-7785.9560546875,5259.513671875,-5954.10693359375,-4778.703125,-512.5999755859375,5606.015625,-7451.37548828125,816.186279296875,-5861.91796875,-3446.738037109375,-1889.8646240234375,6607.37353515625,13740.857421875,-21373.4296875,-8999.5068359375,-1046.6575927734375,1331.965087890625,-10009.6064453125,-1412.2327880859375,-3794.0341796875,-15896.955078125,672.3403930664062,-1126.1304931640625,1803.2392578125,-10774.1357421875,-3336.2705078125,0.0,-1720.58740234375,0.0,-3561.9736328125,-0.0,2429.4853515625
-14909.9033203125,-17925.103515625,-5496.34326171875,-1447.9954833984375,-791.5496826171875,9572.505859375,-5281.7666015625,-2434.253662109375,-1323.22314453125,5981.12744140625,-8218.2880859375,-13217.92578125,-3674.0302734375,5396.20751953125,89.80432891845703,-9391.3076171875,-985.4635009765625,-191.5295867919922,2615.451904296875,13143.2216796875,2241.134765625,6593.86279296875,-1291.4339599609375,11960.666015625,-3737.608642578125,-6381.67041015625,-4311.40283203125,-4307.4287109375,-8180.1416015625,-3349.781005859375,3597.736328125,2291.997314453125,-392.5959167480469,-760.5552978515625,-2623.39892578125,3720.91943359375,-4113.51513671875,15427.271484375,-5681.5146484375,-0.0,-7796.28759765625,5244.4140625,-5966.822265625,-4789.8291015625,-523.7261352539062,5599.65771484375,-7508.595703125,793.13916015625,-5873.04443359375,-3461.837890625,-1907.3486328125,6600.22119140625,14744.599609375,-21377.404296875,-9015.4013671875,-1061.7574462890625,1320.8388671875,-10039.01171875,-1436.0745849609375,-3812.31298828125,-15933.513671875,658.8300170898438,-1134.07763671875,1792.1129150390625,-10794.00390625,-3356.138916015625,0.0,-1748.4029541015625,0.0,-3580.25244140625,-0.0,2408.027587890625
-14957.5869140625,-17983.9140625,-5511.44287109375,-1478.989990234375,-810.6231689453125,9569.3271484375,-5290.50830078125,-2437.4326171875,-1327.991455078125,5961.25927734375,-8227.8251953125,-13231.4365234375,-3672.440673828125,5401.77001953125,77.08867645263672,-9393.6923828125,-994.2054443359375,-201.86106872558594,2609.093994140625,13134.4794921875,2224.4453125,6586.71044921875,-1300.970703125,11954.3076171875,-3762.2451171875,-6376.10791015625,-4325.7080078125,-4307.4287109375,-8186.49951171875,-3364.880859375,3588.19970703125,2277.692138671875,-401.33795166015625,-767.7078247070312,-2634.525390625,3715.356201171875,-4123.8466796875,15420.9140625,-5693.435546875,-0.0,-7815.36083984375,5248.3876953125,-5980.3330078125,-4791.41845703125,-530.8787231445312,5593.2998046875,-7518.1328125,758.9658203125,-5896.88623046875,-3473.7587890625,-1919.26953125,6601.015625,14977.455078125,-21382.173828125,-9024.1435546875,-1091.162353515625,1308.91796875,-10051.7275390625,-1441.6376953125,-3824.23388671875,-15944.6396484375,649.2932739257812,-1141.230224609375,1788.139404296875,-10801.15625,-3358.523193359375,0.0,-1768.2711181640625,0.0,-3600.12060546875,-0.0,2389.748779296875
-14967.1240234375,-18021.265625,-5492.369140625,-1447.2008056640625,-798.7022705078125,9578.8642578125,-5281.7666015625,-2438.227294921875,-1332.7598876953125,5951.72265625,-8238.9521484375,-13223.4892578125,-3639.062255859375,5388.259765625,100.93053436279297,-9387.333984375,-982.2845458984375,-193.11904907226562,2613.8623046875,13121.7646484375,2236.3662109375,6599.42626953125,-1290.6392822265625,11961.4599609375,-3748.734619140625,-6387.23388671875,-4309.0185546875,-4301.0712890625,-8169.81005859375,-3364.880859375,3599.325927734375,2289.613037109375,-387.8275451660156,-754.9921875,-2623.39892578125,3724.892822265625,-4115.1044921875,15424.0927734375,-5675.1572265625,-0.0,-7800.26123046875,5259.513671875,-5968.412109375,-4786.650390625,-526.1103515625,5588.53125,-7471.2431640625,791.5496826171875,-5885.759765625,-3473.7587890625,-1894.6329345703125,6601.810546875,14638.900390625,-21374.2265625,-9006.6591796875,-1085.5992431640625,1331.17041015625,-10048.548828125,-1422.564208984375,-3825.028564453125,-15931.1298828125,657.2405395507812,-1142.0250244140625,1796.88134765625,-10786.056640625,-3345.807373046875,0.0,-1758.734375,0.0,-3592.17333984375,-0.0,2402.464599609375
-14986.9921875,-18010.935546875,-5480.4482421875,-1426.537841796875,-797.9075317382812,9572.505859375,-5287.3291015625,-2446.174560546875,-1356.6016845703125,5943.775390625,-8240.5400390625,-13223.4892578125,-3644.62548828125,5336.6025390625,104.9041748046875,-9384.94921875,-982.2845458984375,-193.11904907226562,2605.120361328125,13100.306640625,2241.134765625,6597.0419921875,-1294.6129150390625,11955.1015625,-3743.171630859375,-6388.8232421875,-4305.04443359375,-4313.787109375,-8171.39892578125,-3373.622802734375,3598.531005859375,2290.407958984375,-385.443359375,-755.786865234375,-2624.988525390625,3720.91943359375,-4119.078125,15417.7353515625,-5681.5146484375,-0.0,-7795.49267578125,5256.3349609375,-5970.0009765625,-4795.392578125,-536.4417724609375,5578.99462890625,-7469.654296875,813.8020629882812,-5884.17041015625,-3476.142822265625,-1892.248779296875,6590.6845703125,14153.3212890625,-21391.7109375,-9007.4541015625,-1088.7781982421875,1343.09130859375,-10038.216796875,-1432.1009521484375,-3835.3603515625,-15924.7724609375,651.6774291992188,-1154.74072265625,1755.5555419921875,-10789.2353515625,-3352.165283203125,0.0,-1770.6552734375,0.0,-3612.836181640625,-0.0,2373.8544921875
-15007.6552734375,-17899.671875,-5473.2958984375,-1430.511474609375,-791.5496826171875,9577.2744140625,-5288.1240234375,-2442.200927734375,-1354.217529296875,5958.875,-8227.0302734375,-13206.7998046875,-3646.21484375,5356.470703125,96.9568862915039,-9395.2822265625,-973.5425415039062,-188.35067749023438,2609.093994140625,13113.81640625,2246.69775390625,6601.015625,-1292.228759765625,11959.076171875,-3742.376953125,-6377.69677734375,-4306.63427734375,-4312.197265625,-8168.220703125,-3363.29150390625,3603.29931640625,2303.12353515625,-377.49609375,-751.0185546875,-2621.014892578125,3725.687744140625,-4119.873046875,15420.9140625,-5680.7197265625,-0.0,-7793.1083984375,5258.71875,-5967.6171875,-4790.6240234375,-538.8259887695312,5581.37890625,-7478.39599609375,811.4179077148438,-5879.40234375,-3453.890625,-1901.7855224609375,6590.6845703125,13348.26171875,-21388.53125,-9005.0693359375,-1079.241455078125,1339.912353515625,-10042.1904296875,-1451.9691162109375,-3840.92333984375,-15910.466796875,656.44580078125,-1151.561767578125,1777.807861328125,-10795.59375,-3353.754638671875,0.0,-1760.3238525390625,0.0,-3602.504638671875,-0.0,2391.33837890625
-14904.33984375,-17824.96875,-5478.06396484375,-1429.7166748046875,-782.8076782226562,9592.3740234375,-5273.02392578125,-2425.51171875,-1331.965087890625,5982.716796875,-8203.9833984375,-13196.46875,-3622.372802734375,5387.46484375,119.20928955078125,-9384.94921875,-964.800537109375,-174.8402862548828,2626.578125,13137.658203125,2255.439697265625,6610.55224609375,-1278.7183837890625,11975.765625,-3741.582275390625,-6376.10791015625,-4289.9453125,-4289.150390625,-8160.2734375,-3341.0390625,3612.836181640625,2314.249755859375,-371.13824462890625,-740.6870727539062,-2607.504638671875,3738.4033203125,-4102.388671875,15436.80859375,-5675.1572265625,-0.0,-7788.34033203125,5267.46142578125,-5953.31201171875,-4773.93505859375,-519.7525024414062,5601.2470703125,-7470.44873046875,809.03369140625,-5866.6865234375,-3437.995849609375,-1879.533203125,6608.962890625,13131.30078125,-21373.4296875,-8997.9169921875,-1047.4522705078125,1351.8333740234375,-10036.6279296875,-1428.9219970703125,-3812.31298828125,-15896.955078125,670.7509155273438,-1132.48828125,1809.5970458984375,-10782.8779296875,-3345.0126953125,0.0,-1757.939697265625,0.0,-3582.636474609375,-0.0,2422.332763671875
-14808.177734375,-17810.6640625,-5469.322265625,-1417.0010986328125,-755.786865234375,9615.4208984375,-5245.208984375,-2404.053955078125,-1302.5601806640625,5998.611328125,-8165.83642578125,-13171.037109375,-3634.293701171875,5416.0751953125,149.4089813232422,-9359.5185546875,-944.1375732421875,-150.99842834472656,2652.80419921875,13159.9111328125,2276.8974609375,6633.599609375,-1250.90283203125,12000.4013671875,-3716.15087890625,-6362.59716796875,-4261.3349609375,-4265.30859375,-8145.96826171875,-3304.4814453125,3637.472900390625,2332.5283203125,-352.8594970703125,-720.0241088867188,-2581.278564453125,3763.039794921875,-4075.368408203125,15459.85546875,-5663.236328125,-0.0,-7764.498046875,5285.73974609375,-5925.49658203125,-4750.0927734375,-491.14227294921875,5625.8837890625,-7445.81201171875,822.5440673828125,-5833.3076171875,-3410.180419921875,-1849.3333740234375,6628.83154296875,14338.4931640625,-21360.716796875,-8983.6123046875,-1003.7421875,1364.549072265625,-9998.48046875,-1393.1593017578125,-3779.729248046875,-15880.2666015625,696.9769897460938,-1105.4674072265625,1836.6177978515625,-10755.8564453125,-3311.634033203125,0.0,-1729.3294677734375,0.0,-3553.2314453125,-0.0,2447.76416015625
-14823.27734375,-17840.861328125,-5459.78564453125,-1405.0802001953125,-750.2238159179688,9624.1640625,-5238.05615234375,-2388.9541015625,-1279.5130615234375,6021.658203125,-8169.01513671875,-13173.4208984375,-3661.314697265625,5447.86474609375,141.46168518066406,-9355.544921875,-941.75341796875,-144.64060974121094,2663.135498046875,13189.3154296875,2280.076171875,6640.75244140625,-1243.750244140625,12009.1435546875,-3704.22998046875,-6345.90771484375,-4262.92431640625,-4252.5927734375,-8148.3525390625,-3305.276123046875,3642.2412109375,2330.144287109375,-350.4753112792969,-716.84521484375,-2576.51025390625,3772.57666015625,-4067.4208984375,15472.5712890625,-5654.49365234375,-0.0,-7755.75634765625,5292.892578125,-5919.93310546875,-4738.96630859375,-479.2213439941406,5642.57275390625,-7417.2021484375,832.8755493164062,-5835.69189453125,-3404.6171875,-1857.28076171875,6642.341796875,16225.1796875,-21371.841796875,-8986.791015625,-1015.6631469726562,1366.138427734375,-10015.96484375,-1382.032958984375,-3762.2451171875,-15883.4453125,705.718994140625,-1089.5728759765625,1872.380615234375,-10759.0361328125,-3310.83935546875,0.0,-1715.8189697265625,0.0,-3530.979248046875,-0.0,2480.347900390625
-14878.9091796875,-17882.189453125,-5460.58056640625,-1409.0538330078125,-766.1183471679688,9624.9580078125,-5250.77197265625,-2397.6962890625,-1294.6129150390625,6008.1484375,-8185.7041015625,-13194.083984375,-3663.698974609375,5427.20166015625,127.95130920410156,-9350.7763671875,-949.70068359375,-154.17735290527344,2648.03564453125,13171.83203125,2271.33447265625,6636.7783203125,-1258.0552978515625,12000.4013671875,-3715.356201171875,-6322.86083984375,-4279.61328125,-4255.771484375,-8166.630859375,-3332.297119140625,3633.4990234375,2324.5810546875,-357.62786865234375,-718.4346313476562,-2586.841552734375,3766.218994140625,-4081.72607421875,15461.4453125,-5645.751953125,-0.0,-7767.67724609375,5301.63427734375,-5935.033203125,-4743.73486328125,-494.3211669921875,5629.0625,-7441.8388671875,829.6966552734375,-5856.35498046875,-3411.769775390625,-1868.4068603515625,6637.5732421875,17325.87890625,-21405.220703125,-9003.4794921875,-1046.6575927734375,1347.06494140625,-10015.169921875,-1399.51708984375,-3788.47119140625,-15865.9609375,693.798095703125,-1104.6727294921875,1850.9229736328125,-10778.904296875,-3333.091796875,0.0,-1737.2767333984375,0.0,-3553.2314453125,-0.0,2451.737548828125
-14938.513671875,-17886.95703125,-5470.1171875,-1397.9276123046875,-782.012939453125,9605.08984375,-5271.4345703125,-2416.769775390625,-1326.402099609375,5979.5380859375,-8184.115234375,-13205.2109375,-3666.877685546875,5393.8232421875,92.98324584960938,-9358.7236328125,-956.8532104492188,-169.27719116210938,2626.578125,13140.837890625,2261.002685546875,6624.06298828125,-1275.5394287109375,11982.123046875,-3732.04541015625,-6331.6025390625,-4297.09765625,-4285.1767578125,-8172.1943359375,-3354.54931640625,3623.96240234375,2320.607421875,-363.19097900390625,-727.9713745117188,-2601.146728515625,3746.3505859375,-4103.978515625,15439.9873046875,-5655.28857421875,-0.0,-7784.36669921875,5288.9189453125,-5954.10693359375,-4769.9609375,-521.3419799804688,5606.81005859375,-7479.98583984375,842.4122924804688,-5869.865234375,-3445.943115234375,-1901.7855224609375,6616.91064453125,17689.0703125,-21424.29296875,-9009.0439453125,-1066.5257568359375,1312.8916015625,-10014.375,-1439.25341796875,-3812.31298828125,-15863.5771484375,674.724609375,-1130.10400390625,1806.4180908203125,-10787.646484375,-3341.833740234375,0.0,-1765.886962890625,0.0,-3596.146728515625,-0.0,2404.053955078125
-14955.9970703125,-17873.4453125,-5494.75341796875,-1416.206298828125,-791.5496826171875,9581.248046875,-5282.56103515625,-2434.253662109375,-1334.3492431640625,5958.875,-8197.625,-13215.5419921875,-3674.0302734375,5374.74951171875,85.8306884765625,-9372.234375,-969.5689086914062,-182.78758239746094,2615.451904296875,13128.12109375,2250.67138671875,6606.57861328125,-1286.66552734375,11965.43359375,-3743.171630859375,-6385.64453125,-4309.0185546875,-4309.0185546875,-8180.93603515625,-3367.264892578125,3610.451904296875,2310.276123046875,-376.70135498046875,-745.4554443359375,-2616.24658203125,3728.86669921875,-4113.51513671875,15423.2978515625,-5668.00439453125,-0.0,-7797.876953125,5258.71875,-5965.23291015625,-4786.650390625,-530.083984375,5590.91552734375,-7495.08544921875,823.3388061523438,-5878.607421875,-3457.0693359375,-1912.116943359375,6600.22119140625,17402.966796875,-21421.11328125,-9017.78515625,-1062.5521240234375,1301.765380859375,-10028.6796875,-1434.485107421875,-3826.6181640625,-15886.625,658.8300170898438,-1142.8197021484375,1798.4708251953125,-10796.3876953125,-3357.728271484375,0.0,-1769.860595703125,0.0,-3605.68359375,-0.0,2396.106689453125
-14922.619140625,-17909.208984375,-5490.77978515625,-1427.33251953125,-795.5233154296875,9583.6328125,-5287.3291015625,-2438.227294921875,-1348.6544189453125,5963.6435546875,-8210.341796875,-13204.4150390625,-3654.956787109375,5347.728515625,69.93611907958984,-9389.7177734375,-971.9530639648438,-184.3770294189453,2612.27294921875,13120.1748046875,2249.876708984375,6606.57861328125,-1289.844482421875,11964.638671875,-3755.092529296875,-6390.41259765625,-4316.17138671875,-4303.45556640625,-8169.81005859375,-3350.57568359375,3611.246826171875,2304.712890625,-380.67498779296875,-747.839599609375,-2617.8359375,3730.4560546875,-4118.28369140625,15423.2978515625,-5701.38330078125,-0.0,-7800.26123046875,5256.3349609375,-5967.6171875,-4784.26611328125,-536.4417724609375,5587.73681640625,-7476.806640625,813.00732421875,-5890.5283203125,-3450.71142578125,-1925.6273193359375,6593.86279296875,16498.56640625,-21372.63671875,-9005.8642578125,-1047.4522705078125,1312.096923828125,-10035.0380859375,-1444.816650390625,-3826.6181640625,-15918.4130859375,660.41943359375,-1146.7933349609375,1786.5499267578125,-10784.466796875,-3352.165283203125,0.0,-1761.1185302734375,0.0,-3598.531005859375,-0.0,2400.875
-14866.1923828125,-17897.287109375,-5482.0380859375,-1412.2327880859375,-785.1918334960938,9602.7060546875,-5273.02392578125,-2420.7431640625,-1339.912353515625,5968.412109375,-8186.49951171875,-13187.7255859375,-3650.1884765625,5369.1865234375,79.47286224365234,-9363.4921875,-958.4426879882812,-170.8666534423828,2626.578125,13127.3271484375,2261.002685546875,6620.8837890625,-1277.1287841796875,11980.533203125,-3750.32421875,-6371.33935546875,-4303.45556640625,-4281.99755859375,-8152.32568359375,-3324.349609375,3623.167724609375,2313.454833984375,-371.13824462890625,-731.945068359375,-2603.53076171875,3744.76123046875,-4105.56787109375,15441.5771484375,-5690.2568359375,-0.0,-7787.5458984375,5276.998046875,-5954.10693359375,-4767.57666015625,-524.5208740234375,5602.83642578125,-7472.0380859375,830.4913940429688,-5880.197265625,-3430.048583984375,-1916.090576171875,6615.32080078125,14762.083984375,-21347.205078125,-8988.380859375,-1026.789306640625,1324.8125,-10039.01171875,-1436.8692626953125,-3812.31298828125,-15904.1083984375,677.1087646484375,-1135.667236328125,1795.2918701171875,-10762.21484375,-3325.939208984375,0.0,-1742.0450439453125,0.0,-3582.636474609375,-0.0,2415.18017578125
-14901.1611328125,-17849.603515625,-5473.2958984375,-1402.696044921875,-764.5289306640625,9615.4208984375,-5251.56640625,-2404.053955078125,-1320.8388671875,5987.4853515625,-8157.88916015625,-13179.779296875,-3640.651611328125,5392.2333984375,120.79874420166016,-9352.3662109375,-944.1375732421875,-155.7667999267578,2644.06201171875,13143.2216796875,2276.8974609375,6634.39404296875,-1258.0552978515625,11995.6328125,-3725.687744140625,-6360.212890625,-4272.4609375,-4267.6923828125,-8138.81591796875,-3304.4814453125,3637.472900390625,2330.144287109375,-353.65423583984375,-717.639892578125,-2584.45751953125,3756.68212890625,-4084.905029296875,15457.470703125,-5653.69921875,-0.0,-7769.2666015625,5288.9189453125,-5931.0595703125,-4753.271484375,-503.0632019042969,5616.3466796875,-7472.0380859375,839.2333984375,-5849.20263671875,-3415.74365234375,-1875.5594482421875,6630.4208984375,12579.7587890625,-21358.33203125,-8976.4599609375,-1003.7421875,1345.4755859375,-10030.26953125,-1399.51708984375,-3796.41845703125,-15871.5244140625,693.0033569335938,-1121.362060546875,1819.1337890625,-10749.4990234375,-3309.25,0.0,-1717.4085693359375,0.0,-3554.821044921875,-0.0,2443.79052734375
-14967.91796875,-17853.578125,-5456.6064453125,-1405.0802001953125,-754.1974487304688,9628.13671875,-5242.02978515625,-2384.98046875,-1300.970703125,6011.3271484375,-8178.5517578125,-13177.39453125,-3631.114990234375,5426.40673828125,129.54075622558594,-9323.755859375,-936.9849853515625,-145.43533325195312,2655.188232421875,13164.6796875,2287.228759765625,6645.5205078125,-1248.5185546875,12007.5537109375,-3716.15087890625,-6337.9609375,-4266.8974609375,-4251.00341796875,-8139.6103515625,-3317.991943359375,3647.80419921875,2339.680908203125,-342.52801513671875,-708.8978881835938,-2576.51025390625,3769.397705078125,-4072.189453125,15471.7763671875,-5652.10986328125,-0.0,-7759.72998046875,5302.42919921875,-5922.3173828125,-4738.96630859375,-490.3475646972656,5637.01025390625,-7460.1171875,834.4650268554688,-5841.25537109375,-3410.97509765625,-1866.8175048828125,6654.2626953125,11028.44921875,-21365.484375,-8976.4599609375,-1012.4841918945312,1348.6544189453125,-9990.533203125,-1389.185546875,-3779.729248046875,-15864.3720703125,705.718994140625,-1104.6727294921875,1858.8701171875,-10756.65234375,-3312.4287109375,0.0,-1707.0770263671875,0.0,-3534.157958984375,-0.0,2476.374267578125
-14896.392578125,-17895.69921875,-5451.837890625,-1404.285400390625,-758.9658203125,9625.7529296875,-5249.97705078125,-2388.9541015625,-1303.3548583984375,6001.79052734375,-8201.599609375,-13176.6005859375,-3640.651611328125,5425.61181640625,114.44091796875,-9322.166015625,-937.7797241210938,-150.20370483398438,2650.419921875,13163.08984375,2283.25537109375,6641.546875,-1252.4923095703125,12004.375,-3705.8193359375,-6333.1923828125,-4281.99755859375,-4249.4140625,-8157.88916015625,-3328.3232421875,3646.21484375,2338.88623046875,-344.11749267578125,-712.87158203125,-2578.894287109375,3764.62939453125,-4079.341796875,15467.802734375,-5679.92529296875,-0.0,-7759.72998046875,5298.45556640625,-5931.8544921875,-4738.96630859375,-495.91064453125,5636.21533203125,-7468.859375,836.0545043945312,-5853.97119140625,-3416.538330078125,-1883.5068359375,6651.87841796875,10321.140625,-21343.23046875,-8994.73828125,-1022.0209350585938,1340.7071533203125,-9993.712890625,-1409.0538330078125,-3768.60302734375,-15875.498046875,701.745361328125,-1108.6463623046875,1842.9755859375,-10770.95703125,-3307.660400390625,0.0,-1717.4085693359375,0.0,-3550.052734375,-0.0,2451.737548828125
-14928.181640625,-17861.525390625,-5446.275390625,-1391.5697021484375,-759.7605590820312,9620.984375,-5251.56640625,-2394.51708984375,-1297.7918701171875,6010.5322265625,-8211.9306640625,-13173.4208984375,-3647.80419921875,5429.5859375,108.08309173583984,-9343.6240234375,-934.600830078125,-150.20370483398438,2649.625,13174.2158203125,2284.8447265625,6642.341796875,-1253.2869873046875,12004.375,-3699.461669921875,-6341.13916015625,-4286.76611328125,-4259.7451171875,-8166.630859375,-3311.634033203125,3650.983154296875,2346.83349609375,-339.34912109375,-710.4873657226562,-2578.894287109375,3763.834716796875,-4080.93115234375,15464.623046875,-5637.01025390625,-0.0,-7754.96142578125,5293.6875,-5931.0595703125,-4742.9404296875,-494.3211669921875,5633.8310546875,-7456.9384765625,851.9490356445312,-5855.560546875,-3417.3330078125,-1889.8646240234375,6641.546875,9782.314453125,-21318.59375,-9005.0693359375,-1018.04736328125,1337.5281982421875,-9995.30078125,-1411.43798828125,-3770.1923828125,-15873.9091796875,700.1558837890625,-1107.0570068359375,1841.38623046875,-10771.7509765625,-3299.713134765625,0.0,-1709.461181640625,0.0,-3534.157958984375,-0.0,2457.30078125
-14925.0029296875,-17857.55078125,-5446.275390625,-1396.338134765625,-766.1183471679688,9613.037109375,-5253.95068359375,-2400.875,-1297.7918701171875,6023.248046875,-8195.2412109375,-13175.8046875,-3641.4462890625,5409.7177734375,119.20928955078125,-9348.392578125,-940.1639404296875,-154.97207641601562,2645.651611328125,13177.39453125,2278.487060546875,6635.98388671875,-1260.4395751953125,11997.22265625,-3711.382568359375,-6358.62353515625,-4285.1767578125,-4265.30859375,-8161.8623046875,-3305.276123046875,3640.651611328125,2342.065185546875,-345.7069396972656,-715.2557373046875,-2586.046875,3757.476806640625,-4084.1103515625,15459.060546875,-5637.8046875,-0.0,-7759.72998046875,5288.9189453125,-5935.033203125,-4749.2978515625,-495.91064453125,5630.65185546875,-7417.2021484375,846.385986328125,-5858.7392578125,-3422.101318359375,-1878.7384033203125,6634.39404296875,8541.7431640625,-21324.953125,-8999.5068359375,-1021.2262573242188,1347.8597412109375,-10012.7861328125,-1402.696044921875,-3780.52392578125,-15900.9306640625,693.798095703125,-1107.8516845703125,1821.5179443359375,-10768.5732421875,-3312.4287109375,0.0,-1726.1505126953125,0.0,-3546.873779296875,-0.0,2445.3798828125
-14889.240234375,-17923.513671875,-5452.6328125,-1412.2327880859375,-773.2709350585938,9601.91015625,-5260.30859375,-2411.20654296875,-1305.739013671875,6014.505859375,-8181.7314453125,-13187.7255859375,-3643.83056640625,5395.41259765625,116.0303726196289,-9369.0556640625,-954.4690551757812,-166.09828186035156,2637.7041015625,13169.4482421875,2270.53955078125,6625.65234375,-1268.3868408203125,11986.0966796875,-3728.072021484375,-6376.90234375,-4285.1767578125,-4279.61328125,-8153.91552734375,-3308.455322265625,3628.730712890625,2316.634033203125,-356.0384216308594,-726.3819580078125,-2595.583740234375,3744.76123046875,-4091.2626953125,15447.9345703125,-5689.46240234375,-0.0,-7767.67724609375,5278.58740234375,-5942.18603515625,-4761.21923828125,-505.4473876953125,5620.32080078125,-7443.42822265625,827.3125,-5862.712890625,-3429.25390625,-1880.327880859375,6620.8837890625,7740.65625,-21347.205078125,-8990.7646484375,-1050.6312255859375,1349.44921875,-10041.396484375,-1405.8748779296875,-3789.265869140625,-15917.6201171875,682.671875,-1115.7989501953125,1780.98681640625,-10764.5986328125,-3329.912841796875,0.0,-1746.018798828125,0.0,-3577.8681640625,-0.0,2407.23291015625
-14895.5986328125,-17899.671875,-5470.91162109375,-1420.179931640625,-784.3970947265625,9598.732421875,-5271.4345703125,-2419.15380859375,-1324.8125,5992.25390625,-8190.47265625,-13190.1103515625,-3639.062255859375,5389.0546875,96.9568862915039,-9367.4658203125,-956.8532104492188,-174.04556274414062,2627.372802734375,13144.810546875,2264.9765625,6620.0888671875,-1276.3341064453125,11979.7392578125,-3738.4033203125,-6376.90234375,-4299.48193359375,-4285.97119140625,-8157.88916015625,-3310.83935546875,3623.96240234375,2322.197021484375,-361.60150146484375,-730.3555908203125,-2604.325439453125,3739.992919921875,-4103.18359375,15439.9873046875,-5674.3623046875,-0.0,-7781.1875,5270.64013671875,-5953.31201171875,-4766.7822265625,-518.957763671875,5607.60498046875,-7481.5751953125,823.3388061523438,-5873.04443359375,-3434.022216796875,-1897.8118896484375,6614.5263671875,7575.35302734375,-21345.615234375,-8993.943359375,-1055.3995361328125,1331.965087890625,-10044.5751953125,-1417.0010986328125,-3794.8291015625,-15893.7783203125,674.724609375,-1130.8988037109375,1783.3709716796875,-10768.5732421875,-3333.091796875,0.0,-1736.4820556640625,0.0,-3566.741943359375,-0.0,2412.00146484375
-14892.4189453125,-17842.451171875,-5486.01171875,-1432.1009521484375,-798.7022705078125,9587.60546875,-5285.73974609375,-2434.253662109375,-1335.14404296875,5961.25927734375,-8205.5732421875,-13199.646484375,-3644.62548828125,5389.0546875,82.65177154541016,-9376.2080078125,-967.1846923828125,-185.96649169921875,2613.067626953125,13120.96875,2247.492431640625,6604.98974609375,-1291.4339599609375,11966.228515625,-3754.2978515625,-6383.26025390625,-4312.197265625,-4296.302734375,-8161.8623046875,-3326.73388671875,3611.246826171875,2319.01806640625,-375.1119079589844,-743.865966796875,-2617.8359375,3727.277099609375,-4115.8994140625,15426.4765625,-5641.7783203125,-0.0,-7797.876953125,5256.3349609375,-5966.02783203125,-4778.703125,-531.6734619140625,5589.326171875,-7479.98583984375,813.00732421875,-5888.93896484375,-3445.1484375,-1912.116943359375,6601.810546875,7177.1943359375,-21343.23046875,-8998.7119140625,-1047.4522705078125,1314.4810791015625,-10058.8798828125,-1437.6640625,-3820.26025390625,-15899.33984375,662.0089111328125,-1146.7933349609375,1792.1129150390625,-10783.671875,-3343.423095703125,0.0,-1747.608154296875,0.0,-3581.841796875,-0.0,2400.875
-14860.6298828125,-17813.046875,-5478.06396484375,-1437.6640625,-791.5496826171875,9584.4267578125,-5287.3291015625,-2442.200927734375,-1347.8597412109375,5925.49658203125,-8209.5458984375,-13206.7998046875,-3658.1357421875,5366.80224609375,88.21487426757812,-9384.94921875,-971.9530639648438,-186.76121520996094,2607.504638671875,13098.716796875,2249.081787109375,6602.60546875,-1290.6392822265625,11963.0498046875,-3742.376953125,-6382.46533203125,-4306.63427734375,-4297.89208984375,-8157.88916015625,-3338.65478515625,3608.06787109375,2314.249755859375,-375.9066162109375,-749.4290771484375,-2617.8359375,3724.892822265625,-4118.28369140625,15420.9140625,-5658.4677734375,-0.0,-7791.51904296875,5253.95068359375,-5965.23291015625,-4782.6767578125,-538.8259887695312,5571.84228515625,-7464.0908203125,805.06005859375,-5875.4287109375,-3445.943115234375,-1907.3486328125,6597.0419921875,6305.37646484375,-21345.615234375,-8994.73828125,-1047.4522705078125,1320.044189453125,-10077.1591796875,-1448.7901611328125,-3857.612548828125,-15892.982421875,658.8300170898438,-1160.3037109375,1778.6025390625,-10786.056640625,-3348.986328125,0.0,-1768.2711181640625,0.0,-3608.862548828125,-0.0,2376.238525390625
-14904.33984375,-17892.51953125,-5493.1640625,-1443.2271728515625,-797.9075317382812,9578.068359375,-5296.0712890625,-2446.174560546875,-1365.34375,5904.0390625,-8219.8779296875,-13215.5419921875,-3662.904052734375,5338.19189453125,87.4201431274414,-9382.5654296875,-983.8739624023438,-194.70851135253906,2598.762451171875,13078.0537109375,2241.92919921875,6599.42626953125,-1296.9970703125,11955.1015625,-3746.3505859375,-6388.02880859375,-4312.9921875,-4300.2763671875,-8169.81005859375,-3351.37060546875,3599.325927734375,2303.918212890625,-387.0328369140625,-755.786865234375,-2625.783203125,3718.53515625,-4127.8203125,15412.1708984375,-5685.48828125,-0.0,-7799.466796875,5249.18212890625,-5973.974609375,-4789.0341796875,-550.7469482421875,5566.27880859375,-7483.958984375,798.7022705078125,-5881.7861328125,-3451.50634765625,-1908.9381103515625,6595.45263671875,6566.8427734375,-21361.509765625,-9006.6591796875,-1055.3995361328125,1321.6336669921875,-10050.9326171875,-1459.91650390625,-3860.79150390625,-15909.671875,650.0880126953125,-1171.429931640625,1753.1712646484375,-10784.466796875,-3357.728271484375,0.0,-1787.3446044921875,0.0,-3627.141357421875,-0.0,2358.75439453125
-14940.1025390625,-17906.82421875,-5499.52197265625,-1448.7901611328125,-806.6495361328125,9571.7119140625,-5303.22412109375,-2455.71142578125,-1378.8541259765625,5918.34423828125,-8217.494140625,-13218.720703125,-3683.567138671875,5329.4501953125,66.7572021484375,-9391.3076171875,-992.6160278320312,-202.65579223632812,2591.60986328125,13074.080078125,2232.392578125,6590.6845703125,-1304.149658203125,11947.1552734375,-3758.271484375,-6395.9755859375,-4324.9130859375,-4311.40283203125,-8179.34716796875,-3356.138916015625,3592.968017578125,2285.639404296875,-394.1853942871094,-762.939453125,-2632.935791015625,3712.971923828125,-4135.767578125,15403.4296875,-5706.1513671875,-0.0,-7808.20849609375,5243.61962890625,-5981.92236328125,-4797.77685546875,-560.28369140625,5559.92138671875,-7502.23779296875,793.933837890625,-5892.1181640625,-3453.890625,-1929.60107421875,6580.3525390625,8246.8984375,-21379.7890625,-9017.78515625,-1060.16796875,1304.9443359375,-10042.9853515625,-1469.4532470703125,-3848.87060546875,-15939.0771484375,643.7301635742188,-1176.9930419921875,1740.45556640625,-10793.208984375,-3360.112548828125,0.0,-1780.1920166015625,0.0,-3619.194091796875,-0.0,2366.701904296875
-14907.51953125,-17840.06640625,-5502.70068359375,-1442.432373046875,-796.3180541992188,9582.8369140625,-5289.71337890625,-2445.3798828125,-1359.7806396484375,5948.54345703125,-8199.21484375,-13206.0048828125,-3676.41455078125,5346.93408203125,80.26758575439453,-9383.361328125,-983.8739624023438,-192.32432556152344,2606.709716796875,13096.3330078125,2241.92919921875,6598.63134765625,-1292.228759765625,11959.8701171875,-3755.88720703125,-6388.8232421875,-4309.81298828125,-4300.2763671875,-8172.98876953125,-3345.807373046875,3604.888916015625,2295.17626953125,-389.4170227050781,-755.786865234375,-2621.809814453125,3723.303466796875,-4119.078125,15418.529296875,-5691.05126953125,-0.0,-7804.23486328125,5257.92431640625,-5968.412109375,-4787.4453125,-542.0048828125,5575.021484375,-7499.05908203125,799.4969482421875,-5879.40234375,-3445.1484375,-1916.8853759765625,6593.068359375,9921.3916015625,-21367.869140625,-9010.6328125,-1056.989013671875,1317.6600341796875,-10040.6005859375,-1444.0218505859375,-3836.94970703125,-15917.6201171875,657.2405395507812,-1158.71435546875,1765.09228515625,-10785.26171875,-3344.218017578125,0.0,-1781.781494140625,0.0,-3608.06787109375,-0.0,2387.36474609375
-14865.3984375,-17836.09375,-5500.31640625,-1436.8692626953125,-789.960205078125,9588.400390625,-5280.1767578125,-2436.637939453125,-1338.322998046875,5962.8486328125,-8179.34716796875,-13203.62109375,-3654.162109375,5381.107421875,98.54634857177734,-9400.8447265625,-975.1319580078125,-182.78758239746094,2618.630615234375,13116.99609375,2250.67138671875,6606.57861328125,-1285.076171875,11965.43359375,-3751.118896484375,-6376.90234375,-4299.48193359375,-4299.48193359375,-8168.220703125,-3340.244384765625,3612.836181640625,2307.891845703125,-379.8802795410156,-749.4290771484375,-2615.451904296875,3728.86669921875,-4106.36279296875,15427.271484375,-5693.435546875,-0.0,-7800.26123046875,5266.66650390625,-5958.875,-4780.29248046875,-527.6997680664062,5588.53125,-7495.8798828125,805.8547973632812,-5869.0703125,-3441.1748046875,-1899.4013671875,6597.8369140625,10427.6337890625,-21355.947265625,-9004.275390625,-1059.373291015625,1331.965087890625,-10037.421875,-1431.3062744140625,-3815.491943359375,-15911.2607421875,664.3931274414062,-1144.4091796875,1795.2918701171875,-10774.1357421875,-3336.2705078125,0.0,-1752.3765869140625,0.0,-3585.8154296875,-0.0,2402.464599609375
-14847.119140625,-17820.19921875,-5462.16943359375,-1405.0802001953125,-760.5552978515625,9620.189453125,-5249.18212890625,-2402.464599609375,-1298.5865478515625,5997.02197265625,-8145.96826171875,-13182.1630859375,-3654.162109375,5444.685546875,119.20928955078125,-9366.671875,-946.521728515625,-152.587890625,2649.625,13160.705078125,2279.28173828125,6637.5732421875,-1253.2869873046875,11997.22265625,-3718.53515625,-6341.93408203125,-4276.4345703125,-4264.513671875,-8157.09423828125,-3320.376220703125,3641.4462890625,2335.70751953125,-348.09112548828125,-719.2293701171875,-2585.251953125,3761.450439453125,-4078.547119140625,15460.650390625,-5665.6201171875,-0.0,-7767.67724609375,5300.83984375,-5930.26513671875,-4747.708984375,-495.91064453125,5624.29443359375,-7456.9384765625,834.4650268554688,-5842.8447265625,-3416.538330078125,-1877.14892578125,6631.21533203125,10476.1123046875,-21339.2578125,-8993.943359375,-1041.094482421875,1339.912353515625,-10019.9384765625,-1405.8748779296875,-3786.881591796875,-15881.0615234375,693.0033569335938,-1107.8516845703125,1858.8701171875,-10751.087890625,-3310.83935546875,0.0,-1705.487548828125,0.0,-3547.66845703125,-0.0,2453.3271484375
-14890.830078125,-17872.65234375,-5438.32763671875,-1386.8013916015625,-734.3292236328125,9644.826171875,-5225.34033203125,-2375.443603515625,-1273.949951171875,6020.0693359375,-8149.14697265625,-13164.6796875,-3643.035888671875,5461.375,143.0511474609375,-9324.55078125,-924.2693481445312,-131.13021850585938,2672.67236328125,13187.7255859375,2303.12353515625,6662.2099609375,-1228.650390625,12023.44921875,-3693.8984375,-6306.17138671875,-4253.3876953125,-4235.9033203125,-8145.1728515625,-3306.071044921875,3664.49365234375,2354.781005859375,-325.8387145996094,-693.798095703125,-2559.82080078125,3785.29248046875,-4057.08935546875,15486.0810546875,-5606.81005859375,-0.0,-7741.451171875,5329.4501953125,-5908.01220703125,-4723.072265625,-470.4793395996094,5650.5205078125,-7416.4072265625,848.7701416015625,-5822.9765625,-3405.411865234375,-1854.101806640625,6660.6201171875,10468.1650390625,-21373.4296875,-8980.43359375,-1035.5313720703125,1347.8597412109375,-10006.427734375,-1382.8277587890625,-3758.271484375,-15855.630859375,717.639892578125,-1084.009765625,1877.943603515625,-10741.5517578125,-3294.150146484375,0.0,-1691.9771728515625,0.0,-3534.952880859375,-0.0,2477.1689453125
-14960.765625,-17916.361328125,-5427.20166015625,-1382.032958984375,-737.5081176757812,9632.9052734375,-5231.69873046875,-2383.39111328125,-1283.4866943359375,6020.0693359375,-8184.115234375,-13177.39453125,-3619.98876953125,5439.12255859375,141.46168518066406,-9341.240234375,-931.4219360351562,-142.2564239501953,2666.314453125,13185.341796875,2298.35498046875,6649.494140625,-1236.59765625,12012.322265625,-3685.156494140625,-6310.14501953125,-4256.56640625,-4251.00341796875,-8145.1728515625,-3325.14453125,3654.956787109375,2343.654541015625,-332.1965637207031,-700.9506225585938,-2566.178466796875,3774.960693359375,-4063.447509765625,15477.33984375,-5618.73095703125,-0.0,-7736.68310546875,5314.35009765625,-5911.19140625,-4734.9931640625,-478.4266052246094,5647.34130859375,-7393.3603515625,857.5121459960938,-5826.1552734375,-3404.6171875,-1854.896484375,6649.494140625,9961.1279296875,-21419.525390625,-8982.8173828125,-1068.9100341796875,1363.7542724609375,-10013.580078125,-1388.390869140625,-3752.70849609375,-15877.8818359375,709.692626953125,-1089.5728759765625,1866.022705078125,-10759.0361328125,-3304.4814453125,0.0,-1704.69287109375,0.0,-3534.952880859375,-0.0,2473.990234375
-14937.71875,-17908.4140625,-5427.20166015625,-1386.0067138671875,-746.2501220703125,9620.984375,-5239.6455078125,-2393.72265625,-1295.4075927734375,6003.3798828125,-8175.373046875,-13181.369140625,-3619.194091796875,5420.04931640625,146.2300567626953,-9344.4189453125,-941.75341796875,-151.7931671142578,2655.98291015625,13169.4482421875,2287.228759765625,6639.95751953125,-1246.92919921875,12001.9912109375,-3692.30908203125,-6315.7080078125,-4259.7451171875,-4266.10302734375,-8150.73681640625,-3343.423095703125,3643.035888671875,2335.70751953125,-337.7596435546875,-712.87158203125,-2575.71533203125,3762.2451171875,-4071.39453125,15467.0078125,-5649.7255859375,-0.0,-7745.4248046875,5303.22412109375,-5919.138671875,-4746.9140625,-483.1949768066406,5636.21533203125,-7427.53369140625,855.1279907226562,-5838.076171875,-3429.25390625,-1850.128173828125,6639.95751953125,8633.931640625,-21401.24609375,-8990.7646484375,-1087.9835205078125,1373.291015625,-10015.96484375,-1391.5697021484375,-3774.960693359375,-15905.69921875,697.771728515625,-1099.109619140625,1856.4859619140625,-10763.0087890625,-3306.86572265625,0.0,-1726.9453125,0.0,-3552.436767578125,-0.0,2456.506103515625
-14910.6982421875,-17916.361328125,-5457.4013671875,-1424.1536865234375,-768.5025634765625,9608.2685546875,-5253.95068359375,-2407.23291015625,-1302.5601806640625,5993.84326171875,-8186.49951171875,-13190.9052734375,-3631.114990234375,5420.04931640625,128.74603271484375,-9357.134765625,-955.2637939453125,-166.89300537109375,2643.267333984375,13159.9111328125,2266.56591796875,6624.857421875,-1262.82373046875,11986.8916015625,-3728.072021484375,-6356.2392578125,-4275.64013671875,-4270.87158203125,-8159.47802734375,-3354.54931640625,3626.3466796875,2326.96533203125,-357.62786865234375,-728.76611328125,-2594.788818359375,3747.93994140625,-4083.3154296875,15453.498046875,-5640.1884765625,-0.0,-7770.8564453125,5287.3291015625,-5936.62255859375,-4756.45068359375,-495.1159362792969,5621.115234375,-7458.52783203125,813.00732421875,-5855.560546875,-3424.4853515625,-1866.8175048828125,6628.03662109375,7628.599609375,-21371.046875,-8997.123046875,-1047.4522705078125,1362.164794921875,-10031.859375,-1403.49072265625,-3799.597412109375,-15900.9306640625,683.4666137695312,-1110.23583984375,1845.35986328125,-10775.7255859375,-3321.1708984375,0.0,-1741.2503662109375,0.0,-3575.484130859375,-0.0,2435.84326171875
-15031.4970703125,-17867.8828125,-5436.73828125,-1425.7431640625,-764.5289306640625,9608.2685546875,-5251.56640625,-2412.00146484375,-1306.5338134765625,5990.6640625,-8194.4462890625,-13186.931640625,-3635.088623046875,5412.1015625,134.3091278076172,-9364.287109375,-953.67431640625,-166.09828186035156,2641.677734375,13151.1689453125,2272.923828125,6628.03662109375,-1261.2342529296875,11986.0966796875,-3716.945556640625,-6356.2392578125,-4277.2294921875,-4277.2294921875,-8161.06787109375,-3357.728271484375,3627.93603515625,2325.375732421875,-352.06475830078125,-724.79248046875,-2592.404541015625,3749.529541015625,-4081.72607421875,15449.5234375,-5648.93115234375,-0.0,-7760.52490234375,5296.0712890625,-5935.82763671875,-4761.21923828125,-493.5264587402344,5613.962890625,-7421.97021484375,809.8284301757812,-5855.560546875,-3433.2275390625,-1863.6385498046875,6620.0888671875,7710.45703125,-21349.587890625,-8998.7119140625,-1024.4051513671875,1358.98583984375,-10015.169921875,-1393.9539794921875,-3806.75,-15866.7568359375,683.4666137695312,-1113.414794921875,1829.4652099609375,-10776.51953125,-3326.73388671875,0.0,-1730.9189453125,0.0,-3569.9208984375,-0.0,2427.895751953125
-14983.8134765625,-17840.06640625,-5423.22802734375,-1396.338134765625,-759.7605590820312,9605.884765625,-5249.97705078125,-2405.6435546875,-1308.91796875,5985.10107421875,-8188.08837890625,-13189.3154296875,-3643.83056640625,5405.744140625,126.36184692382812,-9349.1865234375,-947.3164672851562,-162.9193572998047,2641.677734375,13145.6064453125,2280.87109375,6628.03662109375,-1258.0552978515625,11988.48046875,-3708.99853515625,-6353.85498046875,-4277.2294921875,-4274.84521484375,-8161.8623046875,-3356.93359375,3631.90966796875,2331.733642578125,-345.7069396972656,-721.6135864257812,-2588.43115234375,3751.118896484375,-4082.52099609375,15453.498046875,-5662.44140625,-0.0,-7754.1669921875,5284.150390625,-5934.23828125,-4759.6298828125,-493.5264587402344,5618.73095703125,-7418.79150390625,845.5912475585938,-5851.5869140625,-3433.2275390625,-1869.9964599609375,6631.21533203125,8293.7880859375,-21361.509765625,-9000.3017578125,-1031.5577392578125,1351.03857421875,-10015.169921875,-1393.9539794921875,-3813.107666015625,-15858.0146484375,685.8507690429688,-1112.6199951171875,1823.107421875,-10775.7255859375,-3331.502197265625,0.0,-1733.3031005859375,0.0,-3573.89453125,-0.0,2427.10107421875
-14843.146484375,-17851.1953125,-5457.4013671875,-1414.616943359375,-767.7078247070312,9597.9375,-5255.54052734375,-2413.590576171875,-1312.8916015625,5979.5380859375,-8177.75732421875,-13196.46875,-3649.393798828125,5403.35986328125,120.00402069091797,-9343.6240234375,-956.8532104492188,-168.4824676513672,2636.909423828125,13144.0166015625,2265.771240234375,6619.29443359375,-1265.2078857421875,11981.328125,-3726.482421875,-6362.59716796875,-4284.3818359375,-4278.0244140625,-8166.630859375,-3349.781005859375,3626.3466796875,2329.349609375,-356.0384216308594,-733.5344848632812,-2596.37841796875,3742.376953125,-4087.289306640625,15446.345703125,-5680.7197265625,-0.0,-7771.65087890625,5275.408203125,-5940.59619140625,-4765.1923828125,-499.08953857421875,5612.37353515625,-7483.958984375,827.3125,-5856.35498046875,-3437.201171875,-1877.14892578125,6625.65234375,8157.88916015625,-21379.7890625,-9002.685546875,-1041.88916015625,1343.885986328125,-10026.2958984375,-1401.1064453125,-3798.802734375,-15880.2666015625,679.492919921875,-1117.388427734375,1818.3389892578125,-10789.2353515625,-3334.68115234375,0.0,-1736.4820556640625,0.0,-3574.689208984375,-0.0,2419.15380859375
-14789.8984375,-17855.962890625,-5498.7275390625,-1424.1536865234375,-777.2445678710938,9592.3740234375,-5261.10302734375,-2427.895751953125,-1313.6864013671875,5978.7431640625,-8175.373046875,-13204.4150390625,-3654.956787109375,5402.56494140625,116.0303726196289,-9369.8505859375,-971.1583251953125,-176.42974853515625,2632.935791015625,13140.837890625,2253.850341796875,6609.7578125,-1273.1552734375,11974.970703125,-3736.01904296875,-6373.7236328125,-4289.150390625,-4291.5341796875,-8166.630859375,-3331.502197265625,3616.01513671875,2315.04443359375,-373.5224304199219,-743.865966796875,-2606.709716796875,3734.4296875,-4092.85205078125,15439.1923828125,-5700.58837890625,-0.0,-7790.72412109375,5267.46142578125,-5949.33837890625,-4773.93505859375,-503.0632019042969,5600.45263671875,-7499.853515625,820.159912109375,-5862.712890625,-3439.58544921875,-1879.533203125,6607.37353515625,7635.75244140625,-21370.251953125,-9002.685546875,-1050.6312255859375,1335.9388427734375,-10038.216796875,-1411.43798828125,-3805.955078125,-15916.029296875,673.1351318359375,-1122.9515380859375,1816.74951171875,-10785.26171875,-3339.44970703125,0.0,-1740.45556640625,0.0,-3570.715576171875,-0.0,2419.948486328125
-14814.5361328125,-17851.1953125,-5506.67431640625,-1429.7166748046875,-782.8076782226562,9593.1689453125,-5267.46142578125,-2427.895751953125,-1319.24951171875,5977.15380859375,-8196.0361328125,-13203.62109375,-3660.519775390625,5405.744140625,102.51998901367188,-9380.9765625,-976.721435546875,-180.4033966064453,2629.7568359375,13138.453125,2250.67138671875,6604.98974609375,-1277.923583984375,11973.380859375,-3738.4033203125,-6379.2861328125,-4298.68701171875,-4286.76611328125,-8165.83642578125,-3325.14453125,3608.862548828125,2303.12353515625,-382.26446533203125,-750.2238159179688,-2611.47802734375,3730.4560546875,-4100.0048828125,15439.1923828125,-5688.66748046875,-0.0,-7793.9033203125,5258.71875,-5953.31201171875,-4772.34521484375,-509.4210510253906,5600.45263671875,-7506.2119140625,815.3915405273438,-5870.66015625,-3434.022216796875,-1892.248779296875,6607.37353515625,7599.19482421875,-21363.099609375,-9004.275390625,-1035.5313720703125,1324.8125,-10050.9326171875,-1413.8221435546875,-3808.33935546875,-15938.2822265625,669.1614990234375,-1125.335693359375,1813.5706787109375,-10777.314453125,-3342.62841796875,0.0,-1748.4029541015625,0.0,-3580.25244140625,-0.0,2415.18017578125
-14874.140625,-17874.240234375,-5499.52197265625,-1441.6376953125,-789.960205078125,9586.8115234375,-5271.4345703125,-2430.280029296875,-1323.22314453125,5975.564453125,-8203.1884765625,-13206.0048828125,-3635.88330078125,5393.8232421875,108.08309173583984,-9392.8974609375,-982.2845458984375,-185.96649169921875,2625.783203125,13135.2744140625,2244.3134765625,6598.63134765625,-1280.3077392578125,11967.0224609375,-3743.171630859375,-6381.67041015625,-4305.04443359375,-4285.97119140625,-8172.1943359375,-3340.244384765625,3601.7099609375,2299.149658203125,-383.8539123535156,-757.3763427734375,-2615.451904296875,3724.892822265625,-4103.18359375,15435.21875,-5695.02490234375,-0.0,-7797.08251953125,5252.361328125,-5958.080078125,-4776.31884765625,-509.4210510253906,5596.47900390625,-7500.6484375,800.2916870117188,-5886.5546875,-3445.1484375,-1889.0699462890625,6601.810546875,7934.5703125,-21376.609375,-9010.6328125,-1047.4522705078125,1331.17041015625,-10065.23828125,-1401.9012451171875,-3809.13427734375,-15923.9765625,664.3931274414062,-1130.10400390625,1808.80224609375,-10781.2880859375,-3343.423095703125,0.0,-1751.581787109375,0.0,-3582.636474609375,-0.0,2412.7958984375
-14919.4404296875,-17928.28125,-5486.80615234375,-1434.485107421875,-781.2182006835938,9584.4267578125,-5266.66650390625,-2430.280029296875,-1320.044189453125,5976.35888671875,-8189.67822265625,-13201.236328125,-3648.598876953125,5396.20751953125,113.64618682861328,-9383.361328125,-976.721435546875,-182.78758239746094,2628.16748046875,13139.248046875,2249.081787109375,6601.015625,-1276.3341064453125,11967.818359375,-3737.608642578125,-6380.8759765625,-4290.73974609375,-4294.71337890625,-8165.83642578125,-3341.833740234375,3608.06787109375,2303.918212890625,-377.49609375,-751.813232421875,-2610.683349609375,3728.072021484375,-4098.41552734375,15435.21875,-5679.92529296875,-0.0,-7788.34033203125,5257.1298828125,-5950.1328125,-4780.29248046875,-508.62628173828125,5598.068359375,-7476.01171875,809.8284301757812,-5871.45458984375,-3446.738037109375,-1881.9173583984375,6604.98974609375,8332.7294921875,-21390.119140625,-9003.4794921875,-1051.4259033203125,1344.6807861328125,-10038.216796875,-1417.7957763671875,-3811.518310546875,-15916.82421875,666.7772827148438,-1129.309326171875,1810.3917236328125,-10772.5458984375,-3335.475830078125,0.0,-1751.581787109375,0.0,-3581.841796875,-0.0,2414.385498046875
-14932.1552734375,-17949.740234375,-5468.52734375,-1423.35888671875,-773.2709350585938,9589.1953125,-5263.4873046875,-2423.12744140625,-1317.6600341796875,5978.7431640625,-8192.0625,-13194.083984375,-3642.2412109375,5403.35986328125,104.10944366455078,-9367.4658203125,-969.5689086914062,-174.8402862548828,2632.935791015625,13140.0419921875,2258.61865234375,6611.34716796875,-1270.77099609375,11974.17578125,-3725.687744140625,-6371.33935546875,-4286.76611328125,-4288.35546875,-8160.2734375,-3340.244384765625,3615.22021484375,2311.865478515625,-369.5487976074219,-742.2764892578125,-2603.53076171875,3732.84033203125,-4095.236328125,15440.78125,-5670.388671875,-0.0,-7777.2138671875,5266.66650390625,-5944.56982421875,-4773.93505859375,-507.8315734863281,5602.83642578125,-7460.1171875,821.7493896484375,-5860.32861328125,-3449.916748046875,-1890.6593017578125,6616.91064453125,8695.919921875,-21382.173828125,-8997.9169921875,-1061.7574462890625,1343.09130859375,-10033.4482421875,-1426.537841796875,-3820.26025390625,-15909.671875,670.7509155273438,-1125.335693359375,1811.1864013671875,-10777.314453125,-3335.475830078125,0.0,-1762.7080078125,0.0,-3586.610107421875,-0.0,2412.00146484375
-14967.1240234375,-17908.4140625,-5470.1171875,-1440.0482177734375,-784.3970947265625,9578.068359375,-5273.81884765625,-2432.6640625,-1321.6336669921875,5972.38525390625,-8213.5205078125,-13209.9794921875,-3654.162109375,5386.67041015625,98.54634857177734,-9371.439453125,-979.900390625,-187.5559539794922,2622.6044921875,13136.86328125,2250.67138671875,6601.015625,-1279.5130615234375,11965.43359375,-3737.608642578125,-6391.20703125,-4298.68701171875,-4298.68701171875,-8166.630859375,-3361.701904296875,3605.68359375,2301.533935546875,-378.2908020019531,-756.5816040039062,-2613.8623046875,3724.09814453125,-4103.978515625,15429.65625,-5690.2568359375,-0.0,-7785.16162109375,5252.361328125,-5954.10693359375,-4784.26611328125,-515.7788696289062,5595.68408203125,-7453.759765625,803.4705810546875,-5872.24951171875,-3461.837890625,-1900.196044921875,6607.37353515625,9595.5537109375,-21371.841796875,-9003.4794921875,-1086.3939208984375,1327.991455078125,-10022.322265625,-1419.38525390625,-3824.23388671875,-15904.9033203125,662.0089111328125,-1131.6934814453125,1804.033935546875,-10801.15625,-3345.807373046875,0.0,-1768.2711181640625,0.0,-3594.5576171875,-0.0,2404.848876953125
-14948.05078125,-17902.8515625,-5494.75341796875,-1459.91650390625,-804.2653198242188,9562.1748046875,-5290.50830078125,-2445.3798828125,-1331.17041015625,5966.822265625,-8245.30859375,-13227.462890625,-3673.235595703125,5379.51806640625,67.55193328857422,-9381.771484375,-998.1790771484375,-202.65579223632812,2608.29931640625,13129.7109375,2230.80322265625,6583.53173828125,-1297.7918701171875,11950.333984375,-3759.861083984375,-6417.43310546875,-4323.32373046875,-4306.63427734375,-8178.5517578125,-3368.059814453125,3588.19970703125,2284.8447265625,-400.543212890625,-773.2709350585938,-2632.14111328125,3708.99853515625,-4121.46240234375,15416.939453125,-5708.53564453125,-0.0,-7806.619140625,5232.4931640625,-5974.76953125,-4796.18701171875,-530.8787231445312,5584.55810546875,-7476.01171875,782.012939453125,-5892.1181640625,-3471.37451171875,-1929.60107421875,6591.47900390625,10960.896484375,-21389.326171875,-9016.990234375,-1079.241455078125,1305.739013671875,-10029.4755859375,-1440.0482177734375,-3823.439453125,-15921.5927734375,646.1143798828125,-1144.4091796875,1792.90771484375,-10808.30859375,-3356.93359375,0.0,-1783.3709716796875,0.0,-3604.09423828125,-0.0,2397.6962890625
-14913.876953125,-17896.494140625,-5506.67431640625,-1459.91650390625,-801.08642578125,9563.763671875,-5286.53466796875,-2442.995849609375,-1327.19677734375,5969.20654296875,-8236.5673828125,-13230.6416015625,-3673.235595703125,5381.107421875,74.7044906616211,-9396.87109375,-1000.5632934570312,-201.0663299560547,2609.888671875,13138.453125,2232.392578125,6583.53173828125,-1296.2022705078125,11951.12890625,-3755.092529296875,-6416.638671875,-4316.9658203125,-4310.60791015625,-8175.373046875,-3364.086181640625,3586.610107421875,2283.25537109375,-402.1326599121094,-774.8603515625,-2630.551513671875,3709.79296875,-4119.078125,15419.32421875,-5698.9990234375,-0.0,-7808.20849609375,5231.69873046875,-5970.7958984375,-4795.392578125,-529.2892456054688,5587.73681640625,-7507.00634765625,782.012939453125,-5884.17041015625,-3469.784912109375,-1924.8326416015625,6592.27392578125,11932.849609375,-21399.65625,-9012.22265625,-1066.5257568359375,1304.9443359375,-10050.9326171875,-1442.432373046875,-3824.23388671875,-15943.845703125,647.7037963867188,-1142.8197021484375,1784.96044921875,-10784.466796875,-3367.264892578125,0.0,-1778.6025390625,0.0,-3604.09423828125,-0.0,2396.106689453125
-14932.1552734375,-17905.234375,-5496.34326171875,-1459.1217041015625,-791.5496826171875,9571.7119140625,-5278.58740234375,-2432.6640625,-1324.017822265625,5980.3330078125,-8214.314453125,-13220.310546875,-3658.930419921875,5379.51806640625,94.57270050048828,-9380.9765625,-993.4107055664062,-193.9137725830078,2617.041259765625,13143.2216796875,2239.545166015625,6592.27392578125,-1288.255126953125,11959.8701171875,-3747.93994140625,-6403.1279296875,-4303.45556640625,-4301.0712890625,-8169.01513671875,-3355.343994140625,3591.37841796875,2286.43408203125,-392.5959167480469,-769.2973022460938,-2622.6044921875,3718.53515625,-4108.7470703125,15426.4765625,-5704.5615234375,-0.0,-7801.0556640625,5243.61962890625,-5961.25927734375,-4787.4453125,-521.3419799804688,5595.68408203125,-7510.18505859375,782.012939453125,-5872.24951171875,-3458.658935546875,-1904.9644775390625,6606.57861328125,11890.728515625,-21386.146484375,-9007.4541015625,-1052.220703125,1324.8125,-10049.3427734375,-1429.7166748046875,-3832.97607421875,-15947.818359375,660.41943359375,-1135.667236328125,1792.1129150390625,-10783.671875,-3364.880859375,0.0,-1769.860595703125,0.0,-3597.736328125,-0.0,2407.23291015625
-14927.3876953125,-17910.00390625,-5503.49560546875,-1476.605712890625,-792.3444213867188,9575.6845703125,-5276.998046875,-2427.895751953125,-1331.965087890625,5970.7958984375,-8195.2412109375,-13215.5419921875,-3656.54638671875,5369.1865234375,104.10944366455078,-9387.333984375,-991.0265502929688,-193.9137725830078,2618.630615234375,13132.095703125,2237.955810546875,6595.45263671875,-1287.4603271484375,11963.0498046875,-3752.70849609375,-6405.51220703125,-4299.48193359375,-4299.48193359375,-8170.6044921875,-3349.781005859375,3594.5576171875,2289.613037109375,-393.3906555175781,-765.3236083984375,-2622.6044921875,3721.714111328125,-4108.7470703125,15429.65625,-5688.66748046875,-0.0,-7805.029296875,5247.5927734375,-5959.66943359375,-4783.4716796875,-521.3419799804688,5598.86328125,-7515.74853515625,762.939453125,-5874.6337890625,-3457.864013671875,-1893.04345703125,6610.55224609375,11727.015625,-21378.994140625,-9009.0439453125,-1053.81005859375,1335.14404296875,-10046.1640625,-1424.9483642578125,-3836.94970703125,-15940.666015625,661.2141723632812,-1138.8460693359375,1789.728759765625,-10794.798828125,-3365.67578125,0.0,-1765.09228515625,0.0,-3605.68359375,-0.0,2392.927978515625
-14925.0029296875,-17905.234375,-5507.46923828125,-1461.505859375,-793.933837890625,9576.4794921875,-5277.79248046875,-2438.227294921875,-1332.7598876953125,5967.6171875,-8196.0361328125,-13217.1318359375,-3663.698974609375,5390.64404296875,102.51998901367188,-9402.4345703125,-990.2318725585938,-194.70851135253906,2615.451904296875,13128.9169921875,2237.160888671875,6594.65771484375,-1289.0498046875,11959.076171875,-3755.092529296875,-6397.5654296875,-4301.8662109375,-4307.4287109375,-8172.98876953125,-3354.54931640625,3596.941650390625,2289.613037109375,-393.3906555175781,-764.5289306640625,-2621.809814453125,3721.714111328125,-4110.33642578125,15424.0927734375,-5688.66748046875,-0.0,-7805.82421875,5246.7978515625,-5962.0537109375,-4788.23974609375,-522.931396484375,5591.71044921875,-7499.853515625,779.6287841796875,-5878.607421875,-3455.47998046875,-1894.6329345703125,6593.068359375,11427.40234375,-21394.888671875,-9010.6328125,-1073.6783447265625,1331.965087890625,-10052.521484375,-1421.76953125,-3820.26025390625,-15938.2822265625,658.8300170898438,-1141.230224609375,1809.5970458984375,-10808.30859375,-3363.29150390625,0.0,-1760.3238525390625,0.0,-3593.7626953125,-0.0,2399.28564453125
-14948.8447265625,-17905.234375,-5476.474609375,-1421.76953125,-772.4761962890625,9598.732421875,-5260.30859375,-2427.10107421875,-1317.6600341796875,5985.10107421875,-8207.162109375,-13200.4423828125,-3639.062255859375,5410.51220703125,135.89859008789062,-9372.234375,-971.9530639648438,-175.63502502441406,2632.935791015625,13144.810546875,2260.2080078125,6616.11572265625,-1269.181640625,11978.1494140625,-3724.09814453125,-6372.1337890625,-4281.20263671875,-4285.1767578125,-8156.2998046875,-3342.62841796875,3615.22021484375,2303.12353515625,-371.9329833984375,-743.0712280273438,-2602.736328125,3739.992919921875,-4091.2626953125,15440.78125,-5674.3623046875,-0.0,-7780.39306640625,5265.0771484375,-5942.18603515625,-4770.755859375,-504.6526794433594,5598.86328125,-7461.70654296875,821.7493896484375,-5857.1494140625,-3435.61181640625,-1862.8438720703125,6608.962890625,10497.5703125,-21401.24609375,-8993.943359375,-1072.0888671875,1361.3701171875,-10030.26953125,-1399.51708984375,-3818.6708984375,-15923.9765625,676.3140258789062,-1125.335693359375,1824.6968994140625,-10790.8251953125,-3337.0654296875,0.0,-1752.3765869140625,0.0,-3573.099853515625,-0.0,2419.15380859375
-14996.5283203125,-17919.541015625,-5450.24853515625,-1404.285400390625,-757.3763427734375,9611.447265625,-5242.02978515625,-2409.6171875,-1310.5074462890625,5988.27978515625,-8209.5458984375,-13190.1103515625,-3604.09423828125,5396.20751953125,174.8402862548828,-9352.3662109375,-958.4426879882812,-158.9457244873047,2645.651611328125,13147.1953125,2275.307861328125,6630.4208984375,-1253.2869873046875,11991.66015625,-3700.25634765625,-6357.0341796875,-4258.15576171875,-4269.28173828125,-8148.3525390625,-3341.833740234375,3629.525390625,2315.839111328125,-357.62786865234375,-729.5608520507812,-2586.841552734375,3754.2978515625,-4074.573486328125,15453.498046875,-5659.26220703125,-0.0,-7759.72998046875,5282.56103515625,-5924.70166015625,-4755.65576171875,-489.55279541015625,5612.37353515625,-7436.275390625,836.0545043945312,-5840.46044921875,-3429.25390625,-1824.6968994140625,6629.6259765625,9334.0869140625,-21404.423828125,-8985.99609375,-1046.6575927734375,1402.696044921875,-10013.580078125,-1380.443603515625,-3800.39208984375,-15918.4130859375,690.619140625,-1114.20947265625,1815.954833984375,-10774.9296875,-3322.76025390625,0.0,-1745.2239990234375,0.0,-3573.099853515625,-0.0,2417.564453125
-14952.0234375,-17893.314453125,-5443.89111328125,-1396.338134765625,-747.839599609375,9620.984375,-5233.28759765625,-2394.51708984375,-1281.897216796875,6013.71142578125,-8207.162109375,-13175.8046875,-3602.504638671875,5433.5595703125,162.1246337890625,-9354.7509765625,-945.72705078125,-147.02479553222656,2658.3671875,13178.984375,2284.050048828125,6640.75244140625,-1242.95556640625,12003.5810546875,-3699.461669921875,-6349.0869140625,-4253.3876953125,-4266.10302734375,-8143.58447265625,-3337.0654296875,3639.85693359375,2330.144287109375,-348.09112548828125,-716.84521484375,-2576.51025390625,3765.424072265625,-4065.036865234375,15467.802734375,-5619.52587890625,-0.0,-7751.78271484375,5292.892578125,-5915.9599609375,-4744.52978515625,-476.04241943359375,5638.599609375,-7433.89111328125,844.0017700195312,-5833.3076171875,-3416.538330078125,-1836.6177978515625,6638.3681640625,9191.0361328125,-21374.2265625,-8978.84375,-1026.789306640625,1395.54345703125,-10019.1435546875,-1378.8541259765625,-3759.861083984375,-15907.287109375,703.3348388671875,-1094.34130859375,1832.6441650390625,-10763.0087890625,-3311.634033203125,0.0,-1715.0242919921875,0.0,-3551.64208984375,-0.0,2439.02197265625
-14913.08203125,-17870.267578125,-5437.53271484375,-1413.8221435546875,-750.2238159179688,9612.2431640625,-5239.6455078125,-2396.9013671875,-1277.923583984375,6036.75830078125,-8234.18359375,-13181.369140625,-3619.98876953125,5443.09619140625,141.46168518066406,-9358.7236328125,-948.1112060546875,-150.99842834472656,2655.188232421875,13195.673828125,2283.25537109375,6635.98388671875,-1246.1343994140625,11999.607421875,-3695.488037109375,-6364.1865234375,-4262.12939453125,-4268.4873046875,-8157.09423828125,-3337.860107421875,3636.677978515625,2326.96533203125,-348.8858642578125,-721.6135864257812,-2579.68896484375,3758.271484375,-4071.39453125,15465.4189453125,-5648.13623046875,-0.0,-7752.5771484375,5283.35546875,-5920.72802734375,-4747.708984375,-481.60552978515625,5640.1884765625,-7445.017578125,828.107177734375,-5838.076171875,-3433.2275390625,-1855.6912841796875,6635.18896484375,9713.1728515625,-21355.15234375,-8994.73828125,-1023.6104736328125,1383.62255859375,-10019.1435546875,-1395.54345703125,-3763.039794921875,-15905.69921875,700.1558837890625,-1093.5465087890625,1836.6177978515625,-10778.109375,-3317.197021484375,0.0,-1716.61376953125,0.0,-3544.489501953125,-0.0,2445.3798828125
-14980.6337890625,-17909.208984375,-5470.1171875,-1444.0218505859375,-784.3970947265625,9592.3740234375,-5269.05078125,-2422.332763671875,-1300.970703125,6009.7373046875,-8259.6142578125,-13209.18359375,-3671.64599609375,5412.1015625,95.367431640625,-9376.2080078125,-976.721435546875,-178.81393432617188,2628.16748046875,13169.4482421875,2253.0556640625,6610.55224609375,-1275.5394287109375,11974.970703125,-3736.813720703125,-6385.64453125,-4295.5078125,-4281.99755859375,-8189.67822265625,-3356.93359375,3611.246826171875,2303.12353515625,-377.49609375,-749.4290771484375,-2610.683349609375,3734.4296875,-4100.0048828125,15440.78125,-5679.92529296875,-0.0,-7783.57177734375,5261.10302734375,-5952.51708984375,-4767.57666015625,-507.036865234375,5608.39990234375,-7474.42236328125,795.5233154296875,-5876.22314453125,-3439.58544921875,-1900.196044921875,6612.14208984375,9797.4140625,-21373.4296875,-9028.1171875,-1048.2469482421875,1331.17041015625,-10041.396484375,-1406.669677734375,-3805.16064453125,-15928.7451171875,674.724609375,-1121.362060546875,1809.5970458984375,-10800.361328125,-3345.807373046875,0.0,-1761.1185302734375,0.0,-3586.610107421875,-0.0,2402.464599609375
-15068.0546875,-17907.619140625,-5472.50146484375,-1449.5849609375,-790.7549438476562,9594.7578125,-5277.79248046875,-2425.51171875,-1316.070556640625,5977.94873046875,-8224.646484375,-13210.7734375,-3682.7724609375,5406.53857421875,81.06231689453125,-9368.2607421875,-977.5161743164062,-181.1981201171875,2624.19384765625,13145.6064453125,2250.67138671875,6611.34716796875,-1281.1025390625,11974.17578125,-3749.529541015625,-6383.26025390625,-4307.4287109375,-4284.3818359375,-8187.2939453125,-3351.37060546875,3609.6572265625,2299.149658203125,-379.0855407714844,-749.4290771484375,-2613.8623046875,3736.01904296875,-4107.9521484375,15436.013671875,-5699.79345703125,-0.0,-7790.72412109375,5266.66650390625,-5961.25927734375,-4769.9609375,-518.957763671875,5601.2470703125,-7472.0380859375,789.960205078125,-5875.4287109375,-3440.380126953125,-1914.501220703125,6616.11572265625,9034.474609375,-21376.609375,-9022.5537109375,-1055.3995361328125,1308.91796875,-10048.548828125,-1427.33251953125,-3810.7236328125,-15931.1298828125,669.9561767578125,-1133.282958984375,1810.3917236328125,-10804.3359375,-3345.0126953125,0.0,-1766.681640625,0.0,-3596.146728515625,-0.0,2401.669677734375
-15087.921875,-17887.75,-5447.06982421875,-1429.7166748046875,-782.012939453125,9599.5263671875,-5278.58740234375,-2436.637939453125,-1334.3492431640625,5946.1591796875,-8194.4462890625,-13206.7998046875,-3675.619873046875,5389.84912109375,92.98324584960938,-9384.1552734375,-965.59521484375,-176.42974853515625,2620.22021484375,13113.021484375,2259.41357421875,6618.5,-1278.7183837890625,11974.970703125,-3741.582275390625,-6353.85498046875,-4302.66064453125,-4290.73974609375,-8178.5517578125,-3343.423095703125,3618.3994140625,2309.4814453125,-367.16461181640625,-740.6870727539062,-2608.29931640625,3739.197998046875,-4107.9521484375,15431.2451171875,-5674.3623046875,-0.0,-7779.59814453125,5275.408203125,-5956.4912109375,-4773.14013671875,-525.3156127929688,5586.9423828125,-7421.17529296875,812.212646484375,-5869.865234375,-3445.1484375,-1901.7855224609375,6603.39990234375,8190.47265625,-21371.046875,-9015.4013671875,-1063.346923828125,1312.096923828125,-10050.9326171875,-1434.485107421875,-3822.64453125,-15908.8759765625,669.1614990234375,-1144.4091796875,1810.3917236328125,-10800.361328125,-3339.44970703125,0.0,-1741.2503662109375,0.0,-3573.89453125,-0.0,2419.15380859375
-14891.6240234375,-17954.5078125,-5454.22216796875,-1424.1536865234375,-783.6024169921875,9600.3212890625,-5276.998046875,-2428.690673828125,-1331.965087890625,5958.875,-8177.75732421875,-13206.7998046875,-3674.0302734375,5393.0283203125,78.67813110351562,-9373.82421875,-963.2110595703125,-175.63502502441406,2621.014892578125,13118.5849609375,2259.41357421875,6619.29443359375,-1277.923583984375,11976.5595703125,-3750.32421875,-6337.166015625,-4307.4287109375,-4291.5341796875,-8172.1943359375,-3351.37060546875,3619.194091796875,2315.04443359375,-367.9593505859375,-735.918701171875,-2607.504638671875,3738.4033203125,-4109.54150390625,15435.21875,-5684.69384765625,-0.0,-7783.57177734375,5280.1767578125,-5957.28564453125,-4774.7294921875,-524.5208740234375,5592.5048828125,-7435.48046875,819.3651733398438,-5874.6337890625,-3465.0166015625,-1915.2958984375,6612.9365234375,7722.3779296875,-21392.50390625,-9009.837890625,-1072.883544921875,1300.176025390625,-10044.5751953125,-1438.458740234375,-3832.18115234375,-15898.5458984375,671.545654296875,-1139.640869140625,1820.72314453125,-10793.208984375,-3331.502197265625,0.0,-1742.83984375,0.0,-3573.89453125,-0.0,2427.895751953125
-14791.48828125,-17958.482421875,-5475.6796875,-1443.2271728515625,-793.933837890625,9583.6328125,-5284.150390625,-2432.6640625,-1333.5545654296875,5955.6962890625,-8180.93603515625,-13219.515625,-3674.0302734375,5391.43896484375,77.08867645263672,-9377.796875,-975.9266967773438,-187.5559539794922,2613.8623046875,13127.3271484375,2245.1083984375,6604.19482421875,-1285.870849609375,11965.43359375,-3758.271484375,-6384.0546875,-4315.37646484375,-4298.68701171875,-8176.16748046875,-3387.927978515625,3606.478515625,2307.09716796875,-379.0855407714844,-749.4290771484375,-2617.041259765625,3728.072021484375,-4115.1044921875,15428.8603515625,-5725.22509765625,-0.0,-7797.08251953125,5261.10302734375,-5966.02783203125,-4784.26611328125,-530.8787231445312,5588.53125,-7498.26416015625,799.4969482421875,-5882.5810546875,-3465.8115234375,-1921.65380859375,6609.7578125,6975.33251953125,-21423.498046875,-9014.6064453125,-1092.7518310546875,1301.765380859375,-10058.8798828125,-1445.611328125,-3840.92333984375,-15938.2822265625,663.598388671875,-1142.8197021484375,1808.80224609375,-10792.4150390625,-3345.0126953125,0.0,-1766.681640625,0.0,-3607.273193359375,-0.0,2396.106689453125
-14834.404296875,-17963.251953125,-5518.59521484375,-1438.458740234375,-801.08642578125,9582.04296875,-5281.7666015625,-2438.227294921875,-1326.402099609375,5962.8486328125,-8188.8837890625,-13221.900390625,-3673.235595703125,5391.43896484375,90.59906005859375,-9395.2822265625,-985.4635009765625,-192.32432556152344,2614.6572265625,13136.0693359375,2237.955810546875,6601.015625,-1289.0498046875,11962.2548828125,-3771.781982421875,-6387.23388671875,-4313.787109375,-4303.45556640625,-8182.525390625,-3387.13330078125,3599.325927734375,2299.149658203125,-391.80120849609375,-755.786865234375,-2621.809814453125,3722.5087890625,-4114.3095703125,15426.4765625,-5704.5615234375,-0.0,-7811.3876953125,5259.513671875,-5966.822265625,-4785.85595703125,-526.1103515625,5587.73681640625,-7537.2060546875,803.4705810546875,-5888.93896484375,-3464.221923828125,-1908.1434326171875,6599.42626953125,5323.091796875,-21432.2421875,-9020.96484375,-1095.135986328125,1312.8916015625,-10070.80078125,-1432.8956298828125,-3828.207763671875,-15943.845703125,658.8300170898438,-1141.230224609375,1808.80224609375,-10797.9775390625,-3355.343994140625,0.0,-1767.4764404296875,0.0,-3599.325927734375,-0.0,2399.28564453125
-14914.671875,-17948.9453125,-5518.59521484375,-1421.76953125,-799.4969482421875,9587.60546875,-5280.9716796875,-2439.02197265625,-1337.5281982421875,5956.4912109375,-8194.4462890625,-13216.3359375,-3661.314697265625,5373.15966796875,83.44650268554688,-9397.666015625,-981.4898071289062,-187.5559539794922,2615.451904296875,13123.3525390625,2244.3134765625,6608.16796875,-1285.870849609375,11964.638671875,-3767.013671875,-6368.955078125,-4309.0185546875,-4303.45556640625,-8172.1943359375,-3369.649169921875,3604.888916015625,2298.35498046875,-388.6222839355469,-753.4027099609375,-2620.22021484375,3724.892822265625,-4114.3095703125,15428.06640625,-5686.283203125,-0.0,-7805.82421875,5271.4345703125,-5963.6435546875,-4784.26611328125,-528.4945068359375,5588.53125,-7533.232421875,820.9546508789062,-5884.96533203125,-3456.274658203125,-1912.116943359375,6594.65771484375,4373.3916015625,-21425.8828125,-9009.837890625,-1114.20947265625,1327.19677734375,-10068.4169921875,-1437.6640625,-3819.465576171875,-15927.15625,661.2141723632812,-1145.2039794921875,1795.2918701171875,-10792.4150390625,-3355.343994140625,0.0,-1755.5555419921875,0.0,-3590.583740234375,-0.0,2397.6962890625
-14936.923828125,-17896.494140625,-5496.34326171875,-1420.179931640625,-778.8340454101562,9591.5791015625,-5270.64013671875,-2438.227294921875,-1353.4227294921875,5949.33837890625,-8184.115234375,-13201.236328125,-3635.088623046875,5331.03955078125,117.61983489990234,-9396.076171875,-967.9794311523438,-175.63502502441406,2622.6044921875,13103.4853515625,2260.2080078125,6616.91064453125,-1273.1552734375,11971.791015625,-3745.555908203125,-6386.43896484375,-4285.1767578125,-4295.5078125,-8149.94140625,-3351.37060546875,3619.194091796875,2311.865478515625,-371.9329833984375,-742.2764892578125,-2604.325439453125,3735.224365234375,-4102.388671875,15432.8349609375,-5677.541015625,-0.0,-7788.34033203125,5271.4345703125,-5946.1591796875,-4776.31884765625,-526.1103515625,5585.3525390625,-7507.80126953125,820.9546508789062,-5864.30224609375,-3437.995849609375,-1879.533203125,6595.45263671875,4996.45849609375,-21398.86328125,-8985.99609375,-1092.7518310546875,1365.34375,-10054.111328125,-1428.9219970703125,-3829.797119140625,-15909.671875,673.1351318359375,-1147.588134765625,1773.834228515625,-10775.7255859375,-3345.807373046875,0.0,-1745.2239990234375,0.0,-3584.225830078125,-0.0,2392.927978515625
-14950.4345703125,-17857.55078125,-5498.7275390625,-1436.8692626953125,-781.2182006835938,9595.5537109375,-5276.203125,-2437.4326171875,-1365.34375,5937.41748046875,-8198.4208984375,-13213.1572265625,-3650.1884765625,5315.14501953125,120.79874420166016,-9396.076171875,-971.9530639648438,-178.81393432617188,2617.8359375,13086.7958984375,2255.439697265625,6612.9365234375,-1276.3341064453125,11971.791015625,-3740.78759765625,-6379.2861328125,-4287.56103515625,-4284.3818359375,-8161.8623046875,-3338.65478515625,3616.809814453125,2306.30224609375,-375.9066162109375,-744.6607055664062,-2605.9150390625,3735.224365234375,-4108.7470703125,15430.4501953125,-5679.92529296875,-0.0,-7786.7509765625,5266.66650390625,-5949.33837890625,-4773.93505859375,-532.4681396484375,5578.19970703125,-7491.11181640625,806.6495361328125,-5865.89208984375,-3430.84326171875,-1877.943603515625,6601.015625,6410.28076171875,-21379.7890625,-8997.123046875,-1053.81005859375,1356.6016845703125,-10080.337890625,-1433.6904296875,-3849.665283203125,-15928.7451171875,667.572021484375,-1156.330078125,1757.939697265625,-10788.4404296875,-3353.754638671875,0.0,-1774.6290283203125,0.0,-3603.29931640625,-0.0,2382.59619140625
-14952.0234375,-17873.4453125,-5493.958984375,-1451.1744384765625,-785.1918334960938,9590.78515625,-5279.38232421875,-2436.637939453125,-1351.8333740234375,5950.1328125,-8225.44140625,-13213.9521484375,-3667.67236328125,5354.08642578125,100.13580322265625,-9377.0029296875,-978.3109130859375,-185.17176818847656,2613.067626953125,13104.279296875,2248.287109375,6606.57861328125,-1282.69189453125,11964.638671875,-3736.813720703125,-6373.7236328125,-4299.48193359375,-4290.73974609375,-8182.525390625,-3342.62841796875,3609.6572265625,2299.944580078125,-381.4697265625,-751.0185546875,-2612.27294921875,3731.250732421875,-4115.1044921875,15427.271484375,-5707.74072265625,-0.0,-7783.57177734375,5265.87158203125,-5958.080078125,-4781.08740234375,-532.4681396484375,5582.173828125,-7483.16455078125,791.5496826171875,-5876.22314453125,-3446.738037109375,-1894.6329345703125,6601.810546875,6935.5966796875,-21373.4296875,-9018.580078125,-1055.3995361328125,1324.017822265625,-10040.6005859375,-1432.8956298828125,-3834.5654296875,-15935.8974609375,662.0089111328125,-1153.151123046875,1777.807861328125,-10801.15625,-3351.37060546875,0.0,-1787.3446044921875,0.0,-3608.862548828125,-0.0,2388.9541015625
-14931.361328125,-17881.392578125,-5483.62744140625,-1449.5849609375,-786.7813110351562,9589.9892578125,-5276.998046875,-2427.895751953125,-1335.9388427734375,5970.0009765625,-8245.30859375,-13206.7998046875,-3666.0830078125,5383.49169921875,96.16216278076172,-9352.3662109375,-977.5161743164062,-183.58230590820312,2617.8359375,13126.5322265625,2249.081787109375,6604.98974609375,-1282.69189453125,11966.228515625,-3740.78759765625,-6388.02880859375,-4304.25,-4285.97119140625,-8186.49951171875,-3342.62841796875,3608.06787109375,2295.970947265625,-379.0855407714844,-751.0185546875,-2613.067626953125,3728.86669921875,-4109.54150390625,15430.4501953125,-5709.330078125,-0.0,-7781.982421875,5257.92431640625,-5958.875,-4776.31884765625,-522.931396484375,5592.5048828125,-7472.8330078125,791.5496826171875,-5877.81298828125,-3448.327392578125,-1900.196044921875,6611.34716796875,6439.68603515625,-21381.37890625,-9024.1435546875,-1045.068115234375,1309.7127685546875,-10031.859375,-1413.0274658203125,-3818.6708984375,-15931.1298828125,664.3931274414062,-1139.640869140625,1797.676025390625,-10805.1298828125,-3347.39697265625,0.0,-1790.5235595703125,0.0,-3600.12060546875,-0.0,2404.848876953125
-14901.1611328125,-17833.708984375,-5464.5537109375,-1420.9747314453125,-770.092041015625,9609.8583984375,-5259.513671875,-2404.848876953125,-1310.5074462890625,5996.22705078125,-8225.44140625,-13192.494140625,-3657.341064453125,5416.8701171875,102.51998901367188,-9364.287109375,-957.64794921875,-164.50881958007812,2639.293701171875,13155.142578125,2271.33447265625,6624.857421875,-1264.4132080078125,11987.6865234375,-3721.714111328125,-6375.31298828125,-4289.150390625,-4267.6923828125,-8181.7314453125,-3329.117919921875,3626.3466796875,2319.01806640625,-356.8331298828125,-734.3292236328125,-2594.788818359375,3748.734619140625,-4092.85205078125,15454.2919921875,-5672.77294921875,-0.0,-7765.29296875,5273.02392578125,-5942.18603515625,-4756.45068359375,-504.6526794433594,5621.91015625,-7477.6015625,820.159912109375,-5863.5078125,-3422.896240234375,-1897.01708984375,6632.009765625,5626.6787109375,-21361.509765625,-9017.78515625,-1028.3787841796875,1327.991455078125,-10039.01171875,-1406.669677734375,-3790.060791015625,-15904.1083984375,683.4666137695312,-1115.7989501953125,1827.0810546875,-10788.4404296875,-3337.0654296875,0.0,-1754.7607421875,0.0,-3569.9208984375,-0.0,2428.690673828125
-14908.3134765625,-17835.298828125,-5475.6796875,-1425.7431640625,-778.039306640625,9604.294921875,-5266.66650390625,-2412.7958984375,-1308.91796875,5995.4326171875,-8202.3935546875,-13198.8525390625,-3667.67236328125,5424.8173828125,98.54634857177734,-9365.8759765625,-963.2110595703125,-170.8666534423828,2633.730712890625,13155.9375,2263.386962890625,6619.29443359375,-1271.5657958984375,11982.123046875,-3735.224365234375,-6376.10791015625,-4296.302734375,-4280.408203125,-8191.26806640625,-3334.68115234375,3620.783447265625,2318.22314453125,-364.7804260253906,-738.3028564453125,-2602.736328125,3743.171630859375,-4097.62060546875,15450.318359375,-5674.3623046875,-0.0,-7777.2138671875,5271.4345703125,-5949.33837890625,-4764.39794921875,-508.62628173828125,5614.75732421875,-7499.853515625,816.186279296875,-5877.01806640625,-3423.69091796875,-1897.8118896484375,6623.26806640625,4587.17333984375,-21359.125,-9028.9111328125,-1049.041748046875,1326.402099609375,-10047.7529296875,-1416.206298828125,-3798.802734375,-15903.314453125,677.1087646484375,-1121.362060546875,1842.9755859375,-10798.771484375,-3345.807373046875,0.0,-1731.713623046875,0.0,-3557.205078125,-0.0,2437.4326171875
-14917.0556640625,-17872.65234375,-5484.42236328125,-1417.7957763671875,-784.3970947265625,9598.732421875,-5267.46142578125,-2418.359130859375,-1304.9443359375,5997.02197265625,-8192.8564453125,-13198.8525390625,-3642.2412109375,5431.17529296875,103.3147201538086,-9375.4130859375,-964.0057983398438,-174.8402862548828,2632.14111328125,13159.1162109375,2257.029296875,6616.11572265625,-1274.74462890625,11978.1494140625,-3752.70849609375,-6376.10791015625,-4302.66064453125,-4289.9453125,-8176.962890625,-3339.44970703125,3619.194091796875,2319.812744140625,-367.16461181640625,-737.5081176757812,-2604.325439453125,3738.4033203125,-4100.0048828125,15444.755859375,-5664.8251953125,-0.0,-7787.5458984375,5271.4345703125,-5952.51708984375,-4769.9609375,-507.8315734863281,5609.1943359375,-7500.6484375,825.7230224609375,-5884.17041015625,-3435.61181640625,-1893.04345703125,6616.11572265625,3626.3466796875,-21361.509765625,-9014.6064453125,-1047.4522705078125,1329.5809326171875,-10050.1376953125,-1414.616943359375,-3800.39208984375,-15890.5986328125,673.9298706054688,-1122.15673828125,1846.94921875,-10786.056640625,-3345.0126953125,0.0,-1715.8189697265625,0.0,-3545.2841796875,-0.0,2446.174560546875
-14914.671875,-17882.189453125,-5467.73291015625,-1412.2327880859375,-774.8603515625,9601.91015625,-5263.4873046875,-2418.359130859375,-1305.739013671875,5989.86962890625,-8199.21484375,-13194.083984375,-3645.420166015625,5423.22802734375,109.67254638671875,-9384.1552734375,-958.4426879882812,-170.8666534423828,2635.320068359375,13155.9375,2264.9765625,6622.47314453125,-1269.181640625,11982.91796875,-3733.635009765625,-6369.74951171875,-4293.12353515625,-4286.76611328125,-8166.630859375,-3334.68115234375,3624.757080078125,2320.607421875,-360.8067932128906,-731.945068359375,-2597.9677734375,3743.96630859375,-4095.236328125,15444.755859375,-5675.1572265625,-0.0,-7774.03515625,5278.58740234375,-5944.56982421875,-4766.7822265625,-507.036865234375,5608.39990234375,-7460.912109375,830.4913940429688,-5868.27587890625,-3436.406494140625,-1889.0699462890625,6616.11572265625,3186.86181640625,-21355.947265625,-9003.4794921875,-1046.6575927734375,1337.5281982421875,-10039.01171875,-1413.0274658203125,-3814.697265625,-15908.8759765625,679.492919921875,-1122.15673828125,1824.6968994140625,-10773.3408203125,-3335.475830078125,0.0,-1744.42919921875,0.0,-3575.484130859375,-0.0,2421.5380859375
-14971.0966796875,-17872.65234375,-5458.1962890625,-1413.8221435546875,-762.939453125,9618.599609375,-5258.71875,-2401.669677734375,-1304.9443359375,5994.63818359375,-8205.5732421875,-13187.7255859375,-3658.1357421875,5413.69091796875,112.05673217773438,-9357.9296875,-952.0848388671875,-161.3299102783203,2642.472412109375,13160.705078125,2274.51318359375,6631.21533203125,-1261.2342529296875,11993.2490234375,-3718.53515625,-6346.70263671875,-4283.5869140625,-4262.12939453125,-8161.06787109375,-3325.14453125,3631.114990234375,2319.01806640625,-354.4489440917969,-723.2030029296875,-2589.225830078125,3755.092529296875,-4089.673583984375,15455.8818359375,-5658.4677734375,-0.0,-7762.1142578125,5292.09765625,-5935.82763671875,-4750.88720703125,-504.6526794433594,5620.32080078125,-7444.22314453125,827.3125,-5844.43408203125,-3412.564453125,-1886.6856689453125,6638.3681640625,3933.906494140625,-21361.509765625,-8997.9169921875,-1036.3260498046875,1335.14404296875,-10026.2958984375,-1410.6431884765625,-3807.544677734375,-15923.181640625,686.6455078125,-1115.004150390625,1822.312744140625,-10767.77734375,-3321.965576171875,0.0,-1746.018798828125,0.0,-3570.715576171875,-0.0,2426.306396484375
-15092.6904296875,-17848.810546875,-5441.5068359375,-1396.338134765625,-745.4554443359375,9638.46875,-5244.4140625,-2371.47021484375,-1301.765380859375,6012.91650390625,-8184.90966796875,-13163.08984375,-3602.504638671875,5408.9228515625,135.89859008789062,-9307.0673828125,-933.8060913085938,-142.2564239501953,2659.956787109375,13176.6005859375,2292.7919921875,6649.494140625,-1242.95556640625,12013.1181640625,-3700.25634765625,-6318.09228515625,-4263.71923828125,-4231.9296875,-8141.99462890625,-3314.81298828125,3648.598876953125,2339.680908203125,-336.1701965332031,-704.9242553710938,-2571.74169921875,3775.755615234375,-4072.984130859375,15480.5185546875,-5593.2998046875,-0.0,-7746.2197265625,5312.7607421875,-5920.72802734375,-4727.84033203125,-493.5264587402344,5649.7255859375,-7438.65966796875,845.5912475585938,-5836.48681640625,-3404.6171875,-1861.25439453125,6674.130859375,5438.32763671875,-21357.537109375,-8978.048828125,-1018.04736328125,1368.522705078125,-9982.5859375,-1402.696044921875,-3776.55029296875,-15884.2412109375,708.8978881835938,-1098.31494140625,1835.0283203125,-10754.267578125,-3289.3818359375,0.0,-1735.687255859375,0.0,-3553.2314453125,-0.0,2450.94287109375
-14940.1025390625,-17833.708984375,-5397.001953125,-1381.23828125,-715.2557373046875,9663.10546875,-5207.8564453125,-2336.501953125,-1281.1025390625,6031.1953125,-8152.32568359375,-13136.86328125,-3554.0263671875,5413.69091796875,212.19253540039062,-9238.7197265625,-904.401123046875,-112.8514633178711,2687.77197265625,13196.46875,2319.812744140625,6676.51513671875,-1211.1663818359375,12040.9326171875,-3671.64599609375,-6298.22412109375,-4217.62451171875,-4194.57763671875,-8107.8212890625,-3298.91845703125,3678.00390625,2372.264892578125,-304.38104248046875,-677.1087646484375,-2542.336669921875,3802.7763671875,-4038.015869140625,15509.12890625,-5614.75732421875,-0.0,-7716.02001953125,5340.576171875,-5886.5546875,-4696.84619140625,-457.763671875,5679.92529296875,-7414.02294921875,858.306884765625,-5815.029296875,-3399.05419921875,-1787.3446044921875,6715.45654296875,6558.89501953125,-21331.310546875,-8942.2861328125,-1005.3316650390625,1441.6376953125,-9939.6708984375,-1344.6807861328125,-3745.555908203125,-15857.2197265625,736.71337890625,-1072.883544921875,1842.9755859375,-10733.6044921875,-3258.38720703125,0.0,-1742.83984375,0.0,-3546.873779296875,-0.0,2451.737548828125
-14816.919921875,-17862.3203125,-5422.43359375,-1412.2327880859375,-731.1503295898438,9630.5205078125,-5225.34033203125,-2396.106689453125,-1296.2022705078125,6017.68505859375,-8157.09423828125,-13159.9111328125,-3593.7626953125,5387.46484375,205.83470153808594,-9360.3134765625,-923.474609375,-135.10386657714844,2659.956787109375,13165.4736328125,2299.149658203125,6654.2626953125,-1231.03466796875,12007.5537109375,-3690.7197265625,-6318.09228515625,-4227.16162109375,-4262.12939453125,-8122.9208984375,-3317.991943359375,3658.1357421875,2361.933349609375,-327.4281921386719,-696.9769897460938,-2564.58935546875,3774.166015625,-4057.88427734375,15470.1875,-5655.28857421875,-0.0,-7733.50390625,5317.529296875,-5900.85986328125,-4742.9404296875,-474.4529724121094,5629.857421875,-7405.28125,827.3125,-5811.85009765625,-3415.74365234375,-1793.7025146484375,6635.18896484375,6783.0087890625,-21357.537109375,-8956.591796875,-1037.91552734375,1428.1273193359375,-10011.990234375,-1356.6016845703125,-3765.424072265625,-15873.11328125,709.692626953125,-1100.6990966796875,1830.2598876953125,-10753.47265625,-3293.355224609375,0.0,-1715.8189697265625,0.0,-3531.77392578125,-0.0,2448.558837890625
-14851.09375,-17894.109375,-5461.375,-1424.9483642578125,-776.4498291015625,9582.04296875,-5276.998046875,-2442.995849609375,-1325.6072998046875,5982.716796875,-8190.47265625,-13193.2900390625,-3660.519775390625,5395.41259765625,93.7779769897461,-9431.8388671875,-964.0057983398438,-178.0192108154297,2615.451904296875,13137.658203125,2261.002685546875,6610.55224609375,-1277.1287841796875,11963.8447265625,-3737.608642578125,-6380.0810546875,-4294.71337890625,-4316.17138671875,-8165.83642578125,-3341.833740234375,3616.809814453125,2322.99169921875,-367.9593505859375,-737.5081176757812,-2606.709716796875,3732.04541015625,-4110.33642578125,15426.4765625,-5690.2568359375,-0.0,-7776.4189453125,5265.87158203125,-5953.31201171875,-4789.8291015625,-525.3156127929688,5591.71044921875,-7446.60693359375,818.5704345703125,-5859.53369140625,-3455.47998046875,-1903.375,6582.73681640625,7065.13720703125,-21403.630859375,-9004.275390625,-1068.9100341796875,1339.912353515625,-10056.49609375,-1449.5849609375,-3799.597412109375,-15892.982421875,665.1878662109375,-1138.0513916015625,1819.1337890625,-10780.494140625,-3337.0654296875,0.0,-1718.9979248046875,0.0,-3544.489501953125,-0.0,2432.6640625
-14868.5771484375,-17913.9765625,-5511.44287109375,-1440.0482177734375,-805.8547973632812,9568.5322265625,-5297.66064453125,-2446.96923828125,-1338.322998046875,5969.20654296875,-8211.1357421875,-13207.5947265625,-3693.8984375,5380.3125,61.19409942626953,-9415.1494140625,-985.4635009765625,-198.68214416503906,2599.55712890625,13129.7109375,2234.77685546875,6592.27392578125,-1296.9970703125,11949.5390625,-3770.1923828125,-6411.07568359375,-4329.681640625,-4315.37646484375,-8192.0625,-3351.37060546875,3596.146728515625,2302.328857421875,-393.3906555175781,-758.1710815429688,-2630.551513671875,3715.356201171875,-4130.9990234375,15416.1455078125,-5699.79345703125,-0.0,-7809.7978515625,5245.208984375,-5978.7431640625,-4800.16064453125,-542.7996215820312,5582.96826171875,-7529.2587890625,803.4705810546875,-5897.6806640625,-3466.606201171875,-1933.57470703125,6585.12109375,7627.80517578125,-21408.400390625,-9029.7060546875,-1066.5257568359375,1295.4075927734375,-10068.4169921875,-1458.326904296875,-3819.465576171875,-15910.466796875,646.9090576171875,-1152.3564453125,1798.4708251953125,-10798.771484375,-3348.986328125,0.0,-1754.7607421875,0.0,-3586.610107421875,-0.0,2400.875
-14928.181640625,-17902.8515625,-5537.6689453125,-1456.737548828125,-820.9546508789062,9552.6376953125,-5310.37646484375,-2461.2744140625,-1350.243896484375,5958.875,-8237.3623046875,-13218.720703125,-3706.6142578125,5366.00732421875,48.47844314575195,-9415.9443359375,-1003.7421875,-212.19253540039062,2588.43115234375,13116.2001953125,2217.292724609375,6575.58447265625,-1311.30224609375,11936.0283203125,-3782.11328125,-6416.638671875,-4342.39697265625,-4327.29736328125,-8203.1884765625,-3363.29150390625,3579.45751953125,2280.076171875,-412.4641418457031,-775.6550903320312,-2644.06201171875,3700.25634765625,-4141.33056640625,15402.634765625,-5714.0986328125,-0.0,-7828.076171875,5227.724609375,-5990.6640625,-4812.87646484375,-553.9258422851562,5568.6630859375,-7553.1005859375,788.3707885742188,-5912.78076171875,-3485.6796875,-1947.0850830078125,6574.78955078125,7951.259765625,-21392.50390625,-9040.83203125,-1069.7047119140625,1272.3604736328125,-10075.5693359375,-1467.8636474609375,-3833.770751953125,-15950.203125,634.1934204101562,-1166.66162109375,1780.98681640625,-10807.5146484375,-3359.31787109375,0.0,-1772.2447509765625,0.0,-3604.888916015625,-0.0,2383.39111328125
-14955.203125,-17899.671875,-5537.6689453125,-1465.4794921875,-814.5968017578125,9554.2265625,-5304.8134765625,-2455.71142578125,-1339.11767578125,5981.12744140625,-8238.9521484375,-13221.900390625,-3693.8984375,5375.5439453125,50.86262893676758,-9407.9970703125,-1006.921142578125,-210.6030731201172,2596.37841796875,13134.4794921875,2219.677001953125,6574.78955078125,-1307.32861328125,11939.2080078125,-3774.960693359375,-6419.02294921875,-4334.44970703125,-4327.29736328125,-8196.0361328125,-3364.880859375,3578.662841796875,2275.307861328125,-414.84832763671875,-780.4234619140625,-2640.08837890625,3701.051025390625,-4134.97314453125,15407.4033203125,-5721.2509765625,-0.0,-7824.103515625,5226.13525390625,-5985.8955078125,-4811.287109375,-546.7732543945312,5581.37890625,-7534.82177734375,778.8340454101562,-5904.83349609375,-3480.11669921875,-1944.7008056640625,6581.1474609375,8049.8056640625,-21381.37890625,-9034.474609375,-1072.883544921875,1275.5394287109375,-10071.5947265625,-1456.737548828125,-3819.465576171875,-15959.7392578125,637.372314453125,-1156.330078125,1800.85498046875,-10801.951171875,-3362.49658203125,0.0,-1778.6025390625,0.0,-3594.5576171875,-0.0,2404.848876953125
-14964.740234375,-17923.513671875,-5535.28466796875,-1468.658447265625,-812.212646484375,9555.81640625,-5305.6083984375,-2455.71142578125,-1345.4755859375,5966.02783203125,-8227.0302734375,-13228.2568359375,-3691.51416015625,5368.3916015625,55.63100051879883,-9408.7919921875,-1008.5106201171875,-211.39781188964844,2593.994140625,13124.9423828125,2220.4716796875,6575.58447265625,-1308.123291015625,11936.82421875,-3775.755615234375,-6413.4599609375,-4331.2705078125,-4325.7080078125,-8187.2939453125,-3370.444091796875,3578.662841796875,2269.744873046875,-415.64306640625,-781.2182006835938,-2640.88330078125,3702.640625,-4135.767578125,15405.814453125,-5722.0458984375,-0.0,-7823.30810546875,5227.724609375,-5985.8955078125,-4810.4921875,-549.157470703125,5575.81591796875,-7515.74853515625,774.8603515625,-5900.06494140625,-3478.527099609375,-1940.727294921875,6578.763671875,9523.232421875,-21387.736328125,-9026.52734375,-1080.8309326171875,1286.66552734375,-10061.263671875,-1455.9427490234375,-3826.6181640625,-15973.2490234375,636.57763671875,-1161.0985107421875,1780.98681640625,-10802.74609375,-3367.264892578125,0.0,-1790.5235595703125,0.0,-3606.478515625,-0.0,2381.801513671875
-14963.9443359375,-17923.513671875,-5516.2109375,-1451.9691162109375,-804.2653198242188,9559.791015625,-5302.42919921875,-2458.89013671875,-1358.191162109375,5926.291015625,-8210.341796875,-13221.900390625,-3678.00390625,5357.265625,73.11502838134766,-9411.17578125,-998.973876953125,-203.4505157470703,2593.994140625,13097.921875,2226.82958984375,6580.3525390625,-1303.3548583984375,11939.2080078125,-3763.834716796875,-6397.5654296875,-4323.32373046875,-4324.9130859375,-8180.1416015625,-3372.828125,3585.8154296875,2276.8974609375,-404.516845703125,-772.4761962890625,-2632.935791015625,3708.20361328125,-4134.17822265625,15404.224609375,-5710.919921875,-0.0,-7812.97705078125,5236.466796875,-5978.7431640625,-4809.69775390625,-548.3627319335938,5564.689453125,-7494.291015625,793.933837890625,-5892.91259765625,-3485.6796875,-1924.0379638671875,6574.78955078125,12050.4697265625,-21397.271484375,-9017.78515625,-1072.883544921875,1304.149658203125,-10044.5751953125,-1455.9427490234375,-3842.512939453125,-15971.66015625,642.1406860351562,-1168.2509765625,1765.09228515625,-10803.5400390625,-3359.31787109375,0.0,-1780.1920166015625,0.0,-3615.22021484375,-0.0,2358.75439453125
-14993.349609375,-17921.923828125,-5497.1376953125,-1446.406005859375,-797.9075317382812,9564.55859375,-5298.45556640625,-2463.65869140625,-1372.4962158203125,5904.0390625,-8194.4462890625,-13217.1318359375,-3651.778076171875,5332.62890625,89.80432891845703,-9420.712890625,-993.4107055664062,-199.4768829345703,2593.994140625,13074.080078125,2233.1875,6586.71044921875,-1299.3812255859375,11942.38671875,-3757.476806640625,-6392.001953125,-4309.81298828125,-4321.73388671875,-8171.39892578125,-3379.980712890625,3592.17333984375,2282.46044921875,-394.9801025390625,-766.9130859375,-2628.962158203125,3710.587646484375,-4130.9990234375,15402.634765625,-5714.8935546875,-0.0,-7805.82421875,5244.4140625,-5972.38525390625,-4809.69775390625,-552.3363647460938,5551.9736328125,-7493.49609375,797.11279296875,-5888.93896484375,-3480.9111328125,-1905.7591552734375,6572.4052734375,13517.5390625,-21402.041015625,-9009.0439453125,-1074.4730224609375,1335.14404296875,-10054.90625,-1459.1217041015625,-3879.0703125,-15962.9189453125,646.1143798828125,-1175.403564453125,1746.8134765625,-10804.3359375,-3355.343994140625,0.0,-1781.781494140625,0.0,-3635.088623046875,-0.0,2346.038818359375
-14982.2236328125,-17918.744140625,-5501.111328125,-1436.8692626953125,-795.5233154296875,9569.3271484375,-5294.48193359375,-2452.532470703125,-1369.3173828125,5906.4228515625,-8195.2412109375,-13220.310546875,-3650.983154296875,5333.423828125,100.13580322265625,-9405.61328125,-989.4371337890625,-197.88742065429688,2598.762451171875,13077.2587890625,2235.571533203125,6589.0947265625,-1295.4075927734375,11947.94921875,-3757.476806640625,-6394.38623046875,-4301.8662109375,-4310.60791015625,-8168.220703125,-3370.444091796875,3594.5576171875,2288.818359375,-392.5959167480469,-761.3499755859375,-2627.372802734375,3714.5615234375,-4126.23095703125,15408.9931640625,-5700.58837890625,-0.0,-7805.029296875,5248.3876953125,-5969.20654296875,-4802.544921875,-548.3627319335938,5559.12646484375,-7488.7275390625,805.8547973632812,-5881.7861328125,-3478.527099609375,-1897.01708984375,6587.50537109375,12969.1767578125,-21401.24609375,-9005.0693359375,-1080.8309326171875,1354.217529296875,-10054.111328125,-1455.9427490234375,-3879.864990234375,-15935.8974609375,649.2932739257812,-1172.224609375,1748.4029541015625,-10808.30859375,-3352.9599609375,0.0,-1784.165771484375,0.0,-3640.651611328125,-0.0,2354.781005859375
-14942.486328125,-17923.513671875,-5489.98486328125,-1429.7166748046875,-785.986572265625,9583.6328125,-5288.1240234375,-2442.995849609375,-1352.6280517578125,5937.41748046875,-8210.341796875,-13210.7734375,-3662.904052734375,5359.6494140625,89.80432891845703,-9383.361328125,-982.2845458984375,-189.14540100097656,2605.9150390625,13100.306640625,2244.3134765625,6601.015625,-1289.0498046875,11958.28125,-3737.608642578125,-6389.6181640625,-4305.83935546875,-4304.25,-8169.81005859375,-3346.602294921875,3604.888916015625,2299.149658203125,-383.0591735839844,-751.0185546875,-2617.8359375,3724.892822265625,-4119.078125,15420.119140625,-5688.66748046875,-0.0,-7790.72412109375,5258.71875,-5963.6435546875,-4790.6240234375,-538.03125,5578.19970703125,-7485.54833984375,812.212646484375,-5876.22314453125,-3447.53271484375,-1905.7591552734375,6596.2470703125,11557.73828125,-21385.3515625,-9006.6591796875,-1071.294189453125,1323.22314453125,-10040.6005859375,-1440.843017578125,-3836.155029296875,-15912.8515625,657.2405395507812,-1156.330078125,1776.2183837890625,-10795.59375,-3337.860107421875,0.0,-1762.7080078125,0.0,-3600.915283203125,-0.0,2385.775390625
-14913.08203125,-17944.970703125,-5453.427734375,-1413.8221435546875,-758.9658203125,9618.599609375,-5261.89794921875,-2417.564453125,-1320.8388671875,5982.716796875,-8203.1884765625,-13182.9580078125,-3642.2412109375,5403.35986328125,108.08309173583984,-9360.3134765625,-955.2637939453125,-161.3299102783203,2633.730712890625,13139.248046875,2272.129150390625,6632.009765625,-1263.618408203125,11986.0966796875,-3707.408935546875,-6336.37109375,-4285.97119140625,-4273.255859375,-8157.09423828125,-3323.554931640625,3631.114990234375,2322.99169921875,-356.8331298828125,-725.5872192382812,-2590.0205078125,3751.913818359375,-4092.85205078125,15447.9345703125,-5675.95166015625,-0.0,-7758.935546875,5294.48193359375,-5939.0068359375,-4758.8349609375,-510.21575927734375,5606.81005859375,-7463.29638671875,826.5177612304688,-5853.17626953125,-3407.00146484375,-1888.275146484375,6619.29443359375,9825.2294921875,-21356.740234375,-8992.3544921875,-1050.6312255859375,1335.9388427734375,-10028.6796875,-1414.616943359375,-3801.981689453125,-15892.982421875,682.671875,-1126.9251708984375,1819.928466796875,-10778.109375,-3312.4287109375,0.0,-1733.3031005859375,0.0,-3551.64208984375,-0.0,2430.280029296875
-14937.71875,-17994.24609375,-5443.09619140625,-1407.46435546875,-754.9921875,9618.599609375,-5253.95068359375,-2417.564453125,-1317.6600341796875,5980.3330078125,-8212.7255859375,-13178.984375,-3628.730712890625,5410.51220703125,132.7196807861328,-9360.3134765625,-949.70068359375,-157.35626220703125,2638.4990234375,13142.4267578125,2279.28173828125,6633.599609375,-1259.6448974609375,11988.48046875,-3704.22998046875,-6334.78173828125,-4275.64013671875,-4273.255859375,-8148.3525390625,-3333.886474609375,3632.70458984375,2324.5810546875,-350.4753112792969,-720.81884765625,-2585.251953125,3752.70849609375,-4087.289306640625,15448.7294921875,-5684.69384765625,-0.0,-7754.96142578125,5297.66064453125,-5933.443359375,-4760.42431640625,-502.26849365234375,5606.015625,-7447.4013671875,832.080810546875,-5849.9970703125,-3426.074951171875,-1866.8175048828125,6621.6787109375,7510.97998046875,-21365.484375,-8985.99609375,-1049.041748046875,1355.8070068359375,-10045.369140625,-1397.9276123046875,-3806.75,-15892.982421875,686.6455078125,-1124.5408935546875,1818.3389892578125,-10774.1357421875,-3310.83935546875,0.0,-1751.581787109375,0.0,-3579.45751953125,-0.0,2415.18017578125
-14978.25,-17952.919921875,-5464.5537109375,-1420.9747314453125,-774.065673828125,9602.7060546875,-5269.05078125,-2436.637939453125,-1335.14404296875,5953.31201171875,-8217.494140625,-13196.46875,-3630.3203125,5383.49169921875,130.3354949951172,-9381.771484375,-965.59521484375,-176.42974853515625,2617.041259765625,13119.3798828125,2261.797607421875,6616.91064453125,-1277.923583984375,11969.4072265625,-3727.277099609375,-6353.85498046875,-4286.76611328125,-4293.12353515625,-8163.4521484375,-3352.9599609375,3616.01513671875,2312.66015625,-364.7804260253906,-735.918701171875,-2604.325439453125,3733.635009765625,-4103.18359375,15429.65625,-5663.236328125,-0.0,-7777.2138671875,5284.150390625,-5949.33837890625,-4780.29248046875,-514.984130859375,5582.96826171875,-7458.52783203125,819.3651733398438,-5869.865234375,-3449.916748046875,-1866.022705078125,6599.42626953125,4057.08935546875,-21407.603515625,-9001.095703125,-1071.294189453125,1355.0123291015625,-10100.205078125,-1383.62255859375,-3841.718017578125,-15916.82421875,666.7772827148438,-1145.2039794921875,1792.1129150390625,-10788.4404296875,-3335.475830078125,0.0,-1786.5499267578125,0.0,-3618.3994140625,-0.0,2382.59619140625
-14957.5869140625,-17948.150390625,-5451.837890625,-1401.1064453125,-766.9130859375,9618.599609375,-5263.4873046875,-2415.18017578125,-1317.6600341796875,5977.15380859375,-8192.8564453125,-13176.6005859375,-3624.757080078125,5397.001953125,109.67254638671875,-9340.4453125,-948.9059448242188,-162.9193572998047,2630.551513671875,13141.6318359375,2272.129150390625,6632.8046875,-1266.002685546875,11986.0966796875,-3720.91943359375,-6338.75537109375,-4283.5869140625,-4271.666015625,-8152.32568359375,-3343.423095703125,3630.3203125,2329.349609375,-352.06475830078125,-719.2293701171875,-2591.60986328125,3747.93994140625,-4094.44189453125,15445.5498046875,-5627.47314453125,-0.0,-7768.47216796875,5298.45556640625,-5942.18603515625,-4762.013671875,-507.036865234375,5605.220703125,-7449.78564453125,840.0281372070312,-5859.53369140625,-3418.92236328125,-1885.8909912109375,6627.24169921875,1462.3006591796875,-21418.73046875,-8989.9697265625,-1050.6312255859375,1336.7335205078125,-10050.1376953125,-1396.338134765625,-3817.08154296875,-15916.029296875,682.671875,-1129.309326171875,1815.954833984375,-10774.1357421875,-3317.991943359375,0.0,-1759.529052734375,0.0,-3586.610107421875,-0.0,2413.590576171875
-14949.6396484375,-17908.4140625,-5425.61181640625,-1354.217529296875,-734.3292236328125,9643.2373046875,-5234.876953125,-2385.775390625,-1287.4603271484375,6012.91650390625,-8176.962890625,-13141.6318359375,-3615.22021484375,5430.38037109375,123.9776611328125,-9338.85546875,-924.2693481445312,-131.92494201660156,2663.135498046875,13180.5732421875,2301.533935546875,6660.6201171875,-1236.59765625,12014.70703125,-3685.951171875,-6317.29736328125,-4254.18212890625,-4250.20849609375,-8129.279296875,-3304.4814453125,3659.72509765625,2353.19140625,-328.222900390625,-689.8244018554688,-2560.615478515625,3777.344970703125,-4065.036865234375,15476.5439453125,-5630.65185546875,-0.0,-7736.68310546875,5323.091796875,-5911.19140625,-4732.60888671875,-480.0160827636719,5638.599609375,-7413.228515625,888.506591796875,-5822.9765625,-3391.901611328125,-1870.7911376953125,6652.67333984375,767.7078247070312,-21404.423828125,-8966.1279296875,-994.2054443359375,1352.6280517578125,-9997.685546875,-1398.7222900390625,-3770.9873046875,-15905.69921875,709.692626953125,-1096.7254638671875,1854.101806640625,-10748.7041015625,-3289.3818359375,0.0,-1699.1297607421875,0.0,-3538.92626953125,-0.0,2458.095458984375
-14922.619140625,-17838.478515625,-5442.30126953125,-1369.3173828125,-746.2501220703125,9627.341796875,-5247.5927734375,-2401.669677734375,-1300.176025390625,5998.611328125,-8180.93603515625,-13160.705078125,-3639.062255859375,5418.45947265625,116.82510375976562,-9365.08203125,-940.9586791992188,-147.02479553222656,2648.03564453125,13162.294921875,2284.8447265625,6641.546875,-1250.108154296875,11999.607421875,-3691.51416015625,-6341.13916015625,-4266.10302734375,-4266.8974609375,-8139.6103515625,-3306.071044921875,3644.62548828125,2332.5283203125,-345.7069396972656,-708.8978881835938,-2576.51025390625,3763.834716796875,-4079.341796875,15463.0341796875,-5679.92529296875,-0.0,-7747.0146484375,5301.63427734375,-5925.49658203125,-4747.708984375,-495.1159362792969,5621.91015625,-7432.3017578125,874.9962158203125,-5835.69189453125,-3399.05419921875,-1880.327880859375,6634.39404296875,1208.7822265625,-21399.65625,-8977.25390625,-993.4107055664062,1357.396484375,-10024.70703125,-1418.590576171875,-3787.676513671875,-15923.181640625,693.798095703125,-1111.030517578125,1833.4388427734375,-10759.830078125,-3310.83935546875,0.0,-1714.2296142578125,0.0,-3549.258056640625,-0.0,2439.02197265625
-14858.24609375,-17824.173828125,-5474.0908203125,-1402.696044921875,-770.88671875,9604.294921875,-5267.46142578125,-2422.332763671875,-1318.4547119140625,5981.92236328125,-8199.21484375,-13185.341796875,-3654.162109375,5400.9755859375,108.08309173583984,-9373.0283203125,-965.59521484375,-171.661376953125,2627.372802734375,13141.6318359375,2259.41357421875,6618.5,-1271.5657958984375,11978.943359375,-3714.5615234375,-6368.16015625,-4286.76611328125,-4285.97119140625,-8156.2998046875,-3317.991943359375,3618.3994140625,2311.865478515625,-371.9329833984375,-735.1239624023438,-2601.94140625,3741.582275390625,-4099.21044921875,15441.5771484375,-5704.5615234375,-0.0,-7777.2138671875,5277.79248046875,-5945.3642578125,-4769.9609375,-511.0104675292969,5601.2470703125,-7487.13818359375,840.8228759765625,-5861.91796875,-3424.4853515625,-1889.8646240234375,6616.11572265625,1246.1343994140625,-21378.994140625,-8993.1484375,-1014.07373046875,1339.11767578125,-10042.1904296875,-1431.3062744140625,-3821.05517578125,-15935.1025390625,673.1351318359375,-1130.10400390625,1811.981201171875,-10759.830078125,-3331.502197265625,0.0,-1753.1712646484375,0.0,-3577.0732421875,-0.0,2417.564453125
-14867.7822265625,-17867.087890625,-5489.98486328125,-1426.537841796875,-782.012939453125,9601.1162109375,-5272.2294921875,-2420.7431640625,-1320.044189453125,5972.38525390625,-8207.162109375,-13187.7255859375,-3655.75146484375,5399.3857421875,105.69890594482422,-9369.0556640625,-973.5425415039062,-178.81393432617188,2624.988525390625,13140.0419921875,2249.081787109375,6612.9365234375,-1277.923583984375,11974.17578125,-3735.224365234375,-6367.365234375,-4293.91845703125,-4280.408203125,-8157.88916015625,-3315.607666015625,3611.246826171875,2306.30224609375,-379.0855407714844,-743.0712280273438,-2609.888671875,3735.224365234375,-4103.978515625,15439.1923828125,-5683.89892578125,-0.0,-7788.34033203125,5270.64013671875,-5950.927734375,-4769.9609375,-514.1893920898438,5598.86328125,-7502.23779296875,815.3915405273438,-5867.4814453125,-3430.048583984375,-1890.6593017578125,6621.6787109375,309.1494140625,-21344.8203125,-8993.943359375,-1032.3524169921875,1327.991455078125,-10045.369140625,-1426.537841796875,-3838.5390625,-15925.5654296875,669.9561767578125,-1132.48828125,1808.80224609375,-10759.0361328125,-3329.117919921875,0.0,-1778.6025390625,0.0,-3600.915283203125,-0.0,2404.053955078125
-14919.4404296875,-17861.525390625,-5468.52734375,-1427.33251953125,-769.2973022460938,9614.626953125,-5257.92431640625,-2409.6171875,-1300.970703125,5993.04833984375,-8172.98876953125,-13171.83203125,-3644.62548828125,5426.40673828125,116.82510375976562,-9371.439453125,-964.0057983398438,-167.68772888183594,2636.909423828125,13161.5,2261.002685546875,6622.47314453125,-1266.002685546875,11985.3017578125,-3730.4560546875,-6357.0341796875,-4285.1767578125,-4270.87158203125,-8155.50537109375,-3302.89208984375,3619.98876953125,2315.839111328125,-368.7540588378906,-732.73974609375,-2597.9677734375,3744.76123046875,-4091.2626953125,15453.498046875,-5701.38330078125,-0.0,-7777.2138671875,5276.998046875,-5939.8017578125,-4758.8349609375,-499.08953857421875,5616.3466796875,-7471.2431640625,817.7757568359375,-5857.9443359375,-3418.127685546875,-1879.533203125,6633.599609375,-1374.0858154296875,-21329.720703125,-8991.55859375,-1035.5313720703125,1343.09130859375,-10047.7529296875,-1407.46435546875,-3805.955078125,-15913.64453125,682.671875,-1117.388427734375,1837.4124755859375,-10756.65234375,-3310.04443359375,0.0,-1740.45556640625,0.0,-3572.304931640625,-0.0,2428.690673828125
-15062.4912109375,-17855.962890625,-5485.216796875,-1432.8956298828125,-779.6287841796875,9600.3212890625,-5264.2822265625,-2421.5380859375,-1298.5865478515625,6000.99560546875,-8179.34716796875,-13178.984375,-3651.778076171875,5433.5595703125,111.26200103759766,-9378.5927734375,-973.5425415039062,-176.42974853515625,2630.551513671875,13165.4736328125,2251.466064453125,6612.14208984375,-1271.5657958984375,11974.970703125,-3744.76123046875,-6372.1337890625,-4293.91845703125,-4287.56103515625,-8172.98876953125,-3316.40234375,3610.451904296875,2306.30224609375,-379.0855407714844,-742.2764892578125,-2605.9150390625,3733.635009765625,-4097.62060546875,15446.345703125,-5664.8251953125,-0.0,-7789.134765625,5264.2822265625,-5946.9541015625,-4772.34521484375,-503.0632019042969,5611.57861328125,-7479.98583984375,809.8284301757812,-5871.45458984375,-3434.817138671875,-1885.8909912109375,6617.705078125,-3387.927978515625,-21340.05078125,-9009.837890625,-1052.220703125,1337.5281982421875,-10065.23828125,-1407.46435546875,-3792.44482421875,-15924.7724609375,673.1351318359375,-1121.362060546875,1846.154541015625,-10774.9296875,-3319.581298828125,0.0,-1723.766357421875,0.0,-3555.61572265625,-0.0,2439.02197265625
-14961.560546875,-17846.42578125,-5482.0380859375,-1429.7166748046875,-776.4498291015625,9600.3212890625,-5263.4873046875,-2419.948486328125,-1300.176025390625,6001.79052734375,-8203.1884765625,-13182.9580078125,-3661.314697265625,5435.943359375,104.9041748046875,-9376.2080078125,-974.3372802734375,-174.04556274414062,2632.935791015625,13164.6796875,2257.029296875,6615.32080078125,-1268.3868408203125,11977.35546875,-3736.813720703125,-6373.7236328125,-4291.5341796875,-4287.56103515625,-8173.783203125,-3323.554931640625,3613.631103515625,2307.09716796875,-377.49609375,-742.2764892578125,-2601.146728515625,3735.224365234375,-4095.236328125,15446.345703125,-5667.20947265625,-0.0,-7785.9560546875,5267.46142578125,-5946.1591796875,-4772.34521484375,-503.0632019042969,5612.37353515625,-7472.8330078125,813.8020629882812,-5866.6865234375,-3441.9697265625,-1891.4541015625,6619.29443359375,-5568.6630859375,-21340.84765625,-9009.0439453125,-1045.86279296875,1329.5809326171875,-10068.4169921875,-1408.259033203125,-3796.41845703125,-15923.181640625,673.1351318359375,-1121.362060546875,1843.7703857421875,-10782.8779296875,-3325.939208984375,0.0,-1729.3294677734375,0.0,-3561.9736328125,-0.0,2437.4326171875
-14889.240234375,-17852.783203125,-5474.0908203125,-1430.511474609375,-770.88671875,9605.08984375,-5257.1298828125,-2416.769775390625,-1298.5865478515625,6000.99560546875,-8188.8837890625,-13179.779296875,-3647.009521484375,5438.32763671875,108.87781524658203,-9371.439453125,-970.3636474609375,-168.4824676513672,2638.4990234375,13167.0634765625,2263.386962890625,6620.8837890625,-1265.2078857421875,11982.123046875,-3730.4560546875,-6368.955078125,-4289.150390625,-4285.1767578125,-8169.81005859375,-3329.912841796875,3621.578125,2306.30224609375,-372.72772216796875,-737.5081176757812,-2597.173095703125,3743.171630859375,-4090.468017578125,15450.318359375,-5702.97265625,-0.0,-7779.59814453125,5273.81884765625,-5941.39111328125,-4769.16650390625,-499.8843078613281,5613.962890625,-7468.859375,811.4179077148438,-5859.53369140625,-3438.79052734375,-1889.0699462890625,6620.0888671875,-7143.0205078125,-21344.02734375,-9005.0693359375,-1039.5050048828125,1331.17041015625,-10062.853515625,-1402.696044921875,-3795.623779296875,-15920.00390625,680.2876586914062,-1118.18310546875,1845.35986328125,-10773.3408203125,-3319.581298828125,0.0,-1732.50830078125,0.0,-3564.357666015625,-0.0,2439.816650390625
-14920.234375,-17871.060546875,-5471.70654296875,-1428.9219970703125,-768.5025634765625,9610.6533203125,-5253.95068359375,-2412.00146484375,-1296.9970703125,6003.3798828125,-8167.42626953125,-13171.83203125,-3630.3203125,5437.53271484375,121.59347534179688,-9365.8759765625,-962.4163208007812,-160.53517150878906,2640.08837890625,13169.4482421875,2268.9501953125,6628.03662109375,-1260.4395751953125,11987.6865234375,-3733.635009765625,-6361.0078125,-4285.1767578125,-4278.0244140625,-8170.6044921875,-3327.52880859375,3627.141357421875,2311.865478515625,-366.369873046875,-732.73974609375,-2593.994140625,3749.529541015625,-4084.905029296875,15454.2919921875,-5686.283203125,-0.0,-7779.59814453125,5279.38232421875,-5936.62255859375,-4762.013671875,-494.3211669921875,5617.1416015625,-7484.75390625,812.212646484375,-5863.5078125,-3428.459228515625,-1875.5594482421875,6625.65234375,-7009.50634765625,-21346.41015625,-9008.248046875,-1029.96826171875,1346.270263671875,-10047.7529296875,-1393.1593017578125,-3790.060791015625,-15916.029296875,685.8507690429688,-1115.7989501953125,1847.7440185546875,-10770.95703125,-3310.83935546875,0.0,-1732.50830078125,0.0,-3559.58935546875,-0.0,2442.200927734375
-14894.0087890625,-17873.4453125,-5478.06396484375,-1423.35888671875,-768.5025634765625,9611.447265625,-5255.54052734375,-2414.385498046875,-1300.970703125,5997.02197265625,-8161.8623046875,-13175.0107421875,-3650.983154296875,5420.04931640625,127.15657043457031,-9365.8759765625,-963.2110595703125,-160.53517150878906,2638.4990234375,13163.8837890625,2267.360595703125,6625.65234375,-1260.4395751953125,11988.48046875,-3739.197998046875,-6359.41845703125,-4281.99755859375,-4278.81884765625,-8161.8623046875,-3319.581298828125,3623.96240234375,2315.04443359375,-368.7540588378906,-733.5344848632812,-2593.199462890625,3747.93994140625,-4086.494384765625,15452.7021484375,-5690.2568359375,-0.0,-7781.982421875,5280.1767578125,-5936.62255859375,-4762.013671875,-495.91064453125,5614.75732421875,-7479.98583984375,820.159912109375,-5857.9443359375,-3428.459228515625,-1869.20166015625,6625.65234375,-5948.54345703125,-21347.205078125,-8997.9169921875,-1037.120849609375,1348.6544189453125,-10043.7802734375,-1393.1593017578125,-3797.21337890625,-15908.0830078125,684.2613525390625,-1118.9779052734375,1835.0283203125,-10768.5732421875,-3316.40234375,0.0,-1739.660888671875,0.0,-3566.741943359375,-0.0,2431.86962890625
-14902.7509765625,-17867.087890625,-5485.216796875,-1420.9747314453125,-765.3236083984375,9612.2431640625,-5253.95068359375,-2412.7958984375,-1302.5601806640625,5997.81640625,-8180.1416015625,-13182.9580078125,-3656.54638671875,5423.22802734375,134.3091278076172,-9362.697265625,-965.59521484375,-162.1246337890625,2640.88330078125,13164.6796875,2264.9765625,6624.857421875,-1260.4395751953125,11989.2763671875,-3728.072021484375,-6352.265625,-4278.0244140625,-4278.81884765625,-8157.09423828125,-3325.939208984375,3623.96240234375,2312.66015625,-369.5487976074219,-735.1239624023438,-2592.404541015625,3747.1455078125,-4085.699462890625,15454.2919921875,-5678.33544921875,-0.0,-7781.1875,5280.9716796875,-5934.23828125,-4762.013671875,-497.5001220703125,5614.75732421875,-7470.44873046875,820.9546508789062,-5851.5869140625,-3436.406494140625,-1862.8438720703125,6628.03662109375,-5429.5859375,-21355.15234375,-8991.55859375,-1060.962646484375,1346.270263671875,-10053.3173828125,-1399.51708984375,-3798.802734375,-15910.466796875,683.4666137695312,-1116.59375,1836.6177978515625,-10766.1884765625,-3319.581298828125,0.0,-1744.42919921875,0.0,-3570.715576171875,-0.0,2431.074951171875
-14936.1298828125,-17871.857421875,-5470.1171875,-1411.43798828125,-753.4027099609375,9620.189453125,-5245.208984375,-2404.053955078125,-1297.7918701171875,6000.99560546875,-8182.525390625,-13181.369140625,-3650.1884765625,5420.04931640625,148.61424255371094,-9355.544921875,-960.0321655273438,-154.97207641601562,2647.240966796875,13165.4736328125,2275.307861328125,6632.009765625,-1251.697509765625,11995.6328125,-3705.8193359375,-6334.78173828125,-4267.6923828125,-4265.30859375,-8149.94140625,-3341.833740234375,3632.70458984375,2314.249755859375,-361.60150146484375,-727.9713745117188,-2582.0732421875,3755.88720703125,-4077.752685546875,15459.85546875,-5677.541015625,-0.0,-7763.70361328125,5292.09765625,-5924.70166015625,-4754.861328125,-489.55279541015625,5619.52587890625,-7458.52783203125,830.4913940429688,-5838.076171875,-3437.201171875,-1849.3333740234375,6638.3681640625,-5497.9326171875,-21374.2265625,-8986.791015625,-1075.267822265625,1354.217529296875,-10059.673828125,-1386.8013916015625,-3799.597412109375,-15927.15625,692.2086181640625,-1110.23583984375,1836.6177978515625,-10763.8046875,-3316.40234375,0.0,-1746.018798828125,0.0,-3569.126220703125,-0.0,2433.458984375
-14930.5654296875,-17894.90234375,-5472.50146484375,-1419.38525390625,-756.5816040039062,9612.2431640625,-5249.97705078125,-2405.6435546875,-1297.7918701171875,5998.611328125,-8175.373046875,-13181.369140625,-3656.54638671875,5417.6650390625,128.74603271484375,-9350.7763671875,-960.826904296875,-157.35626220703125,2642.472412109375,13163.8837890625,2272.129150390625,6627.24169921875,-1254.081787109375,11990.865234375,-3712.971923828125,-6355.4443359375,-4272.4609375,-4269.28173828125,-8157.88916015625,-3345.807373046875,3631.114990234375,2316.634033203125,-364.7804260253906,-730.3555908203125,-2582.867919921875,3752.70849609375,-4082.52099609375,15459.060546875,-5684.69384765625,-0.0,-7766.087890625,5285.73974609375,-5928.67529296875,-4758.0400390625,-495.1159362792969,5618.73095703125,-7479.98583984375,823.3388061523438,-5839.666015625,-3438.79052734375,-1866.8175048828125,6638.3681640625,-4940.033203125,-21388.53125,-8994.73828125,-1055.3995361328125,1346.270263671875,-10033.4482421875,-1401.1064453125,-3801.186767578125,-15914.4404296875,689.8244018554688,-1112.6199951171875,1834.233642578125,-10768.5732421875,-3314.018310546875,0.0,-1742.0450439453125,0.0,-3566.741943359375,-0.0,2432.6640625
