-7297.19775390625,-8820.693359375,-6031.990234375,-177.22447204589844,916.3220825195312,16419.091796875,-4192.98779296875,147.02479553222656,-2136.23046875,4578.431640625,-8008.47998046875,-6531.8740234375,-4320.14453125,4571.27880859375,-341.7333068847656,-4636.4462890625,-1513.9580078125,425.1798095703125,2409.6171875,14088.154296875,1182.55615234375,9379.38671875,-1033.147216796875,13277.5302734375,-4956.72216796875,-6062.189453125,-4401.20703125,-2435.04833984375,-5883.37548828125,-538.8259887695312,4497.369140625,4248.619140625,1399.51708984375,3100.236083984375,-2299.944580078125,4146.09912109375,-2853.870361328125,16694.068359375,-2780.75537109375,-0.0,-3591.37841796875,5802.3134765625,-4343.986328125,-2144.97265625,559.4889526367188,6351.470703125,-6250.5400390625,1034.736572265625,-6973.74365234375,-3140.767333984375,-1827.875732421875,7476.806640625,-4173.1201171875,-9155.2734375,-5621.115234375,-1524.2894287109375,307.5599670410156,-5897.6806640625,-1411.43798828125,-542.7996215820312,-7235.208984375,710.4873657226562,-601.6095581054688,1451.9691162109375,-7158.12060546875,-813.8020629882812,0.0,-2525.6474609375,0.0,-2577.304931640625,-0.0,-423.59033203125
-7284.482421875,-8854.8662109375,-6025.63232421875,-174.8402862548828,915.52734375,16412.734375,-4196.9619140625,142.2564239501953,-2137.820068359375,4553.0,-8022.78515625,-6524.7216796875,-4313.787109375,4584.7890625,-343.32275390625,-4653.1357421875,-1514.752685546875,423.59033203125,2408.027587890625,14077.822265625,1184.1456298828125,9379.38671875,-1035.5313720703125,13275.9404296875,-4947.98046875,-6101.13134765625,-4404.38623046875,-2434.253662109375,-5880.99169921875,-531.6734619140625,4497.369140625,4244.6455078125,1399.51708984375,3097.057373046875,-2300.7392578125,4143.71484375,-2857.04931640625,16689.30078125,-2784.72900390625,-0.0,-3588.994384765625,5797.544921875,-4347.16552734375,-2145.76708984375,556.3099975585938,6341.93408203125,-6240.208984375,1037.120849609375,-6976.92236328125,-3138.383056640625,-1830.2598876953125,7470.44873046875,-4169.94091796875,-9159.2470703125,-5617.9365234375,-1513.9580078125,308.3547058105469,-5900.85986328125,-1413.8221435546875,-565.8467407226562,-7242.361328125,708.8978881835938,-608.7620849609375,1455.9427490234375,-7150.17333984375,-805.06005859375,0.0,-2540.747314453125,0.0,-2607.504638671875,-0.0,-435.5112609863281
-7245.54052734375,-8879.501953125,-6001.79052734375,-141.46168518066406,936.9849853515625,16435.78125,-4177.09375,162.1246337890625,-2118.74658203125,4564.12646484375,-8033.91162109375,-6499.29052734375,-4289.9453125,4603.06787109375,-318.6861572265625,-4637.2412109375,-1493.2950439453125,443.45855712890625,2427.895751953125,14095.306640625,1207.1927490234375,9400.0498046875,-1014.868408203125,13295.8095703125,-4922.548828125,-6086.826171875,-4384.517578125,-2403.25927734375,-5869.865234375,-499.08953857421875,4518.8271484375,4266.8974609375,1422.564208984375,3120.899169921875,-2281.665771484375,4167.556640625,-2837.18115234375,16710.7578125,-2751.350341796875,-0.0,-3565.15234375,5814.234375,-4327.29736328125,-2120.3359375,576.17822265625,6358.62353515625,-6232.26171875,1072.0888671875,-6961.822265625,-3112.1572265625,-1804.033935546875,7492.701171875,-4138.15185546875,-9129.841796875,-5607.60498046875,-1474.2215576171875,321.8650817871094,-5892.91259765625,-1393.9539794921875,-548.3627319335938,-7208.1884765625,730.3555908203125,-588.8939208984375,1474.2215576171875,-7123.947265625,-779.6287841796875,0.0,-2516.110595703125,0.0,-2581.278564453125,-0.0,-412.4641418457031
-7254.28271484375,-8864.40234375,-6015.30078125,-137.48805236816406,937.7797241210938,16441.345703125,-4173.91455078125,165.3035430908203,-2113.97802734375,4577.63671875,-8025.9638671875,-6500.8798828125,-4286.76611328125,4609.42578125,-322.6598205566406,-4618.16796875,-1486.1424560546875,448.2269287109375,2431.074951171875,14102.458984375,1207.1927490234375,9404.818359375,-1012.4841918945312,13299.783203125,-4928.90673828125,-6070.93212890625,-4384.517578125,-2404.053955078125,-5875.4287109375,-496.7053527832031,4522.80029296875,4275.64013671875,1423.35888671875,3128.0517578125,-2280.076171875,4170.73583984375,-2834.002197265625,16713.9375,-2741.813720703125,-0.0,-3569.126220703125,5827.7451171875,-4324.1181640625,-2117.95166015625,580.15185546875,6362.59716796875,-6267.2294921875,1075.267822265625,-6963.41162109375,-3108.18359375,-1807.212890625,7495.8798828125,-4135.767578125,-9131.431640625,-5613.16845703125,-1486.1424560546875,321.8650817871094,-5875.4287109375,-1387.59619140625,-536.4417724609375,-7191.4990234375,732.73974609375,-584.9202270507812,1471.83740234375,-7127.1259765625,-768.5025634765625,0.0,-2520.08447265625,0.0,-2575.71533203125,-0.0,-407.6957702636719
-7283.6875,-8829.4345703125,-6026.4267578125,-143.0511474609375,928.2429809570312,16438.9609375,-4178.6826171875,166.89300537109375,-2114.772705078125,4584.7890625,-7984.63818359375,-6504.853515625,-4292.3291015625,4605.4521484375,-328.222900390625,-4609.42578125,-1490.910888671875,445.0480041503906,2427.895751953125,14101.6640625,1198.45068359375,9399.2548828125,-1018.04736328125,13298.1943359375,-4945.59619140625,-6074.9052734375,-4391.67041015625,-2397.6962890625,-5876.22314453125,-499.8843078613281,4516.44287109375,4269.28173828125,1417.0010986328125,3122.48876953125,-2287.228759765625,4165.96728515625,-2837.975830078125,16711.552734375,-2756.11865234375,-0.0,-3583.43115234375,5825.36083984375,-4331.2705078125,-2117.156982421875,574.5887451171875,6364.1865234375,-6271.998046875,1069.7047119140625,-6970.564453125,-3102.620361328125,-1815.16015625,7499.05908203125,-4143.71484375,-9157.6572265625,-5613.962890625,-1498.858154296875,317.8914489746094,-5869.0703125,-1388.390869140625,-539.6207275390625,-7222.49365234375,724.79248046875,-585.7149658203125,1465.4794921875,-7127.92041015625,-770.88671875,0.0,-2535.97900390625,0.0,-2582.867919921875,-0.0,-410.0799560546875
-7271.7666015625,-8784.134765625,-6026.4267578125,-130.3354949951172,933.0113525390625,16436.576171875,-4173.91455078125,168.4824676513672,-2111.593994140625,4590.3525390625,-7963.1806640625,-6492.1376953125,-4310.60791015625,4604.65771484375,-319.48089599609375,-4623.73095703125,-1490.1160888671875,445.8427429199219,2431.86962890625,14105.6376953125,1201.629638671875,9400.8447265625,-1013.2789306640625,13299.783203125,-4932.88037109375,-6081.26318359375,-4383.72265625,-2405.6435546875,-5871.45458984375,-489.55279541015625,4518.0322265625,4270.87158203125,1420.179931640625,3121.69384765625,-2282.46044921875,4167.556640625,-2834.002197265625,16714.73046875,-2750.5556640625,-0.0,-3579.45751953125,5826.9501953125,-4326.50244140625,-2117.95166015625,579.357177734375,6368.16015625,-6254.51416015625,1084.8045654296875,-6960.2333984375,-3096.2626953125,-1806.4180908203125,7499.05908203125,-4145.30419921875,-9160.8359375,-5612.37353515625,-1507.6002197265625,325.04400634765625,-5867.4814453125,-1386.8013916015625,-522.13671875,-7220.109375,727.1766357421875,-581.7413330078125,1463.0953369140625,-7120.76806640625,-767.7078247070312,0.0,-2500.21630859375,0.0,-2566.178466796875,-0.0,-411.6694030761719
-7254.28271484375,-8759.4990234375,-6024.83740234375,-125.56712341308594,936.1903076171875,16441.345703125,-4171.5302734375,166.09828186035156,-2106.82568359375,4594.326171875,-7960.001953125,-6488.16455078125,-4306.63427734375,4614.98876953125,-315.50726318359375,-4625.3203125,-1489.3214111328125,448.2269287109375,2431.86962890625,14110.40625,1204.0137939453125,9404.0234375,-1012.4841918945312,13300.578125,-4929.701171875,-6062.189453125,-4382.92822265625,-2412.00146484375,-5869.865234375,-485.57916259765625,4521.2109375,4277.2294921875,1420.9747314453125,3124.872802734375,-2281.665771484375,4169.94091796875,-2833.207275390625,16714.73046875,-2742.6083984375,-0.0,-3577.0732421875,5829.33447265625,-4324.1181640625,-2120.3359375,582.5360717773438,6368.955078125,-6245.77197265625,1087.9835205078125,-6957.84912109375,-3090.699462890625,-1804.033935546875,7493.49609375,-4122.25732421875,-9136.994140625,-5608.39990234375,-1480.579345703125,322.6598205566406,-5862.712890625,-1386.8013916015625,-509.4210510253906,-7211.3671875,728.76611328125,-578.5624389648438,1482.963623046875,-7118.3837890625,-770.092041015625,0.0,-2485.1162109375,0.0,-2542.336669921875,-0.0,-397.3642883300781
-7263.02490234375,-8763.47265625,-6018.47998046875,-123.18293762207031,936.9849853515625,16446.11328125,-4164.3779296875,174.8402862548828,-2100.4677734375,4599.09423828125,-7960.79638671875,-6484.9853515625,-4293.12353515625,4620.55224609375,-308.3547058105469,-4594.326171875,-1486.9371337890625,453.7900390625,2436.637939453125,14119.1484375,1207.9874267578125,9407.203125,-1007.7158203125,13305.3466796875,-4926.52294921875,-6057.42138671875,-4377.365234375,-2400.080322265625,-5873.04443359375,-484.7844543457031,4524.3896484375,4280.408203125,1424.1536865234375,3128.0517578125,-2276.8974609375,4174.70947265625,-2827.644287109375,16721.08984375,-2743.403076171875,-0.0,-3573.099853515625,5832.51318359375,-4320.14453125,-2113.183349609375,588.0991821289062,6376.10791015625,-6231.466796875,1090.36767578125,-6959.4384765625,-3093.083740234375,-1795.2918701171875,7506.2119140625,-4109.54150390625,-9111.5634765625,-5611.57861328125,-1466.2742919921875,325.04400634765625,-5842.05029296875,-1380.443603515625,-507.036865234375,-7205.80419921875,731.945068359375,-572.9993286132812,1502.831787109375,-7115.205078125,-763.7341918945312,0.0,-2485.1162109375,0.0,-2541.5419921875,-0.0,-379.0855407714844
-7276.53515625,-8784.9306640625,-6020.0693359375,-134.3091278076172,933.8060913085938,16441.345703125,-4165.96728515625,175.63502502441406,-2099.673095703125,4599.09423828125,-7976.69140625,-6488.16455078125,-4297.89208984375,4622.93603515625,-309.1494140625,-4606.2470703125,-1486.9371337890625,451.4058532714844,2437.4326171875,14120.73828125,1205.603271484375,9403.228515625,-1009.3053588867188,13303.7568359375,-4940.82763671875,-6078.87890625,-4378.95458984375,-2398.490966796875,-5868.27587890625,-479.2213439941406,4522.80029296875,4278.81884765625,1423.35888671875,3125.66748046875,-2277.692138671875,4172.3251953125,-2829.23388671875,16720.294921875,-2741.813720703125,-0.0,-3576.27880859375,5825.36083984375,-4323.32373046875,-2116.3623046875,588.8939208984375,6376.90234375,-6231.466796875,1080.8309326171875,-6959.4384765625,-3095.4677734375,-1794.4971923828125,7504.6220703125,-4134.97314453125,-9109.1796875,-5608.39990234375,-1453.55859375,326.6334533691406,-5850.7919921875,-1374.0858154296875,-507.8315734863281,-7210.57275390625,731.1503295898438,-571.4098510742188,1495.67919921875,-7116.79443359375,-763.7341918945312,0.0,-2490.679443359375,0.0,-2548.694580078125,-0.0,-385.443359375
-7267.79296875,-8811.951171875,-6012.12158203125,-146.2300567626953,936.9849853515625,16435.78125,-4167.556640625,172.4561004638672,-2099.673095703125,4597.5048828125,-7971.9228515625,-6501.6748046875,-4302.66064453125,4618.16796875,-305.97052001953125,-4620.55224609375,-1490.910888671875,449.02166748046875,2435.04833984375,14119.9423828125,1206.39794921875,9401.638671875,-1011.6895141601562,13300.578125,-4934.4697265625,-6090.00537109375,-4375.77587890625,-2402.464599609375,-5870.66015625,-490.3475646972656,4521.2109375,4270.07666015625,1421.76953125,3123.283447265625,-2280.076171875,4170.73583984375,-2828.43896484375,16717.115234375,-2769.629150390625,-0.0,-3571.51025390625,5825.36083984375,-4322.52880859375,-2120.3359375,589.6885986328125,6374.51806640625,-6238.619140625,1068.115234375,-6953.08056640625,-3105.79931640625,-1792.1129150390625,7500.6484375,-4136.5625,-9140.173828125,-5607.60498046875,-1458.326904296875,329.8123779296875,-5864.30224609375,-1373.291015625,-511.80523681640625,-7208.1884765625,729.5608520507812,-571.4098510742188,1478.989990234375,-7123.15234375,-765.3236083984375,0.0,-2503.39501953125,0.0,-2557.436767578125,-0.0,-398.9537658691406
-7236.798828125,-8855.66015625,-6031.1953125,-139.07749938964844,929.8324584960938,16432.603515625,-4170.73583984375,167.68772888183594,-2104.44140625,4605.4521484375,-7978.2802734375,-6527.10595703125,-4284.3818359375,4594.326171875,-295.6390380859375,-4629.2939453125,-1497.2686767578125,445.0480041503906,2431.074951171875,14120.73828125,1197.656005859375,9397.666015625,-1017.2525634765625,13295.8095703125,-4935.2646484375,-6076.49462890625,-4378.95458984375,-2415.974853515625,-5876.22314453125,-507.036865234375,4514.85302734375,4264.513671875,1410.6431884765625,3119.3095703125,-2286.43408203125,4165.17236328125,-2830.8232421875,16713.142578125,-2760.092529296875,-0.0,-3581.047119140625,5826.9501953125,-4326.50244140625,-2127.48828125,585.7149658203125,6372.9287109375,-6254.51416015625,1073.6783447265625,-6964.20654296875,-3116.925537109375,-1783.3709716796875,7492.701171875,-4088.083740234375,-9176.7314453125,-5613.16845703125,-1497.2686767578125,340.9385681152344,-5865.09716796875,-1379.6488037109375,-515.7788696289062,-7211.3671875,723.2030029296875,-572.9993286132812,1463.0953369140625,-7131.099609375,-776.4498291015625,0.0,-2511.34228515625,0.0,-2555.84716796875,-0.0,-390.21173095703125
-7237.59326171875,-8885.06640625,-6043.1162109375,-128.74603271484375,919.5009765625,16422.271484375,-4181.06689453125,165.3035430908203,-2117.156982421875,4594.326171875,-7989.40673828125,-6526.3115234375,-4291.5341796875,4579.22607421875,-297.2284851074219,-4628.49951171875,-1507.6002197265625,435.5112609863281,2425.51171875,14106.4326171875,1188.1192626953125,9388.12890625,-1025.199951171875,13287.0673828125,-4952.74853515625,-6091.5947265625,-4387.69677734375,-2419.15380859375,-5877.01806640625,-522.13671875,4503.72705078125,4254.9765625,1402.696044921875,3108.978271484375,-2296.765625,4154.8408203125,-2840.35986328125,16707.578125,-2781.550048828125,-0.0,-3595.35205078125,5811.85009765625,-4337.62890625,-2133.051513671875,576.17822265625,6370.54443359375,-6261.6669921875,1085.5992431640625,-6976.12744140625,-3124.872802734375,-1786.5499267578125,7492.701171875,-4095.236328125,-9204.546875,-5614.75732421875,-1506.0106201171875,340.9385681152344,-5866.6865234375,-1393.1593017578125,-526.1103515625,-7226.46728515625,714.4609985351562,-582.5360717773438,1443.2271728515625,-7129.51025390625,-785.986572265625,0.0,-2520.08447265625,0.0,-2570.15234375,-0.0,-412.4641418457031
-7239.9775390625,-8839.7666015625,-6051.0634765625,-141.46168518066406,913.1431884765625,16412.734375,-4193.78271484375,150.99842834472656,-2136.23046875,4568.10009765625,-8005.30126953125,-6512.80078125,-4312.9921875,4568.10009765625,-324.249267578125,-4632.47314453125,-1515.54736328125,425.1798095703125,2415.18017578125,14082.5908203125,1180.1719970703125,9377.796875,-1034.736572265625,13276.736328125,-4950.36474609375,-6103.515625,-4404.38623046875,-2425.51171875,-5884.17041015625,-525.3156127929688,4495.779296875,4249.4140625,1393.9539794921875,3101.031005859375,-2305.507568359375,4145.30419921875,-2853.07568359375,16696.453125,-2784.72900390625,-0.0,-3600.12060546875,5802.3134765625,-4347.16552734375,-2141.79345703125,561.8731079101562,6351.470703125,-6261.6669921875,1072.0888671875,-6980.89599609375,-3124.078125,-1810.3917236328125,7479.98583984375,-4140.53564453125,-9187.857421875,-5623.49951171875,-1490.1160888671875,319.48089599609375,-5870.66015625,-1408.259033203125,-538.03125,-7236.00390625,704.9242553710938,-598.4306640625,1432.1009521484375,-7141.43115234375,-793.13916015625,0.0,-2528.031494140625,0.0,-2590.0205078125,-0.0,-448.2269287109375
-7277.330078125,-8814.3349609375,-6054.24267578125,-176.42974853515625,905.1958618164062,16407.171875,-4201.73046875,137.48805236816406,-2144.97265625,4537.10546875,-8032.32177734375,-6515.97998046875,-4298.68701171875,4569.689453125,-338.55438232421875,-4648.3671875,-1525.0841064453125,416.4377746582031,2405.6435546875,14064.3115234375,1173.0194091796875,9371.439453125,-1041.88916015625,13268.7880859375,-4955.1328125,-6109.87353515625,-4412.3330078125,-2434.253662109375,-5885.759765625,-515.7788696289062,4487.03759765625,4237.4931640625,1386.0067138671875,3089.90478515625,-2312.66015625,4137.357421875,-2861.817626953125,16685.328125,-2808.57080078125,-0.0,-3604.888916015625,5799.134765625,-4354.318359375,-2150.53564453125,553.131103515625,6332.3974609375,-6279.150390625,1033.94189453125,-6990.4326171875,-3127.257080078125,-1824.6968994140625,7464.0908203125,-4148.4833984375,-9144.146484375,-5625.08935546875,-1491.70556640625,318.6861572265625,-5874.6337890625,-1413.8221435546875,-563.4625854492188,-7243.15625,697.771728515625,-611.9410400390625,1443.2271728515625,-7150.96826171875,-794.7285766601562,0.0,-2538.36328125,0.0,-2608.29931640625,-0.0,-456.1742248535156
-7300.376953125,-8788.9033203125,-6037.55322265625,-173.25083923339844,919.5009765625,16424.65625,-4181.86181640625,160.53517150878906,-2124.3095703125,4547.43701171875,-8028.34814453125,-6498.49560546875,-4314.58154296875,4601.478515625,-314.7125244140625,-4630.8837890625,-1512.3685302734375,432.3323669433594,2422.332763671875,14084.9755859375,1185.735107421875,9384.1552734375,-1025.199951171875,13287.0673828125,-4941.6220703125,-6093.97900390625,-4387.69677734375,-2411.20654296875,-5876.22314453125,-495.1159362792969,4502.1376953125,4251.79833984375,1400.311767578125,3101.82568359375,-2295.970947265625,4150.86767578125,-2842.744140625,16704.400390625,-2794.265625,-0.0,-3589.7890625,5809.4658203125,-4335.24462890625,-2130.66748046875,574.5887451171875,6356.2392578125,-6264.05078125,1040.2998046875,-6969.77001953125,-3110.56787109375,-1802.4444580078125,7491.90673828125,-4128.61474609375,-9104.4111328125,-5616.3466796875,-1475.81103515625,329.8123779296875,-5877.81298828125,-1395.54345703125,-549.9522094726562,-7234.41455078125,714.4609985351562,-592.0728149414062,1471.83740234375,-7136.6630859375,-774.8603515625,0.0,-2524.05810546875,0.0,-2593.994140625,-0.0,-429.1534423828125
-7294.8134765625,-8798.4404296875,-6035.1689453125,-166.09828186035156,926.653564453125,16423.06640625,-4173.1201171875,170.8666534423828,-2109.209716796875,4577.63671875,-8041.85888671875,-6494.52197265625,-4317.76025390625,4625.3203125,-305.97052001953125,-4607.83642578125,-1512.3685302734375,434.716552734375,2431.86962890625,14105.6376953125,1188.9139404296875,9382.5654296875,-1019.6367797851562,13291.041015625,-4930.49609375,-6101.13134765625,-4379.74951171875,-2404.848876953125,-5881.7861328125,-498.2948303222656,4502.1376953125,4251.79833984375,1401.1064453125,3099.44140625,-2292.7919921875,4153.25146484375,-2834.002197265625,16713.9375,-2783.934326171875,-0.0,-3584.225830078125,5800.72412109375,-4328.88671875,-2128.283203125,584.9202270507812,6371.33935546875,-6266.43505859375,1051.4259033203125,-6960.2333984375,-3111.362548828125,-1792.1129150390625,7502.23779296875,-4135.767578125,-9116.33203125,-5620.32080078125,-1489.3214111328125,324.249267578125,-5874.6337890625,-1372.4962158203125,-522.13671875,-7228.8515625,718.4346313476562,-576.9729614257812,1492.500244140625,-7137.45751953125,-770.88671875,0.0,-2504.984619140625,0.0,-2565.3837890625,-0.0,-401.33795166015625
-7266.998046875,-8808.7724609375,-6031.1953125,-164.50881958007812,930.627197265625,16424.65625,-4165.17236328125,177.22447204589844,-2090.13623046875,4601.478515625,-8037.884765625,-6492.9326171875,-4308.2236328125,4638.83056640625,-303.5863342285156,-4599.09423828125,-1505.2159423828125,438.690185546875,2442.200927734375,14127.095703125,1193.682373046875,9386.5390625,-1014.07373046875,13295.0146484375,-4933.67529296875,-6092.3896484375,-4377.365234375,-2407.23291015625,-5876.22314453125,-488.7580871582031,4506.90625,4262.92431640625,1405.8748779296875,3103.415283203125,-2287.228759765625,4158.81494140625,-2825.26025390625,16721.8828125,-2768.039794921875,-0.0,-3581.841796875,5803.9033203125,-4323.32373046875,-2125.104248046875,599.225341796875,6382.46533203125,-6258.48779296875,1051.4259033203125,-6957.84912109375,-3125.66748046875,-1788.139404296875,7503.82763671875,-4138.15185546875,-9118.7158203125,-5613.16845703125,-1487.73193359375,325.8387145996094,-5836.48681640625,-1355.0123291015625,-511.80523681640625,-7214.54638671875,725.5872192382812,-561.078369140625,1501.2423095703125,-7131.89453125,-770.092041015625,0.0,-2489.884521484375,0.0,-2547.10498046875,-0.0,-387.8275451660156
-7270.9716796875,-8821.4873046875,-6027.2216796875,-154.17735290527344,928.2429809570312,16436.576171875,-4164.3779296875,187.5559539794922,-2078.21533203125,4612.6044921875,-8019.6064453125,-6488.16455078125,-4292.3291015625,4656.31494140625,-316.3019714355469,-4601.478515625,-1497.2686767578125,444.2532958984375,2446.96923828125,14139.8115234375,1197.656005859375,9396.076171875,-1011.6895141601562,13302.1669921875,-4941.6220703125,-6081.26318359375,-4387.69677734375,-2394.51708984375,-5874.6337890625,-475.2477111816406,4513.263671875,4271.666015625,1413.0274658203125,3112.951904296875,-2284.8447265625,4166.76171875,-2825.26025390625,16728.2421875,-2752.93994140625,-0.0,-3581.047119140625,5815.029296875,-4325.7080078125,-2114.772705078125,600.8148193359375,6393.59130859375,-6242.59326171875,1059.373291015625,-6968.18017578125,-3099.44140625,-1800.85498046875,7514.95361328125,-4152.45654296875,-9119.5107421875,-5612.37353515625,-1463.0953369140625,323.45452880859375,-5840.46044921875,-1366.9332275390625,-502.26849365234375,-7208.1884765625,729.5608520507812,-553.9258422851562,1505.2159423828125,-7128.71533203125,-762.1447143554688,0.0,-2486.705810546875,0.0,-2543.92626953125,-0.0,-379.8802795410156
-7294.01904296875,-8844.53515625,-6013.71142578125,-158.9457244873047,925.8588256835938,16427.041015625,-4172.3251953125,181.1981201171875,-2091.7255859375,4613.3994140625,-8019.6064453125,-6499.29052734375,-4285.97119140625,4628.49951171875,-318.6861572265625,-4606.2470703125,-1500.4476318359375,438.690185546875,2439.02197265625,14129.4794921875,1196.0665283203125,9388.923828125,-1019.6367797851562,13295.0146484375,-4925.72802734375,-6094.77392578125,-4393.259765625,-2402.464599609375,-5888.14404296875,-483.9897155761719,4509.2900390625,4269.28173828125,1413.0274658203125,3108.978271484375,-2289.613037109375,4157.22509765625,-2831.6181640625,16721.08984375,-2758.5029296875,-0.0,-3577.0732421875,5807.08154296875,-4332.0654296875,-2123.514892578125,589.6885986328125,6387.23388671875,-6221.1357421875,1053.81005859375,-6976.92236328125,-3114.541259765625,-1804.033935546875,7505.4169921875,-4157.22509765625,-9139.37890625,-5625.08935546875,-1471.0426025390625,324.249267578125,-5852.38134765625,-1384.417236328125,-498.2948303222656,-7220.90380859375,720.0241088867188,-565.8467407226562,1492.500244140625,-7140.63623046875,-766.9130859375,0.0,-2485.1162109375,0.0,-2537.568359375,-0.0,-380.67498779296875
-7260.640625,-8830.2294921875,-5998.611328125,-141.46168518066406,942.548095703125,16430.21875,-4164.3779296875,185.17176818847656,-2096.493896484375,4616.57861328125,-7995.7646484375,-6492.9326171875,-4297.09765625,4608.63134765625,-301.2021484375,-4595.91552734375,-1489.3214111328125,446.6374816894531,2443.79052734375,14127.890625,1207.9874267578125,9395.2822265625,-1011.6895141601562,13300.578125,-4898.70703125,-6069.34228515625,-4374.98095703125,-2397.6962890625,-5880.99169921875,-486.3739013671875,4517.2373046875,4281.99755859375,1424.1536865234375,3117.720458984375,-2279.28173828125,4161.19921875,-2825.26025390625,16725.859375,-2752.14501953125,-0.0,-3558.794677734375,5814.234375,-4318.55517578125,-2118.74658203125,593.6622314453125,6391.20703125,-6238.619140625,1072.0888671875,-6953.875,-3119.3095703125,-1786.5499267578125,7509.39013671875,-4134.97314453125,-9135.4052734375,-5618.73095703125,-1473.4267578125,337.7596435546875,-5858.7392578125,-1384.417236328125,-499.8843078613281,-7212.162109375,726.3819580078125,-565.8467407226562,1484.552978515625,-7138.25244140625,-765.3236083984375,0.0,-2480.347900390625,0.0,-2543.131591796875,-0.0,-386.23809814453125
-7253.48828125,-8834.998046875,-6013.71142578125,-139.07749938964844,934.600830078125,16430.21875,-4172.3251953125,180.4033966064453,-2106.03076171875,4602.2734375,-7977.48583984375,-6486.57470703125,-4316.9658203125,4609.42578125,-313.1230773925781,-4606.2470703125,-1492.500244140625,441.0743713378906,2439.02197265625,14116.763671875,1200.0401611328125,9393.6923828125,-1015.6631469726562,13298.1943359375,-4929.701171875,-6060.60009765625,-4381.33837890625,-2398.490966796875,-5874.6337890625,-494.3211669921875,4514.05859375,4282.79248046875,1420.9747314453125,3117.720458984375,-2284.8447265625,4159.609375,-2831.6181640625,16722.6796875,-2748.171630859375,-0.0,-3573.099853515625,5815.82421875,-4324.9130859375,-2121.130615234375,584.9202270507812,6387.23388671875,-6254.51416015625,1076.0625,-6953.875,-3105.79931640625,-1800.85498046875,7505.4169921875,-4140.53564453125,-9128.2529296875,-5613.962890625,-1473.4267578125,326.6334533691406,-5871.45458984375,-1389.9803466796875,-501.4737243652344,-7215.34130859375,723.2030029296875,-570.6151123046875,1479.78466796875,-7133.48388671875,-765.3236083984375,0.0,-2487.50048828125,0.0,-2555.84716796875,-0.0,-399.74847412109375
-7271.7666015625,-8858.83984375,-6034.3740234375,-150.20370483398438,917.1168212890625,16427.041015625,-4182.65673828125,171.661376953125,-2113.183349609375,4595.91552734375,-7984.63818359375,-6500.8798828125,-4325.7080078125,4605.4521484375,-332.99127197265625,-4618.16796875,-1503.62646484375,431.5376281738281,2429.4853515625,14108.8173828125,1188.1192626953125,9385.7451171875,-1025.99462890625,13290.24609375,-4957.51708984375,-6075.7001953125,-4397.2333984375,-2402.464599609375,-5879.40234375,-511.80523681640625,4502.93212890625,4270.87158203125,1406.669677734375,3109.77294921875,-2299.149658203125,4152.45654296875,-2842.744140625,16713.9375,-2756.11865234375,-0.0,-3593.7626953125,5816.61865234375,-4339.21826171875,-2125.104248046875,574.5887451171875,6377.69677734375,-6255.30859375,1062.5521240234375,-6970.564453125,-3105.004638671875,-1819.1337890625,7497.46923828125,-4140.53564453125,-9135.4052734375,-5617.1416015625,-1502.831787109375,304.38104248046875,-5878.607421875,-1395.54345703125,-507.036865234375,-7223.2880859375,713.666259765625,-577.7677001953125,1481.3741455078125,-7131.099609375,-768.5025634765625,0.0,-2501.8056640625,0.0,-2557.436767578125,-0.0,-407.6957702636719
-7265.4091796875,-8854.0712890625,-6036.75830078125,-140.66696166992188,920.2957153320312,16435.78125,-4174.70947265625,177.22447204589844,-2105.236083984375,4607.83642578125,-7983.84375,-6500.08544921875,-4312.9921875,4613.3994140625,-318.6861572265625,-4605.4521484375,-1496.473876953125,437.1007385253906,2435.84326171875,14118.353515625,1192.8876953125,9393.6923828125,-1022.0209350585938,13295.8095703125,-4953.54296875,-6042.32177734375,-4387.69677734375,-2398.490966796875,-5869.0703125,-521.3419799804688,4507.70068359375,4272.4609375,1409.8485107421875,3118.51513671875,-2295.970947265625,4158.81494140625,-2836.386474609375,16718.70703125,-2741.813720703125,-0.0,-3592.17333984375,5834.8974609375,-4331.2705078125,-2120.3359375,583.330810546875,6386.43896484375,-6250.5400390625,1072.0888671875,-6966.5908203125,-3109.77294921875,-1805.6234130859375,7503.82763671875,-4134.17822265625,-9135.4052734375,-5606.015625,-1511.57373046875,316.3019714355469,-5865.09716796875,-1386.8013916015625,-500.67901611328125,-7219.314453125,717.639892578125,-572.20458984375,1489.3214111328125,-7119.1787109375,-767.7078247070312,0.0,-2490.679443359375,0.0,-2544.720947265625,-0.0,-389.4170227050781
-7247.1298828125,-8797.6455078125,-6028.81103515625,-127.15657043457031,929.0377197265625,16438.9609375,-4165.96728515625,183.58230590820312,-2104.44140625,4610.22021484375,-7974.30712890625,-6492.9326171875,-4289.150390625,4615.78369140625,-292.4601135253906,-4595.91552734375,-1494.0897216796875,441.8691101074219,2441.40625,14123.1220703125,1199.2454833984375,9397.666015625,-1014.07373046875,13298.98828125,-4950.36474609375,-6039.9375,-4370.21240234375,-2404.848876953125,-5853.17626953125,-514.1893920898438,4514.85302734375,4276.4345703125,1417.0010986328125,3123.283447265625,-2287.228759765625,4161.99365234375,-2826.054931640625,16721.08984375,-2745.787353515625,-0.0,-3584.225830078125,5837.28173828125,-4321.73388671875,-2119.541259765625,590.4833374023438,6392.796875,-6246.56689453125,1085.5992431640625,-6953.875,-3105.79931640625,-1778.6025390625,7510.97998046875,-4115.8994140625,-9133.8154296875,-5590.91552734375,-1494.884521484375,351.2700500488281,-5852.38134765625,-1376.469970703125,-495.91064453125,-7207.3935546875,721.6135864257812,-565.052001953125,1489.3214111328125,-7111.2314453125,-768.5025634765625,0.0,-2485.1162109375,0.0,-2547.89990234375,-0.0,-391.80120849609375
-7244.74560546875,-8769.830078125,-6032.78515625,-132.7196807861328,931.4219360351562,16427.8359375,-4167.556640625,181.9928436279297,-2107.6201171875,4603.06787109375,-7994.96923828125,-6489.75390625,-4263.71923828125,4607.83642578125,-274.1813659667969,-4603.86279296875,-1500.4476318359375,437.89544677734375,2440.611572265625,14115.9697265625,1197.656005859375,9391.3076171875,-1014.07373046875,13294.2197265625,-4937.64892578125,-6090.00537109375,-4363.06005859375,-2403.25927734375,-5849.20263671875,-492.73175048828125,4510.87939453125,4272.4609375,1413.0274658203125,3114.541259765625,-2289.613037109375,4154.8408203125,-2826.849609375,16719.5,-2756.913330078125,-0.0,-3582.636474609375,5815.029296875,-4320.939453125,-2124.3095703125,589.6885986328125,6392.001953125,-6269.61376953125,1077.6519775390625,-6952.28564453125,-3107.388671875,-1761.913330078125,7507.00634765625,-4126.23095703125,-9125.869140625,-5589.326171875,-1475.0162353515625,368.7540588378906,-5856.35498046875,-1367.7279052734375,-488.7580871582031,-7199.4462890625,722.4083251953125,-567.4362182617188,1480.579345703125,-7117.58935546875,-766.1183471679688,0.0,-2484.321533203125,0.0,-2544.720947265625,-0.0,-402.1326599121094
-7256.66650390625,-8788.1083984375,-6037.55322265625,-143.8458709716797,920.2957153320312,16424.65625,-4181.06689453125,167.68772888183594,-2121.130615234375,4582.4052734375,-8021.99072265625,-6487.36962890625,-4263.71923828125,4604.65771484375,-299.6126708984375,-4608.63134765625,-1502.831787109375,430.7428894042969,2425.51171875,14096.896484375,1189.708740234375,9386.5390625,-1025.99462890625,13286.2734375,-4939.23828125,-6095.568359375,-4383.72265625,-2406.438232421875,-5868.27587890625,-494.3211669921875,4503.72705078125,4275.64013671875,1407.46435546875,3111.362548828125,-2299.149658203125,4148.4833984375,-2843.5390625,16706.78515625,-2758.5029296875,-0.0,-3588.994384765625,5811.85009765625,-4336.833984375,-2130.66748046875,573.7940673828125,6369.74951171875,-6268.0244140625,1068.9100341796875,-6972.94873046875,-3101.031005859375,-1788.93408203125,7493.49609375,-4155.6357421875,-9126.6630859375,-5607.60498046875,-1472.632080078125,345.7069396972656,-5869.0703125,-1386.0067138671875,-518.1630249023438,-7193.08837890625,712.0768432617188,-585.7149658203125,1476.605712890625,-7123.15234375,-763.7341918945312,0.0,-2503.39501953125,0.0,-2552.668212890625,-0.0,-400.543212890625
-7266.20361328125,-8801.619140625,-6026.4267578125,-133.514404296875,923.474609375,16434.98828125,-4181.06689453125,172.4561004638672,-2116.3623046875,4587.17333984375,-7998.943359375,-6485.7802734375,-4301.0712890625,4607.0419921875,-315.50726318359375,-4595.91552734375,-1496.473876953125,436.3059997558594,2428.690673828125,14101.6640625,1194.47705078125,9392.1025390625,-1025.199951171875,13290.24609375,-4932.88037109375,-6066.9580078125,-4388.4912109375,-2395.31201171875,-5876.22314453125,-496.7053527832031,4508.4951171875,4278.0244140625,1412.2327880859375,3119.3095703125,-2295.970947265625,4155.6357421875,-2841.949462890625,16709.962890625,-2772.80810546875,-0.0,-3583.43115234375,5822.181640625,-4336.0390625,-2122.719970703125,574.5887451171875,6371.33935546875,-6248.15625,1083.215087890625,-6968.97509765625,-3096.2626953125,-1802.4444580078125,7498.26416015625,-4164.3779296875,-9132.2255859375,-5613.16845703125,-1498.858154296875,326.6334533691406,-5862.712890625,-1383.62255859375,-526.1103515625,-7194.677734375,715.2557373046875,-582.5360717773438,1480.579345703125,-7119.1787109375,-761.3499755859375,0.0,-2518.494873046875,0.0,-2561.41015625,-0.0,-395.77484130859375
-7296.4033203125,-8803.2080078125,-6020.0693359375,-125.56712341308594,928.2429809570312,16434.193359375,-4177.88818359375,178.0192108154297,-2104.44140625,4599.09423828125,-7980.6640625,-6485.7802734375,-4314.58154296875,4618.16796875,-330.6070861816406,-4596.7099609375,-1493.2950439453125,437.1007385253906,2433.458984375,14117.55859375,1199.2454833984375,9394.486328125,-1022.0209350585938,13292.6298828125,-4932.88037109375,-6066.9580078125,-4390.87548828125,-2399.28564453125,-5876.22314453125,-491.9369812011719,4514.85302734375,4276.4345703125,1416.206298828125,3120.899169921875,-2291.997314453125,4158.02001953125,-2839.565185546875,16713.9375,-2753.734619140625,-0.0,-3579.45751953125,5821.38671875,-4332.0654296875,-2121.130615234375,579.357177734375,6383.26025390625,-6229.87744140625,1090.36767578125,-6958.6435546875,-3092.2890625,-1817.5443115234375,7505.4169921875,-4148.4833984375,-9124.279296875,-5610.7841796875,-1486.9371337890625,313.1230773925781,-5844.43408203125,-1389.185546875,-514.984130859375,-7215.34130859375,718.4346313476562,-571.4098510742188,1485.3477783203125,-7116.79443359375,-761.3499755859375,0.0,-2501.8056640625,0.0,-2555.84716796875,-0.0,-394.1853942871094
-7313.88720703125,-8791.287109375,-6022.453125,-140.66696166992188,919.5009765625,16423.861328125,-4183.451171875,171.661376953125,-2103.646484375,4598.29931640625,-7984.63818359375,-6492.9326171875,-4312.197265625,4622.93603515625,-332.99127197265625,-4615.78369140625,-1501.2423095703125,427.5639953613281,2427.895751953125,14121.5322265625,1192.0928955078125,9384.94921875,-1029.1734619140625,13287.0673828125,-4936.85400390625,-6090.7998046875,-4400.412109375,-2415.18017578125,-5884.96533203125,-495.1159362792969,4506.111328125,4269.28173828125,1409.8485107421875,3109.77294921875,-2295.17626953125,4148.4833984375,-2845.12841796875,16709.962890625,-2751.350341796875,-0.0,-3586.610107421875,5809.4658203125,-4338.42333984375,-2130.66748046875,576.17822265625,6381.67041015625,-6227.4931640625,1075.267822265625,-6971.359375,-3105.004638671875,-1819.928466796875,7497.46923828125,-4130.20458984375,-9118.7158203125,-5619.52587890625,-1459.1217041015625,306.7652282714844,-5853.17626953125,-1396.338134765625,-510.21575927734375,-7210.57275390625,712.0768432617188,-572.9993286132812,1489.3214111328125,-7125.53662109375,-764.5289306640625,0.0,-2484.321533203125,0.0,-2549.4892578125,-0.0,-391.0064697265625
-7274.15087890625,-8789.6982421875,-6032.78515625,-155.7667999267578,910.7589721679688,16412.734375,-4189.80908203125,164.50881958007812,-2110.00439453125,4598.29931640625,-7998.943359375,-6500.08544921875,-4312.197265625,4618.16796875,-329.8123779296875,-4626.90966796875,-1510.779052734375,418.82196044921875,2422.332763671875,14115.173828125,1183.3509521484375,9375.4130859375,-1037.120849609375,13279.1201171875,-4955.1328125,-6105.89990234375,-4405.9755859375,-2420.7431640625,-5878.607421875,-495.91064453125,4494.98486328125,4263.71923828125,1401.9012451171875,3099.44140625,-2304.712890625,4139.7412109375,-2849.896728515625,16701.220703125,-2770.423828125,-0.0,-3596.146728515625,5800.72412109375,-4345.57568359375,-2138.61474609375,572.20458984375,6374.51806640625,-6271.998046875,1057.78369140625,-6976.12744140625,-3118.51513671875,-1815.954833984375,7487.9326171875,-4124.6416015625,-9118.7158203125,-5615.55224609375,-1461.505859375,308.3547058105469,-5860.32861328125,-1392.364501953125,-510.21575927734375,-7205.80419921875,704.1295166015625,-580.15185546875,1488.5267333984375,-7133.48388671875,-768.5025634765625,0.0,-2478.758544921875,0.0,-2541.5419921875,-0.0,-386.23809814453125
-7238.38818359375,-8800.029296875,-6040.73193359375,-150.20370483398438,913.1431884765625,16418.298828125,-4189.0146484375,162.1246337890625,-2119.541259765625,4592.73681640625,-8000.533203125,-6491.34326171875,-4305.83935546875,4603.86279296875,-325.04400634765625,-4620.55224609375,-1505.2159423828125,421.2061462402344,2420.7431640625,14102.458984375,1185.735107421875,9380.181640625,-1036.3260498046875,13279.9150390625,-4951.9541015625,-6097.15771484375,-4396.4384765625,-2416.769775390625,-5869.865234375,-490.3475646972656,4496.57421875,4266.10302734375,1402.696044921875,3103.415283203125,-2305.507568359375,4142.919921875,-2846.7177734375,16701.220703125,-2772.80810546875,-0.0,-3596.146728515625,5805.4921875,-4342.39697265625,-2136.23046875,569.0256958007812,6369.74951171875,-6291.0712890625,1062.5521240234375,-6974.5380859375,-3106.593994140625,-1812.7760009765625,7487.13818359375,-4111.13134765625,-9122.689453125,-5608.39990234375,-1464.684814453125,312.3283386230469,-5863.5078125,-1394.7486572265625,-510.21575927734375,-7208.98291015625,705.718994140625,-586.5097045898438,1478.1951904296875,-7131.89453125,-770.092041015625,0.0,-2481.9375,0.0,-2543.92626953125,-0.0,-395.77484130859375
-7243.15625,-8803.2080078125,-6028.0166015625,-150.20370483398438,925.0640869140625,16429.423828125,-4180.2724609375,166.09828186035156,-2110.799072265625,4592.73681640625,-7990.201171875,-6483.39599609375,-4301.8662109375,4616.57861328125,-313.1230773925781,-4615.78369140625,-1498.0634765625,429.94818115234375,2427.10107421875,14106.4326171875,1195.2718505859375,9386.5390625,-1028.3787841796875,13287.0673828125,-4935.2646484375,-6079.673828125,-4382.13330078125,-2408.822265625,-5866.6865234375,-481.60552978515625,4506.111328125,4274.05029296875,1411.43798828125,3112.1572265625,-2297.560546875,4150.07275390625,-2837.975830078125,16707.578125,-2768.83447265625,-0.0,-3586.610107421875,5814.234375,-4332.0654296875,-2129.077880859375,578.5624389648438,6371.33935546875,-6254.51416015625,1061.7574462890625,-6958.6435546875,-3101.82568359375,-1800.060302734375,7490.31689453125,-4112.720703125,-9117.126953125,-5606.015625,-1463.89013671875,321.0703430175781,-5870.66015625,-1389.185546875,-512.5999755859375,-7213.75146484375,712.0768432617188,-581.7413330078125,1484.552978515625,-7120.76806640625,-766.9130859375,0.0,-2498.626708984375,0.0,-2555.052490234375,-0.0,-400.543212890625
-7254.28271484375,-8801.619140625,-6025.63232421875,-158.15098571777344,926.653564453125,16422.271484375,-4177.88818359375,165.3035430908203,-2104.44140625,4596.7099609375,-7997.353515625,-6488.16455078125,-4285.97119140625,4620.55224609375,-308.3547058105469,-4606.2470703125,-1498.858154296875,432.3323669433594,2427.895751953125,14112.7900390625,1196.861328125,9384.94921875,-1023.6104736328125,13287.0673828125,-4926.52294921875,-6092.3896484375,-4380.5439453125,-2409.6171875,-5869.0703125,-481.60552978515625,4507.70068359375,4274.05029296875,1416.206298828125,3108.978271484375,-2294.38134765625,4150.07275390625,-2837.975830078125,16706.78515625,-2756.11865234375,-0.0,-3581.047119140625,5808.67138671875,-4331.2705078125,-2129.077880859375,581.7413330078125,6374.51806640625,-6242.59326171875,1056.989013671875,-6957.84912109375,-3112.951904296875,-1794.4971923828125,7491.90673828125,-4110.33642578125,-9116.33203125,-5608.39990234375,-1471.0426025390625,330.6070861816406,-5852.38134765625,-1388.390869140625,-509.4210510253906,-7214.54638671875,713.666259765625,-580.15185546875,1489.3214111328125,-7117.58935546875,-770.092041015625,0.0,-2497.83203125,0.0,-2552.668212890625,-0.0,-395.77484130859375
-7264.6142578125,-8810.361328125,-6026.4267578125,-155.7667999267578,917.9114990234375,16410.3515625,-4185.83544921875,157.35626220703125,-2105.236083984375,4592.73681640625,-7997.353515625,-6499.29052734375,-4308.2236328125,4616.57861328125,-327.4281921386719,-4613.3994140625,-1505.2159423828125,427.5639953613281,2421.5380859375,14113.5859375,1190.50341796875,9377.796875,-1031.5577392578125,13279.1201171875,-4941.6220703125,-6105.89990234375,-4396.4384765625,-2418.359130859375,-5873.8388671875,-501.4737243652344,4501.3427734375,4265.30859375,1409.8485107421875,3101.82568359375,-2301.533935546875,4142.12548828125,-2845.12841796875,16698.041015625,-2760.092529296875,-0.0,-3585.8154296875,5799.92919921875,-4341.6025390625,-2138.61474609375,575.3834838867188,6367.365234375,-6241.00341796875,1059.373291015625,-6969.77001953125,-3122.48876953125,-1813.5706787109375,7486.34326171875,-4108.7470703125,-9140.96875,-5612.37353515625,-1491.70556640625,311.5335998535156,-5847.61279296875,-1392.364501953125,-517.3682861328125,-7217.72509765625,708.1031494140625,-584.9202270507812,1489.3214111328125,-7125.53662109375,-776.4498291015625,0.0,-2499.42138671875,0.0,-2559.82080078125,-0.0,-398.1590270996094
-7247.9248046875,-8823.8720703125,-6014.505859375,-154.97207641601562,924.2693481445312,16418.298828125,-4178.6826171875,163.71409606933594,-2095.69921875,4597.5048828125,-7976.69140625,-6498.49560546875,-4314.58154296875,4631.67822265625,-322.6598205566406,-4614.98876953125,-1498.0634765625,434.716552734375,2427.10107421875,14124.7109375,1198.45068359375,9386.5390625,-1025.99462890625,13286.2734375,-4934.4697265625,-6097.9521484375,-4391.67041015625,-2409.6171875,-5877.01806640625,-507.8315734863281,4509.2900390625,4270.87158203125,1416.206298828125,3109.77294921875,-2295.970947265625,4151.662109375,-2837.975830078125,16702.810546875,-2752.93994140625,-0.0,-3577.0732421875,5809.4658203125,-4336.0390625,-2131.462158203125,583.330810546875,6371.33935546875,-6229.08251953125,1058.5784912109375,-6964.20654296875,-3112.951904296875,-1810.3917236328125,7493.49609375,-4091.2626953125,-9156.0673828125,-5614.75732421875,-1492.500244140625,313.91778564453125,-5839.666015625,-1381.23828125,-526.1103515625,-7220.109375,714.4609985351562,-577.7677001953125,1494.884521484375,-7124.7421875,-774.8603515625,0.0,-2504.984619140625,0.0,-2561.41015625,-0.0,-396.569580078125
-7256.66650390625,-8813.5400390625,-6024.04248046875,-158.15098571777344,925.0640869140625,16418.298828125,-4173.91455078125,163.71409606933594,-2093.315185546875,4599.88916015625,-7972.71728515625,-6496.90625,-4301.0712890625,4627.70458984375,-310.7388916015625,-4621.34716796875,-1494.884521484375,437.89544677734375,2427.895751953125,14127.890625,1198.45068359375,9386.5390625,-1025.199951171875,13286.2734375,-4933.67529296875,-6101.13134765625,-4385.3125,-2412.00146484375,-5876.22314453125,-503.0632019042969,4510.08447265625,4274.84521484375,1417.7957763671875,3109.77294921875,-2293.586669921875,4153.25146484375,-2834.002197265625,16703.60546875,-2749.760986328125,-0.0,-3579.45751953125,5805.4921875,-4331.2705078125,-2132.2568359375,588.0991821289062,6372.1337890625,-6244.1826171875,1057.78369140625,-6961.02783203125,-3113.74658203125,-1799.2655029296875,7490.31689453125,-4108.7470703125,-9140.96875,-5614.75732421875,-1483.75830078125,325.04400634765625,-5853.17626953125,-1378.8541259765625,-516.5736083984375,-7216.1357421875,717.639892578125,-576.17822265625,1499.65283203125,-7127.92041015625,-773.2709350585938,0.0,-2501.010986328125,0.0,-2560.615478515625,-0.0,-393.3906555175781
-7280.50830078125,-8796.0556640625,-6016.89013671875,-153.3826141357422,933.0113525390625,16422.271484375,-4166.76171875,162.1246337890625,-2084.572998046875,4618.16796875,-7985.4326171875,-6496.111328125,-4297.89208984375,4638.0361328125,-297.2284851074219,-4622.93603515625,-1489.3214111328125,443.45855712890625,2435.04833984375,14141.400390625,1206.39794921875,9392.8974609375,-1016.4578857421875,13289.451171875,-4928.11181640625,-6095.568359375,-4375.77587890625,-2415.18017578125,-5870.66015625,-499.08953857421875,4518.0322265625,4280.408203125,1425.7431640625,3115.336181640625,-2284.8447265625,4158.02001953125,-2825.26025390625,16705.1953125,-2747.376708984375,-0.0,-3572.304931640625,5808.67138671875,-4320.939453125,-2131.462158203125,596.8411865234375,6376.90234375,-6240.208984375,1061.7574462890625,-6951.49072265625,-3119.3095703125,-1784.96044921875,7484.75390625,-4139.7412109375,-9123.484375,-5609.1943359375,-1480.579345703125,332.99127197265625,-5860.32861328125,-1374.0858154296875,-499.8843078613281,-7208.1884765625,724.79248046875,-569.0256958007812,1510.779052734375,-7130.3046875,-772.4761962890625,0.0,-2492.268798828125,0.0,-2546.310546875,-0.0,-379.8802795410156
-7300.376953125,-8797.6455078125,-6012.91650390625,-151.7931671142578,937.7797241210938,16425.451171875,-4163.58349609375,166.09828186035156,-2085.367919921875,4621.34716796875,-7980.6640625,-6493.72705078125,-4286.76611328125,4634.857421875,-291.6654052734375,-4617.373046875,-1485.3477783203125,449.02166748046875,2439.02197265625,14143.7841796875,1211.1663818359375,9398.4599609375,-1010.894775390625,13294.2197265625,-4931.291015625,-6086.826171875,-4371.00732421875,-2412.00146484375,-5865.09716796875,-499.8843078613281,4522.80029296875,4281.99755859375,1428.9219970703125,3120.899169921875,-2278.487060546875,4162.78857421875,-2822.081298828125,16710.7578125,-2750.5556640625,-0.0,-3570.715576171875,5818.2080078125,-4316.9658203125,-2129.077880859375,600.0200805664062,6378.49169921875,-6233.056640625,1063.346923828125,-6952.28564453125,-3136.7939453125,-1778.6025390625,7488.7275390625,-4144.509765625,-9125.0732421875,-5602.04150390625,-1483.75830078125,338.55438232421875,-5847.61279296875,-1374.0858154296875,-500.67901611328125,-7208.1884765625,729.5608520507812,-563.4625854492188,1504.4212646484375,-7118.3837890625,-772.4761962890625,0.0,-2495.44775390625,0.0,-2547.10498046875,-0.0,-389.4170227050781
-7301.171875,-8823.8720703125,-6019.2744140625,-158.9457244873047,929.8324584960938,16417.50390625,-4170.73583984375,158.9457244873047,-2099.673095703125,4602.2734375,-7992.5849609375,-6502.4697265625,-4290.73974609375,4609.42578125,-301.2021484375,-4621.34716796875,-1494.0897216796875,441.0743713378906,2428.690673828125,14123.1220703125,1204.0137939453125,9388.923828125,-1018.8421020507812,13286.2734375,-4938.44384765625,-6092.3896484375,-4378.95458984375,-2415.974853515625,-5868.27587890625,-511.80523681640625,4515.64794921875,4272.4609375,1420.9747314453125,3112.1572265625,-2286.43408203125,4154.04638671875,-2830.8232421875,16702.810546875,-2763.271240234375,-0.0,-3579.45751953125,5811.0556640625,-4325.7080078125,-2135.435791015625,592.0728149414062,6366.57080078125,-6244.9775390625,1055.3995361328125,-6961.822265625,-3135.9990234375,-1788.139404296875,7481.5751953125,-4145.30419921875,-9139.37890625,-5604.42578125,-1506.0106201171875,332.99127197265625,-5861.12353515625,-1382.032958984375,-516.5736083984375,-7221.69873046875,720.81884765625,-575.3834838867188,1474.2215576171875,-7123.15234375,-779.6287841796875,0.0,-2508.9580078125,0.0,-2566.178466796875,-0.0,-410.87469482421875
-7288.4560546875,-8853.2763671875,-6009.7373046875,-158.15098571777344,933.8060913085938,16415.119140625,-4177.09375,146.2300567626953,-2123.514892578125,4563.33154296875,-8001.32763671875,-6512.00634765625,-4290.73974609375,4591.14697265625,-312.3283386230469,-4627.70458984375,-1493.2950439453125,437.1007385253906,2418.359130859375,14085.76953125,1205.603271484375,9386.5390625,-1022.0209350585938,13281.5048828125,-4923.34375,-6091.5947265625,-4378.95458984375,-2422.332763671875,-5865.89208984375,-519.7525024414062,4514.85302734375,4270.07666015625,1423.35888671875,3112.1572265625,-2288.023681640625,4149.2783203125,-2838.7705078125,16691.685546875,-2756.913330078125,-0.0,-3572.304931640625,5809.4658203125,-4327.29736328125,-2140.2041015625,578.5624389648438,6343.5234375,-6241.79833984375,1056.1943359375,-6957.84912109375,-3128.0517578125,-1797.676025390625,7470.44873046875,-4135.767578125,-9154.4794921875,-5603.63134765625,-1515.54736328125,327.4281921386719,-5867.4814453125,-1385.2119140625,-547.5679931640625,-7225.67236328125,712.87158203125,-596.0464477539062,1438.458740234375,-7128.71533203125,-787.5760498046875,0.0,-2521.673828125,0.0,-2586.046875,-0.0,-432.3323669433594
-7254.28271484375,-8846.1240234375,-5999.40625,-143.0511474609375,942.548095703125,16422.271484375,-4173.1201171875,145.43533325195312,-2133.051513671875,4551.41064453125,-7993.38037109375,-6506.44287109375,-4280.408203125,4571.27880859375,-305.97052001953125,-4634.0625,-1480.579345703125,445.0480041503906,2421.5380859375,14067.490234375,1215.934814453125,9396.076171875,-1015.6631469726562,13287.0673828125,-4902.6806640625,-6075.7001953125,-4371.00732421875,-2423.92236328125,-5863.5078125,-511.80523681640625,4523.59521484375,4284.3818359375,1433.6904296875,3123.283447265625,-2279.28173828125,4157.22509765625,-2833.207275390625,16693.2734375,-2733.071533203125,-0.0,-3559.58935546875,5822.9765625,-4319.349609375,-2137.025146484375,576.9729614257812,6337.9609375,-6241.79833984375,1070.4993896484375,-6948.3125,-3113.74658203125,-1789.728759765625,7466.47509765625,-4130.9990234375,-9144.146484375,-5602.83642578125,-1505.2159423828125,336.1701965332031,-5859.53369140625,-1379.6488037109375,-551.5416259765625,-7215.34130859375,716.84521484375,-600.8148193359375,1433.6904296875,-7112.8212890625,-774.065673828125,0.0,-2524.852783203125,0.0,-2585.251953125,-0.0,-425.1798095703125
-7220.90380859375,-8811.15625,-6004.96923828125,-134.3091278076172,941.75341796875,16427.8359375,-4173.91455078125,148.61424255371094,-2130.66748046875,4557.7685546875,-7977.48583984375,-6494.52197265625,-4275.64013671875,4568.89501953125,-305.97052001953125,-4638.0361328125,-1474.2215576171875,449.8163757324219,2426.306396484375,14071.46484375,1217.524169921875,9400.8447265625,-1014.868408203125,13291.041015625,-4914.6015625,-6070.93212890625,-4373.3916015625,-2418.359130859375,-5862.712890625,-507.8315734863281,4526.77392578125,4297.89208984375,1437.6640625,3130.43603515625,-2276.8974609375,4163.58349609375,-2832.41259765625,16697.248046875,-2724.32958984375,-0.0,-3565.15234375,5834.1025390625,-4320.14453125,-2131.462158203125,575.3834838867188,6343.5234375,-6231.466796875,1080.0361328125,-6953.875,-3110.56787109375,-1792.90771484375,7468.859375,-4102.388671875,-9132.2255859375,-5601.2470703125,-1482.963623046875,346.5016784667969,-5845.228515625,-1393.1593017578125,-537.2365112304688,-7193.88330078125,719.2293701171875,-596.8411865234375,1436.0745849609375,-7115.205078125,-766.9130859375,0.0,-2512.931884765625,0.0,-2576.51025390625,-0.0,-423.59033203125
-7222.49365234375,-8793.671875,-5997.81640625,-122.38819885253906,951.2901611328125,16438.9609375,-4165.96728515625,162.9193572998047,-2124.3095703125,4559.35791015625,-7967.154296875,-6483.39599609375,-4274.05029296875,4578.431640625,-301.9968566894531,-4625.3203125,-1466.2742919921875,457.763671875,2434.253662109375,14079.4111328125,1224.6767578125,9408.7919921875,-1006.921142578125,13300.578125,-4905.06494140625,-6066.16357421875,-4367.828125,-2402.464599609375,-5852.38134765625,-497.5001220703125,4534.72119140625,4302.66064453125,1444.816650390625,3139.177978515625,-2268.9501953125,4175.50439453125,-2826.054931640625,16709.169921875,-2710.024658203125,-0.0,-3557.205078125,5840.46044921875,-4312.9921875,-2117.156982421875,584.12548828125,6354.64990234375,-6211.5986328125,1091.95703125,-6944.33837890625,-3093.083740234375,-1788.93408203125,7483.958984375,-4075.368408203125,-9126.6630859375,-5589.326171875,-1466.2742919921875,352.8594970703125,-5838.87109375,-1393.1593017578125,-528.4945068359375,-7176.3994140625,729.5608520507812,-589.6885986328125,1447.2008056640625,-7108.052734375,-761.3499755859375,0.0,-2506.573974609375,0.0,-2567.76806640625,-0.0,-414.84832763671875
-7249.51416015625,-8826.255859375,-5997.81640625,-131.13021850585938,948.1112060546875,16442.140625,-4163.58349609375,164.50881958007812,-2125.104248046875,4557.7685546875,-7984.63818359375,-6491.34326171875,-4264.513671875,4576.841796875,-294.0495910644531,-4610.22021484375,-1470.2479248046875,454.5847473144531,2435.04833984375,14078.6171875,1221.4979248046875,9407.9970703125,-1008.5106201171875,13302.1669921875,-4907.44921875,-6072.52099609375,-4363.06005859375,-2405.6435546875,-5853.17626953125,-495.91064453125,4531.54248046875,4295.5078125,1443.2271728515625,3135.9990234375,-2270.53955078125,4175.50439453125,-2823.670654296875,16708.375,-2706.845458984375,-0.0,-3556.41064453125,5843.63916015625,-4311.40283203125,-2114.772705078125,585.7149658203125,6353.06005859375,-6219.5458984375,1082.42041015625,-6944.33837890625,-3086.725830078125,-1779.3973388671875,7488.7275390625,-4089.673583984375,-9128.2529296875,-5590.12060546875,-1467.8636474609375,355.2436828613281,-5832.51318359375,-1388.390869140625,-538.03125,-7180.37255859375,727.9713745117188,-591.278076171875,1447.2008056640625,-7117.58935546875,-766.1183471679688,0.0,-2518.494873046875,0.0,-2570.947021484375,-0.0,-414.84832763671875
-7301.96630859375,-8809.56640625,-6008.94287109375,-129.54075622558594,940.1639404296875,16445.318359375,-4168.3515625,158.9457244873047,-2125.899169921875,4558.5634765625,-7989.40673828125,-6506.44287109375,-4274.05029296875,4579.22607421875,-302.7915954589844,-4610.22021484375,-1474.2215576171875,450.6111145019531,2430.280029296875,14077.02734375,1214.3453369140625,9406.4072265625,-1011.6895141601562,13298.98828125,-4932.88037109375,-6046.294921875,-4369.41748046875,-2408.027587890625,-5855.560546875,-496.7053527832031,4525.9794921875,4293.91845703125,1434.485107421875,3135.9990234375,-2277.692138671875,4173.1201171875,-2828.43896484375,16704.400390625,-2717.17724609375,-0.0,-3568.33154296875,5846.818359375,-4316.9658203125,-2116.3623046875,580.9465942382812,6348.2919921875,-6222.72509765625,1084.8045654296875,-6949.9013671875,-3085.136474609375,-1788.139404296875,7482.3701171875,-4115.8994140625,-9122.689453125,-5590.12060546875,-1494.0897216796875,340.1438293457031,-5840.46044921875,-1387.59619140625,-550.7469482421875,-7183.5517578125,723.2030029296875,-595.251708984375,1447.2008056640625,-7120.76806640625,-768.5025634765625,0.0,-2524.852783203125,0.0,-2581.278564453125,-0.0,-427.5639953613281
-7327.39794921875,-8793.671875,-6004.1748046875,-115.23564910888672,939.3692016601562,16439.755859375,-4169.14599609375,152.587890625,-2121.130615234375,4566.5107421875,-7983.84375,-6504.05859375,-4283.5869140625,4586.37841796875,-298.8179626464844,-4630.0888671875,-1475.81103515625,446.6374816894531,2430.280029296875,14083.3857421875,1211.961181640625,9404.818359375,-1013.2789306640625,13293.42578125,-4929.701171875,-6031.1953125,-4368.623046875,-2418.359130859375,-5858.7392578125,-500.67901611328125,4525.1845703125,4292.3291015625,1433.6904296875,3135.204345703125,-2278.487060546875,4167.556640625,-2828.43896484375,16702.017578125,-2724.32958984375,-0.0,-3567.53662109375,5846.0234375,-4318.55517578125,-2124.3095703125,582.5360717773438,6347.49755859375,-6210.00927734375,1099.109619140625,-6950.6962890625,-3103.415283203125,-1785.755126953125,7471.2431640625,-4142.12548828125,-9128.2529296875,-5594.88916015625,-1521.9052734375,336.9649353027344,-5853.17626953125,-1382.8277587890625,-546.7732543945312,-7195.47265625,722.4083251953125,-593.6622314453125,1453.55859375,-7115.205078125,-767.7078247070312,0.0,-2518.494873046875,0.0,-2586.046875,-0.0,-426.7692565917969
-7336.1396484375,-8815.12890625,-5995.4326171875,-130.3354949951172,938.574462890625,16428.62890625,-4171.5302734375,150.99842834472656,-2114.772705078125,4574.45751953125,-8015.6328125,-6495.31689453125,-4282.79248046875,4597.5048828125,-299.6126708984375,-4643.59912109375,-1488.5267333984375,439.48492431640625,2427.10107421875,14092.921875,1208.7822265625,9394.486328125,-1018.04736328125,13288.6572265625,-4921.75439453125,-6081.26318359375,-4371.00732421875,-2423.92236328125,-5868.27587890625,-510.21575927734375,4517.2373046875,4277.2294921875,1427.33251953125,3121.69384765625,-2283.25537109375,4159.609375,-2830.8232421875,16699.6328125,-2734.6611328125,-0.0,-3564.357666015625,5826.1552734375,-4320.14453125,-2129.077880859375,582.5360717773438,6351.470703125,-6188.55126953125,1084.009765625,-6952.28564453125,-3116.925537109375,-1788.139404296875,7467.27001953125,-4157.22509765625,-9144.9423828125,-5607.60498046875,-1486.1424560546875,338.55438232421875,-5857.1494140625,-1374.8804931640625,-537.2365112304688,-7218.51953125,715.2557373046875,-591.278076171875,1463.89013671875,-7123.947265625,-775.6550903320312,0.0,-2517.7001953125,0.0,-2574.1259765625,-0.0,-413.2588806152344
-7295.6083984375,-8819.103515625,-5990.6640625,-147.02479553222656,941.75341796875,16427.041015625,-4170.73583984375,159.74044799804688,-2112.388671875,4580.02099609375,-8068.87890625,-6499.29052734375,-4298.68701171875,4599.88916015625,-301.9968566894531,-4631.67822265625,-1499.65283203125,435.5112609863281,2423.12744140625,14096.896484375,1207.9874267578125,9389.7177734375,-1022.0209350585938,13288.6572265625,-4904.27001953125,-6102.720703125,-4371.00732421875,-2416.769775390625,-5872.24951171875,-511.80523681640625,4511.67431640625,4263.71923828125,1421.76953125,3111.362548828125,-2286.43408203125,4156.4306640625,-2833.207275390625,16701.220703125,-2775.1923828125,-0.0,-3557.999755859375,5811.0556640625,-4320.939453125,-2125.899169921875,583.330810546875,6357.0341796875,-6220.3408203125,1068.115234375,-6946.72265625,-3107.388671875,-1790.5235595703125,7479.19091796875,-4153.25146484375,-9153.68359375,-5610.7841796875,-1463.89013671875,335.3754577636719,-5866.6865234375,-1376.469970703125,-536.4417724609375,-7227.26220703125,713.666259765625,-590.4833374023438,1470.2479248046875,-7127.92041015625,-778.8340454101562,0.0,-2517.7001953125,0.0,-2574.1259765625,-0.0,-405.31158447265625
-7274.94580078125,-8813.5400390625,-6006.55908203125,-153.3826141357422,933.8060913085938,16424.65625,-4174.70947265625,159.74044799804688,-2113.183349609375,4581.6103515625,-8034.7060546875,-6500.8798828125,-4295.5078125,4607.0419921875,-309.1494140625,-4632.47314453125,-1499.65283203125,433.92181396484375,2423.12744140625,14096.1005859375,1200.8348388671875,9387.333984375,-1025.199951171875,13287.8623046875,-4917.7802734375,-6101.13134765625,-4374.18603515625,-2420.7431640625,-5868.27587890625,-506.2420959472656,4510.87939453125,4262.92431640625,1417.0010986328125,3108.978271484375,-2290.407958984375,4155.6357421875,-2836.386474609375,16701.220703125,-2780.75537109375,-0.0,-3569.9208984375,5808.67138671875,-4324.9130859375,-2128.283203125,580.9465942382812,6360.212890625,-6272.79296875,1059.373291015625,-6949.10693359375,-3110.56787109375,-1796.086669921875,7476.806640625,-4133.38330078125,-9148.9150390625,-5606.81005859375,-1465.4794921875,332.1965637207031,-5868.27587890625,-1386.8013916015625,-526.1103515625,-7239.18310546875,711.2821044921875,-588.8939208984375,1476.605712890625,-7129.51025390625,-782.012939453125,0.0,-2503.39501953125,0.0,-2562.205078125,-0.0,-399.74847412109375
-7284.482421875,-8831.818359375,-6031.990234375,-168.4824676513672,927.4482421875,16423.06640625,-4176.298828125,162.1246337890625,-2110.799072265625,4588.7626953125,-7973.51171875,-6500.08544921875,-4305.04443359375,4606.2470703125,-313.1230773925781,-4629.2939453125,-1500.4476318359375,433.92181396484375,2427.10107421875,14102.458984375,1194.47705078125,9385.7451171875,-1029.1734619140625,13287.0673828125,-4930.49609375,-6102.720703125,-4380.5439453125,-2416.769775390625,-5868.27587890625,-495.91064453125,4507.70068359375,4264.513671875,1412.2327880859375,3105.79931640625,-2295.970947265625,4155.6357421875,-2840.35986328125,16703.60546875,-2751.350341796875,-0.0,-3582.636474609375,5803.9033203125,-4328.88671875,-2125.104248046875,583.330810546875,6366.57080078125,-6275.9716796875,1044.2734375,-6956.25927734375,-3104.2099609375,-1800.85498046875,7479.19091796875,-4115.1044921875,-9139.37890625,-5608.39990234375,-1465.4794921875,325.8387145996094,-5876.22314453125,-1386.0067138671875,-515.7788696289062,-7235.208984375,709.692626953125,-585.7149658203125,1478.989990234375,-7128.71533203125,-782.012939453125,0.0,-2501.8056640625,0.0,-2556.641845703125,-0.0,-394.1853942871094
-7257.46142578125,-8827.0498046875,-6047.88427734375,-163.71409606933594,918.7062377929688,16420.68359375,-4178.6826171875,167.68772888183594,-2110.00439453125,4597.5048828125,-7952.05419921875,-6500.8798828125,-4309.0185546875,4603.86279296875,-317.0967102050781,-4618.962890625,-1505.2159423828125,429.94818115234375,2426.306396484375,14109.611328125,1188.9139404296875,9380.181640625,-1031.5577392578125,13286.2734375,-4938.44384765625,-6110.66796875,-4385.3125,-2412.00146484375,-5876.22314453125,-491.14227294921875,4502.93212890625,4261.3349609375,1403.49072265625,3101.031005859375,-2300.7392578125,4152.45654296875,-2841.15478515625,16704.400390625,-2759.297607421875,-0.0,-3596.941650390625,5797.544921875,-4333.65478515625,-2125.899169921875,582.5360717773438,6371.33935546875,-6282.32958984375,1052.220703125,-6968.18017578125,-3107.388671875,-1802.4444580078125,7484.75390625,-4124.6416015625,-9125.0732421875,-5617.9365234375,-1472.632080078125,328.222900390625,-5867.4814453125,-1385.2119140625,-507.8315734863281,-7229.64599609375,706.5137329101562,-584.12548828125,1473.4267578125,-7129.51025390625,-775.6550903320312,0.0,-2503.39501953125,0.0,-2559.82080078125,-0.0,-393.3906555175781
-7233.61962890625,-8828.6396484375,-6050.2685546875,-156.56153869628906,918.7062377929688,16427.041015625,-4175.50439453125,176.42974853515625,-2102.851806640625,4611.01513671875,-7948.0810546875,-6498.49560546875,-4312.9921875,4607.83642578125,-307.5599670410156,-4612.6044921875,-1505.2159423828125,432.3323669433594,2431.86962890625,14119.9423828125,1188.1192626953125,9384.1552734375,-1027.5841064453125,13291.041015625,-4951.9541015625,-6102.720703125,-4382.13330078125,-2403.25927734375,-5873.8388671875,-489.55279541015625,4503.72705078125,4261.3349609375,1403.49072265625,3104.2099609375,-2296.765625,4155.6357421875,-2836.386474609375,16713.142578125,-2769.629150390625,-0.0,-3600.12060546875,5805.4921875,-4329.681640625,-2119.541259765625,586.5097045898438,6380.8759765625,-6275.1767578125,1061.7574462890625,-6964.20654296875,-3105.004638671875,-1795.2918701171875,7492.701171875,-4111.13134765625,-9116.33203125,-5613.16845703125,-1474.2215576171875,329.8123779296875,-5860.32861328125,-1382.8277587890625,-507.036865234375,-7232.0302734375,710.4873657226562,-577.7677001953125,1477.400390625,-7118.3837890625,-762.939453125,0.0,-2502.600341796875,0.0,-2555.84716796875,-0.0,-387.8275451660156
-7255.8720703125,-8834.998046875,-6053.44775390625,-160.53517150878906,917.1168212890625,16427.041015625,-4176.298828125,178.81393432617188,-2106.82568359375,4613.3994140625,-7966.359375,-6504.853515625,-4300.2763671875,4592.73681640625,-301.9968566894531,-4616.57861328125,-1510.779052734375,430.7428894042969,2431.074951171875,14120.73828125,1184.9403076171875,9383.361328125,-1029.1734619140625,13292.6298828125,-4959.9013671875,-6099.5419921875,-4382.92822265625,-2396.9013671875,-5869.0703125,-492.73175048828125,4500.5478515625,4254.9765625,1397.1328125,3099.44140625,-2300.7392578125,4154.04638671875,-2837.975830078125,16713.142578125,-2781.550048828125,-0.0,-3600.915283203125,5805.4921875,-4331.2705078125,-2117.95166015625,583.330810546875,6383.26025390625,-6275.9716796875,1053.81005859375,-6962.6171875,-3108.978271484375,-1788.93408203125,7497.46923828125,-4117.48876953125,-9124.279296875,-5606.81005859375,-1479.78466796875,336.9649353027344,-5887.349609375,-1385.2119140625,-517.3682861328125,-7237.59326171875,708.1031494140625,-576.9729614257812,1463.0953369140625,-7127.1259765625,-765.3236083984375,0.0,-2507.368896484375,0.0,-2561.41015625,-0.0,-398.1590270996094
-7274.15087890625,-8850.8916015625,-6057.42138671875,-182.78758239746094,909.9642333984375,16426.244140625,-4184.24609375,174.8402862548828,-2110.799072265625,4611.01513671875,-7994.96923828125,-6522.33740234375,-4304.25,4587.96826171875,-313.1230773925781,-4616.57861328125,-1518.726318359375,423.59033203125,2424.717041015625,14117.55859375,1177.787841796875,9378.5927734375,-1036.3260498046875,13285.4775390625,-4964.669921875,-6086.03125,-4390.87548828125,-2404.848876953125,-5877.01806640625,-517.3682861328125,4494.1904296875,4245.43994140625,1391.5697021484375,3095.4677734375,-2307.09716796875,4149.2783203125,-2844.333740234375,16707.578125,-2784.72900390625,-0.0,-3605.68359375,5810.2607421875,-4339.21826171875,-2122.719970703125,575.3834838867188,6380.0810546875,-6280.740234375,1026.789306640625,-6971.359375,-3113.74658203125,-1800.060302734375,7491.11181640625,-4161.19921875,-9152.0947265625,-5615.55224609375,-1495.67919921875,327.4281921386719,-5891.3232421875,-1393.1593017578125,-507.8315734863281,-7241.56689453125,702.5401000976562,-584.12548828125,1452.763916015625,-7135.0732421875,-779.6287841796875,0.0,-2505.779296875,0.0,-2560.615478515625,-0.0,-410.87469482421875
-7300.376953125,-8919.2392578125,-6055.037109375,-176.42974853515625,902.8117065429688,16411.146484375,-4190.603515625,154.17735290527344,-2117.156982421875,4587.96826171875,-8013.24853515625,-6526.3115234375,-4310.60791015625,4591.14697265625,-317.0967102050781,-4635.65185546875,-1526.6737060546875,413.2588806152344,2415.18017578125,14101.6640625,1171.429931640625,9369.0556640625,-1045.068115234375,13271.9677734375,-4967.0537109375,-6088.41552734375,-4398.02783203125,-2436.637939453125,-5892.91259765625,-542.7996215820312,4485.4482421875,4237.4931640625,1386.0067138671875,3089.110107421875,-2316.634033203125,4137.357421875,-2852.28076171875,16692.48046875,-2795.855224609375,-0.0,-3608.06787109375,5801.51904296875,-4347.16552734375,-2143.383056640625,567.4362182617188,6362.59716796875,-6275.9716796875,1035.5313720703125,-6979.306640625,-3143.151611328125,-1803.2392578125,7466.47509765625,-4212.8564453125,-9177.525390625,-5631.44677734375,-1514.752685546875,323.45452880859375,-5884.96533203125,-1392.364501953125,-522.13671875,-7257.46142578125,693.798095703125,-596.0464477539062,1448.7901611328125,-7148.583984375,-793.13916015625,0.0,-2525.6474609375,0.0,-2572.536376953125,-0.0,-425.1798095703125
-7340.11328125,-8978.048828125,-6047.88427734375,-151.7931671142578,900.427490234375,16400.01953125,-4195.3720703125,148.61424255371094,-2125.104248046875,4567.30517578125,-8025.9638671875,-6532.6689453125,-4315.37646484375,4582.4052734375,-311.5335998535156,-4639.62548828125,-1532.2366943359375,407.6957702636719,2409.6171875,14086.564453125,1166.66162109375,9361.9033203125,-1049.041748046875,13265.609375,-4968.64306640625,-6094.77392578125,-4398.82275390625,-2439.02197265625,-5898.4755859375,-565.052001953125,4479.09033203125,4228.75048828125,1382.032958984375,3082.752197265625,-2322.197021484375,4128.61474609375,-2856.254638671875,16685.328125,-2814.1337890625,-0.0,-3609.6572265625,5786.4189453125,-4351.13916015625,-2151.330322265625,563.4625854492188,6355.4443359375,-6256.8984375,1063.346923828125,-6984.0751953125,-3163.814453125,-1800.060302734375,7461.70654296875,-4204.1142578125,-9198.1884765625,-5638.599609375,-1535.4156494140625,327.4281921386719,-5894.501953125,-1392.364501953125,-537.2365112304688,-7282.09814453125,686.6455078125,-602.404296875,1432.1009521484375,-7161.29931640625,-804.2653198242188,0.0,-2545.515869140625,0.0,-2597.173095703125,-0.0,-446.6374816894531
-7345.67626953125,-8913.67578125,-6051.0634765625,-167.68772888183594,898.0433349609375,16397.634765625,-4196.9619140625,150.20370483398438,-2128.283203125,4560.15234375,-8045.037109375,-6537.4375,-4312.197265625,4573.6630859375,-305.97052001953125,-4630.0888671875,-1535.4156494140625,402.9273986816406,2407.23291015625,14081.0009765625,1163.482666015625,9354.7509765625,-1053.015380859375,13264.01953125,-4963.875,-6106.69482421875,-4397.2333984375,-2432.6640625,-5900.06494140625,-567.4362182617188,4472.732421875,4227.9560546875,1378.059326171875,3076.394287109375,-2322.99169921875,4126.23095703125,-2858.638671875,16686.916015625,-2816.51806640625,-0.0,-3612.836181640625,5777.67724609375,-4353.5234375,-2148.946044921875,562.6678466796875,6355.4443359375,-6271.20361328125,1047.4522705078125,-6986.45947265625,-3143.151611328125,-1795.2918701171875,7466.47509765625,-4170.73583984375,-9213.2880859375,-5639.39404296875,-1525.87890625,333.7860107421875,-5908.01220703125,-1390.7750244140625,-535.6470947265625,-7266.998046875,682.671875,-604.7884521484375,1431.3062744140625,-7162.09423828125,-813.8020629882812,0.0,-2539.157958984375,0.0,-2593.994140625,-0.0,-448.2269287109375
-7356.80224609375,-8856.4560546875,-6070.93212890625,-198.68214416503906,882.1487426757812,16380.9453125,-4213.6513671875,124.77238464355469,-2141.79345703125,4539.48974609375,-8066.4951171875,-6546.17919921875,-4313.787109375,4575.25244140625,-326.6334533691406,-4654.7255859375,-1551.3101806640625,385.443359375,2389.748779296875,14063.517578125,1149.177490234375,9338.85546875,-1070.4993896484375,13245.7421875,-4977.38525390625,-6128.94677734375,-4412.3330078125,-2451.737548828125,-5907.21728515625,-550.7469482421875,4457.63232421875,4217.62451171875,1362.164794921875,3058.910400390625,-2341.2705078125,4107.9521484375,-2874.533447265625,16667.84375,-2808.57080078125,-0.0,-3628.730712890625,5762.5771484375,-4369.41748046875,-2167.224853515625,545.978515625,6327.62890625,-6300.6083984375,1014.07373046875,-7001.55859375,-3144.740966796875,-1812.7760009765625,7441.0439453125,-4154.04638671875,-9214.8779296875,-5644.95703125,-1531.4420166015625,322.6598205566406,-5912.78076171875,-1405.8748779296875,-584.12548828125,-7274.15087890625,665.1878662109375,-623.8619384765625,1433.6904296875,-7166.8623046875,-818.5704345703125,0.0,-2550.2841796875,0.0,-2605.9150390625,-0.0,-450.6111145019531
-7360.7763671875,-8844.53515625,-6065.36865234375,-202.65579223632812,882.9434814453125,16375.3837890625,-4219.2138671875,124.77238464355469,-2148.946044921875,4526.77392578125,-8052.18994140625,-6542.2060546875,-4313.787109375,4581.6103515625,-346.5016784667969,-4655.52001953125,-1553.6943359375,383.8539123535156,2385.775390625,14055.5693359375,1145.9986572265625,9334.8818359375,-1072.883544921875,13242.5625,-4978.974609375,-6152.78857421875,-4415.51220703125,-2449.353515625,-5900.85986328125,-540.4154663085938,4455.24853515625,4212.8564453125,1363.7542724609375,3053.347412109375,-2345.244140625,4102.388671875,-2879.3017578125,16663.869140625,-2800.62353515625,-0.0,-3626.3466796875,5749.06689453125,-4371.00732421875,-2169.609130859375,538.03125,6324.4501953125,-6287.09814453125,1012.4841918945312,-6998.38037109375,-3157.45654296875,-1832.6441650390625,7446.60693359375,-4169.94091796875,-9193.419921875,-5638.599609375,-1532.2366943359375,316.3019714355469,-5908.80712890625,-1420.179931640625,-591.278076171875,-7287.6611328125,662.0089111328125,-628.6303100585938,1432.1009521484375,-7167.6572265625,-813.00732421875,0.0,-2550.2841796875,0.0,-2617.041259765625,-0.0,-464.9162292480469
-7339.31884765625,-8845.3291015625,-6075.7001953125,-203.4505157470703,880.5592651367188,16369.0244140625,-4225.572265625,112.05673217773438,-2164.046142578125,4510.08447265625,-8033.91162109375,-6542.2060546875,-4324.1181640625,4561.7421875,-345.7069396972656,-4673.798828125,-1557.6680908203125,377.49609375,2379.41748046875,14034.9072265625,1142.0250244140625,9329.3193359375,-1076.857177734375,13234.615234375,-4982.1533203125,-6157.55712890625,-4417.896484375,-2463.65869140625,-5900.06494140625,-537.2365112304688,4449.685546875,4210.47216796875,1360.5753173828125,3048.578857421875,-2346.038818359375,4096.03125,-2885.659423828125,16655.126953125,-2789.497314453125,-0.0,-3630.3203125,5743.50341796875,-4374.18603515625,-2179.145751953125,530.083984375,6310.14501953125,-6288.68701171875,1014.868408203125,-6998.38037109375,-3156.662109375,-1834.233642578125,7425.1494140625,-4180.2724609375,-9175.9365234375,-5639.39404296875,-1525.87890625,310.7388916015625,-5912.78076171875,-1425.7431640625,-579.357177734375,-7285.27685546875,655.651123046875,-640.55126953125,1420.9747314453125,-7169.24658203125,-821.7493896484375,0.0,-2551.078857421875,0.0,-2624.19384765625,-0.0,-467.3004150390625
-7334.55029296875,-8844.53515625,-6084.4423828125,-209.808349609375,873.40673828125,16362.6669921875,-4235.9033203125,96.9568862915039,-2184.708740234375,4498.95849609375,-8039.474609375,-6546.97412109375,-4328.09228515625,4519.62158203125,-354.4489440917969,-4687.30908203125,-1563.2310791015625,370.3435363769531,2370.67529296875,14019.0126953125,1137.256591796875,9322.166015625,-1086.3939208984375,13224.2841796875,-4986.12744140625,-6151.19921875,-4429.8173828125,-2477.1689453125,-5901.65478515625,-546.7732543945312,4442.533203125,4209.67724609375,1353.4227294921875,3042.22119140625,-2353.986083984375,4088.878662109375,-2895.990966796875,16644.001953125,-2794.265625,-0.0,-3635.88330078125,5742.70849609375,-4383.72265625,-2189.477294921875,518.1630249023438,6296.634765625,-6310.14501953125,1007.7158203125,-7003.94287109375,-3163.019775390625,-1842.9755859375,7406.87060546875,-4189.0146484375,-9172.7568359375,-5641.7783203125,-1544.952392578125,308.3547058105469,-5923.1123046875,-1438.458740234375,-580.15185546875,-7278.91943359375,650.0880126953125,-650.8826904296875,1398.7222900390625,-7172.42578125,-828.9019165039062,0.0,-2551.078857421875,0.0,-2618.630615234375,-0.0,-472.863525390625
-7349.64990234375,-8834.203125,-6073.31591796875,-201.0663299560547,878.9698486328125,16370.615234375,-4229.54541015625,108.08309173583984,-2173.582763671875,4515.64794921875,-8048.216796875,-6539.02685546875,-4316.9658203125,4539.48974609375,-353.65423583984375,-4680.15673828125,-1554.4891357421875,378.2908020019531,2378.622802734375,14031.7275390625,1145.9986572265625,9330.11328125,-1080.0361328125,13233.025390625,-4963.080078125,-6142.45751953125,-4425.84375,-2464.453369140625,-5899.2705078125,-538.8259887695312,4450.47998046875,4218.41943359375,1362.164794921875,3050.963134765625,-2346.83349609375,4099.21044921875,-2890.427734375,16652.7421875,-2798.239501953125,-0.0,-3625.552001953125,5753.04052734375,-4378.16015625,-2179.9404296875,525.3156127929688,6310.93994140625,-6299.01904296875,1015.6631469726562,-7004.73779296875,-3158.25146484375,-1843.7703857421875,7419.5859375,-4192.193359375,-9160.8359375,-5641.7783203125,-1529.057861328125,308.3547058105469,-5914.3701171875,-1430.511474609375,-569.8204345703125,-7263.8193359375,657.2405395507812,-638.1670532226562,1407.46435546875,-7177.98876953125,-816.9810180664062,0.0,-2541.5419921875,0.0,-2608.29931640625,-0.0,-460.9425964355469
-7354.41845703125,-8854.8662109375,-6055.83203125,-193.9137725830078,891.6854858398438,16380.9453125,-4216.03515625,123.18293762207031,-2156.0986328125,4538.69482421875,-8067.29052734375,-6529.490234375,-4298.68701171875,4569.689453125,-341.7333068847656,-4656.31494140625,-1546.5418701171875,387.8275451660156,2391.33837890625,14052.390625,1157.1248779296875,9342.830078125,-1067.3204345703125,13245.7421875,-4943.2119140625,-6129.74169921875,-4414.71728515625,-2447.76416015625,-5888.14404296875,-531.6734619140625,4463.19580078125,4220.8037109375,1373.291015625,3062.089111328125,-2334.91259765625,4110.33642578125,-2877.712158203125,16666.25390625,-2808.57080078125,-0.0,-3609.6572265625,5765.75634765625,-4364.6494140625,-2166.43017578125,538.8259887695312,6329.21826171875,-6264.05078125,1024.4051513671875,-6995.99609375,-3159.046142578125,-1828.6705322265625,7437.0703125,-4204.1142578125,-9152.0947265625,-5626.6787109375,-1509.1895751953125,318.6861572265625,-5896.09130859375,-1417.0010986328125,-554.7205810546875,-7263.02490234375,668.3667602539062,-623.0671997070312,1436.0745849609375,-7166.8623046875,-805.8547973632812,0.0,-2532.800048828125,0.0,-2594.788818359375,-0.0,-441.0743713378906
-7327.39794921875,-8890.62890625,-6055.037109375,-194.70851135253906,896.453857421875,16388.892578125,-4209.67724609375,130.3354949951172,-2153.71435546875,4545.84765625,-8056.16357421875,-6523.92724609375,-4308.2236328125,4562.53662109375,-332.1965637207031,-4651.54638671875,-1540.18408203125,392.5959167480469,2396.9013671875,14059.5439453125,1161.8931884765625,9347.59765625,-1060.962646484375,13250.509765625,-4957.51708984375,-6128.94677734375,-4408.359375,-2442.995849609375,-5876.22314453125,-526.1103515625,4469.5537109375,4227.16162109375,1377.2646484375,3068.447021484375,-2330.144287109375,4113.51513671875,-2871.354248046875,16671.81640625,-2793.47119140625,-0.0,-3608.862548828125,5770.5244140625,-4359.08642578125,-2160.866943359375,543.5943603515625,6333.98681640625,-6268.8193359375,1022.815673828125,-6987.25390625,-3138.383056640625,-1818.3389892578125,7441.8388671875,-4192.98779296875,-9148.9150390625,-5612.37353515625,-1508.3948974609375,321.0703430175781,-5898.4755859375,-1413.8221435546875,-549.157470703125,-7259.05078125,673.9298706054688,-617.504150390625,1436.8692626953125,-7144.60986328125,-798.7022705078125,0.0,-2527.23681640625,0.0,-2592.404541015625,-0.0,-437.1007385253906
-7298.78759765625,-8877.9130859375,-6049.47412109375,-181.1981201171875,904.401123046875,16400.814453125,-4197.75634765625,141.46168518066406,-2141.79345703125,4559.35791015625,-7998.943359375,-6513.595703125,-4289.9453125,4572.0732421875,-314.7125244140625,-4640.42041015625,-1526.6737060546875,404.516845703125,2409.6171875,14074.6435546875,1171.429931640625,9357.134765625,-1049.8365478515625,13264.8154296875,-4959.1064453125,-6115.4365234375,-4393.259765625,-2430.280029296875,-5879.40234375,-515.7788696289062,4481.474609375,4242.26123046875,1387.59619140625,3081.95751953125,-2320.607421875,4126.23095703125,-2858.638671875,16682.943359375,-2791.881591796875,-0.0,-3603.29931640625,5782.4453125,-4348.7548828125,-2148.1513671875,557.8994750976562,6345.90771484375,-6283.9189453125,1035.5313720703125,-6979.306640625,-3126.462158203125,-1801.649658203125,7453.759765625,-4160.404296875,-9149.7109375,-5616.3466796875,-1501.2423095703125,338.55438232421875,-5889.73388671875,-1407.46435546875,-538.03125,-7252.693359375,685.8507690429688,-603.9937133789062,1451.9691162109375,-7141.43115234375,-786.7813110351562,0.0,-2520.08447265625,0.0,-2579.68896484375,-0.0,-425.1798095703125
-7274.94580078125,-8827.0498046875,-6039.142578125,-158.15098571777344,919.5009765625,16419.88671875,-4181.06689453125,159.74044799804688,-2117.95166015625,4581.6103515625,-7975.1015625,-6497.701171875,-4294.71337890625,4610.22021484375,-312.3283386230469,-4623.73095703125,-1510.779052734375,422.0008850097656,2427.895751953125,14100.869140625,1186.52978515625,9374.6181640625,-1033.94189453125,13282.298828125,-4945.59619140625,-6092.3896484375,-4380.5439453125,-2414.385498046875,-5874.6337890625,-503.0632019042969,4497.369140625,4254.9765625,1401.9012451171875,3097.057373046875,-2304.712890625,4144.509765625,-2842.744140625,16702.017578125,-2772.013427734375,-0.0,-3591.37841796875,5799.92919921875,-4332.0654296875,-2131.462158203125,574.5887451171875,6364.1865234375,-6264.84521484375,1056.989013671875,-6963.41162109375,-3113.74658203125,-1796.086669921875,7472.8330078125,-4120.66796875,-9135.4052734375,-5612.37353515625,-1489.3214111328125,345.7069396972656,-5870.66015625,-1397.1328125,-522.931396484375,-7240.7724609375,701.745361328125,-586.5097045898438,1482.1688232421875,-7145.40478515625,-769.2973022460938,0.0,-2503.39501953125,0.0,-2562.205078125,-0.0,-401.33795166015625
-7269.38232421875,-8792.876953125,-6031.990234375,-149.4089813232422,926.653564453125,16431.013671875,-4171.5302734375,169.27719116210938,-2104.44140625,4592.73681640625,-7981.45947265625,-6486.57470703125,-4281.99755859375,4622.93603515625,-305.97052001953125,-4612.6044921875,-1500.4476318359375,434.716552734375,2439.02197265625,14111.201171875,1196.0665283203125,9387.333984375,-1023.6104736328125,13295.0146484375,-4935.2646484375,-6078.08447265625,-4378.95458984375,-2402.464599609375,-5867.4814453125,-492.73175048828125,4510.08447265625,4267.6923828125,1413.0274658203125,3107.388671875,-2293.586669921875,4156.4306640625,-2830.8232421875,16712.34765625,-2745.787353515625,-0.0,-3583.43115234375,5811.85009765625,-4324.9130859375,-2119.541259765625,583.330810546875,6376.10791015625,-6251.3349609375,1064.936279296875,-6956.25927734375,-3108.18359375,-1791.3182373046875,7484.75390625,-4123.05224609375,-9117.9208984375,-5604.42578125,-1486.1424560546875,347.29638671875,-5853.17626953125,-1382.8277587890625,-522.931396484375,-7223.2880859375,712.87158203125,-574.5887451171875,1494.884521484375,-7127.1259765625,-756.5816040039062,0.0,-2497.037109375,0.0,-2551.078857421875,-0.0,-387.0328369140625
-7266.998046875,-8794.466796875,-6003.3798828125,-127.15657043457031,948.1112060546875,16461.21484375,-4152.45654296875,196.29795837402344,-2092.5205078125,4609.42578125,-7963.1806640625,-6469.0908203125,-4281.20263671875,4634.857421875,-287.6917419433594,-4573.6630859375,-1480.579345703125,457.763671875,2458.89013671875,14129.4794921875,1217.524169921875,9411.970703125,-998.973876953125,13318.0615234375,-4913.80712890625,-6043.9111328125,-4359.08642578125,-2365.1123046875,-5857.9443359375,-476.04241943359375,4531.54248046875,4283.5869140625,1433.6904296875,3130.43603515625,-2270.53955078125,4180.2724609375,-2810.955078125,16736.189453125,-2752.93994140625,-0.0,-3559.58935546875,5841.25537109375,-4302.66064453125,-2090.930908203125,601.6095581054688,6399.15478515625,-6223.52001953125,1085.5992431640625,-6934.8017578125,-3074.804931640625,-1774.6290283203125,7516.54296875,-4114.3095703125,-9109.9736328125,-5594.88916015625,-1458.326904296875,352.06475830078125,-5823.77099609375,-1369.3173828125,-499.8843078613281,-7201.0361328125,737.5081176757812,-554.7205810546875,1511.57373046875,-7104.87353515625,-736.71337890625,0.0,-2484.321533203125,0.0,-2537.568359375,-0.0,-373.5224304199219
-7248.7197265625,-8809.56640625,-5988.27978515625,-101.72525787353516,961.62158203125,16477.107421875,-4139.7412109375,205.03997802734375,-2087.752197265625,4620.55224609375,-7940.92822265625,-6457.169921875,-4275.64013671875,4640.42041015625,-276.5655517578125,-4568.89501953125,-1463.89013671875,472.863525390625,2471.60595703125,14136.6318359375,1231.829345703125,9427.0703125,-986.2581787109375,13329.1884765625,-4907.44921875,-6004.1748046875,-4347.16552734375,-2359.54931640625,-5845.228515625,-474.4529724121094,4547.43701171875,4297.09765625,1447.9954833984375,3146.33056640625,-2257.823974609375,4194.57763671875,-2800.62353515625,16747.31640625,-2724.32958984375,-0.0,-3548.463134765625,5862.712890625,-4291.5341796875,-2079.010009765625,611.1463012695312,6409.486328125,-6206.03564453125,1112.6199951171875,-6922.880859375,-3052.552490234375,-1764.2974853515625,7520.51708984375,-4099.21044921875,-9121.89453125,-5583.76318359375,-1455.1480712890625,359.2173156738281,-5812.64501953125,-1359.7806396484375,-477.63189697265625,-7190.7041015625,751.813232421875,-543.5943603515625,1519.5211181640625,-7092.15771484375,-726.3819580078125,0.0,-2459.68505859375,0.0,-2520.08447265625,-0.0,-362.396240234375
-7256.66650390625,-8804.00390625,-5993.04833984375,-108.08309173583984,959.2374267578125,16470.75,-4138.15185546875,201.86106872558594,-2084.572998046875,4625.3203125,-7940.92822265625,-6461.1435546875,-4277.2294921875,4643.59912109375,-280.5391845703125,-4580.81591796875,-1463.89013671875,471.2740478515625,2471.60595703125,14138.2216796875,1231.03466796875,9424.6865234375,-988.642333984375,13327.5986328125,-4909.83349609375,-6006.55908203125,-4351.13916015625,-2373.0595703125,-5842.8447265625,-481.60552978515625,4545.84765625,4299.48193359375,1448.7901611328125,3147.125244140625,-2257.029296875,4193.78271484375,-2801.418212890625,16744.13671875,-2719.561279296875,-0.0,-3551.64208984375,5864.30224609375,-4293.91845703125,-2086.16259765625,613.5304565429688,6406.30712890625,-6217.95654296875,1105.4674072265625,-6929.23876953125,-3074.01025390625,-1766.681640625,7512.5693359375,-4108.7470703125,-9129.0478515625,-5581.37890625,-1464.684814453125,350.4753112792969,-5812.64501953125,-1347.06494140625,-482.4002685546875,-7197.85693359375,749.4290771484375,-542.7996215820312,1521.9052734375,-7088.97900390625,-725.5872192382812,0.0,-2452.532470703125,0.0,-2509.7529296875,-0.0,-353.65423583984375
-7288.4560546875,-8814.3349609375,-5994.63818359375,-117.61983489990234,953.67431640625,16458.03515625,-4142.919921875,196.29795837402344,-2086.16259765625,4622.93603515625,-7956.822265625,-6465.912109375,-4272.4609375,4636.4462890625,-284.5128479003906,-4594.326171875,-1471.0426025390625,464.1214904785156,2466.042724609375,14134.248046875,1224.6767578125,9416.7392578125,-993.4107055664062,13322.830078125,-4917.7802734375,-6066.9580078125,-4354.318359375,-2373.0595703125,-5840.46044921875,-485.57916259765625,4537.900390625,4293.91845703125,1442.432373046875,3137.58837890625,-2260.2080078125,4186.63037109375,-2805.39208984375,16738.572265625,-2721.150634765625,-0.0,-3557.205078125,5846.0234375,-4297.09765625,-2090.13623046875,610.3515625,6400.744140625,-6225.90380859375,1096.7254638671875,-6931.623046875,-3073.215576171875,-1770.6552734375,7508.595703125,-4127.8203125,-9127.4580078125,-5578.19970703125,-1468.658447265625,340.9385681152344,-5833.3076171875,-1352.6280517578125,-490.3475646972656,-7206.5986328125,741.4818115234375,-549.157470703125,1514.752685546875,-7087.3896484375,-730.3555908203125,0.0,-2463.65869140625,0.0,-2521.673828125,-0.0,-360.8067932128906
-7288.4560546875,-8826.255859375,-5997.02197265625,-111.26200103759766,952.0848388671875,16458.03515625,-4148.4833984375,190.73486328125,-2085.367919921875,4622.1416015625,-7990.201171875,-6472.26953125,-4270.07666015625,4637.2412109375,-285.30755615234375,-4601.478515625,-1477.400390625,460.9425964355469,2462.864013671875,14136.6318359375,1222.2926025390625,9414.35546875,-997.3843994140625,13318.0615234375,-4905.859375,-6045.50048828125,-4357.49658203125,-2377.033203125,-5846.818359375,-499.08953857421875,4533.1318359375,4286.76611328125,1436.8692626953125,3132.820068359375,-2265.771240234375,4182.65673828125,-2809.365478515625,16732.216796875,-2729.892822265625,-0.0,-3557.205078125,5849.20263671875,-4301.8662109375,-2094.10986328125,605.5831909179688,6398.35986328125,-6222.72509765625,1105.4674072265625,-6930.828125,-3075.599609375,-1771.4500732421875,7501.443359375,-4145.30419921875,-9132.2255859375,-5585.3525390625,-1491.70556640625,344.9122009277344,-5841.25537109375,-1368.522705078125,-478.4266052246094,-7212.162109375,737.5081176757812,-550.7469482421875,1513.9580078125,-7107.2578125,-738.3028564453125,0.0,-2467.63232421875,0.0,-2520.879150390625,-0.0,-365.5751647949219
-7276.53515625,-8831.818359375,-6012.91650390625,-104.9041748046875,948.9059448242188,16453.265625,-4148.4833984375,189.9401397705078,-2084.572998046875,4618.16796875,-8020.40087890625,-6484.1904296875,-4270.87158203125,4634.0625,-278.9497375488281,-4585.583984375,-1478.1951904296875,456.1742248535156,2460.479736328125,14135.04296875,1217.524169921875,9412.765625,-1000.5632934570312,13313.29296875,-4908.24365234375,-6042.32177734375,-4354.318359375,-2384.98046875,-5850.7919921875,-499.08953857421875,4530.748046875,4289.9453125,1428.1273193359375,3132.820068359375,-2268.9501953125,4177.88818359375,-2810.955078125,16729.83203125,-2725.9189453125,-0.0,-3560.384033203125,5847.61279296875,-4304.25,-2099.673095703125,607.1726684570312,6398.35986328125,-6226.6982421875,1110.23583984375,-6933.21240234375,-3095.4677734375,-1765.09228515625,7504.6220703125,-4149.2783203125,-9139.37890625,-5589.326171875,-1477.400390625,356.8331298828125,-5829.33447265625,-1366.138427734375,-480.0160827636719,-7208.1884765625,735.1239624023438,-554.7205810546875,1513.1632080078125,-7116.79443359375,-749.4290771484375,0.0,-2470.81103515625,0.0,-2522.468505859375,-0.0,-366.369873046875
-7278.91943359375,-8820.693359375,-6004.1748046875,-117.61983489990234,948.9059448242188,16437.373046875,-4151.662109375,183.58230590820312,-2083.7783203125,4619.75732421875,-8008.47998046875,-6495.31689453125,-4282.79248046875,4642.009765625,-287.6917419433594,-4589.5576171875,-1483.75830078125,449.8163757324219,2454.121826171875,14134.248046875,1215.934814453125,9404.0234375,-1003.7421875,13305.3466796875,-4910.6279296875,-6086.03125,-4355.9072265625,-2395.31201171875,-5855.560546875,-485.57916259765625,4527.56884765625,4285.1767578125,1427.33251953125,3126.462158203125,-2272.129150390625,4168.3515625,-2814.1337890625,16724.267578125,-2768.83447265625,-0.0,-3559.58935546875,5826.9501953125,-4304.25,-2110.00439453125,607.1726684570312,6391.20703125,-6200.47216796875,1096.7254638671875,-6937.185546875,-3107.388671875,-1773.834228515625,7499.05908203125,-4143.71484375,-9140.96875,-5592.5048828125,-1465.4794921875,356.0384216308594,-5828.53955078125,-1363.7542724609375,-494.3211669921875,-7228.056640625,727.9713745117188,-557.8994750976562,1518.726318359375,-7117.58935546875,-745.4554443359375,0.0,-2478.758544921875,0.0,-2530.415771484375,-0.0,-367.16461181640625
-7267.79296875,-8823.0771484375,-6004.1748046875,-123.9776611328125,943.3428344726562,16440.55078125,-4151.662109375,181.9928436279297,-2080.599609375,4620.55224609375,-7969.53857421875,-6488.16455078125,-4285.97119140625,4645.18896484375,-290.87066650390625,-4595.12109375,-1485.3477783203125,449.02166748046875,2451.737548828125,14135.837890625,1212.755859375,9402.4345703125,-1004.5369873046875,13305.3466796875,-4926.52294921875,-6082.05810546875,-4358.29150390625,-2396.106689453125,-5856.35498046875,-475.2477111816406,4523.59521484375,4282.79248046875,1428.1273193359375,3122.48876953125,-2276.102783203125,4167.556640625,-2814.9287109375,16723.474609375,-2760.092529296875,-0.0,-3565.15234375,5822.9765625,-4306.63427734375,-2110.00439453125,607.9674072265625,6388.02880859375,-6210.80419921875,1090.36767578125,-6940.36474609375,-3090.699462890625,-1777.807861328125,7495.8798828125,-4124.6416015625,-9131.431640625,-5594.0947265625,-1455.9427490234375,348.09112548828125,-5842.8447265625,-1360.5753173828125,-498.2948303222656,-7227.26220703125,725.5872192382812,-558.6942138671875,1520.3157958984375,-7114.41015625,-757.3763427734375,0.0,-2473.990234375,0.0,-2530.415771484375,-0.0,-363.9856872558594
-7262.22998046875,-8829.4345703125,-6008.1484375,-127.95130920410156,944.1375732421875,16446.11328125,-4150.07275390625,189.14540100097656,-2075.8310546875,4623.73095703125,-7953.6435546875,-6481.80615234375,-4281.99755859375,4649.162109375,-278.1549987792969,-4591.14697265625,-1486.1424560546875,449.02166748046875,2456.506103515625,14142.1953125,1211.961181640625,9404.818359375,-1004.5369873046875,13308.525390625,-4926.52294921875,-6070.93212890625,-4355.9072265625,-2392.927978515625,-5856.35498046875,-476.04241943359375,4523.59521484375,4280.408203125,1428.1273193359375,3120.899169921875,-2274.51318359375,4169.94091796875,-2811.749755859375,16727.447265625,-2748.171630859375,-0.0,-3568.33154296875,5826.9501953125,-4305.04443359375,-2106.03076171875,610.3515625,6395.9755859375,-6241.00341796875,1086.3939208984375,-6937.98046875,-3089.110107421875,-1765.886962890625,7502.23779296875,-4100.0048828125,-9130.63671875,-5594.0947265625,-1444.816650390625,349.6805725097656,-5837.28173828125,-1360.5753173828125,-497.5001220703125,-7212.162109375,728.76611328125,-553.9258422851562,1521.9052734375,-7110.43701171875,-762.939453125,0.0,-2474.784912109375,0.0,-2532.00537109375,-0.0,-357.62786865234375
-7291.63525390625,-8830.2294921875,-6016.89013671875,-149.4089813232422,935.3955688476562,16433.396484375,-4158.81494140625,177.22447204589844,-2085.367919921875,4622.93603515625,-7983.84375,-6492.1376953125,-4287.56103515625,4642.8046875,-286.102294921875,-4605.4521484375,-1497.2686767578125,437.89544677734375,2446.96923828125,14135.04296875,1204.0137939453125,9392.8974609375,-1014.07373046875,13296.6044921875,-4922.548828125,-6082.85302734375,-4366.2392578125,-2403.25927734375,-5864.30224609375,-490.3475646972656,4512.46875,4270.07666015625,1414.616943359375,3110.56787109375,-2284.8447265625,4159.609375,-2822.8759765625,16717.91015625,-2766.4501953125,-0.0,-3574.689208984375,5817.4130859375,-4314.58154296875,-2116.3623046875,601.6095581054688,6389.6181640625,-6263.255859375,1065.7310791015625,-6947.517578125,-3108.978271484375,-1773.834228515625,7491.11181640625,-4118.28369140625,-9150.5048828125,-5602.83642578125,-1460.711181640625,346.5016784667969,-5844.43408203125,-1366.138427734375,-493.5264587402344,-7220.109375,719.2293701171875,-561.8731079101562,1511.57373046875,-7119.9736328125,-765.3236083984375,0.0,-2481.9375,0.0,-2539.95263671875,-0.0,-369.5487976074219
-7319.4501953125,-8844.53515625,-6028.0166015625,-162.9193572998047,923.474609375,16418.298828125,-4169.94091796875,162.9193572998047,-2096.493896484375,4610.22021484375,-7988.6123046875,-6496.111328125,-4290.73974609375,4624.525390625,-296.43377685546875,-4622.1416015625,-1507.6002197265625,427.5639953613281,2436.637939453125,14121.5322265625,1192.0928955078125,9380.181640625,-1023.6104736328125,13286.2734375,-4934.4697265625,-6102.720703125,-4378.95458984375,-2414.385498046875,-5872.24951171875,-501.4737243652344,4502.1376953125,4261.3349609375,1405.8748779296875,3097.057373046875,-2295.970947265625,4146.89404296875,-2834.002197265625,16705.990234375,-2775.98681640625,-0.0,-3585.8154296875,5799.92919921875,-4324.9130859375,-2129.077880859375,590.4833374023438,6376.90234375,-6255.30859375,1052.220703125,-6961.02783203125,-3120.1044921875,-1784.165771484375,7472.8330078125,-4150.07275390625,-9166.400390625,-5611.57861328125,-1471.0426025390625,344.11749267578125,-5854.765625,-1374.0858154296875,-496.7053527832031,-7233.61962890625,708.8978881835938,-573.7940673828125,1497.2686767578125,-7130.3046875,-770.092041015625,0.0,-2489.08984375,0.0,-2543.92626953125,-0.0,-387.8275451660156
-7336.1396484375,-8885.8603515625,-6035.96337890625,-173.25083923339844,913.1431884765625,16407.171875,-4181.06689453125,150.20370483398438,-2105.236083984375,4595.91552734375,-7990.201171875,-6506.44287109375,-4301.0712890625,4615.78369140625,-314.7125244140625,-4631.67822265625,-1518.726318359375,417.2325134277344,2426.306396484375,14111.201171875,1181.7613525390625,9369.0556640625,-1037.120849609375,13275.146484375,-4941.6220703125,-6115.4365234375,-4390.87548828125,-2427.10107421875,-5885.759765625,-511.0104675292969,4491.80615234375,4248.619140625,1395.54345703125,3087.5205078125,-2306.30224609375,4136.5625,-2843.5390625,16694.068359375,-2773.602783203125,-0.0,-3594.5576171875,5785.6240234375,-4336.0390625,-2139.409423828125,580.9465942382812,6363.39208984375,-6249.74560546875,1041.094482421875,-6968.97509765625,-3120.1044921875,-1799.2655029296875,7459.322265625,-4159.609375,-9164.015625,-5622.705078125,-1482.1688232421875,333.7860107421875,-5873.04443359375,-1379.6488037109375,-512.5999755859375,-7251.8984375,696.1822509765625,-584.9202270507812,1486.1424560546875,-7138.25244140625,-782.012939453125,0.0,-2500.21630859375,0.0,-2553.462890625,-0.0,-396.569580078125
-7308.32421875,-8878.7080078125,-6040.73193359375,-170.07191467285156,914.7326049804688,16411.146484375,-4177.88818359375,156.56153869628906,-2099.673095703125,4599.88916015625,-7984.63818359375,-6504.853515625,-4309.81298828125,4625.3203125,-311.5335998535156,-4617.373046875,-1516.3421630859375,418.0272521972656,2429.4853515625,14114.3798828125,1180.9666748046875,9371.439453125,-1035.5313720703125,13278.3251953125,-4956.72216796875,-6106.69482421875,-4382.92822265625,-2419.948486328125,-5876.22314453125,-507.8315734863281,4493.3955078125,4252.5927734375,1397.9276123046875,3089.110107421875,-2304.712890625,4139.7412109375,-2838.7705078125,16697.248046875,-2777.576416015625,-0.0,-3598.531005859375,5788.00830078125,-4330.47607421875,-2135.435791015625,584.9202270507812,6366.57080078125,-6276.76611328125,1045.86279296875,-6963.41162109375,-3116.130859375,-1794.4971923828125,7468.859375,-4146.09912109375,-9154.4794921875,-5612.37353515625,-1482.963623046875,332.1965637207031,-5865.89208984375,-1374.0858154296875,-508.62628173828125,-7243.951171875,700.1558837890625,-582.5360717773438,1480.579345703125,-7142.2255859375,-774.065673828125,0.0,-2507.368896484375,0.0,-2558.2314453125,-0.0,-399.74847412109375
-7274.94580078125,-8842.9453125,-6045.50048828125,-164.50881958007812,917.1168212890625,16415.9140625,-4174.70947265625,158.15098571777344,-2097.288818359375,4597.5048828125,-7979.0751953125,-6502.4697265625,-4308.2236328125,4622.93603515625,-303.5863342285156,-4622.1416015625,-1515.54736328125,421.2061462402344,2431.86962890625,14112.7900390625,1181.7613525390625,9372.234375,-1031.5577392578125,13278.3251953125,-4952.74853515625,-6098.7470703125,-4376.5703125,-2415.18017578125,-5873.8388671875,-506.2420959472656,4494.98486328125,4258.15576171875,1397.1328125,3090.699462890625,-2303.12353515625,4139.7412109375,-2834.796875,16700.42578125,-2778.37109375,-0.0,-3598.531005859375,5792.7763671875,-4328.88671875,-2131.462158203125,588.0991821289062,6368.16015625,-6273.587890625,1050.6312255859375,-6954.669921875,-3112.951904296875,-1789.728759765625,7470.44873046875,-4150.07275390625,-9147.326171875,-5612.37353515625,-1482.1688232421875,332.1965637207031,-5871.45458984375,-1369.3173828125,-508.62628173828125,-7228.056640625,702.5401000976562,-579.357177734375,1476.605712890625,-7138.25244140625,-776.4498291015625,0.0,-2491.47412109375,0.0,-2553.462890625,-0.0,-399.74847412109375
-7282.09814453125,-8838.1767578125,-6042.32177734375,-165.3035430908203,917.9114990234375,16414.32421875,-4174.70947265625,156.56153869628906,-2096.493896484375,4596.7099609375,-7997.353515625,-6503.26416015625,-4292.3291015625,4620.55224609375,-301.9968566894531,-4623.73095703125,-1517.136962890625,418.0272521972656,2430.280029296875,14113.5859375,1182.55615234375,9370.64453125,-1031.5577392578125,13278.3251953125,-4940.033203125,-6103.515625,-4375.77587890625,-2419.15380859375,-5877.01806640625,-507.8315734863281,4491.80615234375,4255.771484375,1396.338134765625,3089.110107421875,-2304.712890625,4140.53564453125,-2836.386474609375,16701.220703125,-2790.2919921875,-0.0,-3597.736328125,5791.1875,-4329.681640625,-2132.2568359375,589.6885986328125,6365.77587890625,-6260.8720703125,1049.041748046875,-6957.84912109375,-3113.74658203125,-1788.139404296875,7470.44873046875,-4185.83544921875,-9143.3525390625,-5615.55224609375,-1479.78466796875,332.1965637207031,-5887.349609375,-1366.138427734375,-517.3682861328125,-7230.4404296875,701.745361328125,-578.5624389648438,1486.1424560546875,-7128.71533203125,-781.2182006835938,0.0,-2491.47412109375,0.0,-2551.078857421875,-0.0,-392.5959167480469
-7307.529296875,-8850.8916015625,-6036.75830078125,-165.3035430908203,921.0904541015625,16415.119140625,-4174.70947265625,158.15098571777344,-2102.05712890625,4589.5576171875,-8037.884765625,-6504.05859375,-4281.20263671875,4612.6044921875,-294.84429931640625,-4617.373046875,-1516.3421630859375,420.41143798828125,2431.074951171875,14108.8173828125,1184.1456298828125,9370.64453125,-1032.3524169921875,13278.3251953125,-4920.16455078125,-6102.720703125,-4372.5966796875,-2416.769775390625,-5874.6337890625,-514.984130859375,4491.80615234375,4252.5927734375,1398.7222900390625,3089.110107421875,-2303.12353515625,4140.53564453125,-2836.386474609375,16700.42578125,-2791.0869140625,-0.0,-3588.994384765625,5790.392578125,-4327.29736328125,-2131.462158203125,588.0991821289062,6365.77587890625,-6250.5400390625,1050.6312255859375,-6957.84912109375,-3119.3095703125,-1783.3709716796875,7475.21728515625,-4197.75634765625,-9147.326171875,-5613.962890625,-1482.963623046875,342.52801513671875,-5880.197265625,-1371.7015380859375,-530.083984375,-7241.56689453125,702.5401000976562,-581.7413330078125,1475.0162353515625,-7131.89453125,-777.2445678710938,0.0,-2497.83203125,0.0,-2559.82080078125,-0.0,-402.9273986816406
-7334.55029296875,-8863.6083984375,-6034.3740234375,-160.53517150878906,925.8588256835938,16416.70703125,-4173.91455078125,162.9193572998047,-2106.03076171875,4595.91552734375,-8037.884765625,-6500.8798828125,-4270.87158203125,4611.81005859375,-290.075927734375,-4611.01513671875,-1513.9580078125,423.59033203125,2434.253662109375,14111.201171875,1186.52978515625,9377.0029296875,-1028.3787841796875,13282.298828125,-4904.27001953125,-6089.21044921875,-4371.00732421875,-2411.20654296875,-5878.607421875,-519.7525024414062,4495.779296875,4251.00341796875,1401.9012451171875,3092.2890625,-2299.944580078125,4144.509765625,-2833.207275390625,16703.60546875,-2787.11328125,-0.0,-3581.047119140625,5799.134765625,-4325.7080078125,-2128.283203125,588.8939208984375,6371.33935546875,-6250.5400390625,1054.6048583984375,-6960.2333984375,-3124.872802734375,-1777.807861328125,7481.5751953125,-4178.6826171875,-9145.736328125,-5617.1416015625,-1481.3741455078125,352.8594970703125,-5871.45458984375,-1373.291015625,-525.3156127929688,-7254.28271484375,705.718994140625,-577.7677001953125,1482.1688232421875,-7140.63623046875,-771.6814575195312,0.0,-2500.21630859375,0.0,-2558.2314453125,-0.0,-394.9801025390625
-7352.8291015625,-8865.197265625,-6028.0166015625,-160.53517150878906,924.2693481445312,16423.06640625,-4169.94091796875,163.71409606933594,-2101.262451171875,4595.91552734375,-8029.1435546875,-6503.26416015625,-4275.64013671875,4623.73095703125,-282.128662109375,-4606.2470703125,-1510.779052734375,426.7692565917969,2435.84326171875,14111.99609375,1188.9139404296875,9379.38671875,-1027.5841064453125,13283.888671875,-4906.654296875,-6086.826171875,-4374.98095703125,-2408.027587890625,-5880.197265625,-518.957763671875,4497.369140625,4251.00341796875,1403.49072265625,3093.083740234375,-2297.560546875,4146.89404296875,-2832.41259765625,16705.1953125,-2783.139404296875,-0.0,-3580.25244140625,5804.69775390625,-4325.7080078125,-2125.899169921875,591.278076171875,6373.7236328125,-6244.1826171875,1053.81005859375,-6968.18017578125,-3103.415283203125,-1768.2711181640625,7482.3701171875,-4191.3984375,-9142.5576171875,-5621.115234375,-1490.1160888671875,346.5016784667969,-5861.12353515625,-1370.112060546875,-518.1630249023438,-7255.0771484375,706.5137329101562,-575.3834838867188,1493.2950439453125,-7140.63623046875,-770.88671875,0.0,-2497.037109375,0.0,-2549.4892578125,-0.0,-388.6222839355469
-7340.908203125,-8904.93359375,-6043.9111328125,-158.15098571777344,916.3220825195312,16420.68359375,-4170.73583984375,161.3299102783203,-2100.4677734375,4591.94189453125,-8018.81103515625,-6506.44287109375,-4271.666015625,4617.373046875,-271.00244140625,-4618.962890625,-1510.779052734375,424.38507080078125,2432.6640625,14109.611328125,1180.9666748046875,9377.0029296875,-1029.1734619140625,13281.5048828125,-4955.1328125,-6083.6474609375,-4367.828125,-2412.00146484375,-5869.0703125,-526.1103515625,4495.779296875,4253.3876953125,1396.338134765625,3092.2890625,-2302.328857421875,4142.919921875,-2831.6181640625,16702.017578125,-2762.4765625,-0.0,-3596.146728515625,5802.3134765625,-4326.50244140625,-2129.077880859375,593.6622314453125,6368.955078125,-6261.6669921875,1058.5784912109375,-6967.3857421875,-3115.336181640625,-1757.939697265625,7473.62744140625,-4156.4306640625,-9142.5576171875,-5609.9892578125,-1515.54736328125,353.65423583984375,-5862.712890625,-1365.34375,-512.5999755859375,-7248.7197265625,704.1295166015625,-578.5624389648438,1486.1424560546875,-7132.68896484375,-774.065673828125,0.0,-2499.42138671875,0.0,-2557.436767578125,-0.0,-398.9537658691406
-7323.423828125,-8904.93359375,-6039.9375,-161.3299102783203,917.1168212890625,16417.50390625,-4172.3251953125,166.09828186035156,-2090.13623046875,4608.63134765625,-8004.50634765625,-6506.44287109375,-4300.2763671875,4630.0888671875,-305.17578125,-4629.2939453125,-1513.1632080078125,423.59033203125,2432.6640625,14129.4794921875,1183.3509521484375,9377.796875,-1030.7630615234375,13281.5048828125,-4963.875,-6092.3896484375,-4372.5966796875,-2411.20654296875,-5866.6865234375,-528.4945068359375,4495.779296875,4252.5927734375,1400.311767578125,3093.87841796875,-2302.328857421875,4141.33056640625,-2835.591552734375,16703.60546875,-2779.166015625,-0.0,-3596.146728515625,5799.134765625,-4328.09228515625,-2129.077880859375,593.6622314453125,6375.31298828125,-6279.9453125,1053.81005859375,-6956.25927734375,-3117.720458984375,-1789.728759765625,7476.01171875,-4127.025390625,-9147.326171875,-5606.015625,-1509.984375,338.55438232421875,-5872.24951171875,-1366.138427734375,-509.4210510253906,-7257.46142578125,704.1295166015625,-572.20458984375,1504.4212646484375,-7129.51025390625,-776.4498291015625,0.0,-2497.037109375,0.0,-2551.87353515625,-0.0,-381.4697265625
-7290.04541015625,-8853.2763671875,-6039.142578125,-165.3035430908203,920.2957153320312,16415.119140625,-4172.3251953125,170.8666534423828,-2087.752197265625,4617.373046875,-7975.89599609375,-6505.64794921875,-4306.63427734375,4619.75732421875,-307.5599670410156,-4622.93603515625,-1511.57373046875,424.38507080078125,2436.637939453125,14139.8115234375,1188.1192626953125,9377.796875,-1029.1734619140625,13283.09375,-4954.337890625,-6101.92626953125,-4374.18603515625,-2410.411865234375,-5862.712890625,-511.0104675292969,4498.16357421875,4257.36083984375,1401.1064453125,3096.2626953125,-2300.7392578125,4142.12548828125,-2831.6181640625,16706.78515625,-2774.397705078125,-0.0,-3593.7626953125,5800.72412109375,-4325.7080078125,-2127.48828125,595.251708984375,6383.26025390625,-6276.76611328125,1049.8365478515625,-6946.72265625,-3120.1044921875,-1792.1129150390625,7482.3701171875,-4123.8466796875,-9151.2998046875,-5602.04150390625,-1499.65283203125,337.7596435546875,-5876.22314453125,-1361.3701171875,-504.6526794433594,-7255.8720703125,705.718994140625,-566.6414794921875,1482.963623046875,-7127.92041015625,-775.6550903320312,0.0,-2514.521240234375,0.0,-2566.178466796875,-0.0,-387.0328369140625
-7283.6875,-8829.4345703125,-6040.73193359375,-157.35626220703125,920.2957153320312,16422.271484375,-4172.3251953125,174.04556274414062,-2100.4677734375,4616.57861328125,-7966.359375,-6500.08544921875,-4293.91845703125,4593.53125,-298.8179626464844,-4618.16796875,-1505.2159423828125,428.35870361328125,2439.02197265625,14127.095703125,1190.50341796875,9383.361328125,-1028.3787841796875,13288.6572265625,-4953.54296875,-6094.77392578125,-4372.5966796875,-2406.438232421875,-5867.4814453125,-498.2948303222656,4502.93212890625,4262.92431640625,1405.0802001953125,3102.620361328125,-2297.560546875,4147.6884765625,-2832.41259765625,16710.7578125,-2770.423828125,-0.0,-3592.968017578125,5805.4921875,-4326.50244140625,-2120.3359375,591.278076171875,6385.64453125,-6268.0244140625,1057.78369140625,-6951.49072265625,-3105.79931640625,-1784.96044921875,7485.54833984375,-4138.15185546875,-9147.326171875,-5606.81005859375,-1488.5267333984375,344.9122009277344,-5865.89208984375,-1373.291015625,-494.3211669921875,-7241.56689453125,711.2821044921875,-569.0256958007812,1440.843017578125,-7130.3046875,-771.6814575195312,0.0,-2516.110595703125,0.0,-2562.999755859375,-0.0,-418.82196044921875
-7289.2509765625,-8881.091796875,-6041.52685546875,-150.20370483398438,921.0904541015625,16430.21875,-4170.73583984375,171.661376953125,-2102.05712890625,4618.16796875,-7968.7431640625,-6505.64794921875,-4302.66064453125,4609.42578125,-298.8179626464844,-4610.22021484375,-1503.62646484375,429.1534423828125,2438.227294921875,14119.1484375,1190.50341796875,9388.923828125,-1026.789306640625,13291.8359375,-4951.9541015625,-6074.1103515625,-4377.365234375,-2402.464599609375,-5875.4287109375,-502.26849365234375,4505.31640625,4262.12939453125,1408.259033203125,3105.79931640625,-2295.970947265625,4153.25146484375,-2833.207275390625,16711.552734375,-2775.98681640625,-0.0,-3592.968017578125,5814.234375,-4328.88671875,-2116.3623046875,591.278076171875,6379.2861328125,-6264.05078125,1060.16796875,-6956.25927734375,-3101.82568359375,-1784.96044921875,7482.3701171875,-4142.919921875,-9163.220703125,-5610.7841796875,-1483.75830078125,339.34912109375,-5862.712890625,-1376.469970703125,-498.2948303222656,-7236.798828125,709.692626953125,-572.20458984375,1462.3006591796875,-7139.04736328125,-769.2973022460938,0.0,-2499.42138671875,0.0,-2539.157958984375,-0.0,-407.6957702636719
-7302.76123046875,-8896.9873046875,-6039.9375,-157.35626220703125,920.2957153320312,16425.451171875,-4179.4775390625,158.15098571777344,-2114.772705078125,4580.02099609375,-7980.6640625,-6517.56884765625,-4301.0712890625,4607.83642578125,-297.2284851074219,-4619.75732421875,-1505.2159423828125,426.7692565917969,2427.895751953125,14092.921875,1190.50341796875,9384.1552734375,-1032.3524169921875,13283.09375,-4945.59619140625,-6067.7529296875,-4380.5439453125,-2411.20654296875,-5873.04443359375,-514.1893920898438,4504.52197265625,4254.9765625,1404.285400390625,3102.620361328125,-2299.149658203125,4146.89404296875,-2840.35986328125,16700.42578125,-2775.98681640625,-0.0,-3591.37841796875,5812.64501953125,-4332.8603515625,-2125.899169921875,580.15185546875,6360.212890625,-6243.3876953125,1053.81005859375,-6957.05419921875,-3113.74658203125,-1786.5499267578125,7469.654296875,-4148.4833984375,-9184.677734375,-5609.1943359375,-1500.4476318359375,339.34912109375,-5866.6865234375,-1378.8541259765625,-522.13671875,-7243.15625,703.3348388671875,-585.7149658203125,1476.605712890625,-7154.146484375,-774.065673828125,0.0,-2509.7529296875,0.0,-2555.84716796875,-0.0,-405.31158447265625
-7303.55615234375,-8865.9921875,-6024.83740234375,-150.99842834472656,926.653564453125,16413.53125,-4181.86181640625,148.61424255371094,-2115.5673828125,4562.53662109375,-8014.04296875,-6513.595703125,-4290.73974609375,4611.01513671875,-298.0232238769531,-4627.70458984375,-1503.62646484375,425.9745178222656,2423.92236328125,14087.359375,1196.0665283203125,9381.771484375,-1033.147216796875,13276.736328125,-4921.75439453125,-6088.41552734375,-4377.365234375,-2427.10107421875,-5865.09716796875,-518.957763671875,4504.52197265625,4254.9765625,1408.259033203125,3101.031005859375,-2295.970947265625,4143.71484375,-2841.949462890625,16694.068359375,-2779.166015625,-0.0,-3580.25244140625,5803.1083984375,-4328.88671875,-2138.61474609375,577.7677001953125,6353.06005859375,-6226.6982421875,1064.1416015625,-6953.08056640625,-3127.257080078125,-1784.96044921875,7459.322265625,-4172.3251953125,-9175.9365234375,-5603.63134765625,-1512.3685302734375,336.1701965332031,-5858.7392578125,-1380.443603515625,-526.905029296875,-7240.7724609375,704.1295166015625,-589.6885986328125,1486.1424560546875,-7139.04736328125,-781.2182006835938,0.0,-2504.189697265625,0.0,-2563.79443359375,-0.0,-405.31158447265625
-7325.80810546875,-8854.0712890625,-6012.12158203125,-149.4089813232422,933.0113525390625,16417.50390625,-4177.88818359375,158.9457244873047,-2113.183349609375,4568.89501953125,-8055.369140625,-6504.853515625,-4278.0244140625,4614.98876953125,-292.4601135253906,-4607.0419921875,-1498.0634765625,430.7428894042969,2427.895751953125,14091.33203125,1202.4244384765625,9384.94921875,-1030.7630615234375,13281.5048828125,-4897.91259765625,-6087.62109375,-4373.3916015625,-2413.590576171875,-5873.04443359375,-519.7525024414062,4509.2900390625,4260.5400390625,1415.41162109375,3105.79931640625,-2291.997314453125,4147.6884765625,-2837.975830078125,16698.041015625,-2764.06591796875,-0.0,-3567.53662109375,5807.87646484375,-4327.29736328125,-2131.462158203125,581.7413330078125,6359.41845703125,-6225.10888671875,1067.3204345703125,-6956.25927734375,-3124.872802734375,-1778.6025390625,7473.62744140625,-4182.65673828125,-9159.2470703125,-5613.962890625,-1506.805419921875,340.9385681152344,-5846.818359375,-1373.291015625,-528.4945068359375,-7241.56689453125,709.692626953125,-587.304443359375,1485.3477783203125,-7134.27880859375,-776.4498291015625,0.0,-2504.189697265625,0.0,-2573.3310546875,-0.0,-411.6694030761719
-7353.6240234375,-8865.9921875,-6012.12158203125,-156.56153869628906,925.0640869140625,16411.939453125,-4185.83544921875,152.587890625,-2117.156982421875,4569.689453125,-8081.59521484375,-6511.21142578125,-4264.513671875,4602.2734375,-298.8179626464844,-4626.90966796875,-1505.2159423828125,422.7956237792969,2421.5380859375,14089.7431640625,1196.0665283203125,9379.38671875,-1037.120849609375,13274.3525390625,-4898.70703125,-6069.34228515625,-4386.90185546875,-2425.51171875,-5893.70703125,-533.2628784179688,4501.3427734375,4251.00341796875,1406.669677734375,3099.44140625,-2299.944580078125,4140.53564453125,-2845.12841796875,16692.48046875,-2776.78173828125,-0.0,-3569.126220703125,5807.08154296875,-4337.62890625,-2135.435791015625,576.9729614257812,6357.82861328125,-6239.4140625,1059.373291015625,-6978.51171875,-3126.462158203125,-1784.96044921875,7465.6806640625,-4219.2138671875,-9162.42578125,-5633.0361328125,-1523.4947509765625,343.32275390625,-5861.91796875,-1367.7279052734375,-526.905029296875,-7257.46142578125,701.745361328125,-592.0728149414062,1474.2215576171875,-7180.37255859375,-780.4234619140625,0.0,-2497.83203125,0.0,-2570.15234375,-0.0,-415.64306640625
-7359.9814453125,-8839.7666015625,-6031.1953125,-164.50881958007812,921.0904541015625,16406.376953125,-4189.80908203125,147.02479553222656,-2111.593994140625,4578.431640625,-8044.24267578125,-6508.8271484375,-4297.89208984375,4612.6044921875,-317.0967102050781,-4645.18896484375,-1509.1895751953125,418.0272521972656,2419.948486328125,14100.869140625,1189.708740234375,9374.6181640625,-1040.2998046875,13271.9677734375,-4929.701171875,-6095.568359375,-4388.4912109375,-2434.253662109375,-5888.14404296875,-522.13671875,4498.16357421875,4251.79833984375,1400.311767578125,3095.4677734375,-2305.507568359375,4135.767578125,-2847.512451171875,16690.095703125,-2775.1923828125,-0.0,-3585.8154296875,5795.95556640625,-4340.01318359375,-2140.2041015625,574.5887451171875,6357.82861328125,-6259.28271484375,1053.015380859375,-6968.97509765625,-3126.462158203125,-1801.649658203125,7455.34912109375,-4231.9296875,-9154.4794921875,-5626.6787109375,-1498.858154296875,335.3754577636719,-5869.0703125,-1381.23828125,-517.3682861328125,-7251.8984375,697.771728515625,-591.278076171875,1471.0426025390625,-7172.42578125,-778.039306640625,0.0,-2495.44775390625,0.0,-2558.2314453125,-0.0,-410.87469482421875
-7361.57080078125,-8830.2294921875,-6043.9111328125,-174.8402862548828,913.1431884765625,16403.994140625,-4192.193359375,148.61424255371094,-2110.00439453125,4576.04736328125,-7990.99658203125,-6509.6220703125,-4310.60791015625,4624.525390625,-321.0703430175781,-4634.857421875,-1513.1632080078125,414.0535888671875,2417.564453125,14100.0751953125,1180.9666748046875,9369.0556640625,-1044.2734375,13271.1728515625,-4964.669921875,-6134.51025390625,-4386.10693359375,-2426.306396484375,-5877.01806640625,-511.80523681640625,4494.98486328125,4250.20849609375,1397.1328125,3086.725830078125,-2309.4814453125,4133.38330078125,-2851.486328125,16690.095703125,-2786.318603515625,-0.0,-3601.7099609375,5782.4453125,-4343.19140625,-2141.79345703125,570.6151123046875,6355.4443359375,-6275.1767578125,1043.4786376953125,-6958.6435546875,-3121.69384765625,-1805.6234130859375,7459.322265625,-4184.24609375,-9152.0947265625,-5614.75732421875,-1491.70556640625,330.6070861816406,-5873.8388671875,-1388.390869140625,-526.1103515625,-7250.30908203125,694.5927734375,-592.8675537109375,1472.632080078125,-7139.841796875,-781.2182006835938,0.0,-2507.368896484375,0.0,-2564.58935546875,-0.0,-414.0535888671875
-7338.52392578125,-8850.09765625,-6047.08984375,-169.27719116210938,910.7589721679688,16411.939453125,-4184.24609375,157.35626220703125,-2098.878173828125,4589.5576171875,-7964.7705078125,-6514.390625,-4291.5341796875,4637.2412109375,-298.0232238769531,-4612.6044921875,-1509.1895751953125,418.82196044921875,2423.92236328125,14110.40625,1181.7613525390625,9374.6181640625,-1040.2998046875,13278.3251953125,-4973.41162109375,-6112.25732421875,-4379.74951171875,-2415.974853515625,-5875.4287109375,-512.5999755859375,4497.369140625,4258.15576171875,1400.311767578125,3092.2890625,-2307.09716796875,4139.7412109375,-2843.5390625,16696.453125,-2759.297607421875,-0.0,-3604.888916015625,5791.98193359375,-4338.42333984375,-2133.051513671875,578.5624389648438,6362.59716796875,-6265.64013671875,1048.2469482421875,-6961.02783203125,-3120.899169921875,-1786.5499267578125,7471.2431640625,-4140.53564453125,-9154.4794921875,-5613.16845703125,-1484.552978515625,346.5016784667969,-5860.32861328125,-1374.0858154296875,-525.3156127929688,-7237.59326171875,700.9506225585938,-584.12548828125,1486.9371337890625,-7126.33154296875,-782.012939453125,0.0,-2501.010986328125,0.0,-2562.999755859375,-0.0,-405.31158447265625
-7310.70849609375,-8860.4287109375,-6046.294921875,-178.0192108154297,914.7326049804688,16419.88671875,-4178.6826171875,157.35626220703125,-2100.4677734375,4587.17333984375,-7975.1015625,-6511.21142578125,-4302.66064453125,4622.1416015625,-284.5128479003906,-4624.525390625,-1507.6002197265625,421.2061462402344,2426.306396484375,14105.6376953125,1185.735107421875,9378.5927734375,-1037.91552734375,13281.5048828125,-4954.337890625,-6090.7998046875,-4376.5703125,-2416.769775390625,-5877.01806640625,-517.3682861328125,4501.3427734375,4262.12939453125,1403.49072265625,3099.44140625,-2304.712890625,4143.71484375,-2840.35986328125,16698.041015625,-2762.4765625,-0.0,-3599.325927734375,5804.69775390625,-4332.0654296875,-2129.87255859375,584.12548828125,6364.1865234375,-6266.43505859375,1035.5313720703125,-6958.6435546875,-3108.18359375,-1773.0394287109375,7468.06494140625,-4124.6416015625,-9159.2470703125,-5613.962890625,-1494.0897216796875,346.5016784667969,-5858.7392578125,-1363.7542724609375,-518.1630249023438,-7247.1298828125,705.718994140625,-584.12548828125,1471.83740234375,-7127.1259765625,-781.2182006835938,0.0,-2501.010986328125,0.0,-2561.41015625,-0.0,-408.4905090332031
-7296.4033203125,-8858.83984375,-6047.88427734375,-160.53517150878906,909.1694946289062,16414.32421875,-4188.2197265625,148.61424255371094,-2125.104248046875,4572.0732421875,-7987.0224609375,-6510.41650390625,-4307.4287109375,4591.14697265625,-303.5863342285156,-4634.0625,-1514.752685546875,414.0535888671875,2417.564453125,14084.1796875,1180.9666748046875,9371.439453125,-1044.2734375,13273.556640625,-4958.3115234375,-6099.5419921875,-4387.69677734375,-2422.332763671875,-5880.99169921875,-522.13671875,4493.3955078125,4253.3876953125,1395.54345703125,3091.494384765625,-2310.276123046875,4137.357421875,-2849.10205078125,16690.095703125,-2778.37109375,-0.0,-3602.504638671875,5793.5712890625,-4340.8076171875,-2137.025146484375,568.23095703125,6355.4443359375,-6279.9453125,1056.1943359375,-6965.00146484375,-3118.51513671875,-1791.3182373046875,7460.1171875,-4143.71484375,-9162.42578125,-5619.52587890625,-1488.5267333984375,334.58074951171875,-5869.0703125,-1380.443603515625,-522.931396484375,-7263.02490234375,698.56640625,-595.251708984375,1455.9427490234375,-7135.0732421875,-783.6024169921875,0.0,-2504.189697265625,0.0,-2561.41015625,-0.0,-413.2588806152344
-7313.0927734375,-8853.2763671875,-6043.1162109375,-143.8458709716797,910.7589721679688,16415.119140625,-4190.603515625,150.99842834472656,-2136.23046875,4572.8681640625,-8012.4541015625,-6513.595703125,-4303.45556640625,4584.7890625,-322.6598205566406,-4630.8837890625,-1516.3421630859375,415.64306640625,2419.15380859375,14084.1796875,1181.7613525390625,9374.6181640625,-1042.6839599609375,13275.9404296875,-4954.337890625,-6093.97900390625,-4392.46533203125,-2420.7431640625,-5884.17041015625,-519.7525024414062,4494.1904296875,4251.79833984375,1396.338134765625,3089.90478515625,-2309.4814453125,4138.9462890625,-2853.07568359375,16692.48046875,-2791.881591796875,-0.0,-3597.736328125,5798.33984375,-4343.986328125,-2133.84619140625,562.6678466796875,6358.62353515625,-6274.38232421875,1072.0888671875,-6966.5908203125,-3118.51513671875,-1808.80224609375,7461.70654296875,-4156.4306640625,-9164.015625,-5622.705078125,-1478.1951904296875,329.8123779296875,-5874.6337890625,-1389.185546875,-515.7788696289062,-7258.25634765625,696.9769897460938,-596.0464477539062,1460.711181640625,-7143.8154296875,-778.8340454101562,0.0,-2497.037109375,0.0,-2559.82080078125,-0.0,-410.0799560546875
