5106.92578125,3852.84423828125,9737.8095703125,5441.5068359375,15835.76171875,5766.55078125,8345.4443359375,12620.2900390625,4467.16943359375,6923.67578125,4216.03515625,7028.57958984375,-5622.705078125,0.0,11936.0283203125,11727.015625,929.8324584960938,821.7493896484375,3883.838623046875,5817.4130859375,3694.693359375,10511.875,7488.7275390625,22096.634765625,-1120.5673828125,743.0712280273438,4831.1552734375,12607.57421875,-5254.74560546875,2168.01953125,17538.0703125,-10319.55078125,-3581.047119140625,2686.1826171875,9476.34375,11424.2236328125,5738.7353515625,8896.9873046875,5318.32373046875,-0.0,5813.43994140625,25975.705078125,30032.0,8335.11328125,18115.83984375,12892.8828125,-1246.92919921875,-2775.1923828125,4440.14892578125,13071.6962890625,10771.7509765625,12841.224609375,9945.2333984375,931.4219360351562,-1218.3189697265625,8358.1611328125,0.0,4391.67041015625,7701.71484375,6469.0908203125,4722.27734375,9883.244140625,9898.3447265625,15898.5458984375,-12545.5859375,2430.280029296875,10996.6591796875,7373.49169921875,5685.48828125,4236.6982421875,0.0,9442.9658203125
5156.19921875,3844.89697265625,9721.9150390625,5415.28076171875,15828.609375,5756.21923828125,8338.2919921875,12607.57421875,4456.837890625,6910.9599609375,4224.77734375,7022.22216796875,-5620.32080078125,0.0,11926.4921875,11717.478515625,917.1168212890625,813.00732421875,3876.68603515625,5807.08154296875,3681.182861328125,10498.3642578125,7478.39599609375,22084.712890625,-1097.520263671875,729.5608520507812,4831.94970703125,12593.26953125,-5250.77197265625,2142.58837890625,17526.150390625,-10324.3193359375,-3606.478515625,2664.72509765625,9465.2177734375,11412.302734375,5732.37744140625,8885.8603515625,5336.6025390625,-0.0,5797.544921875,25959.015625,30026.435546875,8320.80859375,18110.275390625,12880.9609375,-1238.1871337890625,-2765.655517578125,4444.9169921875,13057.3916015625,10760.625,12829.3037109375,9946.8232421875,925.0640869140625,-1206.39794921875,8345.4443359375,0.0,4378.95458984375,7687.40966796875,6455.580078125,4731.01953125,9872.9130859375,9888.0126953125,15888.2138671875,-12544.791015625,2418.359130859375,10984.73828125,7350.44482421875,5681.5146484375,4195.3720703125,0.0,9428.66015625
5191.16748046875,3804.365966796875,9731.4521484375,5381.107421875,15824.63671875,5743.50341796875,8334.3193359375,12602.01171875,4450.47998046875,6902.2177734375,4220.0087890625,7026.1953125,-5618.73095703125,0.0,11925.697265625,11711.9150390625,908.374755859375,805.8547973632812,3871.123046875,5799.92919921875,3674.824951171875,10485.6494140625,7472.0380859375,22075.970703125,-1088.7781982421875,721.6135864257812,4828.77099609375,12578.9638671875,-5253.95068359375,2142.58837890625,17520.5859375,-10331.4716796875,-3609.6572265625,2656.777587890625,9459.6552734375,11404.35546875,5727.609375,8877.1181640625,5294.48193359375,-0.0,5786.4189453125,25941.529296875,30023.255859375,8312.06640625,18104.7109375,12876.193359375,-1241.3660888671875,-2757.708251953125,4446.50634765625,13045.470703125,10760.625,12823.7412109375,9954.7705078125,924.2693481445312,-1207.9874267578125,8340.6767578125,0.0,4388.4912109375,7685.8203125,6458.75927734375,4723.86669921875,9867.3505859375,9881.6552734375,15881.0615234375,-12547.9697265625,2415.18017578125,10986.328125,7349.64990234375,5678.33544921875,4200.935546875,0.0,9425.48046875
5200.7041015625,3813.107666015625,9732.24609375,5398.59130859375,15824.63671875,5745.0927734375,8336.703125,12605.984375,4451.27490234375,6908.57568359375,4219.2138671875,7033.34814453125,-5622.705078125,0.0,11929.6708984375,11714.298828125,917.9114990234375,807.4442749023438,3874.302001953125,5803.1083984375,3678.00390625,10489.623046875,7474.42236328125,22079.9453125,-1091.162353515625,732.73974609375,4831.94970703125,12574.1962890625,-5257.92431640625,2147.356689453125,17525.353515625,-10326.703125,-3598.531005859375,2663.93017578125,9462.8330078125,11407.5341796875,5729.1982421875,8878.7080078125,5250.77197265625,-0.0,5779.2666015625,25943.12109375,30024.05078125,8313.65625,18106.302734375,12878.5771484375,-1239.776611328125,-2755.32421875,4443.32763671875,13050.23828125,10766.1884765625,12827.7138671875,9953.9755859375,930.627197265625,-1214.3453369140625,8346.240234375,0.0,4439.35400390625,7680.25732421875,6460.3486328125,4723.072265625,9872.119140625,9884.0400390625,15885.0341796875,-12547.9697265625,2413.590576171875,10990.3017578125,7390.97607421875,5679.92529296875,4232.724609375,0.0,9416.7392578125
5183.2197265625,3802.7763671875,9714.7626953125,5455.81201171875,15838.146484375,5749.861328125,8354.1875,12608.369140625,4460.8115234375,6921.29150390625,4221.59814453125,7032.55322265625,-5619.52587890625,0.0,11942.38671875,11717.478515625,932.2166748046875,817.7757568359375,3886.222900390625,5814.234375,3689.925048828125,10504.72265625,7487.9326171875,22088.685546875,-1081.6256103515625,739.0975952148438,4855.79150390625,12577.3740234375,-5251.56640625,2137.025146484375,17538.0703125,-10318.755859375,-3588.994384765625,2694.1298828125,9473.9599609375,11416.2763671875,5742.70849609375,8889.0390625,5273.81884765625,-0.0,5796.75048828125,25956.630859375,30038.357421875,8319.21875,18122.9921875,12886.5244140625,-1238.9818115234375,-2767.2451171875,4447.30126953125,13047.05859375,10778.109375,12831.6875,9959.5380859375,942.548095703125,-1215.1400146484375,8339.087890625,0.0,4439.35400390625,7685.02587890625,6462.73291015625,4734.9931640625,9882.4501953125,9895.9609375,15899.33984375,-12547.17578125,2416.769775390625,11000.6328125,7403.69189453125,5685.48828125,4254.18212890625,0.0,9439.7861328125
5160.96728515625,3778.9345703125,9702.046875,5409.7177734375,15825.4296875,5744.29833984375,8345.4443359375,12608.369140625,4456.837890625,6920.49658203125,4210.47216796875,7019.04296875,-5618.73095703125,0.0,11928.8759765625,11718.2734375,917.9114990234375,806.6495361328125,3879.0703125,5811.0556640625,3679.59326171875,10492.0068359375,7477.6015625,22079.9453125,-1099.9044189453125,731.1503295898438,4852.61279296875,12580.5537109375,-5262.69287109375,2135.435791015625,17526.150390625,-10329.0869140625,-3601.7099609375,2668.698486328125,9462.0390625,11407.5341796875,5734.76171875,8881.091796875,5348.5234375,-0.0,5786.4189453125,25949.478515625,30025.640625,8315.24609375,18113.455078125,12882.5498046875,-1268.3868408203125,-2795.060302734375,4421.0751953125,13047.8544921875,10765.3935546875,12831.6875,9965.896484375,941.75341796875,-1231.829345703125,8328.755859375,0.0,4463.19580078125,7681.8466796875,6467.5009765625,4727.84033203125,9872.119140625,9889.6025390625,15898.5458984375,-12563.0693359375,2408.027587890625,10988.7119140625,7375.08154296875,5677.541015625,4260.5400390625,0.0,9461.2431640625
5146.662109375,3770.1923828125,9638.46875,5340.576171875,15795.23046875,5717.27734375,8312.06640625,12587.70703125,4424.25390625,6896.65478515625,4181.06689453125,6993.61181640625,-5617.9365234375,0.0,11894.703125,11695.2255859375,886.9171142578125,778.8340454101562,3849.665283203125,5783.23974609375,3654.956787109375,10461.8076171875,7448.9912109375,22050.5390625,-1138.8460693359375,704.1295166015625,4812.87646484375,12554.328125,-5286.53466796875,2113.183349609375,17495.15625,-10350.544921875,-3635.088623046875,2630.551513671875,9432.6337890625,11378.12890625,5703.76708984375,8854.0712890625,5335.8076171875,-0.0,5777.67724609375,25921.6640625,29993.853515625,8288.224609375,18080.869140625,12857.119140625,-1331.965087890625,-2819.697021484375,4390.0810546875,13024.806640625,10729.630859375,12808.640625,9940.46484375,903.6064453125,-1255.671142578125,8303.32421875,0.0,4435.38037109375,7639.72607421875,6443.6591796875,4707.177734375,9841.9189453125,9860.1982421875,15871.5244140625,-12583.732421875,2384.185791015625,10953.744140625,7360.7763671875,5638.599609375,4241.46630859375,0.0,9443.759765625
5148.251953125,3762.2451171875,9641.6474609375,5357.265625,15807.947265625,5726.814453125,8324.7822265625,12592.474609375,4435.38037109375,6904.60205078125,4190.603515625,7008.71142578125,-5602.04150390625,0.0,11913.7763671875,11700.7890625,897.2485961914062,789.16552734375,3860.79150390625,5792.7763671875,3670.056640625,10468.9599609375,7461.70654296875,22060.87109375,-1124.5408935546875,711.2821044921875,4827.18115234375,12561.48046875,-5275.408203125,2121.130615234375,17506.28125,-10329.8828125,-3621.578125,2628.962158203125,9447.7333984375,11390.0498046875,5718.072265625,8865.197265625,5334.21826171875,-0.0,5800.72412109375,25924.841796875,30010.541015625,8297.7607421875,18097.55859375,12867.451171875,-1299.3812255859375,-2800.62353515625,4394.05419921875,13031.1650390625,10747.115234375,12814.2041015625,9942.849609375,917.1168212890625,-1238.9818115234375,8313.65625,0.0,4424.25390625,7656.41552734375,6447.63330078125,4728.63525390625,9853.0458984375,9871.3232421875,15878.677734375,-12568.6328125,2399.28564453125,10972.8173828125,7379.85009765625,5652.10986328125,4232.724609375,0.0,9446.14453125
5141.099609375,3767.80810546875,9671.0517578125,5358.060546875,15805.5625,5724.43017578125,8326.37109375,12589.294921875,4440.943359375,6904.60205078125,4186.63037109375,7004.73779296875,-5623.49951171875,0.0,11916.955078125,11696.021484375,897.2485961914062,787.5760498046875,3861.58642578125,5795.16064453125,3664.49365234375,10471.34375,7460.912109375,22060.87109375,-1114.20947265625,705.718994140625,4827.97607421875,12557.5068359375,-5276.203125,2110.00439453125,17505.48828125,-10341.0078125,-3618.3994140625,2636.909423828125,9444.5546875,11391.6396484375,5720.45654296875,8865.9921875,5278.58740234375,-0.0,5768.9345703125,25928.81640625,30012.92578125,8296.966796875,18101.533203125,12868.2451171875,-1265.2078857421875,-2822.081298828125,4398.82275390625,13027.19140625,10753.47265625,12810.23046875,9946.8232421875,922.679931640625,-1261.2342529296875,8314.4501953125,0.0,4411.53857421875,7662.77294921875,6455.580078125,4707.177734375,9855.4296875,9875.2978515625,15879.47265625,-12566.2490234375,2397.6962890625,10976.791015625,7392.5654296875,5665.6201171875,4225.572265625,0.0,9447.7333984375
5145.86767578125,3801.186767578125,9711.5830078125,5346.93408203125,15802.3837890625,5722.0458984375,8320.013671875,12578.169921875,4444.1220703125,6911.75439453125,4196.1669921875,7000.76416015625,-5638.599609375,0.0,11910.59765625,11687.2783203125,893.2749633789062,782.8076782226562,3858.4072265625,5798.33984375,3654.956787109375,10467.3701171875,7456.14404296875,22056.8984375,-1120.5673828125,704.1295166015625,4814.4658203125,12549.5595703125,-5277.79248046875,2117.95166015625,17499.923828125,-10343.392578125,-3633.4990234375,2632.935791015625,9441.3759765625,11385.28125,5714.0986328125,8862.0185546875,5297.66064453125,-0.0,5766.55078125,25927.224609375,30005.7734375,8292.1982421875,18096.765625,12865.06640625,-1249.3133544921875,-2824.465576171875,4408.359375,13023.216796875,10748.7041015625,12799.8994140625,9936.4921875,929.0377197265625,-1243.750244140625,8316.0400390625,0.0,4390.87548828125,7682.6416015625,6450.017578125,4696.05126953125,9849.0712890625,9872.9130859375,15883.4453125,-12570.2216796875,2394.51708984375,10970.43359375,7425.1494140625,5669.59375,4268.4873046875,0.0,9461.2431640625
5165.73583984375,3847.28125,9717.94140625,5368.3916015625,15824.63671875,5742.70849609375,8338.2919921875,12603.6005859375,4466.375,6943.5439453125,4218.41943359375,7023.0166015625,-5632.24169921875,0.0,11912.1865234375,11712.7099609375,914.7326049804688,804.2653198242188,3880.659912109375,5826.9501953125,3678.00390625,10485.6494140625,7476.01171875,22079.9453125,-1117.388427734375,727.1766357421875,4836.71826171875,12575.78515625,-5265.0771484375,2138.61474609375,17521.380859375,-10325.1142578125,-3608.06787109375,2647.240966796875,9462.0390625,11405.150390625,5732.37744140625,8885.06640625,5320.7080078125,-0.0,5792.7763671875,25946.298828125,30024.05078125,8316.0400390625,18113.455078125,12890.498046875,-1242.95556640625,-2804.59716796875,4425.84375,13048.6484375,10746.3193359375,12826.919921875,9945.2333984375,951.2901611328125,-1210.37158203125,8341.4716796875,0.0,4417.1015625,7701.71484375,6469.88525390625,4729.4296875,9869.734375,9895.9609375,15923.9765625,-12560.685546875,2420.7431640625,10968.8447265625,7441.0439453125,5683.10400390625,4305.83935546875,0.0,9512.1064453125
5172.88818359375,3872.71240234375,9712.37890625,5371.57080078125,15838.146484375,5759.39794921875,8347.8291015625,12621.0849609375,4465.580078125,6941.9541015625,4232.724609375,7036.52734375,-5625.8837890625,0.0,11914.5712890625,11728.6044921875,925.0640869140625,816.186279296875,3890.196533203125,5827.7451171875,3691.51416015625,10499.16015625,7485.54833984375,22092.66015625,-1103.083251953125,747.0448608398438,4840.69189453125,12594.0634765625,-5254.74560546875,2139.409423828125,17533.302734375,-10303.65625,-3590.583740234375,2659.161865234375,9471.576171875,11417.8662109375,5741.119140625,8896.19140625,5255.54052734375,-0.0,5795.16064453125,25965.373046875,30032.79296875,8330.3447265625,18120.607421875,12899.2392578125,-1245.3397216796875,-2810.955078125,4436.9697265625,13066.927734375,10750.2939453125,12843.6083984375,9960.333984375,972.747802734375,-1203.2191162109375,8357.365234375,0.0,4440.943359375,7699.33056640625,6478.62744140625,4750.0927734375,9880.06640625,9901.5234375,15919.208984375,-12549.5595703125,2435.84326171875,10972.8173828125,7417.2021484375,5674.3623046875,4281.20263671875,0.0,9483.4970703125
5144.27783203125,3860.79150390625,9688.537109375,5362.03369140625,15802.3837890625,5736.35107421875,8317.6298828125,12594.859375,4431.40673828125,6891.091796875,4208.087890625,7020.63232421875,-5629.0625,0.0,11903.4453125,11701.583984375,906.7853393554688,792.3444213867188,3845.691650390625,5784.03466796875,3666.877685546875,10473.728515625,7458.52783203125,22067.228515625,-1122.15673828125,724.79248046875,4800.955078125,12571.8115234375,-5262.69287109375,2126.69384765625,17509.4609375,-10325.1142578125,-3607.273193359375,2638.4990234375,9446.14453125,11393.2294921875,5714.0986328125,8868.376953125,5222.16162109375,-0.0,5769.7294921875,25939.146484375,30000.208984375,8304.9130859375,18088.818359375,12863.4765625,-1275.5394287109375,-2808.57080078125,4390.0810546875,13043.0859375,10739.1669921875,12816.5888671875,9945.2333984375,959.2374267578125,-1220.703125,8336.703125,0.0,4403.59130859375,7674.69384765625,6442.06982421875,4711.94580078125,9855.4296875,9868.939453125,15857.2197265625,-12560.685546875,2417.564453125,10963.2802734375,7363.955078125,5663.236328125,4205.70361328125,0.0,9381.771484375
5207.8564453125,3873.50732421875,9744.1669921875,5385.0810546875,15822.251953125,5749.06689453125,8339.8818359375,12610.7529296875,4448.890625,6907.78125,4218.41943359375,7042.08984375,-5617.9365234375,0.0,11916.955078125,11717.478515625,923.474609375,809.8284301757812,3848.075927734375,5799.92919921875,3681.182861328125,10489.623046875,7478.39599609375,22084.712890625,-1107.0570068359375,732.73974609375,4831.1552734375,12588.5009765625,-5247.5927734375,2155.303955078125,17526.9453125,-10307.6298828125,-3599.325927734375,2655.188232421875,9465.2177734375,11409.9189453125,5735.55615234375,8886.6552734375,5342.96044921875,-0.0,5788.00830078125,25945.505859375,30022.462890625,8322.3984375,18110.275390625,12880.166015625,-1266.79736328125,-2751.350341796875,4416.30712890625,13058.185546875,10755.0625,12831.6875,9976.2275390625,970.3636474609375,-1209.576904296875,8347.8291015625,0.0,4394.84912109375,7685.02587890625,6453.99072265625,4736.58251953125,9873.7080078125,9887.21875,15876.29296875,-12541.611328125,2431.074951171875,10978.380859375,7381.439453125,5682.3095703125,4232.724609375,0.0,9399.2548828125
5246.7978515625,3874.302001953125,9766.4189453125,5419.25439453125,15847.6826171875,5782.4453125,8366.1083984375,12638.5693359375,4478.2958984375,6941.9541015625,4241.46630859375,7060.369140625,-5624.29443359375,0.0,11939.2080078125,11746.8837890625,940.1639404296875,833.6702880859375,3875.891357421875,5832.51318359375,3698.666748046875,10515.0537109375,7504.6220703125,22110.14453125,-1083.215087890625,762.939453125,4858.970703125,12623.4697265625,-5238.85107421875,2182.32470703125,17547.607421875,-10292.5302734375,-3588.994384765625,2679.0302734375,9488.2646484375,11437.7333984375,5760.98779296875,8912.880859375,5371.57080078125,-0.0,5811.85009765625,25980.47265625,30049.482421875,8352.59765625,18138.08984375,12908.7763671875,-1253.2869873046875,-2738.634765625,4453.6591796875,13093.154296875,10775.7255859375,12859.50390625,10002.4541015625,954.4690551757812,-1196.0665283203125,8371.6708984375,0.0,4390.0810546875,7712.04638671875,6484.9853515625,4769.16650390625,9898.3447265625,9915.0341796875,15919.208984375,-12525.7177734375,2450.94287109375,10999.8388671875,7381.439453125,5699.79345703125,4253.3876953125,0.0,9466.8076171875
5218.98291015625,3851.254638671875,9716.3515625,5438.32763671875,15852.451171875,5797.544921875,8372.4658203125,12664.794921875,4487.83251953125,6953.875,4241.46630859375,7057.18994140625,-5627.47314453125,0.0,11944.7705078125,11775.4931640625,941.75341796875,840.0281372070312,3883.838623046875,5845.228515625,3705.024658203125,10523.7958984375,7510.18505859375,22120.4765625,-1084.009765625,770.88671875,4861.35498046875,12646.515625,-5242.82470703125,2176.76171875,17554.759765625,-10303.65625,-3582.636474609375,2691.745849609375,9493.828125,11446.4755859375,5766.55078125,8924.8017578125,5334.21826171875,-0.0,5819.79736328125,25997.162109375,30054.25,8366.90234375,18143.654296875,12923.876953125,-1248.5185546875,-2752.93994140625,4456.837890625,13109.8427734375,10780.494140625,12888.1142578125,9996.890625,928.2429809570312,-1192.8876953125,8375.64453125,0.0,4413.9228515625,7721.5830078125,6519.15869140625,4766.7822265625,9903.908203125,9923.775390625,15932.71875,-12530.486328125,2449.353515625,11003.017578125,7336.9345703125,5720.45654296875,4228.75048828125,0.0,9493.828125
5156.99365234375,3826.6181640625,9705.2255859375,5416.8701171875,15848.478515625,5778.4716796875,8364.5185546875,12656.84765625,4475.11669921875,6955.46484375,4232.724609375,7040.50048828125,-5609.9892578125,0.0,11927.287109375,11766.7509765625,933.8060913085938,831.2861328125,3873.50732421875,5839.666015625,3699.461669921875,10510.28515625,7502.23779296875,22109.349609375,-1082.42041015625,755.786865234375,4858.970703125,12625.05859375,-5251.56640625,2165.63525390625,17544.427734375,-10311.603515625,-3588.19970703125,2679.82470703125,9487.4697265625,11432.1708984375,5760.19287109375,8915.2646484375,5321.5029296875,-0.0,5815.82421875,25977.29296875,30051.072265625,8349.4189453125,18136.501953125,12915.9287109375,-1246.92919921875,-2789.497314453125,4452.06982421875,13083.6171875,10765.3935546875,12879.3720703125,9969.8701171875,921.0904541015625,-1199.2454833984375,8355.7763671875,0.0,4490.216796875,7683.43603515625,6504.853515625,4750.0927734375,9895.9609375,9917.4189453125,15927.9501953125,-12534.458984375,2433.458984375,10987.1220703125,7356.80224609375,5700.58837890625,4253.3876953125,0.0,9502.5703125
5139.509765625,3810.7236328125,9759.2666015625,5412.1015625,15861.1923828125,5776.08740234375,8377.234375,12659.232421875,4487.03759765625,6983.2802734375,4227.9560546875,7038.9111328125,-5600.45263671875,0.0,11930.4658203125,11770.7255859375,942.548095703125,839.2333984375,3884.63330078125,5863.5078125,3715.356201171875,10516.6435546875,7512.5693359375,22114.912109375,-1073.6783447265625,755.786865234375,4873.27587890625,12615.521484375,-5247.5927734375,2170.40380859375,17553.171875,-10310.8095703125,-3561.9736328125,2681.414306640625,9500.185546875,11438.529296875,5772.11376953125,8923.212890625,5274.61376953125,-0.0,5835.69189453125,25978.8828125,30062.994140625,8351.802734375,18152.39453125,12935.001953125,-1267.592041015625,-2830.8232421875,4465.580078125,13080.4375,10769.3671875,12883.345703125,9944.4384765625,952.8795776367188,-1204.0137939453125,8352.59765625,0.0,4524.3896484375,7695.35693359375,6532.6689453125,4745.32470703125,9905.4970703125,9931.7236328125,15964.5078125,-12537.638671875,2434.253662109375,10990.3017578125,7443.42822265625,5689.46240234375,4335.24462890625,0.0,9576.4794921875
5176.0673828125,3833.770751953125,9768.0087890625,5412.896484375,15880.2666015625,5789.59814453125,8388.3603515625,12663.205078125,4500.5478515625,6995.201171875,4232.724609375,7050.03759765625,-5588.53125,0.0,11953.5126953125,11771.51953125,956.0584716796875,852.7437744140625,3894.170166015625,5874.6337890625,3729.6611328125,10530.154296875,7523.6953125,22126.83203125,-1080.0361328125,769.2973022460938,4862.9443359375,12622.673828125,-5242.82470703125,2176.76171875,17565.884765625,-10294.9140625,-3548.463134765625,2694.924560546875,9513.6953125,11451.244140625,5778.4716796875,8931.9541015625,5287.3291015625,-0.0,5865.09716796875,25996.3671875,30071.736328125,8362.1337890625,18161.931640625,12943.7451171875,-1246.92919921875,-2795.060302734375,4472.732421875,13094.7431640625,10790.0302734375,12884.1396484375,9919.0068359375,966.3899536132812,-1201.629638671875,8357.365234375,0.0,4514.85302734375,7737.4775390625,6537.4375,4757.24560546875,9915.8291015625,9941.2607421875,15967.6875,-12537.638671875,2442.200927734375,11013.3486328125,7453.759765625,5708.53564453125,4364.6494140625,0.0,9588.400390625
5151.4306640625,3798.008056640625,9716.3515625,5381.90234375,15832.58203125,5744.29833984375,8335.908203125,12593.26953125,4441.73828125,6907.78125,4190.603515625,7018.248046875,-5594.0947265625,0.0,11918.544921875,11699.994140625,919.5009765625,810.6231689453125,3841.718017578125,5794.3662109375,3685.951171875,10490.41796875,7476.01171875,22077.560546875,-1126.9251708984375,727.9713745117188,4807.3134765625,12569.427734375,-5266.66650390625,2132.2568359375,17526.150390625,-10329.0869140625,-3591.37841796875,2668.698486328125,9468.396484375,11405.9453125,5728.40380859375,8877.9130859375,5291.30322265625,-0.0,5808.67138671875,25951.86328125,30024.05078125,8306.5029296875,18106.302734375,12871.4248046875,-1281.1025390625,-2784.72900390625,4437.7646484375,13046.2646484375,10752.677734375,12814.2041015625,9915.8291015625,902.0169677734375,-1235.00830078125,8316.833984375,0.0,4431.40673828125,7686.615234375,6442.86474609375,4711.94580078125,9868.14453125,9881.6552734375,15847.6826171875,-12570.2216796875,2404.848876953125,10977.5859375,7397.33349609375,5676.74658203125,4241.46630859375,0.0,9408.7919921875
5113.28369140625,3774.960693359375,9696.4833984375,5392.2333984375,15830.1982421875,5730.78759765625,8329.55078125,12573.4013671875,4438.55908203125,6893.47607421875,4185.041015625,7019.04296875,-5604.42578125,0.0,11914.5712890625,11679.33203125,914.7326049804688,803.4705810546875,3834.5654296875,5786.4189453125,3682.7724609375,10479.291015625,7468.859375,22067.228515625,-1126.9251708984375,714.4609985351562,4811.287109375,12551.943359375,-5268.255859375,2126.69384765625,17518.998046875,-10321.9345703125,-3591.37841796875,2659.161865234375,9461.2431640625,11396.408203125,5725.22509765625,8865.9921875,5216.5986328125,-0.0,5811.85009765625,25931.19921875,30016.8984375,8292.9921875,18101.533203125,12859.50390625,-1275.5394287109375,-2756.913330078125,4439.35400390625,13029.5751953125,10748.7041015625,12796.7197265625,9916.623046875,895.6591186523438,-1242.1607666015625,8325.5771484375,0.0,4389.2861328125,7678.66748046875,6423.79150390625,4710.3564453125,9861.787109375,9872.9130859375,15846.09375,-12567.837890625,2401.669677734375,10973.6123046875,7414.81787109375,5675.95166015625,4230.34033203125,0.0,9383.361328125
5124.41015625,3821.849853515625,9733.8359375,5390.64404296875,15834.1728515625,5735.55615234375,8344.650390625,12578.169921875,4449.685546875,6895.8603515625,4221.59814453125,7030.9638671875,-5599.65771484375,0.0,11922.5185546875,11685.689453125,926.653564453125,813.00732421875,3845.691650390625,5796.75048828125,3684.36181640625,10484.8544921875,7479.98583984375,22075.17578125,-1091.95703125,720.0241088867188,4841.486328125,12555.1220703125,-5246.00341796875,2137.025146484375,17527.73828125,-10293.32421875,-3590.583740234375,2655.188232421875,9466.8076171875,11405.9453125,5739.5302734375,8875.529296875,5358.060546875,-0.0,5791.1875,25933.583984375,30028.025390625,8300.9404296875,18115.83984375,12865.06640625,-1239.776611328125,-2740.22412109375,4440.14892578125,13033.548828125,10758.240234375,12799.8994140625,9959.5380859375,928.2429809570312,-1208.7822265625,8339.087890625,0.0,4374.98095703125,7688.9990234375,6427.7646484375,4733.40380859375,9872.119140625,9884.0400390625,15865.16796875,-12536.84375,2415.974853515625,10983.1494140625,7398.92333984375,5692.640625,4200.935546875,0.0,9377.796875
5185.60400390625,3844.89697265625,9748.935546875,5451.837890625,15856.4248046875,5766.55078125,8373.2607421875,12619.4951171875,4475.91162109375,6935.5966796875,4252.5927734375,7047.6533203125,-5597.2734375,0.0,11940.796875,11727.8095703125,946.521728515625,837.6439208984375,3875.891357421875,5829.33447265625,3705.024658203125,10511.875,7507.00634765625,22104.58203125,-1063.346923828125,753.4027099609375,4886.7861328125,12594.0634765625,-5233.28759765625,2171.198486328125,17550.787109375,-10277.4306640625,-3583.43115234375,2680.619384765625,9490.6494140625,11434.5546875,5769.7294921875,8909.7021484375,5389.0546875,-0.0,5809.4658203125,25970.935546875,30057.4296875,8334.3193359375,18143.654296875,12900.03515625,-1212.755859375,-2746.58203125,4463.19580078125,13065.337890625,10778.904296875,12841.224609375,10007.22265625,933.0113525390625,-1173.0194091796875,8347.8291015625,0.0,4409.154296875,7709.662109375,6473.064453125,4753.271484375,9899.93359375,9914.2392578125,15904.9033203125,-12516.1806640625,2431.074951171875,11001.427734375,7414.02294921875,5706.1513671875,4231.9296875,0.0,9438.197265625
5211.03515625,3817.08154296875,9717.94140625,5446.275390625,15846.8876953125,5771.31884765625,8362.1337890625,12630.6220703125,4465.580078125,6936.39111328125,4248.619140625,7023.8115234375,-5614.75732421875,0.0,11936.82421875,11739.73046875,938.574462890625,831.2861328125,3870.328125,5822.181640625,3697.8720703125,10515.0537109375,7498.26416015625,22101.40234375,-1081.6256103515625,758.1710815429688,4865.328125,12609.958984375,-5249.18212890625,2167.224853515625,17544.427734375,-10304.451171875,-3599.325927734375,2692.54052734375,9484.291015625,11432.1708984375,5757.013671875,8908.908203125,5377.1337890625,-0.0,5811.85009765625,25979.677734375,30044.71484375,8339.087890625,18132.52734375,12901.6240234375,-1215.934814453125,-2791.881591796875,4449.685546875,13067.72265625,10772.5458984375,12851.5556640625,10003.2490234375,917.1168212890625,-1186.52978515625,8341.4716796875,0.0,4415.51220703125,7702.50927734375,6486.57470703125,4746.119140625,9894.37109375,9909.470703125,15901.7236328125,-12529.6904296875,2421.5380859375,10998.2490234375,7399.7177734375,5679.92529296875,4226.36669921875,0.0,9450.1181640625
5224.5458984375,3800.39208984375,9711.5830078125,5400.1806640625,15846.09375,5774.498046875,8363.7236328125,12634.5947265625,4474.32177734375,6953.08056640625,4249.4140625,7024.6064453125,-5607.60498046875,0.0,11937.6181640625,11741.3203125,934.600830078125,832.8755493164062,3874.302001953125,5835.69189453125,3699.461669921875,10513.46484375,7499.05908203125,22105.375,-1071.294189453125,754.1974487304688,4844.66552734375,12611.548828125,-5245.208984375,2165.63525390625,17543.634765625,-10313.193359375,-3595.35205078125,2688.56689453125,9486.6748046875,11432.96484375,5758.603515625,8909.7021484375,5366.80224609375,-0.0,5818.2080078125,25975.705078125,30040.740234375,8343.85546875,18137.296875,12910.3662109375,-1230.2398681640625,-2789.497314453125,4448.095703125,13074.875,10774.1357421875,12857.119140625,9996.890625,935.3955688476562,-1188.1192626953125,8354.9814453125,0.0,4419.4853515625,7697.7412109375,6499.29052734375,4745.32470703125,9896.7548828125,9917.4189453125,15931.9248046875,-12528.896484375,2427.895751953125,10997.455078125,7413.228515625,5693.435546875,4271.666015625,0.0,9490.6494140625
5214.21435546875,3798.008056640625,9734.630859375,5367.59716796875,15837.3505859375,5760.98779296875,8358.1611328125,12621.8798828125,4469.5537109375,6949.9013671875,4243.8505859375,7031.7587890625,-5601.2470703125,0.0,11930.4658203125,11731.7841796875,921.8851928710938,822.5440673828125,3865.559814453125,5832.51318359375,3688.33544921875,10497.5703125,7491.11181640625,22095.044921875,-1076.0625,741.4818115234375,4845.46044921875,12588.5009765625,-5242.02978515625,2152.125,17531.712890625,-10319.55078125,-3599.325927734375,2652.80419921875,9477.138671875,11421.0439453125,5753.8349609375,8900.9599609375,5346.93408203125,-0.0,5799.92919921875,25956.630859375,30035.177734375,8330.3447265625,18132.52734375,12904.8037109375,-1234.2135009765625,-2765.655517578125,4438.55908203125,13063.748046875,10766.9833984375,12845.9931640625,9985.7646484375,946.521728515625,-1188.1192626953125,8351.0087890625,0.0,4432.201171875,7690.58837890625,6492.9326171875,4731.81396484375,9888.80859375,9911.060546875,15924.7724609375,-12530.486328125,2421.5380859375,10988.7119140625,7429.123046875,5689.46240234375,4289.9453125,0.0,9485.880859375
5189.57763671875,3797.21337890625,9712.37890625,5362.82861328125,15830.1982421875,5748.27197265625,8349.4189453125,12624.263671875,4458.42724609375,6954.669921875,4231.9296875,7030.9638671875,-5606.81005859375,0.0,11919.3388671875,11732.578125,909.9642333984375,813.00732421875,3856.81787109375,5827.7451171875,3678.798583984375,10486.443359375,7483.16455078125,22083.91796875,-1095.9306640625,725.5872192382812,4843.076171875,12583.732421875,-5259.513671875,2128.283203125,17521.380859375,-10327.498046875,-3613.631103515625,2644.856689453125,9468.396484375,11407.5341796875,5745.8876953125,8895.3974609375,5345.3447265625,-0.0,5787.2138671875,25936.76171875,30028.8203125,8320.80859375,18122.9921875,12903.2138671875,-1246.92919921875,-2759.297607421875,4428.22802734375,13055.0068359375,10755.0625,12849.171875,9972.2548828125,936.9849853515625,-1201.629638671875,8351.0087890625,0.0,4475.91162109375,7675.48876953125,6500.08544921875,4726.2509765625,9878.4765625,9903.11328125,15906.4921875,-12544.791015625,2411.20654296875,10978.380859375,7442.63330078125,5668.00439453125,4340.01318359375,0.0,9518.4638671875
5207.8564453125,3836.155029296875,9730.65625,5401.77001953125,15854.0400390625,5768.14013671875,8369.2861328125,12649.6953125,4479.09033203125,6961.822265625,4251.00341796875,7053.21630859375,-5588.53125,0.0,11943.1806640625,11757.21484375,935.3955688476562,833.6702880859375,3877.480712890625,5836.48681640625,3702.640625,10508.6962890625,7503.82763671875,22106.169921875,-1078.44677734375,739.892333984375,4862.9443359375,12605.984375,-5236.466796875,2144.177734375,17545.22265625,-10304.451171875,-3588.994384765625,2671.082763671875,9492.23828125,11430.5810546875,5764.96142578125,8917.6494140625,5358.060546875,-0.0,5815.029296875,25956.630859375,30051.8671875,8342.265625,18140.474609375,12919.90234375,-1223.882080078125,-2741.813720703125,4457.63232421875,13073.28515625,10778.904296875,12873.80859375,9996.890625,959.2374267578125,-1183.3509521484375,8367.697265625,0.0,4504.52197265625,7713.6357421875,6528.69580078125,4757.24560546875,9900.7294921875,9922.9814453125,15910.466796875,-12523.333984375,2428.690673828125,11000.6328125,7456.14404296875,5697.4091796875,4309.0185546875,0.0,9484.291015625
5192.7568359375,3844.10205078125,9748.1416015625,5395.41259765625,15844.5029296875,5753.8349609375,8355.7763671875,12617.111328125,4462.40087890625,6918.1123046875,4241.46630859375,7043.6796875,-5611.57861328125,0.0,11932.849609375,11724.630859375,931.4219360351562,825.7230224609375,3860.79150390625,5803.9033203125,3697.8720703125,10502.3388671875,7492.701171875,22091.865234375,-1088.7781982421875,728.76611328125,4838.3076171875,12582.142578125,-5249.97705078125,2139.409423828125,17536.482421875,-10313.9873046875,-3586.610107421875,2666.314453125,9483.4970703125,11421.0439453125,5749.06689453125,8896.9873046875,5317.529296875,-0.0,5815.029296875,25948.68359375,30037.560546875,8323.9873046875,18122.9921875,12888.1142578125,-1230.2398681640625,-2758.5029296875,4450.47998046875,13054.2119140625,10767.77734375,12838.8408203125,9981.791015625,962.4163208007812,-1192.0928955078125,8350.212890625,0.0,4457.63232421875,7700.125,6472.26953125,4743.73486328125,9888.0126953125,9901.5234375,15859.603515625,-12528.1015625,2419.15380859375,10989.5068359375,7409.25439453125,5689.46240234375,4216.03515625,0.0,9376.2080078125
5191.16748046875,3863.175537109375,9748.935546875,5390.64404296875,15851.65625,5759.39794921875,8366.1083984375,12607.57421875,4473.52734375,6917.31787109375,4247.82421875,7046.8583984375,-5606.81005859375,0.0,11948.7451171875,11715.888671875,940.1639404296875,834.4650268554688,3865.559814453125,5813.43994140625,3707.408935546875,10510.28515625,7502.23779296875,22095.837890625,-1080.0361328125,735.1239624023438,4852.61279296875,12580.5537109375,-5245.208984375,2146.561767578125,17548.40234375,-10304.451171875,-3571.51025390625,2673.467041015625,9491.443359375,11426.6083984375,5760.98779296875,8901.7548828125,5321.5029296875,-0.0,5815.82421875,25958.21875,30045.509765625,8324.7822265625,18137.296875,12888.1142578125,-1226.2662353515625,-2765.655517578125,4456.837890625,13057.3916015625,10782.8779296875,12829.3037109375,9979.4072265625,973.5425415039062,-1186.52978515625,8353.392578125,0.0,4440.943359375,7713.6357421875,6448.427734375,4733.40380859375,9897.5498046875,9907.8818359375,15869.140625,-12522.5380859375,2426.306396484375,11006.1962890625,7405.28125,5708.53564453125,4223.982421875,0.0,9378.5927734375
5162.55712890625,3839.333740234375,9696.4833984375,5375.5439453125,15827.814453125,5739.5302734375,8343.85546875,12593.26953125,4462.40087890625,6899.03857421875,4216.82958984375,7019.04296875,-5629.0625,0.0,11932.849609375,11701.583984375,916.3220825195312,809.03369140625,3845.691650390625,5798.33984375,3684.36181640625,10486.443359375,7480.7802734375,22073.587890625,-1099.9044189453125,715.2557373046875,4829.5654296875,12566.2490234375,-5269.05078125,2134.640869140625,17526.150390625,-10333.0615234375,-3596.146728515625,2659.161865234375,9468.396484375,11404.35546875,5737.14599609375,8882.681640625,5277.79248046875,-0.0,5802.3134765625,25938.353515625,30021.66796875,8306.5029296875,18116.6328125,12871.4248046875,-1278.7183837890625,-2802.212890625,4430.6123046875,13039.1123046875,10769.3671875,12815.79296875,9953.9755859375,948.1112060546875,-1216.7294921875,8329.55078125,0.0,4431.40673828125,7717.609375,6446.04345703125,4707.97216796875,9873.7080078125,9888.80859375,15858.80859375,-12552.73828125,2404.053955078125,10993.48046875,7376.6708984375,5716.482421875,4186.63037109375,0.0,9377.796875
5165.73583984375,3818.6708984375,9642.44140625,5352.4970703125,15815.099609375,5732.37744140625,8335.11328125,12594.859375,4451.27490234375,6906.19140625,4200.935546875,7007.1220703125,-5636.21533203125,0.0,11922.5185546875,11702.3779296875,908.374755859375,801.08642578125,3839.333740234375,5792.7763671875,3679.59326171875,10479.291015625,7472.0380859375,22069.61328125,-1111.030517578125,707.3084716796875,4819.234375,12564.6591796875,-5280.9716796875,2118.74658203125,17518.201171875,-10330.6767578125,-3606.478515625,2643.267333984375,9462.0390625,11400.3818359375,5727.609375,8876.3232421875,5203.8828125,-0.0,5793.5712890625,25930.404296875,30010.541015625,8303.32421875,18105.5078125,12871.4248046875,-1292.228759765625,-2818.90234375,4411.53857421875,13033.548828125,10758.240234375,12818.1767578125,9941.2607421875,931.4219360351562,-1242.1607666015625,8323.1923828125,0.0,4419.4853515625,7699.33056640625,6454.78564453125,4714.330078125,9867.3505859375,9882.4501953125,15860.3994140625,-12566.2490234375,2392.133056640625,10982.3544921875,7380.64453125,5695.81982421875,4223.18798828125,0.0,9393.6923828125
5161.76220703125,3785.29248046875,9722.7099609375,5346.93408203125,15809.5361328125,5733.171875,8332.7294921875,12590.884765625,4439.35400390625,6910.16552734375,4208.8828125,7000.76416015625,-5625.08935546875,0.0,11916.16015625,11698.4052734375,907.580078125,801.08642578125,3840.128662109375,5790.392578125,3676.41455078125,10480.880859375,7469.654296875,22070.408203125,-1104.6727294921875,708.8978881835938,4820.82373046875,12559.0966796875,-5276.998046875,2113.97802734375,17516.61328125,-10335.4453125,-3596.146728515625,2635.320068359375,9458.859375,11400.3818359375,5726.814453125,8875.529296875,5264.2822265625,-0.0,5786.4189453125,25939.94140625,30010.541015625,8301.7353515625,18102.328125,12869.0400390625,-1257.2606201171875,-2857.04931640625,4402.79638671875,13031.1650390625,10752.677734375,12814.2041015625,9953.181640625,920.2957153320312,-1249.3133544921875,8322.3984375,0.0,4388.4912109375,7672.31005859375,6444.4541015625,4719.89306640625,9868.14453125,9880.8603515625,15869.935546875,-12563.8642578125,2389.748779296875,10975.9970703125,7398.92333984375,5656.8779296875,4247.82421875,0.0,9415.9443359375
5158.5830078125,3758.271484375,9702.046875,5369.1865234375,15808.740234375,5734.76171875,8329.55078125,12591.6796875,4426.63818359375,6909.37060546875,4208.087890625,7001.55859375,-5629.0625,0.0,11903.4453125,11699.19921875,904.401123046875,799.4969482421875,3836.94970703125,5784.82958984375,3670.056640625,10483.2646484375,7468.06494140625,22069.61328125,-1110.23583984375,710.4873657226562,4820.02880859375,12560.685546875,-5276.203125,2117.95166015625,17514.228515625,-10335.4453125,-3612.836181640625,2643.267333984375,9454.88671875,11399.5869140625,5724.43017578125,8876.3232421875,5294.48193359375,-0.0,5784.03466796875,25943.12109375,30010.541015625,8301.7353515625,18095.173828125,12868.2451171875,-1262.029052734375,-2845.923095703125,4414.71728515625,13032.75390625,10741.5517578125,12814.9990234375,9942.849609375,909.9642333984375,-1253.2869873046875,8323.9873046875,0.0,4395.6435546875,7654.82568359375,6449.22265625,4725.4560546875,9865.7607421875,9876.8876953125,15863.5771484375,-12563.0693359375,2392.133056640625,10964.076171875,7406.87060546875,5630.65185546875,4248.619140625,0.0,9431.044921875
5127.5888671875,3761.450439453125,9732.24609375,5383.49169921875,15810.3310546875,5733.966796875,8327.9609375,12601.216796875,4429.0224609375,6917.31787109375,4203.3193359375,7001.55859375,-5646.546875,0.0,11898.6767578125,11710.326171875,905.9906005859375,800.2916870117188,3837.744384765625,5791.98193359375,3669.261962890625,10482.470703125,7467.27001953125,22070.408203125,-1115.7989501953125,708.8978881835938,4813.6708984375,12567.837890625,-5284.94482421875,2109.209716796875,17514.228515625,-10334.6513671875,-3608.862548828125,2651.214599609375,9454.0908203125,11398.7919921875,5724.43017578125,8877.9130859375,5261.89794921875,-0.0,5780.06103515625,25939.146484375,30009.74609375,8305.708984375,18097.55859375,12877.7822265625,-1263.618408203125,-2809.365478515625,4426.63818359375,13031.9599609375,10735.1943359375,12826.125,9936.4921875,904.401123046875,-1231.829345703125,8314.4501953125,0.0,4410.74365234375,7655.62060546875,6465.912109375,4709.56201171875,9867.3505859375,9881.6552734375,15874.7041015625,-12560.685546875,2387.36474609375,10958.5126953125,7375.8759765625,5637.01025390625,4254.9765625,0.0,9465.2177734375
5118.8466796875,3754.2978515625,9734.630859375,5403.35986328125,15827.0205078125,5757.013671875,8345.4443359375,12637.7744140625,4450.47998046875,6939.56982421875,4220.0087890625,7023.8115234375,-5629.857421875,0.0,11910.59765625,11747.677734375,924.2693481445312,813.00732421875,3856.81787109375,5811.85009765625,3685.156494140625,10499.9541015625,7485.54833984375,22091.0703125,-1103.083251953125,732.73974609375,4835.923828125,12606.7802734375,-5271.4345703125,2137.820068359375,17530.91796875,-10317.9619140625,-3598.531005859375,2676.64599609375,9469.986328125,11414.6875,5738.7353515625,8900.9599609375,5299.25,-0.0,5796.75048828125,25957.42578125,30022.462890625,8332.7294921875,18112.66015625,12900.8291015625,-1249.3133544921875,-2777.576416015625,4439.35400390625,13058.185546875,10746.3193359375,12861.0927734375,9970.6650390625,918.7062377929688,-1196.861328125,8338.2919921875,0.0,4448.095703125,7672.31005859375,6500.8798828125,4712.740234375,9884.833984375,9900.7294921875,15896.162109375,-12544.791015625,2405.6435546875,10968.048828125,7332.96044921875,5663.236328125,4247.82421875,0.0,9478.728515625
5160.96728515625,3782.908203125,9733.041015625,5464.5537109375,15842.119140625,5772.90869140625,8359.75,12647.3115234375,4460.0166015625,6932.41748046875,4234.31396484375,7043.6796875,-5606.81005859375,0.0,11927.287109375,11757.21484375,942.548095703125,830.4913940429688,3871.123046875,5811.0556640625,3702.640625,10520.6171875,7499.05908203125,22104.58203125,-1087.188720703125,754.1974487304688,4839.89697265625,12622.673828125,-5249.18212890625,2163.251220703125,17549.9921875,-10304.451171875,-3580.25244140625,2709.229736328125,9487.4697265625,11432.1708984375,5753.04052734375,8912.880859375,5349.31787109375,-0.0,5816.61865234375,25977.29296875,30036.767578125,8346.240234375,18124.580078125,12902.4189453125,-1234.2135009765625,-2766.4501953125,4444.1220703125,13077.2587890625,10761.419921875,12870.62890625,9976.2275390625,920.2957153320312,-1189.708740234375,8359.75,0.0,4479.09033203125,7680.25732421875,6482.60107421875,4723.86669921875,9899.1396484375,9908.67578125,15879.47265625,-12527.306640625,2423.92236328125,10983.1494140625,7286.86669921875,5677.541015625,4215.240234375,0.0,9429.455078125
5189.57763671875,3832.18115234375,9740.98828125,5431.97021484375,15845.298828125,5786.4189453125,8370.08203125,12663.205078125,4473.52734375,6935.5966796875,4240.671875,7051.62646484375,-5594.0947265625,0.0,11942.38671875,11773.109375,948.1112060546875,843.20703125,3879.864990234375,5819.00244140625,3712.17724609375,10525.3857421875,7507.00634765625,22115.70703125,-1080.0361328125,765.3236083984375,4850.22900390625,12636.9794921875,-5238.85107421875,2187.887939453125,17559.529296875,-10290.1455078125,-3566.741943359375,2694.1298828125,9495.41796875,11442.501953125,5764.16650390625,8924.8017578125,5334.21826171875,-0.0,5824.56591796875,25988.419921875,30043.125,8358.1611328125,18135.705078125,12915.134765625,-1223.0872802734375,-2763.271240234375,4430.6123046875,13093.9482421875,10775.7255859375,12886.5244140625,9992.9169921875,920.2957153320312,-1207.1927490234375,8374.8505859375,0.0,4503.72705078125,7704.8935546875,6502.4697265625,4734.9931640625,9910.265625,9919.0068359375,15885.830078125,-12520.94921875,2433.458984375,10999.0439453125,7321.83447265625,5695.02490234375,4219.2138671875,0.0,9427.865234375
5160.96728515625,3797.21337890625,9729.8623046875,5393.0283203125,15842.9150390625,5764.96142578125,8363.7236328125,12623.4697265625,4468.75927734375,6930.828125,4239.08251953125,7030.9638671875,-5600.45263671875,0.0,11938.4130859375,11729.3994140625,937.7797241210938,832.080810546875,3867.944091796875,5816.61865234375,3705.024658203125,10511.0810546875,7499.853515625,22100.607421875,-1083.215087890625,743.865966796875,4856.58642578125,12597.2431640625,-5253.15625,2139.409423828125,17552.375,-10296.50390625,-3577.0732421875,2664.72509765625,9489.0595703125,11430.5810546875,5757.013671875,8907.318359375,5327.8603515625,-0.0,5824.56591796875,25970.140625,30043.125,8331.9345703125,18132.52734375,12898.4453125,-1240.5714111328125,-2783.139404296875,4448.890625,13065.337890625,10774.1357421875,12845.1982421875,9982.5859375,905.9906005859375,-1204.80859375,8338.2919921875,0.0,4364.6494140625,7696.15185546875,6480.216796875,4728.63525390625,9899.93359375,9912.650390625,15900.134765625,-12530.486328125,2415.18017578125,10995.0703125,7424.3544921875,5688.66748046875,4254.18212890625,0.0,9441.3759765625
5168.1201171875,3778.9345703125,9758.47265625,5404.154296875,15846.8876953125,5764.96142578125,8362.1337890625,12615.521484375,4473.52734375,6945.92822265625,4239.87744140625,7026.1953125,-5603.63134765625,0.0,11932.849609375,11723.0419921875,941.75341796875,832.8755493164062,3868.73876953125,5825.36083984375,3706.6142578125,10513.46484375,7500.6484375,22099.017578125,-1086.3939208984375,747.0448608398438,4855.79150390625,12584.52734375,-5254.74560546875,2121.130615234375,17554.759765625,-10304.451171875,-3569.9208984375,2681.414306640625,9489.853515625,11430.5810546875,5757.013671875,8906.5234375,5345.3447265625,-0.0,5822.9765625,25969.34765625,30045.509765625,8328.755859375,18134.912109375,12901.6240234375,-1254.081787109375,-2780.75537109375,4456.04345703125,13062.1591796875,10769.3671875,12838.0458984375,9972.2548828125,917.9114990234375,-1188.1192626953125,8336.703125,0.0,4363.06005859375,7705.6884765625,6481.80615234375,4732.60888671875,9899.93359375,9915.8291015625,15907.287109375,-12533.6650390625,2414.385498046875,10990.3017578125,7466.47509765625,5685.48828125,4304.25,0.0,9476.34375
5189.57763671875,3842.512939453125,9728.2724609375,5397.796875,15834.966796875,5753.8349609375,8349.4189453125,12611.548828125,4456.04345703125,6931.623046875,4230.34033203125,7018.248046875,-5614.75732421875,0.0,11917.75,11719.86328125,928.2429809570312,822.5440673828125,3856.81787109375,5810.2607421875,3697.077392578125,10503.927734375,7487.9326171875,22088.685546875,-1099.109619140625,740.6870727539062,4833.53955078125,12575.78515625,-5257.1298828125,2122.719970703125,17542.04296875,-10317.9619140625,-3584.225830078125,2670.2880859375,9478.728515625,11420.25,5745.0927734375,8895.3974609375,5319.91357421875,-0.0,5814.234375,25960.603515625,30029.615234375,8320.013671875,18119.8125,12888.908203125,-1262.82373046875,-2802.212890625,4436.9697265625,13059.775390625,10755.8564453125,12834.072265625,9979.4072265625,930.627197265625,-1196.0665283203125,8343.060546875,0.0,4402.001953125,7681.0517578125,6465.912109375,4742.9404296875,9887.21875,9900.7294921875,15881.8564453125,-12545.5859375,2405.6435546875,10980.765625,7414.02294921875,5672.77294921875,4272.4609375,0.0,9456.4755859375
5169.70947265625,3841.718017578125,9684.5625,5378.72314453125,15824.63671875,5737.14599609375,8341.4716796875,12602.8056640625,4448.890625,6917.31787109375,4217.62451171875,7011.095703125,-5624.29443359375,0.0,11922.5185546875,11711.12109375,909.1694946289062,809.03369140625,3846.486328125,5798.33984375,3681.9775390625,10486.443359375,7478.39599609375,22076.765625,-1104.6727294921875,724.79248046875,4831.94970703125,12567.04296875,-5265.0771484375,2126.69384765625,17524.560546875,-10323.5244140625,-3608.06787109375,2645.651611328125,9465.2177734375,11405.9453125,5736.35107421875,8885.8603515625,5328.6552734375,-0.0,5807.87646484375,25945.505859375,30019.283203125,8307.2978515625,18113.455078125,12877.7822265625,-1273.1552734375,-2802.212890625,4423.45947265625,13046.2646484375,10758.240234375,12826.125,9976.2275390625,915.52734375,-1208.7822265625,8331.1396484375,0.0,4417.1015625,7677.078125,6450.81201171875,4729.4296875,9876.091796875,9890.3974609375,15875.498046875,-12552.73828125,2393.72265625,10982.3544921875,7382.23388671875,5663.236328125,4231.134765625,0.0,9444.5546875
5160.96728515625,3793.239501953125,9674.2314453125,5372.365234375,15817.484375,5731.58251953125,8335.11328125,12603.6005859375,4451.27490234375,6918.1123046875,4208.8828125,7011.095703125,-5623.49951171875,0.0,11914.5712890625,11711.12109375,907.580078125,802.6759033203125,3841.718017578125,5800.72412109375,3676.41455078125,10482.470703125,7473.62744140625,22072.79296875,-1110.23583984375,716.84521484375,4820.82373046875,12566.2490234375,-5276.203125,2127.48828125,17521.380859375,-10333.0615234375,-3608.862548828125,2653.598876953125,9458.859375,11399.5869140625,5728.40380859375,8882.681640625,5332.62890625,-0.0,5805.4921875,25936.76171875,30013.71875,8303.32421875,18106.302734375,12878.5771484375,-1277.923583984375,-2791.0869140625,4413.1279296875,13039.1123046875,10748.7041015625,12825.330078125,9961.9228515625,897.2485961914062,-1211.1663818359375,8320.80859375,0.0,4409.154296875,7692.17822265625,6459.55419921875,4704.79345703125,9871.3232421875,9888.80859375,15872.3203125,-12547.9697265625,2391.33837890625,10975.201171875,7386.20751953125,5664.03076171875,4230.34033203125,0.0,9453.296875
5170.50390625,3799.597412109375,9731.4521484375,5364.41796875,15831.7890625,5749.861328125,8353.392578125,12620.2900390625,4473.52734375,6947.517578125,4223.18798828125,7026.990234375,-5605.220703125,0.0,11926.4921875,11727.015625,925.8588256835938,820.159912109375,3859.996826171875,5826.9501953125,3690.7197265625,10496.775390625,7488.7275390625,22089.48046875,-1107.8516845703125,735.1239624023438,4835.923828125,12582.9384765625,-5268.255859375,2138.61474609375,17537.275390625,-10313.9873046875,-3585.8154296875,2661.5458984375,9475.548828125,11413.09765625,5746.6826171875,8901.7548828125,5321.5029296875,-0.0,5816.61865234375,25949.478515625,30029.615234375,8320.80859375,18127.759765625,12902.4189453125,-1255.671142578125,-2775.1923828125,4408.359375,13052.623046875,10763.0087890625,12842.01953125,9973.84375,936.9849853515625,-1196.861328125,8339.087890625,0.0,4407.564453125,7707.27783203125,6481.01171875,4707.97216796875,9889.6025390625,9911.060546875,15898.5458984375,-12534.458984375,2409.6171875,10988.7119140625,7441.8388671875,5686.283203125,4308.2236328125,0.0,9500.185546875
5169.70947265625,3840.92333984375,9756.8828125,5381.107421875,15847.6826171875,5760.98779296875,8370.8759765625,12633.80078125,4487.03759765625,6966.5908203125,4237.4931640625,7038.9111328125,-5589.326171875,0.0,11941.591796875,11741.3203125,936.1903076171875,832.080810546875,3875.891357421875,5845.228515625,3705.024658203125,10505.5166015625,7503.82763671875,22101.40234375,-1092.7518310546875,745.4554443359375,4853.4072265625,12594.0634765625,-5251.56640625,2135.435791015625,17547.607421875,-10306.041015625,-3569.9208984375,2668.698486328125,9490.6494140625,11424.2236328125,5762.5771484375,8916.060546875,5269.845703125,-0.0,5835.69189453125,25956.630859375,30046.3046875,8333.5234375,18146.833984375,12917.5185546875,-1258.85009765625,-2749.760986328125,4443.32763671875,13064.5439453125,10776.51953125,12856.32421875,9976.2275390625,952.8795776367188,-1190.50341796875,8346.240234375,0.0,4422.66455078125,7719.99365234375,6498.49560546875,4713.53515625,9905.4970703125,9927.75,15922.3876953125,-12534.458984375,2415.18017578125,11001.427734375,7460.912109375,5695.02490234375,4328.88671875,0.0,9533.564453125
5138.71533203125,3843.3076171875,9714.7626953125,5395.41259765625,15845.298828125,5757.80859375,8365.3134765625,12625.853515625,4482.26953125,6956.25927734375,4234.31396484375,7032.55322265625,-5609.1943359375,0.0,11941.591796875,11732.578125,930.627197265625,828.107177734375,3871.917724609375,5838.076171875,3701.051025390625,10503.927734375,7499.853515625,22094.25,-1085.5992431640625,739.0975952148438,4850.22900390625,12585.322265625,-5257.1298828125,2140.2041015625,17542.83984375,-10313.193359375,-3581.841796875,2671.082763671875,9483.4970703125,11420.25,5760.98779296875,8910.4970703125,5296.86572265625,-0.0,5811.85009765625,25953.451171875,30041.537109375,8327.1669921875,18142.064453125,12907.1875,-1245.3397216796875,-2761.681884765625,4452.06982421875,13060.5693359375,10776.51953125,12849.171875,9963.5126953125,936.9849853515625,-1192.8876953125,8346.240234375,0.0,4428.22802734375,7714.43017578125,6485.7802734375,4714.330078125,9898.3447265625,9922.9814453125,15922.3876953125,-12538.4326171875,2414.385498046875,10999.0439453125,7429.123046875,5696.61474609375,4288.35546875,0.0,9512.1064453125
5114.87353515625,3807.544677734375,9716.3515625,5417.6650390625,15837.3505859375,5748.27197265625,8354.9814453125,12613.1376953125,4467.16943359375,6933.21240234375,4225.572265625,7013.4794921875,-5623.49951171875,0.0,11929.6708984375,11719.0673828125,924.2693481445312,819.3651733398438,3856.81787109375,5820.59228515625,3693.103759765625,10496.775390625,7488.7275390625,22085.5078125,-1091.95703125,726.3819580078125,4843.87060546875,12574.1962890625,-5268.255859375,2135.435791015625,17535.685546875,-10326.703125,-3587.405029296875,2667.90380859375,9474.75390625,11410.712890625,5749.06689453125,8897.78125,5341.37109375,-0.0,5806.287109375,25955.041015625,30032.0,8315.24609375,18128.552734375,12890.498046875,-1233.4188232421875,-2812.544677734375,4444.1220703125,13049.443359375,10767.77734375,12833.27734375,9961.9228515625,919.5009765625,-1205.603271484375,8335.11328125,0.0,4391.67041015625,7693.767578125,6465.1171875,4713.53515625,9887.21875,9908.67578125,15898.5458984375,-12543.99609375,2406.438232421875,10987.91796875,7404.486328125,5683.89892578125,4263.71923828125,0.0,9468.396484375
5151.4306640625,3771.781982421875,9725.888671875,5383.49169921875,15829.4052734375,5733.171875,8341.4716796875,12598.83203125,4448.095703125,6897.44970703125,4212.8564453125,6999.9697265625,-5627.47314453125,0.0,11919.3388671875,11705.5576171875,913.1431884765625,808.239013671875,3843.3076171875,5788.00830078125,3684.36181640625,10487.2392578125,7478.39599609375,22071.99609375,-1111.8253173828125,708.8978881835938,4839.89697265625,12562.275390625,-5273.02392578125,2120.3359375,17523.765625,-10339.4189453125,-3591.37841796875,2648.03564453125,9464.4228515625,11401.1767578125,5736.35107421875,8881.091796875,5296.86572265625,-0.0,5818.2080078125,25941.529296875,30021.66796875,8300.1455078125,18112.66015625,12867.451171875,-1247.723876953125,-2846.7177734375,4437.7646484375,13031.1650390625,10755.8564453125,12819.7666015625,9964.306640625,902.0169677734375,-1210.37158203125,8322.3984375,0.0,4369.41748046875,7685.02587890625,6436.5068359375,4711.94580078125,9874.5029296875,9889.6025390625,15846.8876953125,-12544.791015625,2390.543701171875,10979.9697265625,7350.44482421875,5670.388671875,4205.70361328125,0.0,9386.5390625
5200.7041015625,3765.424072265625,9713.9677734375,5346.1396484375,15825.4296875,5734.76171875,8343.85546875,12608.369140625,4450.47998046875,6897.44970703125,4218.41943359375,7016.65869140625,-5640.1884765625,0.0,11920.9287109375,11717.478515625,915.52734375,808.239013671875,3845.691650390625,5788.00830078125,3680.38818359375,10481.6748046875,7480.7802734375,22072.79296875,-1117.388427734375,710.4873657226562,4838.3076171875,12568.6328125,-5276.203125,2121.92529296875,17522.970703125,-10317.9619140625,-3602.504638671875,2642.472412109375,9462.0390625,11401.1767578125,5737.9404296875,8884.2705078125,5295.27685546875,-0.0,5790.392578125,25935.173828125,30021.66796875,8304.119140625,18113.455078125,12872.21875,-1247.723876953125,-2834.796875,4435.38037109375,13027.19140625,10758.240234375,12830.8935546875,9967.486328125,925.0640869140625,-1217.524169921875,8326.37109375,0.0,4416.30712890625,7688.2041015625,6444.4541015625,4722.27734375,9874.5029296875,9890.3974609375,15844.5029296875,-12547.17578125,2392.133056640625,10979.9697265625,7332.96044921875,5675.95166015625,4183.451171875,0.0,9369.8505859375
5160.1728515625,3809.13427734375,9718.7353515625,5367.59716796875,15834.1728515625,5743.50341796875,8349.4189453125,12621.8798828125,4459.22216796875,6912.54931640625,4220.8037109375,7025.40087890625,-5640.9833984375,0.0,11913.7763671875,11730.98828125,919.5009765625,813.00732421875,3852.049560546875,5801.51904296875,3685.156494140625,10488.033203125,7484.75390625,22081.533203125,-1091.162353515625,720.0241088867188,4837.51318359375,12582.9384765625,-5279.38232421875,2123.514892578125,17526.150390625,-10313.193359375,-3597.736328125,2657.572509765625,9468.396484375,11407.5341796875,5744.29833984375,8893.0126953125,5358.85498046875,-0.0,5790.392578125,25940.736328125,30028.8203125,8315.24609375,18120.607421875,12886.5244140625,-1225.471435546875,-2785.523681640625,4436.1748046875,13047.8544921875,10751.087890625,12844.4033203125,9960.333984375,917.1168212890625,-1221.4979248046875,8326.37109375,0.0,4445.71142578125,7689.7939453125,6461.1435546875,4705.587890625,9881.6552734375,9898.3447265625,15865.9609375,-12551.943359375,2390.543701171875,10973.6123046875,7344.0869140625,5679.13037109375,4189.0146484375,0.0,9406.4072265625
5146.662109375,3832.97607421875,9693.3046875,5392.2333984375,15848.478515625,5759.39794921875,8362.1337890625,12638.5693359375,4470.34814453125,6933.21240234375,4229.54541015625,7035.732421875,-5599.65771484375,0.0,11918.544921875,11747.677734375,929.8324584960938,823.3388061523438,3865.559814453125,5819.00244140625,3696.28271484375,10501.5439453125,7495.8798828125,22093.455078125,-1078.44677734375,737.5081176757812,4851.81787109375,12602.01171875,-5262.69287109375,2153.71435546875,17538.0703125,-10306.8349609375,-3600.915283203125,2669.493408203125,9479.5224609375,11421.0439453125,5757.013671875,8907.318359375,5378.72314453125,-0.0,5812.64501953125,25951.86328125,30040.740234375,8331.1396484375,18131.732421875,12904.0078125,-1248.5185546875,-2754.529296875,4450.47998046875,13066.1328125,10756.65234375,12863.4765625,9971.458984375,920.2957153320312,-1219.9083251953125,8348.6240234375,0.0,4433.79052734375,7686.615234375,6493.72705078125,4721.48291015625,9895.1650390625,9913.4443359375,15889.802734375,-12544.791015625,2404.053955078125,10979.9697265625,7354.41845703125,5704.5615234375,4208.087890625,0.0,9450.1181640625
5143.4833984375,3791.650146484375,9708.404296875,5388.259765625,15843.7099609375,5757.013671875,8358.1611328125,12626.6484375,4461.6064453125,6936.39111328125,4217.62451171875,7019.04296875,-5595.68408203125,0.0,11923.3134765625,11735.7568359375,925.8588256835938,820.9546508789062,3861.58642578125,5815.82421875,3693.8984375,10501.5439453125,7491.11181640625,22089.48046875,-1091.95703125,737.5081176757812,4840.69189453125,12595.6533203125,-5270.64013671875,2150.53564453125,17534.890625,-10317.9619140625,-3596.941650390625,2672.67236328125,9475.548828125,11414.6875,5750.65625,8900.9599609375,5285.73974609375,-0.0,5804.69775390625,25958.21875,30033.587890625,8326.37109375,18127.759765625,12896.85546875,-1278.7183837890625,-2807.776123046875,4449.685546875,13058.98046875,10760.625,12851.5556640625,9957.94921875,907.580078125,-1239.776611328125,8344.650390625,0.0,4404.38623046875,7679.46240234375,6478.62744140625,4726.2509765625,9887.21875,9908.67578125,15892.982421875,-12555.9169921875,2396.9013671875,10982.3544921875,7376.6708984375,5677.541015625,4258.15576171875,0.0,9465.2177734375
5137.12548828125,3759.861083984375,9729.0673828125,5405.744140625,15823.8408203125,5733.966796875,8332.7294921875,12594.859375,4447.30126953125,6926.0595703125,4196.1669921875,6989.6376953125,-5625.08935546875,0.0,11910.59765625,11702.3779296875,907.580078125,800.2916870117188,3840.92333984375,5806.287109375,3674.824951171875,10483.2646484375,7469.654296875,22067.228515625,-1109.441162109375,712.0768432617188,4805.7236328125,12563.0693359375,-5285.73974609375,2111.593994140625,17515.818359375,-10348.1611328125,-3608.06787109375,2667.90380859375,9455.6806640625,11394.0234375,5727.609375,8876.3232421875,5244.4140625,-0.0,5790.392578125,25941.529296875,30008.158203125,8299.3505859375,18106.302734375,12877.7822265625,-1275.5394287109375,-2858.638671875,4430.6123046875,13031.9599609375,10745.525390625,12819.7666015625,9950.001953125,883.7382202148438,-1262.029052734375,8309.681640625,0.0,4359.08642578125,7666.74658203125,6453.1962890625,4709.56201171875,9865.7607421875,9890.3974609375,15896.955078125,-12568.6328125,2373.8544921875,10969.638671875,7413.228515625,5649.7255859375,4290.73974609375,0.0,9488.2646484375
5165.73583984375,3768.60302734375,9707.6103515625,5341.37109375,15804.767578125,5720.45654296875,8327.1669921875,12598.0380859375,4444.1220703125,6919.7021484375,4200.935546875,6980.89599609375,-5609.9892578125,0.0,11917.75,11707.146484375,894.0697021484375,790.7549438476562,3836.94970703125,5800.72412109375,3666.0830078125,10466.5751953125,7459.322265625,22058.486328125,-1117.388427734375,693.0033569335938,4806.5185546875,12551.943359375,-5283.35546875,2090.13623046875,17505.48828125,-10343.392578125,-3620.783447265625,2629.7568359375,9446.14453125,11385.28125,5723.63525390625,8871.5556640625,5270.64013671875,-0.0,5782.4453125,25920.8671875,29997.029296875,8289.814453125,18104.7109375,12875.3974609375,-1275.5394287109375,-2847.512451171875,4381.33837890625,13015.2705078125,10751.087890625,12821.3564453125,9962.7177734375,886.9171142578125,-1254.87646484375,8289.814453125,0.0,4398.82275390625,7673.10498046875,6471.47509765625,4711.1513671875,9860.1982421875,9886.423828125,15883.4453125,-12567.04296875,2365.906982421875,10975.9970703125,7380.64453125,5656.8779296875,4253.3876953125,0.0,9477.138671875
5195.140625,3786.881591796875,9672.6416015625,5357.265625,15823.8408203125,5742.70849609375,8347.0341796875,12626.6484375,4461.6064453125,6914.93359375,4224.77734375,7014.2744140625,-5590.91552734375,0.0,11940.001953125,11736.5517578125,917.1168212890625,814.5968017578125,3856.023193359375,5803.9033203125,3693.103759765625,10485.6494140625,7483.16455078125,22080.740234375,-1104.6727294921875,720.0241088867188,4827.18115234375,12585.322265625,-5268.255859375,2108.414794921875,17526.9453125,-10309.2197265625,-3602.504638671875,2641.677734375,9469.19140625,11407.5341796875,5743.50341796875,8893.8076171875,5311.1708984375,-0.0,5805.4921875,25935.173828125,30020.873046875,8316.0400390625,18122.1953125,12887.318359375,-1262.82373046875,-2764.86083984375,4401.20703125,13043.880859375,10775.7255859375,12850.76171875,9976.2275390625,921.8851928710938,-1207.9874267578125,8321.6025390625,0.0,4470.34814453125,7711.251953125,6474.65380859375,4723.86669921875,9880.8603515625,9903.11328125,15858.80859375,-12545.5859375,2392.927978515625,10997.455078125,7325.013671875,5685.48828125,4196.9619140625,0.0,9404.0234375
5197.52490234375,3811.518310546875,9731.4521484375,5389.0546875,15843.7099609375,5753.04052734375,8358.955078125,12633.005859375,4477.5009765625,6928.44384765625,4239.08251953125,7036.52734375,-5612.37353515625,0.0,11942.38671875,11744.4990234375,933.0113525390625,828.107177734375,3865.559814453125,5820.59228515625,3705.024658203125,10500.7490234375,7495.08544921875,22091.0703125,-1087.188720703125,734.3292236328125,4845.46044921875,12591.6796875,-5264.2822265625,2115.5673828125,17542.04296875,-10293.32421875,-3587.405029296875,2669.493408203125,9481.9072265625,11418.66015625,5755.42431640625,8905.728515625,5318.32373046875,-0.0,5815.029296875,25945.505859375,30036.767578125,8325.5771484375,18134.1171875,12897.650390625,-1232.6240234375,-2729.09814453125,4445.71142578125,13055.0068359375,10777.314453125,12858.7080078125,9981.791015625,941.75341796875,-1191.298095703125,8342.265625,0.0,4488.626953125,7720.78857421875,6473.064453125,4725.4560546875,9892.78125,9914.2392578125,15884.2412109375,-12539.2275390625,2410.411865234375,11000.6328125,7327.39794921875,5697.4091796875,4198.55126953125,0.0,9419.1240234375
5158.5830078125,3808.33935546875,9760.0625,5381.90234375,15820.6611328125,5735.55615234375,8346.240234375,12620.2900390625,4466.375,6931.623046875,4220.0087890625,7016.65869140625,-5656.8779296875,0.0,11920.134765625,11730.1943359375,912.3484497070312,811.4179077148438,3850.4599609375,5822.181640625,3682.7724609375,10483.2646484375,7477.6015625,22074.380859375,-1108.6463623046875,714.4609985351562,4835.12890625,12576.580078125,-5286.53466796875,2093.315185546875,17522.17578125,-10324.3193359375,-3604.888916015625,2652.00927734375,9462.0390625,11401.1767578125,5741.119140625,8893.0126953125,5336.6025390625,-0.0,5787.2138671875,25930.404296875,30013.71875,8308.8876953125,18124.580078125,12891.29296875,-1238.1871337890625,-2767.2451171875,4418.69091796875,13033.548828125,10755.8564453125,12845.1982421875,9957.154296875,915.52734375,-1214.3453369140625,8320.013671875,0.0,4454.4541015625,7699.33056640625,6474.65380859375,4708.76708984375,9876.8876953125,9905.4970703125,15904.1083984375,-12559.890625,2383.39111328125,10978.380859375,7360.7763671875,5678.33544921875,4224.77734375,0.0,9489.853515625
5191.9619140625,3829.797119140625,9796.619140625,5424.0224609375,15852.451171875,5777.67724609375,8385.9755859375,12667.9736328125,4507.70068359375,6995.201171875,4251.00341796875,7047.6533203125,-5644.95703125,0.0,11948.7451171875,11776.2880859375,945.72705078125,846.385986328125,3893.37548828125,5876.22314453125,3716.945556640625,10520.6171875,7514.95361328125,22114.119140625,-1071.294189453125,754.9921875,4861.35498046875,12621.0849609375,-5260.30859375,2141.79345703125,17557.14453125,-10298.888671875,-3565.15234375,2684.59326171875,9497.0068359375,11436.939453125,5781.650390625,8936.72265625,5363.623046875,-0.0,5816.61865234375,25971.73046875,30047.892578125,8351.802734375,18164.31640625,12946.12890625,-1211.1663818359375,-2750.5556640625,4462.40087890625,13076.46484375,10786.8505859375,12891.29296875,9981.791015625,948.9059448242188,-1187.324462890625,8362.1337890625,0.0,4471.9375,7721.5830078125,6560.484375,4750.88720703125,9914.2392578125,9950.796875,15975.6337890625,-12528.1015625,2419.15380859375,11008.580078125,7472.0380859375,5705.3564453125,4354.318359375,0.0,9610.6533203125
5202.29345703125,3832.97607421875,9775.162109375,5400.1806640625,15869.140625,5778.4716796875,8399.486328125,12655.2578125,4525.1845703125,7019.837890625,4256.56640625,7046.06396484375,-5618.73095703125,0.0,11968.6123046875,11764.3671875,952.0848388671875,855.1279907226562,3902.912109375,5896.09130859375,3728.072021484375,10526.974609375,7527.66943359375,22121.271484375,-1060.16796875,753.4027099609375,4876.45458984375,12609.1640625,-5250.77197265625,2156.8935546875,17565.884765625,-10293.32421875,-3558.794677734375,2686.1826171875,9511.3115234375,11441.7080078125,5793.5712890625,8939.90234375,5366.80224609375,-0.0,5844.43408203125,25972.525390625,30063.787109375,8349.4189453125,18179.416015625,12950.1025390625,-1207.9874267578125,-2768.039794921875,4479.88525390625,13073.28515625,10805.9248046875,12878.5771484375,9976.2275390625,957.64794921875,-1180.1719970703125,8360.544921875,0.0,4452.8642578125,7743.04052734375,6535.05322265625,4758.8349609375,9923.775390625,9963.5126953125,15994.70703125,-12523.333984375,2423.12744140625,11027.6533203125,7511.7744140625,5724.43017578125,4432.99609375,0.0,9626.5478515625
5174.47802734375,3776.55029296875,9733.8359375,5379.51806640625,15851.65625,5744.29833984375,8370.8759765625,12609.1640625,4496.57421875,6952.28564453125,4225.572265625,7016.65869140625,-5631.44677734375,0.0,11955.1015625,11717.478515625,925.8588256835938,828.107177734375,3869.533447265625,5843.63916015625,3704.22998046875,10499.9541015625,7501.443359375,22087.09765625,-1088.7781982421875,723.9977416992188,4851.81787109375,12561.48046875,-5269.845703125,2116.3623046875,17539.66015625,-10325.1142578125,-3588.994384765625,2668.698486328125,9485.880859375,11412.302734375,5764.96142578125,8901.7548828125,5307.99267578125,-0.0,5825.36083984375,25944.708984375,30039.9453125,8311.271484375,18150.01171875,12899.2392578125,-1248.5185546875,-2817.31298828125,4459.22216796875,13033.548828125,10792.4150390625,12832.482421875,9934.107421875,927.4482421875,-1204.0137939453125,8315.24609375,0.0,4398.82275390625,7740.65625,6467.5009765625,4733.40380859375,9896.7548828125,9925.365234375,15918.4130859375,-12544.791015625,2392.133056640625,11014.1435546875,7437.86474609375,5725.22509765625,4287.56103515625,0.0,9475.548828125
5164.94140625,3766.218994140625,9717.146484375,5362.82861328125,15844.5029296875,5739.5302734375,8363.7236328125,12599.6279296875,4490.216796875,6924.47021484375,4215.240234375,7009.50634765625,-5625.8837890625,0.0,11953.5126953125,11706.3525390625,917.1168212890625,820.159912109375,3861.58642578125,5826.1552734375,3697.077392578125,10492.8017578125,7494.291015625,22079.1484375,-1095.9306640625,720.0241088867188,4851.81787109375,12556.7119140625,-5270.64013671875,2098.08349609375,17530.91796875,-10329.8828125,-3592.968017578125,2655.188232421875,9479.5224609375,11407.5341796875,5757.013671875,8894.6025390625,5316.734375,-0.0,5817.4130859375,25943.12109375,30035.177734375,8302.529296875,18143.654296875,12884.1396484375,-1273.949951171875,-2824.465576171875,4450.47998046875,13030.3701171875,10790.8251953125,12822.1513671875,9963.5126953125,916.3220825195312,-1215.1400146484375,8312.06640625,0.0,4392.46533203125,7735.09375,6452.40185546875,4735.7880859375,9888.80859375,9913.4443359375,15883.4453125,-12547.17578125,2386.570068359375,11011.759765625,7406.87060546875,5730.78759765625,4235.10888671875,0.0,9420.712890625
5151.4306640625,3792.44482421875,9724.2998046875,5392.2333984375,15844.5029296875,5748.27197265625,8371.6708984375,12617.9052734375,4500.5478515625,6938.775390625,4220.0087890625,7011.095703125,-5610.7841796875,0.0,11954.3076171875,11726.2197265625,921.8851928710938,828.107177734375,3871.917724609375,5838.076171875,3700.25634765625,10501.5439453125,7499.853515625,22089.48046875,-1091.162353515625,724.79248046875,4861.35498046875,12571.017578125,-5274.61376953125,2106.03076171875,17536.482421875,-10321.9345703125,-3581.047119140625,2664.72509765625,9482.701171875,11413.09765625,5765.75634765625,8906.5234375,5277.79248046875,-0.0,5820.59228515625,25955.041015625,30039.9453125,8315.24609375,18153.986328125,12898.4453125,-1275.5394287109375,-2817.31298828125,4443.32763671875,13041.49609375,10791.619140625,12840.4306640625,9974.638671875,896.453857421875,-1229.445068359375,8331.1396484375,0.0,4410.74365234375,7742.24609375,6480.216796875,4735.7880859375,9894.37109375,9923.775390625,15883.4453125,-12548.7646484375,2390.543701171875,11014.1435546875,7423.5595703125,5739.5302734375,4270.07666015625,0.0,9452.501953125
5117.2578125,3764.62939453125,9723.50390625,5362.82861328125,15819.072265625,5721.2509765625,8346.240234375,12596.4482421875,4474.32177734375,6908.57568359375,4202.52490234375,6988.84326171875,-5616.3466796875,0.0,11928.8759765625,11707.146484375,902.0169677734375,800.2916870117188,3843.3076171875,5808.67138671875,3670.056640625,10472.138671875,7473.62744140625,22062.458984375,-1111.8253173828125,696.1822509765625,4842.28125,12551.943359375,-5291.30322265625,2090.930908203125,17512.640625,-10341.8037109375,-3604.09423828125,2637.7041015625,9454.88671875,11385.28125,5740.32470703125,8879.501953125,5280.9716796875,-0.0,5787.2138671875,25921.6640625,30014.515625,8290.6083984375,18127.759765625,12870.62890625,-1274.74462890625,-2814.1337890625,4403.59130859375,13020.8330078125,10763.8046875,12819.7666015625,9957.154296875,877.38037109375,-1253.2869873046875,8313.65625,0.0,4398.82275390625,7719.19873046875,6453.1962890625,4683.3359375,9865.7607421875,9894.37109375,15849.271484375,-12567.04296875,2364.317626953125,10986.328125,7377.4658203125,5726.01953125,4231.134765625,0.0,9406.4072265625
5080.69970703125,3752.70849609375,9706.814453125,5347.728515625,15804.767578125,5713.30419921875,8332.7294921875,12582.9384765625,4461.6064453125,6897.44970703125,4190.603515625,6976.12744140625,-5603.63134765625,0.0,11920.9287109375,11692.841796875,889.30126953125,786.7813110351562,3830.591796875,5795.16064453125,3656.54638671875,10461.0126953125,7459.322265625,22050.5390625,-1122.9515380859375,687.4402465820312,4824.0029296875,12547.17578125,-5288.9189453125,2099.673095703125,17499.12890625,-10356.9033203125,-3619.194091796875,2636.909423828125,9442.169921875,11374.15625,5726.814453125,8865.9921875,5288.9189453125,-0.0,5775.29296875,25914.509765625,30004.18359375,8281.8671875,18114.248046875,12854.7353515625,-1269.181640625,-2826.054931640625,4394.84912109375,13016.064453125,10755.8564453125,12806.255859375,9960.333984375,868.6383666992188,-1249.3133544921875,8300.1455078125,0.0,4382.92822265625,7708.86767578125,6431.73828125,4656.31494140625,9853.0458984375,9881.6552734375,15846.8876953125,-12573.4013671875,2353.986083984375,10978.380859375,7355.21337890625,5712.50927734375,4211.26708984375,0.0,9388.923828125
5067.189453125,3770.9873046875,9694.8935546875,5381.107421875,15819.8681640625,5731.58251953125,8342.265625,12598.83203125,4463.19580078125,6911.75439453125,4208.8828125,6988.84326171875,-5598.068359375,0.0,11933.64453125,11707.146484375,904.401123046875,800.2916870117188,3844.10205078125,5800.72412109375,3677.209228515625,10479.291015625,7473.62744140625,22064.84375,-1109.441162109375,706.5137329101562,4824.0029296875,12563.0693359375,-5273.02392578125,2110.799072265625,17516.61328125,-10344.1875,-3601.7099609375,2654.3935546875,9458.859375,11392.4345703125,5737.14599609375,8879.501953125,5211.830078125,-0.0,5791.98193359375,25933.583984375,30016.103515625,8298.556640625,18120.607421875,12869.0400390625,-1258.0552978515625,-2812.544677734375,4416.30712890625,13031.9599609375,10769.3671875,12822.1513671875,9971.458984375,873.40673828125,-1217.524169921875,8309.681640625,0.0,4394.05419921875,7703.30419921875,6446.83837890625,4673.798828125,9868.939453125,9892.78125,15856.4248046875,-12557.5068359375,2373.0595703125,10992.6865234375,7388.591796875,5699.79345703125,4243.0556640625,0.0,9399.2548828125
5112.4892578125,3778.139892578125,9685.357421875,5366.80224609375,15822.251953125,5729.9931640625,8345.4443359375,12598.83203125,4456.04345703125,6906.19140625,4215.240234375,6995.99609375,-5610.7841796875,0.0,11940.796875,11704.7626953125,908.374755859375,801.08642578125,3844.89697265625,5795.95556640625,3677.209228515625,10480.0859375,7478.39599609375,22064.84375,-1107.8516845703125,710.4873657226562,4839.89697265625,12558.30078125,-5268.255859375,2103.646484375,17518.201171875,-10335.4453125,-3607.273193359375,2645.651611328125,9462.8330078125,11393.2294921875,5741.9140625,8878.7080078125,5253.15625,-0.0,5791.98193359375,25932.7890625,30021.66796875,8299.3505859375,18122.1953125,12866.65625,-1282.69189453125,-2824.465576171875,4425.84375,13030.3701171875,10778.109375,12818.1767578125,9957.94921875,894.0697021484375,-1206.39794921875,8310.4775390625,0.0,4390.87548828125,7693.767578125,6441.27490234375,4680.95166015625,9872.9130859375,9891.9873046875,15846.09375,-12551.1484375,2378.622802734375,11000.6328125,7383.0283203125,5685.48828125,4223.18798828125,0.0,9384.1552734375
5169.70947265625,3751.118896484375,9730.65625,5358.85498046875,15813.5087890625,5725.22509765625,8339.087890625,12586.1171875,4460.8115234375,6903.0126953125,4212.0615234375,6987.25390625,-5621.91015625,0.0,11941.591796875,11695.2255859375,897.2485961914062,793.13916015625,3839.333740234375,5798.33984375,3663.698974609375,10470.5498046875,7472.0380859375,22060.87109375,-1115.004150390625,704.1295166015625,4835.12890625,12553.5322265625,-5274.61376953125,2086.957275390625,17507.076171875,-10352.134765625,-3622.372802734375,2631.346435546875,9453.296875,11385.28125,5736.35107421875,8873.939453125,5342.96044921875,-0.0,5778.4716796875,25928.01953125,30013.71875,8294.58203125,18122.1953125,12862.6826171875,-1262.029052734375,-2845.12841796875,4417.896484375,13024.806640625,10778.109375,12807.845703125,9955.5654296875,884.532958984375,-1216.7294921875,8300.9404296875,0.0,4348.7548828125,7704.8935546875,6435.71240234375,4673.00390625,9865.7607421875,9890.3974609375,15855.630859375,-12557.5068359375,2368.291259765625,11002.22265625,7374.28662109375,5718.072265625,4209.67724609375,0.0,9393.6923828125
5191.16748046875,3754.2978515625,9705.2255859375,5354.08642578125,15799.9990234375,5719.66162109375,8331.9345703125,12571.017578125,4451.27490234375,6886.3232421875,4201.73046875,6983.2802734375,-5632.24169921875,0.0,11932.849609375,11680.1259765625,882.9434814453125,784.3970947265625,3828.207763671875,5784.82958984375,3649.393798828125,10464.19140625,7460.912109375,22050.5390625,-1149.9722900390625,700.1558837890625,4820.82373046875,12541.611328125,-5286.53466796875,2083.7783203125,17495.15625,-10354.5185546875,-3650.983154296875,2627.372802734375,9438.9912109375,11376.5400390625,5725.22509765625,8864.40234375,5327.06591796875,-0.0,5760.19287109375,25924.841796875,30001.798828125,8284.2509765625,18113.455078125,12849.171875,-1259.6448974609375,-2840.35986328125,4402.001953125,13021.6279296875,10767.77734375,12795.130859375,9942.849609375,882.9434814453125,-1220.703125,8300.1455078125,0.0,4328.88671875,7704.09912109375,6417.43310546875,4685.7197265625,9854.634765625,9880.06640625,15835.76171875,-12567.04296875,2364.317626953125,10991.890625,7371.107421875,5713.30419921875,4183.451171875,0.0,9363.4921875
5199.1142578125,3770.9873046875,9702.841796875,5374.74951171875,15800.794921875,5725.22509765625,8335.11328125,12585.322265625,4459.22216796875,6905.39697265625,4208.8828125,6995.99609375,-5634.6259765625,0.0,11932.849609375,11694.431640625,888.506591796875,791.5496826171875,3835.3603515625,5798.33984375,3657.341064453125,10468.1650390625,7463.29638671875,22057.69140625,-1134.07763671875,700.9506225585938,4816.85009765625,12551.1484375,-5290.50830078125,2095.69921875,17500.71875,-10359.287109375,-3635.088623046875,2636.909423828125,9440.5810546875,11382.1025390625,5728.40380859375,8871.5556640625,5293.6875,-0.0,5762.5771484375,25920.8671875,30001.005859375,8292.1982421875,18115.04296875,12864.2724609375,-1267.592041015625,-2797.444580078125,4404.38623046875,13025.6015625,10766.9833984375,12810.23046875,9957.94921875,891.6854858398438,-1211.1663818359375,8309.681640625,0.0,4356.7021484375,7715.22509765625,6441.27490234375,4703.20361328125,9860.1982421875,9888.0126953125,15860.3994140625,-12562.275390625,2373.0595703125,10991.890625,7387.796875,5696.61474609375,4226.36669921875,0.0,9410.380859375
5167.32568359375,3763.834716796875,9689.3310546875,5386.67041015625,15800.794921875,5727.609375,8336.703125,12607.57421875,4464.78515625,6941.15966796875,4207.29296875,6996.79052734375,-5641.7783203125,0.0,11925.697265625,11715.0947265625,888.506591796875,791.5496826171875,3841.718017578125,5820.59228515625,3659.72509765625,10468.9599609375,7465.6806640625,22062.458984375,-1115.004150390625,703.3348388671875,4820.82373046875,12563.0693359375,-5294.48193359375,2091.7255859375,17502.30859375,-10361.671875,-3628.730712890625,2643.267333984375,9443.759765625,11384.4873046875,5729.1982421875,8881.88671875,5311.1708984375,-0.0,5764.16650390625,25923.251953125,30001.005859375,8298.556640625,18115.83984375,12884.1396484375,-1271.5657958984375,-2801.418212890625,4401.20703125,13021.6279296875,10760.625,12829.3037109375,9960.333984375,879.7645263671875,-1223.0872802734375,8312.06640625,0.0,4377.365234375,7701.71484375,6481.01171875,4709.56201171875,9863.376953125,9899.1396484375,15910.466796875,-12568.6328125,2376.238525390625,10984.73828125,7409.25439453125,5668.00439453125,4297.89208984375,0.0,9525.6162109375
5114.87353515625,3744.76123046875,9686.947265625,5354.08642578125,15802.3837890625,5728.40380859375,8337.498046875,12616.31640625,4463.19580078125,6967.3857421875,4199.34619140625,6995.201171875,-5653.69921875,0.0,11916.955078125,11723.8359375,886.9171142578125,789.960205078125,3842.512939453125,5838.076171875,3660.519775390625,10468.1650390625,7467.27001953125,22063.255859375,-1117.388427734375,707.3084716796875,4822.4130859375,12562.275390625,-5304.8134765625,2113.183349609375,17501.51171875,-10366.439453125,-3627.93603515625,2643.267333984375,9445.349609375,11382.8974609375,5728.40380859375,8886.6552734375,5288.9189453125,-0.0,5780.06103515625,25924.841796875,30002.59375,8299.3505859375,18117.427734375,12897.650390625,-1286.66552734375,-2821.286376953125,4401.20703125,13020.8330078125,10751.8837890625,12839.634765625,9942.0546875,890.8907470703125,-1238.1871337890625,8308.8876953125,0.0,4409.94873046875,7680.25732421875,6503.26416015625,4700.8193359375,9864.966796875,9904.7021484375,15962.9189453125,-12574.1962890625,2372.264892578125,10975.201171875,7412.43359375,5637.8046875,4324.1181640625,0.0,9609.8583984375
5132.35693359375,3782.11328125,9690.9208984375,5359.6494140625,15811.919921875,5735.55615234375,8336.703125,12616.31640625,4448.890625,6952.28564453125,4205.70361328125,6993.61181640625,-5652.10986328125,0.0,11909.802734375,11726.2197265625,897.2485961914062,795.5233154296875,3844.89697265625,5819.00244140625,3667.67236328125,10478.49609375,7470.44873046875,22068.0234375,-1112.6199951171875,716.0504760742188,4823.2080078125,12566.2490234375,-5299.25,2107.6201171875,17510.255859375,-10361.671875,-3622.372802734375,2646.4462890625,9450.912109375,11390.0498046875,5729.1982421875,8887.4501953125,5254.74560546875,-0.0,5790.392578125,25941.529296875,30008.158203125,8301.7353515625,18112.66015625,12892.8828125,-1268.3868408203125,-2831.6181640625,4408.359375,13027.19140625,10747.115234375,12842.01953125,9950.001953125,904.401123046875,-1235.00830078125,8309.681640625,0.0,4418.69091796875,7668.33642578125,6494.52197265625,4695.2568359375,9868.939453125,9900.7294921875,15919.208984375,-12566.2490234375,2373.0595703125,10970.43359375,7408.4599609375,5616.3466796875,4296.302734375,0.0,9555.0224609375
5156.99365234375,3790.060791015625,9668.66796875,5367.59716796875,15825.4296875,5734.76171875,8338.2919921875,12610.7529296875,4439.35400390625,6922.880859375,4215.240234375,7004.73779296875,-5637.01025390625,0.0,11915.3662109375,11719.86328125,906.7853393554688,803.4705810546875,3844.89697265625,5794.3662109375,3680.38818359375,10481.6748046875,7476.806640625,22070.408203125,-1101.493896484375,715.2557373046875,4827.97607421875,12568.6328125,-5277.79248046875,2113.97802734375,17519.79296875,-10337.03515625,-3608.06787109375,2646.4462890625,9462.0390625,11394.0234375,5732.37744140625,8885.8603515625,5261.89794921875,-0.0,5815.82421875,25934.376953125,30013.71875,8302.529296875,18107.890625,12881.755859375,-1277.1287841796875,-2797.444580078125,4421.0751953125,13028.78125,10751.087890625,12834.072265625,9964.306640625,902.8117065429688,-1219.1136474609375,8319.21875,0.0,4406.77001953125,7664.3623046875,6471.47509765625,4697.64111328125,9874.5029296875,9892.78125,15845.298828125,-12553.5322265625,2387.36474609375,10974.4072265625,7417.2021484375,5633.8310546875,4266.10302734375,0.0,9443.759765625
5177.65673828125,3781.318603515625,9712.37890625,5388.259765625,15836.5576171875,5746.6826171875,8351.802734375,12622.673828125,4452.06982421875,6930.828125,4231.9296875,7020.63232421875,-5616.3466796875,0.0,11928.0810546875,11730.98828125,921.0904541015625,816.186279296875,3857.612548828125,5805.4921875,3693.103759765625,10493.595703125,7491.11181640625,22082.328125,-1088.7781982421875,731.1503295898438,4839.89697265625,12582.9384765625,-5261.89794921875,2129.87255859375,17533.302734375,-10314.7822265625,-3592.17333984375,2666.314453125,9473.1650390625,11404.35546875,5745.8876953125,8899.37109375,5292.09765625,-0.0,5808.67138671875,25943.12109375,30025.640625,8315.24609375,18121.400390625,12892.0869140625,-1263.618408203125,-2801.418212890625,4433.79052734375,13042.291015625,10764.5986328125,12845.9931640625,9977.0234375,905.9906005859375,-1202.4244384765625,8343.060546875,0.0,4432.201171875,7680.25732421875,6487.36962890625,4708.76708984375,9884.833984375,9903.11328125,15858.80859375,-12537.638671875,2403.25927734375,10987.91796875,7434.68603515625,5656.08349609375,4269.28173828125,0.0,9431.044921875
5164.94140625,3782.908203125,9718.7353515625,5399.3857421875,15833.3779296875,5749.861328125,8348.6240234375,12617.9052734375,4449.685546875,6917.31787109375,4227.16162109375,7019.837890625,-5606.015625,0.0,11928.0810546875,11727.8095703125,922.679931640625,813.00732421875,3852.84423828125,5799.134765625,3691.51416015625,10497.5703125,7485.54833984375,22079.1484375,-1099.109619140625,731.945068359375,4841.486328125,12580.5537109375,-5268.255859375,2130.66748046875,17531.712890625,-10320.345703125,-3594.5576171875,2685.387939453125,9468.396484375,11405.150390625,5742.70849609375,8894.6025390625,5338.19189453125,-0.0,5792.7763671875,25952.658203125,30020.078125,8313.65625,18119.017578125,12884.1396484375,-1245.3397216796875,-2801.418212890625,4414.71728515625,13047.8544921875,10763.0087890625,12842.01953125,9963.5126953125,910.7589721679688,-1209.576904296875,8343.85546875,0.0,4429.8173828125,7683.43603515625,6474.65380859375,4715.12451171875,9882.4501953125,9900.7294921875,15857.2197265625,-12544.791015625,2396.9013671875,10984.73828125,7388.591796875,5666.41455078125,4226.36669921875,0.0,9400.0498046875
5160.96728515625,3811.518310546875,9726.68359375,5388.259765625,15846.09375,5757.80859375,8360.544921875,12625.853515625,4465.580078125,6915.72802734375,4239.87744140625,7042.08984375,-5582.96826171875,0.0,11932.849609375,11734.962890625,933.8060913085938,824.133544921875,3863.970458984375,5806.287109375,3707.408935546875,10504.72265625,7498.26416015625,22090.27734375,-1080.0361328125,737.5081176757812,4853.4072265625,12591.6796875,-5249.18212890625,2147.356689453125,17542.04296875,-10301.2724609375,-3578.662841796875,2674.26171875,9481.9072265625,11413.8916015625,5753.8349609375,8903.34375,5318.32373046875,-0.0,5826.1552734375,25953.451171875,30033.587890625,8323.9873046875,18131.732421875,12886.5244140625,-1224.6767578125,-2749.760986328125,4440.14892578125,13062.1591796875,10769.3671875,12849.966796875,9968.28125,944.9323120117188,-1200.0401611328125,8358.955078125,0.0,4442.533203125,7692.97265625,6465.1171875,4750.0927734375,9895.1650390625,9911.060546875,15861.98828125,-12532.8701171875,2414.385498046875,10990.3017578125,7349.64990234375,5689.46240234375,4185.83544921875,0.0,9384.1552734375
5185.60400390625,3793.239501953125,9775.9560546875,5392.2333984375,15864.3720703125,5769.7294921875,8381.20703125,12650.490234375,4479.88525390625,6937.98046875,4255.771484375,7056.39501953125,-5569.4580078125,0.0,11940.796875,11760.39453125,945.72705078125,836.0545043945312,3881.45458984375,5823.77099609375,3715.356201171875,10515.0537109375,7514.15869140625,22105.375,-1063.346923828125,748.6343383789062,4878.0439453125,12611.548828125,-5231.69873046875,2150.53564453125,17554.759765625,-10290.9404296875,-3567.53662109375,2675.056396484375,9495.41796875,11425.8125,5774.498046875,8920.8291015625,5291.30322265625,-0.0,5830.92333984375,25959.015625,30055.046875,8340.6767578125,18152.39453125,12908.7763671875,-1213.550537109375,-2737.04541015625,4463.19580078125,13075.6689453125,10780.494140625,12873.80859375,9984.9697265625,959.2374267578125,-1182.55615234375,8368.4921875,0.0,4463.99072265625,7681.0517578125,6492.1376953125,4759.6298828125,9910.265625,9929.33984375,15881.8564453125,-12516.1806640625,2423.12744140625,10999.0439453125,7375.8759765625,5697.4091796875,4216.82958984375,0.0,9417.5341796875
5186.39892578125,3750.32421875,9792.6455078125,5409.7177734375,15868.345703125,5768.9345703125,8382.796875,12647.3115234375,4473.52734375,6939.56982421875,4254.18212890625,7044.47412109375,-5567.86865234375,0.0,11941.591796875,11755.6259765625,942.548095703125,836.0545043945312,3881.45458984375,5822.181640625,3710.587646484375,10515.8486328125,7514.95361328125,22102.990234375,-1064.1416015625,748.6343383789062,4881.22314453125,12609.1640625,-5234.876953125,2137.820068359375,17553.171875,-10298.0927734375,-3573.099853515625,2685.387939453125,9494.6220703125,11424.2236328125,5778.4716796875,8918.4443359375,5289.71337890625,-0.0,5822.181640625,25966.16796875,30057.4296875,8336.703125,18152.39453125,12905.59765625,-1210.37158203125,-2766.4501953125,4479.09033203125,13070.1064453125,10781.2880859375,12869.8349609375,9988.9443359375,928.2429809570312,-1175.403564453125,8361.33984375,0.0,4452.8642578125,7674.69384765625,6493.72705078125,4735.7880859375,9907.8818359375,9928.5439453125,15882.650390625,-12514.5908203125,2415.18017578125,10998.2490234375,7390.97607421875,5684.69384765625,4234.31396484375,0.0,9423.0966796875
5184.80908203125,3772.57666015625,9790.26171875,5424.8173828125,15879.47265625,5781.650390625,8389.1552734375,12653.66796875,4490.216796875,6953.875,4262.92431640625,7050.83203125,-5574.2265625,0.0,11963.0498046875,11760.39453125,951.2901611328125,844.7965087890625,3890.9912109375,5838.87109375,3724.09814453125,10526.1806640625,7521.3115234375,22111.734375,-1060.962646484375,762.1447143554688,4872.48095703125,12621.0849609375,-5246.7978515625,2157.688232421875,17561.912109375,-10297.298828125,-3557.205078125,2702.0771484375,9502.5703125,11434.5546875,5784.03466796875,8930.365234375,5348.5234375,-0.0,5838.076171875,25979.677734375,30060.609375,8347.0341796875,18159.546875,12918.3134765625,-1210.37158203125,-2764.06591796875,4475.11669921875,13083.6171875,10801.15625,12877.7822265625,9998.48046875,936.1903076171875,-1169.8404541015625,8377.234375,0.0,4459.22216796875,7704.09912109375,6504.05859375,4730.224609375,9915.8291015625,9939.6708984375,15902.51953125,-12509.0283203125,2426.306396484375,11020.5009765625,7395.744140625,5704.5615234375,4258.95068359375,0.0,9454.0908203125
5180.8359375,3810.7236328125,9740.98828125,5381.90234375,15850.8623046875,5751.451171875,8359.75,12629.0322265625,4468.75927734375,6930.033203125,4226.36669921875,7022.22216796875,-5605.220703125,0.0,11940.796875,11736.5517578125,919.5009765625,815.3915405273438,3863.970458984375,5815.029296875,3696.28271484375,10495.98046875,7495.08544921875,22083.91796875,-1096.7254638671875,731.945068359375,4846.2548828125,12587.70703125,-5272.2294921875,2130.66748046875,17531.712890625,-10321.9345703125,-3604.09423828125,2665.519775390625,9475.548828125,11404.35546875,5753.04052734375,8903.34375,5319.91357421875,-0.0,5818.2080078125,25949.478515625,30032.79296875,8320.013671875,18131.732421875,12893.6767578125,-1255.671142578125,-2803.802490234375,4440.14892578125,13052.623046875,10775.7255859375,12853.1455078125,9979.4072265625,933.8060913085938,-1198.45068359375,8346.240234375,0.0,4398.82275390625,7700.919921875,6488.958984375,4710.3564453125,9888.0126953125,9914.2392578125,15877.0888671875,-12545.5859375,2399.28564453125,10999.8388671875,7394.94921875,5668.00439453125,4236.6982421875,0.0,9440.5810546875
5174.47802734375,3819.465576171875,9711.5830078125,5360.4443359375,15845.298828125,5737.14599609375,8344.650390625,12605.984375,4452.06982421875,6914.93359375,4211.26708984375,7003.94287109375,-5623.49951171875,0.0,11928.8759765625,11713.5048828125,903.6064453125,801.8811645507812,3850.4599609375,5799.134765625,3687.540771484375,10483.2646484375,7481.5751953125,22068.0234375,-1115.7989501953125,716.0504760742188,4830.3603515625,12567.04296875,-5281.7666015625,2117.95166015625,17518.998046875,-10342.59765625,-3610.451904296875,2652.00927734375,9465.2177734375,11389.255859375,5738.7353515625,8884.2705078125,5307.19775390625,-0.0,5819.00244140625,25939.94140625,30022.462890625,8300.9404296875,18115.04296875,12875.3974609375,-1279.5130615234375,-2837.975830078125,4439.35400390625,13035.1376953125,10763.0087890625,12828.509765625,9956.359375,918.7062377929688,-1214.3453369140625,8325.5771484375,0.0,4363.85498046875,7693.767578125,6462.73291015625,4703.99853515625,9874.5029296875,9898.3447265625,15860.3994140625,-12563.0693359375,2380.212158203125,10988.7119140625,7390.97607421875,5653.69921875,4239.08251953125,0.0,9433.4287109375
5164.94140625,3799.597412109375,9725.09375,5377.92822265625,15845.298828125,5741.119140625,8344.650390625,12617.111328125,4467.16943359375,6927.64892578125,4218.41943359375,6995.99609375,-5640.9833984375,0.0,11925.697265625,11727.015625,906.7853393554688,804.2653198242188,3853.638916015625,5811.85009765625,3685.951171875,10489.623046875,7483.16455078125,22071.99609375,-1101.493896484375,716.0504760742188,4816.85009765625,12574.990234375,-5289.71337890625,2104.44140625,17520.5859375,-10350.544921875,-3605.68359375,2668.698486328125,9466.01171875,11393.2294921875,5738.7353515625,8890.62890625,5307.99267578125,-0.0,5798.33984375,25947.888671875,30020.078125,8306.5029296875,18119.017578125,12885.7294921875,-1261.2342529296875,-2829.23388671875,4445.71142578125,13035.93359375,10757.4462890625,12842.01953125,9956.359375,882.1487426757812,-1215.934814453125,8318.423828125,0.0,4407.564453125,7713.6357421875,6479.421875,4703.99853515625,9877.681640625,9904.7021484375,15875.498046875,-12554.328125,2373.8544921875,10983.9443359375,7409.25439453125,5675.1572265625,4251.00341796875,0.0,9448.5283203125
5160.1728515625,3741.582275390625,9721.1201171875,5385.0810546875,15836.5576171875,5733.966796875,8347.0341796875,12620.2900390625,4473.52734375,6938.775390625,4220.0087890625,6995.99609375,-5639.39404296875,0.0,11931.259765625,11730.1943359375,904.401123046875,801.8811645507812,3853.638916015625,5819.00244140625,3678.798583984375,10483.2646484375,7479.19091796875,22070.408203125,-1098.31494140625,708.1031494140625,4815.26025390625,12571.8115234375,-5292.09765625,2096.493896484375,17514.228515625,-10348.1611328125,-3619.194091796875,2652.00927734375,9459.6552734375,11390.0498046875,5739.5302734375,8893.8076171875,5321.5029296875,-0.0,5783.23974609375,25935.173828125,30013.71875,8306.5029296875,18122.9921875,12888.908203125,-1248.5185546875,-2808.57080078125,4432.201171875,13028.78125,10763.8046875,12843.6083984375,9963.5126953125,881.35400390625,-1215.1400146484375,8317.6298828125,0.0,4432.99609375,7711.251953125,6486.57470703125,4705.587890625,9876.8876953125,9907.8818359375,15888.2138671875,-12553.5322265625,2372.264892578125,10987.91796875,7428.328125,5679.92529296875,4291.5341796875,0.0,9469.19140625
5137.92041015625,3740.78759765625,9682.1787109375,5365.212890625,15835.76171875,5728.40380859375,8348.6240234375,12605.984375,4467.16943359375,6933.21240234375,4216.82958984375,7008.71142578125,-5631.44677734375,0.0,11924.107421875,11712.7099609375,905.1958618164062,801.8811645507812,3852.049560546875,5815.029296875,3684.36181640625,10477.7021484375,7478.39599609375,22065.638671875,-1107.8516845703125,708.1031494140625,4833.53955078125,12557.5068359375,-5287.3291015625,2104.44140625,17515.818359375,-10344.982421875,-3613.631103515625,2636.11474609375,9461.2431640625,11386.87109375,5741.9140625,8888.244140625,5314.35009765625,-0.0,5800.72412109375,25925.63671875,30014.515625,8298.556640625,18122.1953125,12877.7822265625,-1261.2342529296875,-2809.365478515625,4423.45947265625,13021.6279296875,10759.0361328125,12825.330078125,9963.5126953125,916.3220825195312,-1216.7294921875,8322.3984375,0.0,4410.74365234375,7700.919921875,6461.9384765625,4702.4091796875,9875.2978515625,9903.908203125,15892.982421875,-12553.5322265625,2381.801513671875,10981.5595703125,7422.76513671875,5664.03076171875,4283.5869140625,0.0,9470.7802734375
5109.31005859375,3783.702880859375,9707.6103515625,5361.23876953125,15834.966796875,5728.40380859375,8349.4189453125,12602.01171875,4468.75927734375,6933.21240234375,4212.0615234375,7005.53271484375,-5621.91015625,0.0,11924.107421875,11709.53125,911.5537109375,805.8547973632812,3852.84423828125,5819.79736328125,3689.130126953125,10481.6748046875,7481.5751953125,22065.638671875,-1101.493896484375,705.718994140625,4828.77099609375,12553.5322265625,-5286.53466796875,2102.851806640625,17521.380859375,-10344.982421875,-3600.915283203125,2651.214599609375,9463.6279296875,11387.666015625,5743.50341796875,8889.0390625,5265.87158203125,-0.0,5812.64501953125,25925.63671875,30014.515625,8295.376953125,18124.580078125,12878.5771484375,-1275.5394287109375,-2805.39208984375,4417.1015625,13022.4228515625,10759.830078125,12823.7412109375,9948.4130859375,925.8588256835938,-1219.9083251953125,8318.423828125,0.0,4397.2333984375,7700.125,6462.73291015625,4685.7197265625,9876.091796875,9905.4970703125,15899.33984375,-12551.943359375,2380.212158203125,10983.9443359375,7433.89111328125,5668.798828125,4278.81884765625,0.0,9479.5224609375
5112.4892578125,3790.060791015625,9732.24609375,5348.5234375,15828.609375,5720.45654296875,8344.650390625,12593.26953125,4460.8115234375,6921.29150390625,4206.49853515625,6994.40625,-5629.0625,0.0,11917.75,11700.7890625,900.427490234375,794.7285766601562,3845.691650390625,5810.2607421875,3674.824951171875,10470.5498046875,7476.01171875,22057.69140625,-1110.23583984375,698.56640625,4833.53955078125,12547.17578125,-5289.71337890625,2097.288818359375,17510.255859375,-10346.572265625,-3625.552001953125,2644.856689453125,9453.296875,11380.513671875,5737.9404296875,8879.501953125,5305.6083984375,-0.0,5796.75048828125,25914.509765625,30012.92578125,8287.4296875,18122.1953125,12869.8349609375,-1268.3868408203125,-2792.67626953125,4414.71728515625,13014.4755859375,10755.0625,12815.79296875,9942.849609375,904.401123046875,-1225.471435546875,8306.5029296875,0.0,4392.46533203125,7684.23095703125,6456.375,4680.95166015625,9870.529296875,9896.7548828125,15863.5771484375,-12559.0966796875,2369.0859375,10975.9970703125,7410.84423828125,5675.95166015625,4268.4873046875,0.0,9460.44921875
5126.79443359375,3790.060791015625,9721.9150390625,5350.11279296875,15826.2255859375,5714.0986328125,8344.650390625,12587.70703125,4452.06982421875,6906.986328125,4203.3193359375,6984.86962890625,-5653.69921875,0.0,11922.5185546875,11697.6103515625,889.30126953125,785.986572265625,3840.92333984375,5798.33984375,3667.67236328125,10464.19140625,7472.0380859375,22049.74609375,-1115.004150390625,695.3875122070312,4846.2548828125,12544.791015625,-5293.6875,2086.16259765625,17502.30859375,-10354.5185546875,-3631.114990234375,2631.346435546875,9449.322265625,11374.15625,5737.9404296875,8872.349609375,5288.1240234375,-0.0,5780.06103515625,25909.7421875,30014.515625,8281.0712890625,18119.8125,12860.2978515625,-1258.0552978515625,-2803.0078125,4419.4853515625,13006.5283203125,10759.830078125,12810.23046875,9949.20703125,881.35400390625,-1227.855712890625,8300.1455078125,0.0,4392.46533203125,7675.48876953125,6446.83837890625,4691.28271484375,9864.966796875,9890.3974609375,15837.3505859375,-12566.2490234375,2360.343994140625,10978.380859375,7370.31298828125,5681.5146484375,4241.46630859375,0.0,9426.2763671875
5124.41015625,3789.265869140625,9737.8095703125,5372.365234375,15838.94140625,5728.40380859375,8354.1875,12608.369140625,4462.40087890625,6917.31787109375,4212.8564453125,6988.04833984375,-5661.646484375,0.0,11934.439453125,11718.2734375,903.6064453125,799.4969482421875,3852.84423828125,5811.85009765625,3682.7724609375,10478.49609375,7483.958984375,22062.458984375,-1100.6990966796875,706.5137329101562,4848.63916015625,12562.275390625,-5294.48193359375,2098.08349609375,17516.61328125,-10357.697265625,-3601.7099609375,2639.293701171875,9462.0390625,11385.28125,5747.47705078125,8887.4501953125,5257.1298828125,-0.0,5799.92919921875,25928.81640625,30021.66796875,8296.966796875,18128.552734375,12874.603515625,-1244.544921875,-2818.107666015625,4429.8173828125,13022.4228515625,10769.3671875,12830.8935546875,9950.796875,884.532958984375,-1220.703125,8312.861328125,0.0,4415.51220703125,7682.6416015625,6465.912109375,4684.92529296875,9877.681640625,9902.318359375,15863.5771484375,-12562.275390625,2365.1123046875,10989.5068359375,7379.05517578125,5675.1572265625,4245.43994140625,0.0,9442.9658203125
5135.5361328125,3809.928955078125,9732.24609375,5412.896484375,15859.603515625,5762.5771484375,8375.64453125,12636.1845703125,4482.26953125,6928.44384765625,4235.10888671875,7020.63232421875,-5624.29443359375,0.0,11941.591796875,11748.4736328125,930.627197265625,828.9019165039062,3876.68603515625,5831.71826171875,3710.587646484375,10511.0810546875,7509.39013671875,22091.865234375,-1080.8309326171875,737.5081176757812,4858.17578125,12598.0380859375,-5274.61376953125,2131.462158203125,17543.634765625,-10330.6767578125,-3587.405029296875,2680.619384765625,9488.2646484375,11413.09765625,5768.14013671875,8912.880859375,5332.62890625,-0.0,5818.2080078125,25962.1953125,30043.919921875,8328.755859375,18150.01171875,12896.85546875,-1230.2398681640625,-2791.0869140625,4457.63232421875,13060.5693359375,10778.109375,12859.50390625,9970.6650390625,925.8588256835938,-1204.80859375,8346.240234375,0.0,4432.201171875,7696.15185546875,6494.52197265625,4699.22998046875,9903.11328125,9924.5712890625,15890.5986328125,-12539.2275390625,2396.9013671875,10998.2490234375,7373.49169921875,5687.078125,4216.03515625,0.0,9451.70703125
5141.89404296875,3809.13427734375,9748.935546875,5367.59716796875,15867.5517578125,5769.7294921875,8377.234375,12648.900390625,4493.3955078125,6951.49072265625,4241.46630859375,7034.9375,-5598.86328125,0.0,11943.9765625,11761.1884765625,936.1903076171875,836.0545043945312,3885.42822265625,5846.0234375,3716.945556640625,10511.0810546875,7514.95361328125,22101.40234375,-1072.0888671875,745.4554443359375,4858.17578125,12608.369140625,-5261.10302734375,2133.051513671875,17550.787109375,-10310.013671875,-3579.45751953125,2671.082763671875,9494.6220703125,11420.25,5772.11376953125,8921.623046875,5341.37109375,-0.0,5824.56591796875,25961.3984375,30048.689453125,8339.087890625,18154.779296875,12909.5712890625,-1225.471435546875,-2768.83447265625,4467.96435546875,13071.6962890625,10779.6982421875,12873.80859375,9968.28125,950.4954223632812,-1198.45068359375,8345.4443359375,0.0,4436.9697265625,7725.556640625,6507.23779296875,4714.330078125,9909.470703125,9934.107421875,15895.3662109375,-12525.7177734375,2408.027587890625,11001.427734375,7397.33349609375,5691.84619140625,4266.10302734375,0.0,9462.0390625
5156.99365234375,3778.9345703125,9731.4521484375,5366.80224609375,15855.630859375,5751.451171875,8361.33984375,12629.826171875,4481.474609375,6948.3125,4224.77734375,7019.837890625,-5607.60498046875,0.0,11935.234375,11738.140625,920.2957153320312,820.159912109375,3870.328125,5838.87109375,3702.640625,10495.98046875,7500.6484375,22083.91796875,-1095.135986328125,731.945068359375,4839.10205078125,12585.322265625,-5269.845703125,2121.130615234375,17535.685546875,-10314.7822265625,-3591.37841796875,2661.5458984375,9481.1123046875,11403.560546875,5754.62939453125,8904.93359375,5296.0712890625,-0.0,5815.82421875,25945.505859375,30034.3828125,8319.21875,18138.884765625,12896.060546875,-1266.79736328125,-2781.550048828125,4446.50634765625,13051.033203125,10770.95703125,12851.5556640625,9968.28125,936.9849853515625,-1207.1927490234375,8325.5771484375,0.0,4429.0224609375,7712.04638671875,6477.8330078125,4714.330078125,9895.1650390625,9919.802734375,15886.625,-12536.84375,2397.6962890625,10995.865234375,7395.744140625,5691.05126953125,4293.91845703125,0.0,9478.728515625
5202.29345703125,3773.371337890625,9735.4248046875,5379.51806640625,15860.3994140625,5753.8349609375,8369.2861328125,12636.9794921875,4485.4482421875,6953.875,4236.6982421875,7019.837890625,-5590.91552734375,0.0,11946.3603515625,11742.9091796875,924.2693481445312,824.133544921875,3875.0966796875,5848.40771484375,3705.8193359375,10501.5439453125,7504.6220703125,22087.892578125,-1081.6256103515625,731.1503295898438,4847.8447265625,12590.0908203125,-5260.30859375,2121.130615234375,17540.455078125,-10317.166015625,-3592.968017578125,2663.135498046875,9484.291015625,11408.3291015625,5762.5771484375,8909.7021484375,5316.734375,-0.0,5820.59228515625,25951.86328125,30042.330078125,8321.6025390625,18145.2421875,12901.6240234375,-1242.95556640625,-2791.881591796875,4445.71142578125,13047.8544921875,10782.0830078125,12858.7080078125,9988.9443359375,918.7062377929688,-1188.9139404296875,8338.2919921875,0.0,4436.9697265625,7706.4833984375,6485.7802734375,4717.5087890625,9898.3447265625,9925.365234375,15908.8759765625,-12530.486328125,2400.080322265625,11006.1962890625,7379.05517578125,5695.81982421875,4284.3818359375,0.0,9497.0068359375
5218.98291015625,3774.166015625,9782.314453125,5403.35986328125,15874.7041015625,5775.29296875,8384.38671875,12660.8212890625,4496.57421875,6956.25927734375,4259.7451171875,7034.14306640625,-5566.27880859375,0.0,11960.666015625,11769.9306640625,942.548095703125,841.6175537109375,3888.60693359375,5853.97119140625,3721.714111328125,10519.02734375,7518.1328125,22105.375,-1056.989013671875,745.4554443359375,4862.9443359375,12620.2900390625,-5240.4404296875,2148.1513671875,17556.349609375,-10306.041015625,-3573.099853515625,2686.1826171875,9499.390625,11424.2236328125,5777.67724609375,8926.3916015625,5342.16552734375,-0.0,5839.666015625,25970.935546875,30055.841796875,8343.060546875,18158.75390625,12915.134765625,-1188.9139404296875,-2780.75537109375,4449.685546875,13072.490234375,10797.1826171875,12882.5498046875,10004.0439453125,923.474609375,-1186.52978515625,8362.1337890625,0.0,4447.30126953125,7721.5830078125,6504.853515625,4722.27734375,9915.0341796875,9938.8759765625,15904.1083984375,-12513.0009765625,2415.974853515625,11018.912109375,7367.92919921875,5703.76708984375,4258.15576171875,0.0,9479.5224609375
5193.5517578125,3774.960693359375,9737.8095703125,5378.72314453125,15850.0673828125,5760.98779296875,8366.90234375,12641.7470703125,4477.5009765625,6930.033203125,4240.671875,7023.8115234375,-5597.2734375,0.0,11940.001953125,11750.0615234375,924.2693481445312,824.133544921875,3871.123046875,5828.53955078125,3700.25634765625,10502.3388671875,7499.853515625,22087.09765625,-1072.883544921875,734.3292236328125,4851.81787109375,12605.1904296875,-5258.71875,2147.356689453125,17536.482421875,-10316.3720703125,-3598.531005859375,2671.082763671875,9479.5224609375,11408.3291015625,5760.98779296875,8908.1123046875,5337.39697265625,-0.0,5811.0556640625,25957.42578125,30033.587890625,8327.1669921875,18140.474609375,12894.470703125,-1224.6767578125,-2808.57080078125,4432.99609375,13059.775390625,10775.7255859375,12864.2724609375,9984.17578125,924.2693481445312,-1194.47705078125,8351.0087890625,0.0,4423.45947265625,7703.30419921875,6488.958984375,4705.587890625,9901.5234375,9917.4189453125,15865.16796875,-12529.6904296875,2403.25927734375,10995.865234375,7383.8232421875,5688.66748046875,4226.36669921875,0.0,9429.455078125
5172.09375,3773.371337890625,9702.841796875,5377.1337890625,15858.80859375,5757.80859375,8367.697265625,12628.2373046875,4483.8583984375,6935.5966796875,4231.134765625,7030.1689453125,-5613.16845703125,0.0,11942.38671875,11735.7568359375,926.653564453125,824.133544921875,3871.917724609375,5834.8974609375,3709.79296875,10502.3388671875,7504.6220703125,22086.302734375,-1080.0361328125,740.6870727539062,4851.0234375,12590.884765625,-5261.89794921875,2152.125,17539.66015625,-10316.3720703125,-3588.994384765625,2671.082763671875,9483.4970703125,11409.123046875,5760.98779296875,8908.908203125,5333.423828125,-0.0,5831.71826171875,25957.42578125,30036.767578125,8320.80859375,18142.859375,12892.8828125,-1261.2342529296875,-2792.67626953125,4444.1220703125,13057.3916015625,10777.314453125,12852.3515625,9950.001953125,926.653564453125,-1188.9139404296875,8351.0087890625,0.0,4421.0751953125,7718.404296875,6481.80615234375,4707.177734375,9904.7021484375,9920.5966796875,15880.2666015625,-12532.8701171875,2409.6171875,10999.8388671875,7419.5859375,5695.81982421875,4258.15576171875,0.0,9448.5283203125
5174.47802734375,3799.597412109375,9684.5625,5439.9169921875,15886.625,5780.85546875,8393.1279296875,12656.84765625,4510.87939453125,6970.564453125,4241.46630859375,7044.47412109375,-5576.6103515625,0.0,11971.791015625,11762.7783203125,951.2901611328125,849.5648803710938,3898.9384765625,5868.27587890625,3743.171630859375,10528.564453125,7530.0537109375,22111.734375,-1072.883544921875,761.3499755859375,4882.8125,12613.1376953125,-5238.05615234375,2152.125,17565.884765625,-10302.06640625,-3554.821044921875,2704.46142578125,9510.517578125,11433.7607421875,5788.00830078125,8935.1337890625,5317.529296875,-0.0,5892.91259765625,25976.5,30066.171875,8344.650390625,18171.46875,12923.876953125,-1262.029052734375,-2758.5029296875,4454.4541015625,13077.2587890625,10805.1298828125,12878.5771484375,9960.333984375,925.8588256835938,-1161.8931884765625,8367.697265625,0.0,4450.47998046875,7736.68310546875,6521.54296875,4738.96630859375,9929.33984375,9949.20703125,15920.00390625,-12513.0009765625,2424.717041015625,11029.2431640625,7478.39599609375,5721.2509765625,4320.939453125,0.0,9507.3388671875
5151.4306640625,3793.239501953125,9729.8623046875,5412.1015625,15867.5517578125,5770.5244140625,8382.796875,12648.900390625,4498.95849609375,6968.97509765625,4242.26123046875,7023.8115234375,-5578.99462890625,0.0,11954.3076171875,11756.419921875,939.3692016601562,835.259765625,3887.812255859375,5862.712890625,3724.09814453125,10515.8486328125,7514.95361328125,22099.017578125,-1072.0888671875,745.4554443359375,4854.9970703125,12603.6005859375,-5251.56640625,2128.283203125,17552.375,-10309.2197265625,-3573.099853515625,2689.361572265625,9494.6220703125,11421.0439453125,5776.08740234375,8924.0078125,5268.255859375,-0.0,5852.38134765625,25966.16796875,30051.8671875,8335.11328125,18161.138671875,12917.5185546875,-1215.1400146484375,-2788.70263671875,4463.19580078125,13063.748046875,10790.0302734375,12869.8349609375,9969.8701171875,908.374755859375,-1155.535400390625,8354.1875,0.0,4443.32763671875,7712.04638671875,6512.00634765625,4731.81396484375,9915.0341796875,9940.46484375,15917.6201171875,-12518.5654296875,2405.6435546875,11012.5537109375,7472.8330078125,5713.30419921875,4333.65478515625,0.0,9520.0537109375
5094.2099609375,3759.06640625,9756.8828125,5372.365234375,15841.326171875,5749.861328125,8354.9814453125,12625.05859375,4466.375,6936.39111328125,4216.03515625,7003.1484375,-5614.75732421875,0.0,11919.3388671875,11731.7841796875,914.7326049804688,808.239013671875,3859.2021484375,5829.33447265625,3693.103759765625,10490.41796875,7486.34326171875,22073.587890625,-1091.162353515625,727.1766357421875,4831.94970703125,12583.732421875,-5281.7666015625,2117.95166015625,17525.353515625,-10318.755859375,-3604.09423828125,2661.5458984375,9467.6015625,11394.0234375,5749.06689453125,8898.576171875,5269.05078125,-0.0,5812.64501953125,25945.505859375,30020.873046875,8313.65625,18132.52734375,12891.29296875,-1248.5185546875,-2803.0078125,4433.79052734375,13045.470703125,10756.65234375,12847.5830078125,9942.849609375,878.1751098632812,-1194.47705078125,8336.703125,0.0,4425.84375,7677.078125,6480.216796875,4699.22998046875,9887.21875,9908.67578125,15879.47265625,-12544.791015625,2384.98046875,10974.4072265625,7406.87060546875,5671.18310546875,4266.8974609375,0.0,9473.9599609375
5146.662109375,3778.139892578125,9765.625,5385.87548828125,15846.09375,5768.9345703125,8368.4921875,12641.7470703125,4479.88525390625,6947.517578125,4236.6982421875,7024.6064453125,-5617.1416015625,0.0,11933.64453125,11749.267578125,927.4482421875,820.159912109375,3875.891357421875,5838.87109375,3701.051025390625,10507.1064453125,7498.26416015625,22088.685546875,-1084.8045654296875,749.4290771484375,4856.58642578125,12608.369140625,-5272.2294921875,2148.946044921875,17537.275390625,-10306.041015625,-3596.146728515625,2682.208984375,9479.5224609375,11409.9189453125,5760.98779296875,8912.880859375,5287.3291015625,-0.0,5809.4658203125,25961.3984375,30035.97265625,8331.9345703125,18144.44921875,12903.2138671875,-1242.95556640625,-2767.2451171875,4438.55908203125,13067.72265625,10769.3671875,12864.2724609375,9971.458984375,897.2485961914062,-1185.735107421875,8358.1611328125,0.0,4454.4541015625,7704.8935546875,6490.548828125,4705.587890625,9903.11328125,9921.3916015625,15884.2412109375,-12534.458984375,2408.027587890625,10988.7119140625,7422.76513671875,5675.95166015625,4287.56103515625,0.0,9461.2431640625
5184.0146484375,3763.039794921875,9766.4189453125,5401.77001953125,15846.8876953125,5762.5771484375,8361.33984375,12642.54296875,4485.4482421875,6957.05419921875,4239.08251953125,7014.2744140625,-5613.962890625,0.0,11932.849609375,11751.6513671875,920.2957153320312,814.5968017578125,3873.50732421875,5849.9970703125,3696.28271484375,10503.927734375,7495.8798828125,22086.302734375,-1089.5728759765625,740.6870727539062,4837.51318359375,12600.421875,-5276.203125,2136.23046875,17532.5078125,-10328.29296875,-3604.888916015625,2680.619384765625,9473.9599609375,11406.7392578125,5755.42431640625,8911.2919921875,5342.16552734375,-0.0,5799.134765625,25959.015625,30031.205078125,8327.9609375,18139.681640625,12907.1875,-1232.6240234375,-2791.0869140625,4448.095703125,13062.1591796875,10768.5732421875,12865.06640625,9986.5595703125,896.453857421875,-1188.9139404296875,8347.0341796875,0.0,4440.14892578125,7709.662109375,6504.05859375,4703.20361328125,9899.1396484375,9922.9814453125,15908.0830078125,-12538.4326171875,2400.080322265625,10991.0966796875,7446.60693359375,5689.46240234375,4315.37646484375,0.0,9504.9541015625
5163.3515625,3751.118896484375,9753.7041015625,5406.53857421875,15823.8408203125,5741.9140625,8340.6767578125,12613.1376953125,4460.8115234375,6922.880859375,4220.8037109375,6989.6376953125,-5610.7841796875,0.0,11920.134765625,11720.6572265625,904.401123046875,797.9075317382812,3850.4599609375,5819.79736328125,3679.59326171875,10486.443359375,7476.01171875,22067.228515625,-1104.6727294921875,720.0241088867188,4816.05517578125,12571.8115234375,-5286.53466796875,2112.388671875,17515.818359375,-10348.9560546875,-3619.98876953125,2664.72509765625,9452.501953125,11387.666015625,5735.55615234375,8888.244140625,5359.6494140625,-0.0,5784.82958984375,25946.298828125,30009.74609375,8304.119140625,18119.017578125,12879.3720703125,-1237.3924560546875,-2860.228271484375,4406.77001953125,13033.548828125,10757.4462890625,12835.662109375,9974.638671875,890.8907470703125,-1201.629638671875,8325.5771484375,0.0,4359.08642578125,7683.43603515625,6473.064453125,4693.6669921875,9881.6552734375,9902.318359375,15866.7568359375,-12548.7646484375,2381.801513671875,10978.380859375,7399.7177734375,5681.5146484375,4240.671875,0.0,9448.5283203125
5146.662109375,3744.76123046875,9710.7890625,5358.060546875,15815.8935546875,5737.9404296875,8335.908203125,12613.9326171875,4454.4541015625,6921.29150390625,4212.8564453125,6988.04833984375,-5619.52587890625,0.0,11916.16015625,11723.0419921875,896.453857421875,793.13916015625,3847.28125,5815.82421875,3674.0302734375,10478.49609375,7472.0380859375,22062.458984375,-1111.8253173828125,714.4609985351562,4819.234375,12578.169921875,-5290.50830078125,2106.03076171875,17510.255859375,-10356.9033203125,-3627.141357421875,2650.419921875,9447.7333984375,11381.30859375,5733.171875,8885.06640625,5288.9189453125,-0.0,5780.85546875,25937.556640625,30003.388671875,8302.529296875,18115.83984375,12878.5771484375,-1250.90283203125,-2847.512451171875,4392.46533203125,13032.75390625,10751.087890625,12838.0458984375,9967.486328125,894.0697021484375,-1211.1663818359375,8316.833984375,0.0,4409.154296875,7680.25732421875,6473.859375,4691.28271484375,9877.681640625,9899.1396484375,15866.7568359375,-12551.1484375,2375.443603515625,10973.6123046875,7332.96044921875,5660.05712890625,4235.10888671875,0.0,9466.01171875
5167.32568359375,3779.729248046875,9752.1142578125,5383.49169921875,15850.0673828125,5768.14013671875,8362.9296875,12658.4365234375,4476.7060546875,6943.5439453125,4235.9033203125,7018.248046875,-5625.08935546875,0.0,11928.0810546875,11769.1357421875,919.5009765625,816.9810180664062,3876.68603515625,5838.87109375,3697.077392578125,10499.9541015625,7499.853515625,22088.685546875,-1087.9835205078125,739.892333984375,4845.46044921875,12618.701171875,-5274.61376953125,2127.48828125,17535.685546875,-10330.6767578125,-3601.7099609375,2670.2880859375,9474.75390625,11405.9453125,5758.603515625,8915.2646484375,5333.423828125,-0.0,5809.4658203125,25956.630859375,30032.79296875,8335.908203125,18142.064453125,12906.392578125,-1238.1871337890625,-2769.629150390625,4436.9697265625,13070.9013671875,10764.5986328125,12880.9609375,9987.3544921875,909.9642333984375,-1195.2718505859375,8338.2919921875,0.0,4491.01123046875,7699.33056640625,6504.853515625,4710.3564453125,9903.11328125,9922.9814453125,15885.0341796875,-12532.0751953125,2392.927978515625,10985.5341796875,7319.4501953125,5684.69384765625,4232.724609375,0.0,9473.1650390625
5174.47802734375,3759.06640625,9754.498046875,5397.001953125,15869.935546875,5774.498046875,8380.4130859375,12661.6162109375,4487.83251953125,6941.15966796875,4243.0556640625,7030.9638671875,-5622.705078125,0.0,11943.1806640625,11770.7255859375,934.600830078125,832.8755493164062,3885.42822265625,5839.666015625,3714.5615234375,10513.46484375,7516.54296875,22099.017578125,-1075.267822265625,747.0448608398438,4868.50732421875,12621.8798828125,-5264.2822265625,2140.998779296875,17549.1953125,-10311.603515625,-3583.43115234375,2679.0302734375,9491.443359375,11417.0712890625,5773.703125,8924.0078125,5340.576171875,-0.0,5832.51318359375,25962.98828125,30051.8671875,8341.4716796875,18154.779296875,12909.5712890625,-1230.2398681640625,-2756.913330078125,4464.78515625,13074.875,10782.0830078125,12882.5498046875,9985.7646484375,921.8851928710938,-1193.682373046875,8345.4443359375,0.0,4484.6533203125,7717.609375,6487.36962890625,4722.27734375,9914.2392578125,9931.7236328125,15886.625,-12523.333984375,2401.669677734375,11000.6328125,7348.060546875,5698.2041015625,4234.31396484375,0.0,9426.2763671875
5174.47802734375,3771.781982421875,9716.3515625,5394.61767578125,15886.625,5770.5244140625,8387.5654296875,12644.1318359375,4500.5478515625,6949.10693359375,4252.5927734375,7030.9638671875,-5590.91552734375,0.0,11955.1015625,11750.857421875,948.9059448242188,842.4122924804688,3891.785888671875,5850.7919921875,3729.6611328125,10521.412109375,7526.07958984375,22102.197265625,-1065.7310791015625,746.2501220703125,4871.6865234375,12590.884765625,-5241.2353515625,2137.025146484375,17561.1171875,-10290.9404296875,-3573.89453125,2689.361572265625,9505.7490234375,11423.4287109375,5780.85546875,8926.3916015625,5328.6552734375,-0.0,5855.560546875,25968.55078125,30063.787109375,8333.5234375,18161.931640625,12912.75,-1227.0609130859375,-2779.166015625,4486.24267578125,13058.185546875,10793.208984375,12865.06640625,9986.5595703125,929.0377197265625,-1180.1719970703125,8347.8291015625,0.0,4417.1015625,7728.7353515625,6492.9326171875,4727.84033203125,9922.1865234375,9938.8759765625,15908.8759765625,-12516.1806640625,2408.027587890625,11016.5283203125,7440.2490234375,5706.1513671875,4287.56103515625,0.0,9449.322265625
5135.5361328125,3786.881591796875,9725.09375,5391.43896484375,15861.98828125,5741.9140625,8359.75,12598.83203125,4466.375,6908.57568359375,4229.54541015625,7003.1484375,-5622.705078125,0.0,11936.0283203125,11703.173828125,928.2429809570312,816.9810180664062,3861.58642578125,5812.64501953125,3705.8193359375,10495.98046875,7497.46923828125,22072.79296875,-1095.9306640625,718.4346313476562,4834.333984375,12551.1484375,-5265.87158203125,2115.5673828125,17538.865234375,-10330.6767578125,-3592.17333984375,2675.056396484375,9480.3173828125,11397.998046875,5752.24560546875,8893.0126953125,5296.0712890625,-0.0,5842.05029296875,25941.529296875,30033.587890625,8299.3505859375,18131.732421875,12873.013671875,-1259.6448974609375,-2793.47119140625,4456.837890625,13027.9853515625,10770.95703125,12818.97265625,9957.94921875,887.7118530273438,-1190.50341796875,8329.55078125,0.0,4382.92822265625,7697.7412109375,6440.48046875,4696.84619140625,9895.9609375,9904.7021484375,15845.298828125,-12540.8173828125,2389.748779296875,10995.0703125,7410.84423828125,5684.69384765625,4236.6982421875,0.0,9395.2822265625
5108.51513671875,3736.01904296875,9681.3837890625,5371.57080078125,15839.7353515625,5728.40380859375,8345.4443359375,12596.4482421875,4447.30126953125,6897.44970703125,4203.3193359375,6982.4853515625,-5655.28857421875,0.0,11927.287109375,11702.3779296875,900.427490234375,797.9075317382812,3845.691650390625,5799.134765625,3684.36181640625,10474.5224609375,7477.6015625,22058.486328125,-1116.59375,703.3348388671875,4828.77099609375,12552.73828125,-5297.66064453125,2089.34130859375,17515.0234375,-10348.9560546875,-3616.809814453125,2644.856689453125,9459.6552734375,11379.71875,5738.7353515625,8878.7080078125,5279.38232421875,-0.0,5822.181640625,25919.279296875,30014.515625,8289.814453125,18118.22265625,12861.0927734375,-1281.1025390625,-2799.828857421875,4427.43310546875,13019.244140625,10762.21484375,12818.97265625,9942.849609375,859.1016235351562,-1211.961181640625,8306.5029296875,0.0,4380.5439453125,7665.9521484375,6436.5068359375,4687.30908203125,9879.271484375,9889.6025390625,15837.3505859375,-12563.0693359375,2367.49658203125,10984.73828125,7391.77099609375,5675.95166015625,4216.03515625,0.0,9388.12890625
