5948.54345703125,3580.25244140625,15004.4755859375,7005.53271484375,17387.8671875,6852.94482421875,9774.3671875,14744.599609375,7252.693359375,8992.3544921875,6097.15771484375,9230.7734375,-4955.1328125,0.0,13657.41015625,13794.1044921875,1305.739013671875,1255.671142578125,5369.9814453125,8145.1728515625,4473.52734375,11703.173828125,8566.3798828125,23437.341796875,54.04154586791992,2981.82177734375,7301.171875,14610.291015625,-4352.728515625,2067.089111328125,19195.080078125,-10161.3994140625,-3549.258056640625,3675.619873046875,10829.7666015625,12260.27734375,7179.578125,10116.89453125,7495.8798828125,-0.0,6614.5263671875,27538.935546875,31716.82421875,9754.498046875,20186.900390625,15118.1220703125,1818.3389892578125,952.8795776367188,6612.9365234375,15589.396484375,12478.828125,14901.9560546875,11545.0224609375,2121.130615234375,1872.380615234375,10191.599609375,0.0,5656.08349609375,9505.7490234375,9263.3564453125,5435.943359375,10805.1298828125,12649.6953125,17672.380859375,-12688.63671875,2800.62353515625,12462.138671875,8451.9384765625,6889.501953125,6069.34228515625,0.0,10843.27734375
5952.51708984375,3575.484130859375,15008.44921875,7048.4482421875,17391.83984375,6848.970703125,9768.8037109375,14713.6044921875,7239.18310546875,8948.6435546875,6092.3896484375,9226.0048828125,-4957.51708984375,0.0,13654.232421875,13761.5205078125,1301.765380859375,1252.4923095703125,5358.85498046875,8116.56298828125,4464.78515625,11701.583984375,8563.9951171875,23427.8046875,61.19409942626953,2976.258544921875,7312.2978515625,14596.7802734375,-4348.7548828125,2057.55224609375,19191.107421875,-10160.60546875,-3555.61572265625,3682.7724609375,10826.587890625,12257.099609375,7176.3994140625,10101.794921875,7496.6748046875,-0.0,6608.962890625,27536.55078125,31720.798828125,9742.5771484375,20177.365234375,15086.3330078125,1855.6912841796875,957.64794921875,6635.98388671875,15579.859375,12477.23828125,14868.5771484375,11545.0224609375,2129.077880859375,1851.7176513671875,10187.6259765625,0.0,5636.21533203125,9500.98046875,9206.1357421875,5454.22216796875,10798.771484375,12633.005859375,17654.099609375,-12690.2265625,2800.62353515625,12460.5498046875,8444.7861328125,6881.55517578125,6004.96923828125,0.0,10746.3193359375
5972.38525390625,3611.246826171875,14966.3291015625,7007.9169921875,17395.01953125,6848.970703125,9768.8037109375,14708.0419921875,7238.38818359375,8941.4912109375,6091.5947265625,9231.5673828125,-4970.232421875,0.0,13655.822265625,13755.9580078125,1303.3548583984375,1253.2869873046875,5359.6494140625,8111.79443359375,4469.5537109375,11700.7890625,8563.9951171875,23430.189453125,48.47844314575195,2987.384765625,7306.734375,14588.8330078125,-4348.7548828125,2061.526123046875,19191.900390625,-10158.2216796875,-3562.768310546875,3670.056640625,10825.79296875,12259.4833984375,7174.01513671875,10101.0009765625,7522.10595703125,-0.0,6605.7841796875,27542.11328125,31721.591796875,9743.373046875,20174.98046875,15083.94921875,1860.459716796875,954.4690551757812,6645.5205078125,15583.0380859375,12478.0341796875,14863.0146484375,11568.0693359375,2142.58837890625,1846.94921875,10190.8046875,0.0,5677.541015625,9513.6953125,9212.494140625,5472.50146484375,10800.361328125,12632.2109375,17651.716796875,-12691.0205078125,2807.776123046875,12462.138671875,8478.958984375,6881.55517578125,5989.86962890625,0.0,10730.42578125
5960.46435546875,3621.578125,14986.197265625,7011.095703125,17387.8671875,6852.94482421875,9770.3935546875,14721.552734375,7239.18310546875,8959.7705078125,6092.3896484375,9230.7734375,-4983.7431640625,0.0,13654.232421875,13770.2626953125,1308.91796875,1257.2606201171875,5364.41796875,8122.12646484375,4471.9375,11706.3525390625,8565.5849609375,23433.3671875,48.47844314575195,2992.153076171875,7305.93994140625,14587.2431640625,-4350.34423828125,2067.8837890625,19194.28515625,-10161.3994140625,-3560.384033203125,3685.156494140625,10827.3818359375,12263.45703125,7176.3994140625,10107.3583984375,7509.39013671875,-0.0,6608.962890625,27550.0625,31715.232421875,9746.5517578125,20175.775390625,15092.6904296875,1873.17529296875,948.1112060546875,6648.69921875,15583.0380859375,12476.4443359375,14877.3193359375,11584.7587890625,2132.2568359375,1884.301513671875,10194.7783203125,0.0,5722.8408203125,9508.1328125,9223.6201171875,5470.1171875,10805.1298828125,12636.9794921875,17646.947265625,-12687.8427734375,2808.57080078125,12460.5498046875,8481.34375,6875.19677734375,6025.63232421875,0.0,10770.95703125
5884.17041015625,3604.888916015625,14971.0966796875,7019.04296875,17383.89453125,6848.17626953125,9771.9833984375,14735.0625,7239.9775390625,8966.1279296875,6080.46875,9225.208984375,-5004.40576171875,0.0,13660.58984375,13783.7724609375,1305.739013671875,1255.671142578125,5363.623046875,8130.07373046875,4466.375,11702.3779296875,8564.7900390625,23432.57421875,43.7100715637207,2983.4111328125,7308.32421875,14595.19140625,-4362.26513671875,2063.115478515625,19190.310546875,-10169.3466796875,-3551.64208984375,3693.8984375,10826.587890625,12258.6884765625,7176.3994140625,10108.947265625,7487.13818359375,-0.0,6608.962890625,27534.166015625,31709.671875,9747.345703125,20177.365234375,15098.25390625,1860.459716796875,956.0584716796875,6635.18896484375,15575.8857421875,12482.802734375,14890.03515625,11544.2275390625,2113.183349609375,1886.6856689453125,10192.39453125,0.0,5737.14599609375,9505.7490234375,9231.5673828125,5457.4013671875,10802.74609375,12640.158203125,17673.173828125,-12701.3525390625,2799.0341796875,12466.9072265625,8443.9912109375,6880.76025390625,6008.94287109375,0.0,10797.9775390625
5873.04443359375,3592.17333984375,14963.9443359375,6961.02783203125,17378.330078125,6825.923828125,9762.4462890625,14687.37890625,7225.67236328125,8935.1337890625,6072.52099609375,9214.8779296875,-5007.5849609375,0.0,13652.642578125,13735.2939453125,1293.818115234375,1242.95556640625,5346.93408203125,8103.84765625,4456.04345703125,11682.5107421875,8555.2529296875,23415.087890625,37.35224533081055,2953.21142578125,7311.5029296875,14558.6328125,-4371.00732421875,2030.5316162109375,19179.978515625,-10174.115234375,-3557.999755859375,3661.314697265625,10818.640625,12240.41015625,7165.27294921875,10089.080078125,7403.69189453125,-0.0,6597.8369140625,27511.916015625,31704.90234375,9719.53125,20166.23828125,15068.0546875,1834.233642578125,938.574462890625,6627.24169921875,15555.22265625,12476.4443359375,14841.556640625,11512.4384765625,2161.661865234375,1865.22802734375,10174.115234375,0.0,5652.10986328125,9488.2646484375,9180.705078125,5450.24853515625,10788.4404296875,12621.8798828125,17629.46484375,-12712.478515625,2784.72900390625,12458.9609375,8467.0380859375,6879.1708984375,5972.38525390625,0.0,10737.578125
5930.26513671875,3577.8681640625,14967.91796875,6961.822265625,17383.09765625,6825.12890625,9764.8310546875,14680.2265625,7229.64599609375,8935.1337890625,6072.52099609375,9218.8515625,-4991.68994140625,0.0,13655.0263671875,13727.34765625,1297.7918701171875,1244.544921875,5351.7021484375,8107.8212890625,4463.99072265625,11681.7158203125,8557.6376953125,23416.677734375,44.50480270385742,2950.827392578125,7311.5029296875,14551.48046875,-4363.06005859375,2036.0947265625,19182.36328125,-10165.3740234375,-3542.10546875,3652.57275390625,10822.61328125,12244.3837890625,7168.45166015625,10089.080078125,7329.7822265625,-0.0,6608.962890625,27509.53125,31711.26171875,9716.3515625,20168.623046875,15068.0546875,1842.9755859375,919.5009765625,6632.8046875,15549.66015625,12478.0341796875,14836.7880859375,11520.3857421875,2172.787841796875,1866.8175048828125,10182.857421875,0.0,5633.0361328125,9487.4697265625,9183.8837890625,5452.6328125,10790.8251953125,12624.263671875,17638.20703125,-12707.7099609375,2790.2919921875,12459.7548828125,8494.853515625,6873.607421875,5978.7431640625,0.0,10742.3466796875
5948.54345703125,3565.15234375,14973.4814453125,6994.40625,17384.6875,6837.0498046875,9771.1875,14713.6044921875,7243.951171875,8969.306640625,6069.34228515625,9220.4404296875,-4986.12744140625,0.0,13663.7685546875,13764.69921875,1301.765380859375,1250.90283203125,5363.623046875,8135.63623046875,4467.16943359375,11691.2529296875,8563.9951171875,23427.8046875,48.47844314575195,2962.748291015625,7309.11865234375,14572.1435546875,-4365.4443359375,2045.63134765625,19188.72265625,-10172.5263671875,-3551.64208984375,3662.904052734375,10825.79296875,12254.71484375,7174.81005859375,10105.76953125,7472.0380859375,-0.0,6610.55224609375,27522.24609375,31715.232421875,9734.630859375,20178.16015625,15096.6640625,1846.94921875,929.8324584960938,6639.95751953125,15560.7861328125,12486.775390625,14870.9609375,11533.896484375,2162.45654296875,1866.8175048828125,10188.419921875,0.0,5647.34130859375,9505.7490234375,9238.7197265625,5435.943359375,10801.15625,12641.7470703125,17691.453125,-12710.0947265625,2791.0869140625,12468.4970703125,8494.0595703125,6879.1708984375,6001.79052734375,0.0,10832.150390625
5948.54345703125,3578.662841796875,14989.3759765625,6963.41162109375,17394.224609375,6849.765625,9780.724609375,14734.2685546875,7248.7197265625,8988.380859375,6084.4423828125,9235.541015625,-4978.1796875,0.0,13666.1533203125,13783.7724609375,1312.096923828125,1261.2342529296875,5373.95458984375,8148.3525390625,4475.11669921875,11700.7890625,8571.9423828125,23438.9296875,54.836273193359375,2971.490234375,7321.83447265625,14595.9853515625,-4352.728515625,2059.9365234375,19196.66796875,-10159.810546875,-3546.873779296875,3674.824951171875,10836.1240234375,12263.45703125,7185.14111328125,10117.6904296875,7515.74853515625,-0.0,6620.8837890625,27532.578125,31723.9765625,9749.73046875,20186.900390625,15112.5595703125,1842.180908203125,971.9530639648438,6639.16259765625,15575.8857421875,12489.955078125,14889.240234375,11553.7646484375,2175.967041015625,1874.7647705078125,10201.9306640625,0.0,5629.0625,9506.54296875,9260.177734375,5433.5595703125,10810.6923828125,12652.8740234375,17705.759765625,-12702.94140625,2799.828857421875,12471.67578125,8484.5224609375,6869.63427734375,5999.40625,0.0,10879.0400390625
5944.56982421875,3582.636474609375,14979.044921875,6939.56982421875,17391.046875,6842.61328125,9771.9833984375,14716.7841796875,7238.38818359375,8978.84375,6079.673828125,9234.74609375,-4977.38525390625,0.0,13655.822265625,13763.1103515625,1304.9443359375,1258.85009765625,5363.623046875,8135.63623046875,4467.96435546875,11696.021484375,8565.5849609375,23432.57421875,54.04154586791992,2965.132568359375,7314.68212890625,14580.8857421875,-4352.728515625,2058.346923828125,19191.107421875,-10163.7841796875,-3550.847412109375,3661.314697265625,10832.150390625,12257.099609375,7176.3994140625,10107.3583984375,7495.8798828125,-0.0,6618.5,27527.013671875,31716.029296875,9740.193359375,20180.54296875,15099.8427734375,1813.5706787109375,956.0584716796875,6621.6787109375,15564.7587890625,12480.41796875,14872.55078125,11562.5068359375,2180.7353515625,1860.459716796875,10198.751953125,0.0,5617.9365234375,9500.98046875,9247.4619140625,5447.86474609375,10802.74609375,12641.7470703125,17672.380859375,-12703.736328125,2801.418212890625,12462.138671875,8505.98046875,6868.83935546875,6031.990234375,0.0,10851.2236328125
5926.291015625,3595.35205078125,14973.4814453125,6964.20654296875,17396.607421875,6834.666015625,9775.162109375,14695.3271484375,7248.7197265625,8986.791015625,6080.46875,9238.7197265625,-4973.41162109375,0.0,13654.232421875,13742.447265625,1304.9443359375,1260.4395751953125,5362.82861328125,8143.58447265625,4473.52734375,11694.431640625,8568.763671875,23427.8046875,54.836273193359375,2964.337646484375,7316.271484375,14557.0439453125,-4356.7021484375,2055.168212890625,19193.490234375,-10162.9892578125,-3543.69482421875,3657.341064453125,10835.330078125,12253.9208984375,7179.578125,10102.58984375,7472.8330078125,-0.0,6629.6259765625,27518.271484375,31720.798828125,9727.478515625,20182.927734375,15095.07421875,1811.1864013671875,975.9266967773438,6632.009765625,15555.22265625,12478.828125,14851.09375,11568.0693359375,2180.7353515625,1850.9229736328125,10193.1884765625,0.0,5652.904296875,9511.3115234375,9214.083984375,5466.14306640625,10803.5400390625,12643.3369140625,17689.86328125,-12707.7099609375,2805.39208984375,12459.7548828125,8548.8955078125,6889.501953125,6099.5419921875,0.0,10856.7880859375
5888.14404296875,3589.7890625,14949.6396484375,6978.51171875,17386.27734375,6826.71875,9769.5986328125,14693.7373046875,7239.18310546875,8962.94921875,6074.9052734375,9229.18359375,-4975.7958984375,0.0,13650.2578125,13741.65234375,1300.970703125,1254.081787109375,5357.265625,8126.89501953125,4468.75927734375,11690.45703125,8565.5849609375,23422.2421875,40.531158447265625,2957.97998046875,7310.70849609375,14557.8388671875,-4368.623046875,2049.605224609375,19190.310546875,-10171.7314453125,-3548.463134765625,3661.314697265625,10830.5615234375,12250.7412109375,7173.22021484375,10097.0263671875,7460.1171875,-0.0,6620.8837890625,27513.50390625,31715.232421875,9724.2998046875,20175.775390625,15085.5380859375,1835.822998046875,960.826904296875,6612.9365234375,15551.2490234375,12474.8544921875,14848.708984375,11542.6376953125,2154.50927734375,1866.8175048828125,10182.0634765625,0.0,5678.33544921875,9510.517578125,9203.751953125,5451.837890625,10799.5673828125,12632.2109375,17663.63671875,-12715.6572265625,2796.64990234375,12455.78125,8513.1328125,6879.96533203125,6039.142578125,0.0,10790.8251953125
5910.396484375,3596.146728515625,14961.560546875,6999.1748046875,17391.046875,6832.28173828125,9764.8310546875,14703.2734375,7239.18310546875,8954.20703125,6078.08447265625,9226.0048828125,-4974.20654296875,0.0,13656.6162109375,13751.9833984375,1307.32861328125,1256.4659423828125,5355.67626953125,8120.53662109375,4468.75927734375,11696.021484375,8566.3798828125,23427.009765625,34.1733283996582,2962.748291015625,7302.76123046875,14572.1435546875,-4359.08642578125,2051.1943359375,19195.080078125,-10161.3994140625,-3548.463134765625,3673.235595703125,10832.150390625,12254.71484375,7169.24658203125,10098.6162109375,7483.16455078125,-0.0,6630.4208984375,27520.65625,31715.232421875,9729.8623046875,20170.2109375,15083.1533203125,1847.7440185546875,951.2901611328125,6625.65234375,15557.6064453125,12478.828125,14859.0400390625,11540.25390625,2140.998779296875,1884.301513671875,10185.2421875,0.0,5667.20947265625,9516.875,9206.9306640625,5457.4013671875,10800.361328125,12631.416015625,17646.154296875,-12696.583984375,2800.62353515625,12462.93359375,8474.1904296875,6891.88623046875,5995.4326171875,0.0,10757.4462890625
5919.93310546875,3583.43115234375,14971.892578125,7010.30126953125,17387.8671875,6831.4873046875,9760.0625,14702.4794921875,7223.2880859375,8937.5185546875,6074.1103515625,9221.236328125,-4982.9482421875,0.0,13651.0537109375,13751.189453125,1302.5601806640625,1250.90283203125,5349.31787109375,8105.4375,4464.78515625,11692.841796875,8560.021484375,23420.65234375,40.531158447265625,2965.132568359375,7299.58203125,14572.1435546875,-4359.880859375,2060.731201171875,19190.310546875,-10164.578125,-3549.258056640625,3670.056640625,10827.3818359375,12249.9462890625,7162.88916015625,10092.2587890625,7462.50146484375,-0.0,6613.7314453125,27523.041015625,31712.849609375,9726.68359375,20163.05859375,15074.412109375,1827.0810546875,944.1375732421875,6635.18896484375,15559.1962890625,12473.265625,14858.24609375,11531.5126953125,2142.58837890625,1881.12255859375,10192.39453125,0.0,5638.599609375,9490.6494140625,9206.9306640625,5455.81201171875,10794.798828125,12621.8798828125,17637.41015625,-12698.173828125,2803.0078125,12456.576171875,8441.607421875,6872.81298828125,5946.9541015625,0.0,10746.3193359375
5913.57568359375,3572.304931640625,14926.5927734375,7024.6064453125,17383.09765625,6841.818359375,9763.2412109375,14728.705078125,7220.90380859375,8946.259765625,6065.36865234375,9214.8779296875,-4993.27978515625,0.0,13654.232421875,13779.7998046875,1295.4075927734375,1250.108154296875,5351.7021484375,8108.61572265625,4464.78515625,11692.841796875,8560.81640625,23423.830078125,44.50480270385742,2966.7216796875,7302.76123046875,14603.1376953125,-4368.623046875,2051.1943359375,19185.54296875,-10174.91015625,-3557.999755859375,3670.8515625,10824.203125,12250.7412109375,7166.0673828125,10100.205078125,7429.91796875,-0.0,6604.19482421875,27529.3984375,31712.0546875,9740.98828125,20166.23828125,15087.921875,1811.981201171875,931.4219360351562,6628.83154296875,15573.501953125,12479.623046875,14886.0615234375,11524.359375,2123.514892578125,1868.4068603515625,10196.3681640625,0.0,5707.74072265625,9484.291015625,9244.283203125,5435.943359375,10794.798828125,12625.853515625,17649.33203125,-12710.888671875,2794.265625,12459.7548828125,8411.4072265625,6866.455078125,5947.74853515625,0.0,10759.830078125
5921.5224609375,3575.484130859375,14991.759765625,6987.25390625,17405.3515625,6853.7392578125,9779.9296875,14724.7314453125,7241.56689453125,8970.1015625,6078.08447265625,9221.236328125,-4970.232421875,0.0,13670.126953125,13773.44140625,1312.8916015625,1267.592041015625,5366.80224609375,8132.45751953125,4485.4482421875,11709.53125,8577.505859375,23435.75,54.04154586791992,2977.84814453125,7321.83447265625,14603.1376953125,-4353.5234375,2052.783935546875,19203.8203125,-10174.115234375,-3527.00537109375,3693.103759765625,10844.0712890625,12265.0458984375,7183.5517578125,10111.33203125,7437.0703125,-0.0,6651.08349609375,27548.470703125,31730.3359375,9748.1416015625,20184.517578125,15097.458984375,1785.755126953125,927.4482421875,6646.31494140625,15582.244140625,12495.517578125,14880.498046875,11551.3798828125,2121.130615234375,1877.14892578125,10204.3154296875,0.0,5668.798828125,9498.595703125,9230.7734375,5424.8173828125,10811.48828125,12640.953125,17687.478515625,-12697.37890625,2799.0341796875,12476.4443359375,8477.3701171875,6891.091796875,6038.34765625,0.0,10800.361328125
5881.7861328125,3551.64208984375,14983.017578125,6962.6171875,17402.966796875,6831.4873046875,9772.77734375,14689.7626953125,7227.26220703125,8944.6708984375,6066.16357421875,9216.4677734375,-4982.1533203125,0.0,13664.5634765625,13740.0625,1301.765380859375,1256.4659423828125,5353.2919921875,8112.58984375,4477.5009765625,11692.046875,8570.353515625,23421.4453125,42.91534423828125,2955.595703125,7323.423828125,14563.4013671875,-4364.6494140625,2045.63134765625,19192.6953125,-10172.5263671875,-3537.337158203125,3674.0302734375,10836.9189453125,12249.9462890625,7177.1943359375,10093.8486328125,7475.21728515625,-0.0,6670.15673828125,27526.220703125,31727.951171875,9722.7099609375,20177.365234375,15074.412109375,1777.01318359375,942.548095703125,6639.16259765625,15556.8125,12490.7490234375,14847.119140625,11496.5439453125,2129.077880859375,1862.049072265625,10183.65234375,0.0,5619.52587890625,9484.291015625,9191.0361328125,5423.22802734375,10799.5673828125,12625.853515625,17660.458984375,-12711.6845703125,2791.0869140625,12470.8818359375,8468.6279296875,6877.5810546875,5993.84326171875,0.0,10767.77734375
5876.22314453125,3539.72119140625,14980.6337890625,6940.36474609375,17388.662109375,6821.9501953125,9760.8564453125,14685.7900390625,7217.72509765625,8935.9287109375,6067.7529296875,9217.2626953125,-4991.68994140625,0.0,13651.84765625,13735.2939453125,1293.0234375,1245.3397216796875,5344.5498046875,8099.87353515625,4460.8115234375,11677.7421875,8558.4326171875,23412.705078125,36.55751419067383,2945.26416015625,7313.88720703125,14555.4541015625,-4370.21240234375,2039.2735595703125,19179.978515625,-10165.3740234375,-3554.0263671875,3642.2412109375,10824.203125,12238.025390625,7167.6572265625,10085.10546875,7445.017578125,-0.0,6623.26806640625,27507.146484375,31718.4140625,9714.7626953125,20165.443359375,15066.46484375,1845.35986328125,944.1375732421875,6628.83154296875,15546.4814453125,12475.6494140625,14842.3505859375,11503.6962890625,2155.303955078125,1857.28076171875,10171.7314453125,0.0,5648.93115234375,9489.0595703125,9188.65234375,5439.9169921875,10790.8251953125,12617.9052734375,17638.20703125,-12714.86328125,2787.907958984375,12458.1650390625,8461.4755859375,6862.4814453125,5990.6640625,0.0,10741.5517578125
5863.5078125,3546.078857421875,14939.30859375,6965.7958984375,17393.431640625,6827.51318359375,9764.03515625,14696.916015625,7232.0302734375,8957.3857421875,6069.34228515625,9212.494140625,-4992.48486328125,0.0,13651.84765625,13745.6259765625,1298.5865478515625,1253.2869873046875,5352.4970703125,8122.9208984375,4470.34814453125,11688.0732421875,8563.9951171875,23418.267578125,30.994415283203125,2952.416748046875,7306.734375,14565.78515625,-4368.623046875,2034.505126953125,19187.927734375,-10174.91015625,-3536.542236328125,3659.72509765625,10828.9716796875,12246.767578125,7170.8359375,10093.8486328125,7382.23388671875,-0.0,6621.6787109375,27521.451171875,31716.82421875,9721.9150390625,20170.2109375,15079.9755859375,1837.4124755859375,896.453857421875,6628.83154296875,15550.4541015625,12474.8544921875,14853.4775390625,11541.84375,2143.383056640625,1861.25439453125,10169.3466796875,0.0,5662.44140625,9498.595703125,9208.51953125,5440.7119140625,10794.00390625,12629.826171875,17676.353515625,-12709.2998046875,2786.318603515625,12458.1650390625,8505.98046875,6883.939453125,6047.88427734375,0.0,10804.3359375
5870.66015625,3574.689208984375,14958.3818359375,7032.55322265625,17395.814453125,6837.0498046875,9771.9833984375,14707.248046875,7240.7724609375,8970.1015625,6078.87890625,9213.2880859375,-4986.12744140625,0.0,13660.58984375,13759.1357421875,1309.7127685546875,1261.2342529296875,5361.23876953125,8134.04736328125,4475.11669921875,11702.3779296875,8570.353515625,23427.8046875,48.47844314575195,2962.748291015625,7312.2978515625,14574.52734375,-4361.470703125,2039.2735595703125,19195.080078125,-10165.3740234375,-3540.515869140625,3673.235595703125,10836.1240234375,12257.099609375,7177.1943359375,10103.384765625,7487.13818359375,-0.0,6624.857421875,27536.55078125,31723.9765625,9732.24609375,20178.16015625,15091.896484375,1838.207275390625,907.580078125,6647.10986328125,15561.5810546875,12482.802734375,14863.0146484375,11566.4794921875,2131.462158203125,1872.380615234375,10172.5263671875,0.0,5670.388671875,9515.28515625,9224.4150390625,5439.12255859375,10803.5400390625,12636.1845703125,17688.2734375,-12701.3525390625,2783.139404296875,12466.9072265625,8516.3115234375,6881.55517578125,6050.2685546875,0.0,10825.79296875
5899.2705078125,3583.43115234375,14976.6611328125,6997.58544921875,17387.8671875,6818.771484375,9759.2666015625,14684.9951171875,7224.0830078125,8951.0283203125,6066.9580078125,9206.1357421875,-4985.33251953125,0.0,13647.8740234375,13736.0888671875,1300.970703125,1247.723876953125,5345.3447265625,8114.1787109375,4463.19580078125,11685.689453125,8559.2265625,23412.705078125,42.1206169128418,2951.6220703125,7300.376953125,14546.7119140625,-4364.6494140625,2028.1474609375,19182.36328125,-10169.3466796875,-3547.66845703125,3664.49365234375,10824.998046875,12242.0,7163.68359375,10087.490234375,7473.62744140625,-0.0,6610.55224609375,27509.53125,31713.646484375,9712.37890625,20165.443359375,15073.6171875,1834.233642578125,939.3692016601562,6632.009765625,15542.5068359375,12471.67578125,14839.966796875,11550.5859375,2119.541259765625,1859.6649169921875,10159.015625,0.0,5628.267578125,9497.0068359375,9203.751953125,5428.791015625,10789.2353515625,12620.2900390625,17658.869140625,-12709.2998046875,2777.576416015625,12454.986328125,8508.3642578125,6865.66015625,6020.86376953125,0.0,10792.4150390625
5904.0390625,3566.741943359375,14945.666015625,6951.49072265625,17375.150390625,6807.6455078125,9748.1416015625,14669.8955078125,7208.98291015625,8930.365234375,6035.96337890625,9197.39453125,-4965.46435546875,0.0,13639.9267578125,13719.3994140625,1285.076171875,1235.00830078125,5333.423828125,8096.69482421875,4455.24853515625,11668.205078125,8548.8955078125,23400.783203125,12.715657234191895,2948.443115234375,7290.04541015625,14537.970703125,-4367.03369140625,2021.78955078125,19171.23828125,-10192.39453125,-3555.61572265625,3641.4462890625,10816.2568359375,12228.4892578125,7151.7626953125,10074.7744140625,7363.16064453125,-0.0,6616.11572265625,27493.634765625,31700.134765625,9700.4580078125,20153.5234375,15054.5439453125,1782.576171875,917.9114990234375,6612.14208984375,15535.3544921875,12463.728515625,14825.662109375,11502.90234375,2125.104248046875,1846.94921875,10147.0947265625,0.0,5608.39990234375,9489.853515625,9183.8837890625,5419.25439453125,10779.6982421875,12606.7802734375,17636.6171875,-12723.60546875,2775.1923828125,12447.0400390625,8502.80078125,6857.71337890625,6001.79052734375,0.0,10757.4462890625
5915.9599609375,3571.51025390625,14995.734375,6935.5966796875,17370.3828125,6812.41357421875,9742.5771484375,14667.5107421875,7206.5986328125,8924.0078125,6043.9111328125,9201.3671875,-4952.74853515625,0.0,13626.416015625,13713.8369140625,1281.1025390625,1234.2135009765625,5329.4501953125,8093.51611328125,4448.095703125,11668.205078125,8545.7158203125,23400.783203125,23.84185791015625,2952.416748046875,7278.91943359375,14545.91796875,-4367.03369140625,2016.2265625,19168.05859375,-10190.009765625,-3571.51025390625,3636.677978515625,10810.6923828125,12230.0791015625,7145.40478515625,10073.1845703125,7403.69189453125,-0.0,6609.7578125,27506.3515625,31698.54296875,9700.4580078125,20147.166015625,15051.365234375,1791.3182373046875,948.1112060546875,6634.39404296875,15543.3017578125,12451.0126953125,14823.27734375,11506.875,2133.84619140625,1839.796630859375,10153.453125,0.0,5598.068359375,9479.5224609375,9178.3212890625,5422.43359375,10776.51953125,12604.3955078125,17638.20703125,-12724.3994140625,2775.1923828125,12435.9130859375,8486.9072265625,6861.6865234375,5987.4853515625,0.0,10754.267578125
5927.880859375,3595.35205078125,14994.9384765625,6960.2333984375,17393.431640625,6825.923828125,9763.2412109375,14688.96875,7224.0830078125,8945.46484375,6071.7265625,9226.0048828125,-4971.822265625,0.0,13649.4638671875,13736.0888671875,1296.2022705078125,1251.697509765625,5348.5234375,8112.58984375,4466.375,11683.3046875,8563.9951171875,23419.0625,51.6573600769043,2961.953369140625,7288.4560546875,14560.22265625,-4366.2392578125,2032.915771484375,19183.955078125,-10174.115234375,-3546.873779296875,3656.54638671875,10829.7666015625,12246.767578125,7166.0673828125,10092.2587890625,7471.2431640625,-0.0,6620.8837890625,27506.3515625,31718.4140625,9719.53125,20168.623046875,15072.0283203125,1830.2598876953125,990.2318725585938,6645.5205078125,15556.017578125,12473.265625,14843.9404296875,11533.896484375,2151.330322265625,1854.896484375,10170.9365234375,0.0,5625.8837890625,9493.033203125,9202.1630859375,5449.45361328125,10794.798828125,12623.4697265625,17658.076171875,-12710.888671875,2789.497314453125,12457.37109375,8510.7490234375,6868.83935546875,6012.12158203125,0.0,10781.2880859375
5918.34423828125,3595.35205078125,14987.7861328125,6961.822265625,17386.27734375,6825.12890625,9764.03515625,14698.505859375,7232.0302734375,8958.9755859375,6069.34228515625,9229.9775390625,-4989.30615234375,0.0,13659.0,13748.009765625,1294.6129150390625,1250.90283203125,5351.7021484375,8124.5107421875,4454.4541015625,11682.5107421875,8562.4052734375,23419.0625,47.6837158203125,2961.953369140625,7290.84033203125,14564.9912109375,-4374.98095703125,2048.015625,19181.5703125,-10175.705078125,-3561.178955078125,3656.54638671875,10824.203125,12245.97265625,7166.8623046875,10097.8212890625,7551.51123046875,-0.0,6603.39990234375,27503.966796875,31712.849609375,9723.50390625,20172.595703125,15082.359375,1852.5123291015625,973.5425415039062,6624.857421875,15554.427734375,12481.212890625,14855.0673828125,11541.048828125,2156.0986328125,1852.5123291015625,10182.857421875,0.0,5663.236328125,9506.54296875,9217.2626953125,5449.45361328125,10795.59375,12629.0322265625,17670.7890625,-12710.888671875,2795.060302734375,12466.9072265625,8529.822265625,6878.3759765625,6043.1162109375,0.0,10807.5146484375
5929.47021484375,3588.19970703125,14968.712890625,6977.716796875,17386.27734375,6833.87158203125,9768.8037109375,14710.4267578125,7237.59326171875,8970.896484375,6066.16357421875,9232.361328125,-4977.38525390625,0.0,13659.0,13759.9306640625,1295.4075927734375,1257.2606201171875,5358.85498046875,8132.45751953125,4455.24853515625,11688.8681640625,8566.3798828125,23426.21484375,42.91534423828125,2969.10595703125,7302.76123046875,14576.1171875,-4369.41748046875,2057.55224609375,19185.54296875,-10170.9365234375,-3569.126220703125,3665.288330078125,10827.3818359375,12252.3310546875,7171.630859375,10105.76953125,7534.82177734375,-0.0,6604.19482421875,27519.068359375,31717.6171875,9733.8359375,20176.568359375,15091.896484375,1850.128173828125,956.0584716796875,6622.47314453125,15562.375,12481.212890625,14868.5771484375,11562.5068359375,2156.0986328125,1854.896484375,10195.5732421875,0.0,5682.3095703125,9506.54296875,9232.361328125,5451.837890625,10801.951171875,12636.1845703125,17684.30078125,-12709.2998046875,2799.0341796875,12465.3173828125,8529.822265625,6881.55517578125,6059.80517578125,0.0,10832.9462890625
5942.98046875,3603.29931640625,14989.3759765625,7030.1689453125,17397.404296875,6854.5341796875,9779.9296875,14723.9375,7247.1298828125,8979.6376953125,6082.05810546875,9243.48828125,-4986.12744140625,0.0,13669.33203125,13775.03125,1314.4810791015625,1271.5657958984375,5371.57080078125,8141.2001953125,4471.14306640625,11708.736328125,8581.4794921875,23442.109375,56.42573165893555,2988.179443359375,7323.423828125,14593.6015625,-4363.06005859375,2071.062744140625,19201.4375,-10155.0419921875,-3546.078857421875,3687.540771484375,10842.482421875,12269.814453125,7186.73095703125,10119.279296875,7526.87451171875,-0.0,6618.5,27542.91015625,31731.921875,9748.1416015625,20190.080078125,15103.8173828125,1865.22802734375,958.4426879882812,6645.5205078125,15583.0380859375,12493.1337890625,14883.677734375,11576.0166015625,2166.43017578125,1865.22802734375,10209.8779296875,0.0,5683.89892578125,9512.9013671875,9243.48828125,5467.73291015625,10816.2568359375,12648.10546875,17686.685546875,-12701.3525390625,2814.9287109375,12475.6494140625,8534.5908203125,6891.091796875,6049.47412109375,0.0,10837.7138671875
5946.9541015625,3592.968017578125,14994.9384765625,7028.57958984375,17397.404296875,6854.5341796875,9780.724609375,14725.525390625,7243.15625,8976.4599609375,6090.00537109375,9240.3095703125,-5000.4326171875,0.0,13668.537109375,13775.03125,1318.4547119140625,1272.3604736328125,5370.77587890625,8137.22607421875,4471.14306640625,11711.9150390625,8580.6845703125,23441.314453125,61.19409942626953,2987.384765625,7322.62939453125,14594.3955078125,-4363.06005859375,2067.089111328125,19203.02734375,-10155.0419921875,-3540.515869140625,3696.28271484375,10842.482421875,12269.814453125,7186.73095703125,10120.07421875,7501.443359375,-0.0,6620.8837890625,27545.29296875,31729.537109375,9748.1416015625,20188.490234375,15102.2275390625,1859.6649169921875,937.7797241210938,6647.10986328125,15583.0380859375,12491.5439453125,14882.087890625,11568.0693359375,2171.9931640625,1868.4068603515625,10201.9306640625,0.0,5662.44140625,9502.5703125,9239.5146484375,5464.5537109375,10817.05078125,12646.515625,17674.763671875,-12701.3525390625,2814.9287109375,12475.6494140625,8490.8798828125,6889.501953125,6015.30078125,0.0,10828.9716796875
5933.443359375,3549.258056640625,14981.4287109375,7019.04296875,17387.8671875,6834.666015625,9766.4189453125,14704.86328125,7221.69873046875,8951.0283203125,6071.7265625,9223.6201171875,-4997.25341796875,0.0,13651.84765625,13754.3681640625,1304.149658203125,1257.2606201171875,5354.08642578125,8114.1787109375,4461.6064453125,11696.021484375,8565.5849609375,23423.037109375,46.88898849487305,2963.54296875,7306.734375,14572.9375,-4369.41748046875,2055.962890625,19191.900390625,-10174.115234375,-3540.515869140625,3685.951171875,10829.7666015625,12253.9208984375,7169.24658203125,10101.794921875,7429.123046875,-0.0,6616.11572265625,27527.80859375,31714.439453125,9730.65625,20171.0078125,15081.564453125,1822.312744140625,919.5009765625,6639.16259765625,15563.96484375,12475.6494140625,14861.4248046875,11526.744140625,2159.277587890625,1857.28076171875,10185.2421875,0.0,5648.13623046875,9473.9599609375,9213.2880859375,5444.685546875,10799.5673828125,12627.4423828125,17651.716796875,-12710.888671875,2799.0341796875,12458.1650390625,8459.0908203125,6872.81298828125,5981.12744140625,0.0,10782.0830078125
5877.81298828125,3506.342529296875,14906.7236328125,6962.6171875,17383.89453125,6825.923828125,9758.47265625,14695.3271484375,7214.54638671875,8943.0810546875,6058.21630859375,9210.109375,-4984.53759765625,0.0,13647.0791015625,13744.8310546875,1294.6129150390625,1250.108154296875,5346.93408203125,8107.8212890625,4464.78515625,11685.689453125,8557.6376953125,23414.29296875,30.994415283203125,2953.21142578125,7301.96630859375,14565.78515625,-4373.3916015625,2044.0418701171875,19184.748046875,-10189.2158203125,-3530.1845703125,3647.009521484375,10826.587890625,12244.3837890625,7163.68359375,10093.052734375,7404.486328125,-0.0,6628.03662109375,27522.24609375,31708.080078125,9721.9150390625,20164.6484375,15072.0283203125,1788.93408203125,904.401123046875,6625.65234375,15553.6337890625,12470.0859375,14852.6826171875,11510.8486328125,2140.2041015625,1854.101806640625,10175.705078125,0.0,5651.3154296875,9477.9326171875,9202.1630859375,5429.5859375,10791.619140625,12620.2900390625,17651.716796875,-12716.4521484375,2785.523681640625,12454.1923828125,8466.244140625,6860.8916015625,5989.07470703125,0.0,10766.1884765625
5884.17041015625,3535.74755859375,14932.1552734375,6981.69091796875,17394.224609375,6832.28173828125,9772.77734375,14700.8896484375,7225.67236328125,8952.6171875,6071.7265625,9221.236328125,-4960.69580078125,0.0,13663.7685546875,13748.009765625,1305.739013671875,1259.6448974609375,5359.6494140625,8116.56298828125,4470.34814453125,11694.431640625,8570.353515625,23423.830078125,38.14697265625,2961.15869140625,7321.83447265625,14568.96484375,-4351.93408203125,2047.220947265625,19192.6953125,-10166.16796875,-3531.77392578125,3659.72509765625,10836.9189453125,12251.5361328125,7179.578125,10100.205078125,7432.3017578125,-0.0,6644.7255859375,27527.013671875,31725.56640625,9726.68359375,20179.748046875,15080.76953125,1839.001953125,936.9849853515625,6634.39404296875,15557.6064453125,12485.1865234375,14855.0673828125,11538.6650390625,2133.051513671875,1869.20166015625,10182.0634765625,0.0,5649.7255859375,9488.2646484375,9210.109375,5439.12255859375,10801.15625,12630.6220703125,17654.099609375,-12702.1474609375,2791.881591796875,12469.2919921875,8474.986328125,6873.607421875,5989.86962890625,0.0,10772.5458984375
5880.197265625,3572.304931640625,14973.4814453125,6972.94873046875,17394.224609375,6822.74462890625,9767.21484375,14691.3525390625,7222.49365234375,8943.0810546875,6070.93212890625,9223.6201171875,-4957.51708984375,0.0,13654.232421875,13740.0625,1302.5601806640625,1250.90283203125,5351.7021484375,8106.2314453125,4463.19580078125,11683.3046875,8566.3798828125,23414.29296875,33.37860107421875,2954.006103515625,7313.0927734375,14557.8388671875,-4345.57568359375,2048.015625,19183.955078125,-10160.60546875,-3544.489501953125,3657.341064453125,10829.7666015625,12242.7939453125,7170.04150390625,10093.052734375,7487.13818359375,-0.0,6643.93115234375,27507.146484375,31723.18359375,9714.7626953125,20173.390625,15073.6171875,1842.180908203125,967.9794311523438,6646.31494140625,15545.685546875,12477.23828125,14846.3251953125,11540.25390625,2127.48828125,1858.8701171875,10178.0888671875,0.0,5644.95703125,9494.6220703125,9200.5732421875,5430.38037109375,10795.59375,12624.263671875,17635.02734375,-12706.916015625,2794.265625,12459.7548828125,8469.421875,6868.83935546875,5981.92236328125,0.0,10756.65234375
5902.44921875,3581.047119140625,15041.828125,6953.08056640625,17383.09765625,6825.12890625,9763.2412109375,14701.68359375,7228.056640625,8949.439453125,6082.05810546875,9221.236328125,-4964.669921875,0.0,13653.4375,13751.189453125,1301.765380859375,1246.92919921875,5354.08642578125,8114.97412109375,4456.04345703125,11683.3046875,8563.9951171875,23415.087890625,38.94169998168945,2954.80078125,7301.96630859375,14565.78515625,-4351.93408203125,2052.783935546875,19181.5703125,-10159.015625,-3546.873779296875,3661.314697265625,10823.4091796875,12241.2041015625,7166.0673828125,10097.0263671875,7516.54296875,-0.0,6601.810546875,27507.939453125,31714.439453125,9720.3251953125,20173.390625,15079.9755859375,1836.6177978515625,951.2901611328125,6639.95751953125,15542.5068359375,12475.6494140625,14858.24609375,11541.84375,2136.23046875,1854.101806640625,10182.0634765625,0.0,5664.8251953125,9493.828125,9213.2880859375,5431.17529296875,10794.00390625,12628.2373046875,17646.947265625,-12703.736328125,2798.239501953125,12460.5498046875,8461.4755859375,6877.5810546875,5983.51123046875,0.0,10774.1357421875
5933.443359375,3579.45751953125,15025.93359375,6957.05419921875,17385.482421875,6830.6923828125,9768.0087890625,14714.400390625,7230.4404296875,8953.412109375,6085.23681640625,9223.6201171875,-4959.9013671875,0.0,13655.822265625,13764.69921875,1300.970703125,1251.697509765625,5358.85498046875,8119.7421875,4457.63232421875,11685.689453125,8566.3798828125,23420.65234375,32.5838737487793,2957.18505859375,7310.70849609375,14580.0908203125,-4355.9072265625,2053.57861328125,19183.955078125,-10163.7841796875,-3548.463134765625,3660.519775390625,10829.7666015625,12245.97265625,7172.42578125,10103.384765625,7478.39599609375,-0.0,6626.447265625,27513.50390625,31716.82421875,9729.0673828125,20179.748046875,15087.921875,1827.875732421875,951.2901611328125,6619.29443359375,15554.427734375,12478.828125,14870.9609375,11545.8173828125,2142.58837890625,1854.101806640625,10182.0634765625,0.0,5675.1572265625,9494.6220703125,9233.951171875,5435.14892578125,10797.1826171875,12633.005859375,17651.716796875,-12698.9677734375,2799.828857421875,12460.5498046875,8451.9384765625,6875.99169921875,5972.38525390625,0.0,10781.2880859375
5915.1650390625,3571.51025390625,14969.5078125,6968.97509765625,17387.8671875,6828.30810546875,9762.4462890625,14707.248046875,7225.67236328125,8951.8232421875,6076.49462890625,9219.646484375,-4969.43798828125,0.0,13644.6953125,13755.162109375,1292.228759765625,1248.5185546875,5354.08642578125,8114.97412109375,4456.04345703125,11680.1259765625,8562.4052734375,23416.677734375,39.73643112182617,2958.774658203125,7305.1455078125,14576.1171875,-4367.03369140625,2044.8367919921875,19179.978515625,-10172.5263671875,-3551.64208984375,3658.930419921875,10827.3818359375,12242.0,7167.6572265625,10098.6162109375,7407.6650390625,-0.0,6633.599609375,27509.53125,31714.439453125,9725.888671875,20171.80078125,15082.359375,1816.74951171875,963.2110595703125,6628.03662109375,15554.427734375,12467.7021484375,14861.4248046875,11530.716796875,2108.414794921875,1837.4124755859375,10174.91015625,0.0,5640.9833984375,9499.390625,9224.4150390625,5434.3544921875,10793.208984375,12629.0322265625,17649.33203125,-12702.1474609375,2794.265625,12451.0126953125,8474.986328125,6858.5078125,6005.76416015625,0.0,10783.671875
5905.62841796875,3569.9208984375,14964.740234375,6968.18017578125,17384.6875,6825.12890625,9761.6513671875,14691.3525390625,7221.69873046875,8950.2333984375,6069.34228515625,9220.4404296875,-4978.1796875,0.0,13646.28515625,13739.2685546875,1288.255126953125,1246.1343994140625,5350.90771484375,8113.38427734375,4456.04345703125,11677.7421875,8561.611328125,23413.5,46.09425735473633,2957.97998046875,7296.4033203125,14565.78515625,-4368.623046875,2048.015625,19177.595703125,-10174.115234375,-3555.61572265625,3650.983154296875,10823.4091796875,12239.615234375,7166.8623046875,10093.8486328125,7479.98583984375,-0.0,6632.009765625,27507.939453125,31711.26171875,9719.53125,20172.595703125,15075.20703125,1819.1337890625,959.2374267578125,6618.5,15552.0439453125,12469.2919921875,14847.9150390625,11523.564453125,2094.904541015625,1846.94921875,10181.267578125,0.0,5601.2470703125,9486.6748046875,9199.7783203125,5439.9169921875,10791.619140625,12625.853515625,17652.51171875,-12712.478515625,2793.47119140625,12453.396484375,8501.2119140625,6862.4814453125,6031.1953125,0.0,10787.646484375
5934.23828125,3587.405029296875,15006.0654296875,6978.51171875,17402.966796875,6836.25537109375,9778.3408203125,14702.4794921875,7237.59326171875,8964.5390625,6082.85302734375,9229.18359375,-4959.1064453125,0.0,13658.2060546875,13750.3935546875,1300.970703125,1259.6448974609375,5364.41796875,8130.8681640625,4465.580078125,11690.45703125,8575.916015625,23426.21484375,49.27317428588867,2966.7216796875,7319.4501953125,14572.1435546875,-4351.93408203125,2064.704833984375,19191.107421875,-10164.578125,-3542.900146484375,3666.0830078125,10838.5087890625,12252.3310546875,7182.7568359375,10107.3583984375,7496.6748046875,-0.0,6628.83154296875,27519.861328125,31731.921875,9730.65625,20189.28515625,15089.51171875,1847.7440185546875,954.4690551757812,6645.5205078125,15563.1708984375,12483.5966796875,14859.0400390625,11546.611328125,2163.251220703125,1890.6593017578125,10194.7783203125,0.0,5612.37353515625,9507.3388671875,9220.4404296875,5458.99072265625,10805.9248046875,12640.158203125,17672.380859375,-12695.7890625,2806.186767578125,12465.3173828125,8529.02734375,6885.5283203125,6026.4267578125,0.0,10804.3359375
5943.775390625,3591.37841796875,15014.0126953125,6977.716796875,17409.32421875,6846.5869140625,9778.3408203125,14719.1689453125,7242.361328125,8976.4599609375,6081.26318359375,9229.9775390625,-4940.82763671875,0.0,13658.2060546875,13769.4677734375,1304.9443359375,1263.618408203125,5369.9814453125,8137.22607421875,4464.78515625,11696.8154296875,8577.505859375,23433.3671875,56.42573165893555,2973.07958984375,7316.271484375,14586.4482421875,-4350.34423828125,2067.8837890625,19193.490234375,-10162.9892578125,-3539.72119140625,3667.67236328125,10840.892578125,12256.3046875,7183.5517578125,10116.1005859375,7466.47509765625,-0.0,6623.26806640625,27530.193359375,31734.306640625,9741.783203125,20190.080078125,15101.4326171875,1871.5858154296875,932.2166748046875,6651.87841796875,15571.1171875,12481.212890625,14876.525390625,11568.8642578125,2169.609130859375,1886.6856689453125,10197.95703125,0.0,5679.13037109375,9509.72265625,9245.078125,5453.427734375,10810.6923828125,12644.9267578125,17689.0703125,-12689.431640625,2807.776123046875,12464.5234375,8531.4111328125,6873.607421875,6039.142578125,0.0,10827.3818359375
5915.9599609375,3561.178955078125,14957.5869140625,6960.2333984375,17384.6875,6833.07666015625,9762.4462890625,14709.6318359375,7230.4404296875,8979.6376953125,6070.13720703125,9212.494140625,-4969.43798828125,0.0,13645.4892578125,13760.7255859375,1288.255126953125,1246.1343994140625,5355.67626953125,8134.841796875,4452.8642578125,11682.5107421875,8560.81640625,23421.4453125,25.43131446838379,2958.774658203125,7286.07177734375,14576.1171875,-4373.3916015625,2040.863037109375,19178.390625,-10182.0634765625,-3546.078857421875,3647.80419921875,10822.61328125,12242.7939453125,7165.27294921875,10104.1796875,7444.22314453125,-0.0,6621.6787109375,27518.271484375,31708.080078125,9729.8623046875,20173.390625,15092.6904296875,1831.0546875,879.7645263671875,6626.447265625,15555.22265625,12466.9072265625,14866.1923828125,11555.3544921875,2152.125,1866.8175048828125,10177.294921875,0.0,5669.59375,9493.828125,9237.92578125,5420.04931640625,10794.798828125,12634.5947265625,17697.810546875,-12710.0947265625,2790.2919921875,12451.8076171875,8521.080078125,6853.7392578125,6070.13720703125,0.0,10865.529296875
5884.17041015625,3542.10546875,14960.765625,6996.79052734375,17379.919921875,6835.46044921875,9768.0087890625,14713.6044921875,7239.9775390625,8997.9169921875,6066.9580078125,9206.9306640625,-4982.9482421875,0.0,13651.84765625,13764.69921875,1291.4339599609375,1250.90283203125,5358.85498046875,8150.73681640625,4457.63232421875,11687.2783203125,8562.4052734375,23423.830078125,12.715657234191895,2962.748291015625,7304.3505859375,14576.1171875,-4362.26513671875,2037.6842041015625,19182.36328125,-10182.0634765625,-3529.3896484375,3662.904052734375,10824.203125,12246.767578125,7173.22021484375,10108.1533203125,7405.28125,-0.0,6617.705078125,27525.42578125,31708.080078125,9731.4521484375,20182.1328125,15103.0224609375,1812.7760009765625,871.8172607421875,6607.37353515625,15555.22265625,12474.8544921875,14870.1669921875,11525.154296875,2138.61474609375,1866.022705078125,10172.5263671875,0.0,5637.01025390625,9506.54296875,9249.8466796875,5414.48583984375,10797.1826171875,12643.3369140625,17715.294921875,-12712.478515625,2783.934326171875,12457.37109375,8536.974609375,6871.2236328125,6098.7470703125,0.0,10922.75
5896.88623046875,3500.779296875,14956.7919921875,7001.55859375,17383.89453125,6840.22900390625,9765.625,14708.8369140625,7234.41455078125,8985.99609375,6054.24267578125,9203.751953125,-4985.33251953125,0.0,13655.0263671875,13759.9306640625,1291.4339599609375,1250.108154296875,5357.265625,8137.22607421875,4451.27490234375,11690.45703125,8560.81640625,23423.037109375,30.19968605041504,2967.5166015625,7297.19775390625,14580.0908203125,-4363.06005859375,2056.757568359375,19180.775390625,-10184.447265625,-3545.2841796875,3664.49365234375,10821.8193359375,12248.3564453125,7172.42578125,10104.1796875,7409.25439453125,-0.0,6611.34716796875,27540.525390625,31711.26171875,9732.24609375,20180.54296875,15096.6640625,1823.902099609375,863.8699951171875,6604.98974609375,15562.375,12478.0341796875,14866.1923828125,11531.5126953125,2114.772705078125,1873.17529296875,10178.8837890625,0.0,5633.0361328125,9504.1591796875,9235.541015625,5428.791015625,10795.59375,12636.1845703125,17676.353515625,-12709.2998046875,2782.3447265625,12460.5498046875,8517.1064453125,6873.607421875,6074.9052734375,0.0,10872.681640625
5896.09130859375,3454.685302734375,14947.2548828125,6970.564453125,17356.078125,6814.0029296875,9737.0146484375,14673.07421875,7199.4462890625,8929.5703125,6043.1162109375,9183.0888671875,-4990.10107421875,0.0,13627.2119140625,13720.9892578125,1270.77099609375,1222.2926025390625,5328.6552734375,8091.13232421875,4429.0224609375,11666.615234375,8533.0009765625,23392.8359375,17.48402976989746,2942.085205078125,7273.35595703125,14556.2490234375,-4379.74951171875,2043.2471923828125,19154.548828125,-10196.3681640625,-3569.126220703125,3639.062255859375,10795.59375,12222.130859375,7142.2255859375,10072.390625,7398.12841796875,-0.0,6597.0419921875,27515.888671875,31688.212890625,9703.6357421875,20147.958984375,15054.5439453125,1814.3653564453125,873.40673828125,6603.39990234375,15540.9169921875,12451.0126953125,14830.4296875,11517.20703125,2076.625732421875,1859.6649169921875,10159.015625,0.0,5598.068359375,9472.3701171875,9180.705078125,5413.69091796875,10768.5732421875,12601.216796875,17608.0078125,-12724.3994140625,2771.218505859375,12434.3232421875,8467.0380859375,6846.5869140625,5993.84326171875,0.0,10763.0087890625
5898.4755859375,3452.301025390625,14956.7919921875,7003.94287109375,17363.23046875,6810.82373046875,9742.5771484375,14676.2529296875,7202.62548828125,8926.3916015625,6067.7529296875,9193.419921875,-4983.7431640625,0.0,13626.416015625,13724.962890625,1284.2813720703125,1227.0609130859375,5333.423828125,8091.13232421875,4439.35400390625,11671.3837890625,8540.1533203125,23397.603515625,30.994415283203125,2940.495849609375,7279.7138671875,14546.7119140625,-4374.18603515625,2020.994873046875,19161.701171875,-10195.5732421875,-3557.205078125,3662.109375,10801.951171875,12226.1044921875,7146.994140625,10077.1591796875,7410.84423828125,-0.0,6599.42626953125,27510.32421875,31694.572265625,9702.841796875,20151.93359375,15057.72265625,1827.875732421875,950.4954223632812,6628.03662109375,15531.380859375,12450.2177734375,14834.404296875,11507.669921875,2067.8837890625,1862.8438720703125,10157.42578125,0.0,5637.01025390625,9472.3701171875,9191.0361328125,5414.48583984375,10771.7509765625,12605.984375,17613.568359375,-12714.068359375,2775.1923828125,12433.529296875,8463.0654296875,6851.35498046875,5982.716796875,0.0,10742.3466796875
5918.34423828125,3512.700439453125,14967.1240234375,6984.0751953125,17366.41015625,6817.18212890625,9751.3203125,14694.53125,7217.72509765625,8954.20703125,6074.1103515625,9211.69921875,-4994.869140625,0.0,13639.9267578125,13744.8310546875,1285.076171875,1231.03466796875,5343.75537109375,8113.38427734375,4431.40673828125,11667.4111328125,8544.921875,23405.552734375,34.96805953979492,2948.443115234375,7282.892578125,14561.8125,-4374.98095703125,2022.584228515625,19161.701171875,-10180.4736328125,-3579.45751953125,3661.314697265625,10803.5400390625,12228.4892578125,7155.736328125,10089.8740234375,7471.2431640625,-0.0,6592.27392578125,27496.814453125,31698.54296875,9714.7626953125,20167.033203125,15077.5908203125,1827.875732421875,987.84765625,6625.65234375,15546.4814453125,12462.93359375,14851.8876953125,11521.9755859375,2105.236083984375,1861.25439453125,10162.1943359375,0.0,5663.236328125,9480.3173828125,9221.236328125,5433.5595703125,10778.904296875,12619.4951171875,17654.896484375,-12710.0947265625,2779.166015625,12447.0400390625,8517.9013671875,6857.71337890625,6040.73193359375,0.0,10795.59375
5925.49658203125,3587.405029296875,14985.40234375,6976.92236328125,17379.919921875,6827.51318359375,9766.4189453125,14705.658203125,7231.2353515625,8970.896484375,6082.85302734375,9226.798828125,-5002.02197265625,0.0,13660.58984375,13754.3681640625,1289.844482421875,1239.776611328125,5357.265625,8130.8681640625,4438.55908203125,11673.767578125,8557.6376953125,23415.884765625,43.7100715637207,2959.5693359375,7310.70849609375,14571.349609375,-4371.00732421875,2036.8892822265625,19169.6484375,-10172.5263671875,-3564.357666015625,3651.778076171875,10813.8720703125,12236.435546875,7172.42578125,10102.58984375,7507.00634765625,-0.0,6602.60546875,27502.37890625,31713.646484375,9726.68359375,20182.927734375,15090.306640625,1850.9229736328125,987.84765625,6633.599609375,15559.1962890625,12485.1865234375,14863.80859375,11559.3271484375,2148.946044921875,1866.8175048828125,10174.91015625,0.0,5667.20947265625,9489.853515625,9232.361328125,5436.73828125,10790.8251953125,12635.390625,17670.7890625,-12702.1474609375,2791.0869140625,12467.7021484375,8536.974609375,6873.607421875,6059.80517578125,0.0,10826.587890625
5942.18603515625,3618.3994140625,14967.1240234375,6965.00146484375,17394.224609375,6835.46044921875,9775.9560546875,14701.68359375,7229.64599609375,8951.0283203125,6090.00537109375,9237.92578125,-4986.12744140625,0.0,13674.099609375,13750.3935546875,1296.9970703125,1250.108154296875,5362.82861328125,8118.15283203125,4455.24853515625,11681.7158203125,8567.173828125,23421.4453125,53.2468147277832,2968.311279296875,7327.39794921875,14570.5537109375,-4357.49658203125,2055.962890625,19181.5703125,-10162.9892578125,-3549.258056640625,3649.393798828125,10825.79296875,12245.177734375,7179.578125,10105.76953125,7513.3642578125,-0.0,6619.29443359375,27514.298828125,31726.359375,9730.65625,20186.900390625,15083.1533203125,1848.5386962890625,973.5425415039062,6645.5205078125,15563.96484375,12497.90234375,14859.8359375,11573.6318359375,2169.609130859375,1876.354248046875,10190.8046875,0.0,5658.4677734375,9487.4697265625,9214.8779296875,5451.04345703125,10799.5673828125,12636.9794921875,17639.001953125,-12693.4052734375,2803.802490234375,12478.828125,8503.5966796875,6880.76025390625,5992.25390625,0.0,10766.1884765625
5947.74853515625,3630.3203125,15014.0126953125,6955.46484375,17396.607421875,6834.666015625,9770.3935546875,14698.505859375,7224.8779296875,8932.75,6086.826171875,9235.541015625,-4955.1328125,0.0,13664.5634765625,13748.009765625,1301.765380859375,1252.4923095703125,5358.85498046875,8107.02587890625,4462.40087890625,11682.5107421875,8566.3798828125,23419.857421875,55.63100051879883,2965.132568359375,7318.6552734375,14568.96484375,-4342.39697265625,2057.55224609375,19184.748046875,-10167.7578125,-3518.263671875,3649.393798828125,10829.7666015625,12245.177734375,7174.81005859375,10103.384765625,7390.97607421875,-0.0,6628.03662109375,27512.708984375,31723.18359375,9729.0673828125,20178.16015625,15074.412109375,1829.4652099609375,965.59521484375,6642.341796875,15559.1962890625,12485.9814453125,14855.861328125,11556.1484375,2175.172119140625,1877.943603515625,10193.1884765625,0.0,5655.28857421875,9499.390625,9207.7255859375,5454.22216796875,10797.1826171875,12629.826171875,17626.28515625,-12688.63671875,2803.802490234375,12470.0859375,8472.6015625,6876.78662109375,5941.39111328125,0.0,10721.68359375
5884.96533203125,3612.836181640625,14912.2880859375,6945.92822265625,17387.072265625,6825.12890625,9756.8828125,14701.68359375,7216.1357421875,8939.107421875,6059.0107421875,9218.8515625,-4955.1328125,0.0,13643.10546875,13753.5732421875,1288.255126953125,1242.1607666015625,5350.90771484375,8107.02587890625,4454.4541015625,11671.3837890625,8555.2529296875,23411.115234375,38.94169998168945,2954.006103515625,7291.63525390625,14565.78515625,-4356.7021484375,2041.65771484375,19172.826171875,-10182.0634765625,-3543.69482421875,3640.651611328125,10822.61328125,12235.6416015625,7162.09423828125,10096.232421875,7386.20751953125,-0.0,6654.2626953125,27502.37890625,31708.080078125,9722.7099609375,20165.443359375,15074.412109375,1798.4708251953125,949.70068359375,6629.6259765625,15549.66015625,12464.5234375,14857.451171875,11526.744140625,2158.48291015625,1856.4859619140625,10182.0634765625,0.0,5664.03076171875,9482.701171875,9218.056640625,5431.97021484375,10786.8505859375,12622.673828125,17643.76953125,-12702.1474609375,2789.497314453125,12448.62890625,8462.26953125,6868.04443359375,5962.8486328125,0.0,10743.935546875
5865.89208984375,3587.405029296875,14923.4130859375,6932.41748046875,17375.9453125,6815.59228515625,9747.345703125,14688.96875,7205.80419921875,8934.3388671875,6043.1162109375,9202.1630859375,-4978.974609375,0.0,13640.7216796875,13738.47265625,1270.77099609375,1229.445068359375,5338.98681640625,8100.6689453125,4438.55908203125,11659.462890625,8544.1279296875,23399.98828125,8.74201488494873,2942.8798828125,7288.4560546875,14556.2490234375,-4374.98095703125,2025.7633056640625,19157.728515625,-10195.5732421875,-3575.484130859375,3629.525390625,10807.5146484375,12222.92578125,7152.5576171875,10083.5166015625,7502.23779296875,-0.0,6643.93115234375,27496.814453125,31695.365234375,9712.37890625,20158.291015625,15064.080078125,1793.7025146484375,898.0433349609375,6610.55224609375,15535.3544921875,12463.728515625,14844.7353515625,11525.9482421875,2142.58837890625,1842.180908203125,10167.7578125,0.0,5660.05712890625,9469.19140625,9197.39453125,5413.69091796875,10774.9296875,12612.3427734375,17638.20703125,-12722.015625,2776.78173828125,12447.0400390625,8455.1171875,6856.12353515625,5981.92236328125,0.0,10756.65234375
5895.29638671875,3578.662841796875,14988.58203125,6934.00732421875,17350.515625,6810.029296875,9740.193359375,14681.021484375,7204.21435546875,8939.107421875,6054.24267578125,9195.009765625,-5000.4326171875,0.0,13637.54296875,13730.5263671875,1262.82373046875,1218.3189697265625,5331.83447265625,8103.84765625,4419.4853515625,11650.7216796875,8535.384765625,23392.8359375,0.0,2934.137939453125,7275.740234375,14555.4541015625,-4377.365234375,2021.78955078125,19147.396484375,-10198.751953125,-3581.841796875,3620.783447265625,10790.8251953125,12214.978515625,7144.60986328125,10078.748046875,7524.490234375,-0.0,6566.0478515625,27483.3046875,31683.4453125,9706.814453125,20155.90625,15062.4912109375,1825.4915771484375,886.1223754882812,6589.8896484375,15533.7646484375,12460.5498046875,14838.3779296875,11528.3330078125,2137.025146484375,1844.5650634765625,10162.9892578125,0.0,5629.857421875,9473.9599609375,9191.0361328125,5418.45947265625,10767.77734375,12610.7529296875,17654.099609375,-12722.8095703125,2772.80810546875,12446.244140625,8444.7861328125,6848.970703125,5987.4853515625,0.0,10786.056640625
5908.01220703125,3562.768310546875,14990.9658203125,7001.55859375,17373.5625,6837.0498046875,9764.03515625,14712.810546875,7224.8779296875,8978.84375,6070.13720703125,9212.494140625,-4990.8955078125,0.0,13647.0791015625,13763.904296875,1282.69189453125,1240.5714111328125,5356.470703125,8134.841796875,4440.14892578125,11676.15234375,8556.8427734375,23418.267578125,22.25240135192871,2957.97998046875,7294.8134765625,14589.626953125,-4364.6494140625,2039.2735595703125,19168.853515625,-10187.6259765625,-3562.768310546875,3654.956787109375,10812.2822265625,12240.41015625,7169.24658203125,10104.1796875,7479.98583984375,-0.0,6591.47900390625,27511.119140625,31704.90234375,9734.630859375,20178.16015625,15091.896484375,1853.30712890625,941.75341796875,6626.447265625,15565.5546875,12470.0859375,14871.7568359375,11534.6904296875,2121.92529296875,1859.6649169921875,10182.857421875,0.0,5652.10986328125,9482.701171875,9231.5673828125,5428.791015625,10786.8505859375,12635.390625,17700.1953125,-12706.1201171875,2785.523681640625,12454.986328125,8463.859375,6848.970703125,6024.83740234375,0.0,10862.3505859375
5917.54931640625,3580.25244140625,15017.19140625,7004.73779296875,17389.455078125,6851.35498046875,9778.3408203125,14730.2939453125,7236.00390625,8989.9697265625,6083.6474609375,9226.0048828125,-4976.5908203125,0.0,13659.0,13782.18359375,1297.7918701171875,1258.0552978515625,5371.57080078125,8141.99462890625,4455.24853515625,11691.2529296875,8571.9423828125,23434.162109375,48.47844314575195,2973.07958984375,7316.271484375,14600.75390625,-4357.49658203125,2055.168212890625,19185.54296875,-10166.962890625,-3546.873779296875,3672.440673828125,10830.5615234375,12253.9208984375,7182.7568359375,10117.6904296875,7486.34326171875,-0.0,6609.7578125,27527.80859375,31722.384765625,9749.73046875,20192.46484375,15106.201171875,1870.7911376953125,963.2110595703125,6634.39404296875,15579.064453125,12483.5966796875,14889.240234375,11548.201171875,2128.283203125,1868.4068603515625,10197.1630859375,0.0,5688.66748046875,9489.853515625,9253.8193359375,5442.30126953125,10801.951171875,12648.900390625,17685.890625,-12694.9951171875,2801.418212890625,12466.11328125,8480.548828125,6867.25,6051.8583984375,0.0,10865.529296875
5935.82763671875,3571.51025390625,15006.0654296875,6985.66455078125,17410.119140625,6849.765625,9783.1083984375,14714.400390625,7232.0302734375,8953.412109375,6091.5947265625,9231.5673828125,-4959.9013671875,0.0,13668.537109375,13764.69921875,1311.30224609375,1268.3868408203125,5372.365234375,8118.15283203125,4471.9375,11697.6103515625,8583.068359375,23434.95703125,55.63100051879883,2974.669189453125,7325.013671875,14584.859375,-4349.5498046875,2068.6787109375,19197.46484375,-10166.962890625,-3528.594970703125,3671.64599609375,10846.4560546875,12259.4833984375,7187.525390625,10116.1005859375,7501.443359375,-0.0,6646.31494140625,27531.78125,31735.896484375,9743.373046875,20193.2578125,15088.7177734375,1862.8438720703125,948.1112060546875,6652.67333984375,15570.3232421875,12493.1337890625,14872.55078125,11541.048828125,2132.2568359375,1873.17529296875,10203.5205078125,0.0,5688.66748046875,9504.1591796875,9218.8515625,5448.6591796875,10806.7197265625,12641.7470703125,17620.72265625,-12688.63671875,2814.9287109375,12476.4443359375,8494.853515625,6886.3232421875,6004.1748046875,0.0,10740.7568359375
5895.29638671875,3528.594970703125,14994.14453125,6982.4853515625,17410.9140625,6839.43408203125,9774.3671875,14694.53125,7221.69873046875,8934.3388671875,6081.26318359375,9218.056640625,-4958.3115234375,0.0,13660.58984375,13741.65234375,1304.9443359375,1262.82373046875,5361.23876953125,8107.02587890625,4470.34814453125,11693.63671875,8578.30078125,23423.830078125,50.067901611328125,2964.337646484375,7305.1455078125,14565.78515625,-4351.93408203125,2062.32080078125,19191.107421875,-10180.4736328125,-3527.00537109375,3667.67236328125,10843.27734375,12250.7412109375,7178.783203125,10103.384765625,7460.912109375,-0.0,6647.10986328125,27527.80859375,31734.306640625,9729.0673828125,20182.927734375,15072.0283203125,1853.30712890625,913.1431884765625,6659.82568359375,15558.40234375,12483.5966796875,14850.298828125,11501.3125,2099.673095703125,1862.8438720703125,10190.009765625,0.0,5664.8251953125,9499.390625,9195.009765625,5429.5859375,10799.5673828125,12629.826171875,17624.697265625,-12696.583984375,2801.418212890625,12467.7021484375,8501.2119140625,6875.99169921875,5981.92236328125,0.0,10715.3251953125
5871.45458984375,3514.289794921875,14929.771484375,6961.02783203125,17390.251953125,6820.36083984375,9758.47265625,14685.7900390625,7211.3671875,8927.185546875,6052.65283203125,9195.8046875,-4985.33251953125,0.0,13643.10546875,13736.8837890625,1283.4866943359375,1243.750244140625,5344.5498046875,8098.28466796875,4455.24853515625,11672.1796875,8558.4326171875,23406.34765625,29.404958724975586,2944.469482421875,7303.55615234375,14554.66015625,-4367.828125,2039.2735595703125,19169.6484375,-10196.3681640625,-3550.847412109375,3643.83056640625,10825.79296875,12230.873046875,7163.68359375,10087.490234375,7410.04931640625,-0.0,6645.5205078125,27505.556640625,31713.646484375,9713.1728515625,20167.033203125,15059.3115234375,1811.1864013671875,890.8907470703125,6635.18896484375,15544.8916015625,12465.3173828125,14843.9404296875,11518.7958984375,2105.236083984375,1850.128173828125,10166.16796875,0.0,5664.03076171875,9473.9599609375,9191.8310546875,5409.7177734375,10783.671875,12615.521484375,17639.001953125,-12714.068359375,2779.166015625,12447.833984375,8463.0654296875,6872.0185546875,5970.7958984375,0.0,10731.220703125
5899.2705078125,3519.852783203125,14992.5546875,6949.9013671875,17382.302734375,6827.51318359375,9761.6513671875,14701.68359375,7206.5986328125,8930.365234375,6055.037109375,9199.7783203125,-4989.30615234375,0.0,13645.4892578125,13754.3681640625,1283.4866943359375,1244.544921875,5347.728515625,8095.900390625,4446.50634765625,11673.767578125,8558.4326171875,23408.732421875,8.74201488494873,2955.595703125,7318.6552734375,14570.5537109375,-4360.67578125,2044.8367919921875,19170.443359375,-10201.13671875,-3539.72119140625,3649.393798828125,10821.0244140625,12234.0517578125,7166.0673828125,10093.052734375,7387.00244140625,-0.0,6622.47314453125,27508.736328125,31710.46484375,9722.7099609375,20167.828125,15065.669921875,1809.5970458984375,894.0697021484375,6623.26806640625,15553.6337890625,12469.2919921875,14859.8359375,11529.9228515625,2123.514892578125,1823.902099609375,10174.91015625,0.0,5673.5673828125,9473.9599609375,9202.95703125,5416.8701171875,10783.671875,12617.111328125,17631.0546875,-12714.86328125,2786.318603515625,12451.0126953125,8402.6650390625,6842.61328125,5940.59619140625,0.0,10731.220703125
5906.4228515625,3523.82666015625,14991.759765625,6952.28564453125,17374.357421875,6833.07666015625,9757.677734375,14712.015625,7205.00927734375,8924.8017578125,6062.189453125,9203.751953125,-4987.716796875,0.0,13651.0537109375,13763.1103515625,1278.7183837890625,1242.1607666015625,5345.3447265625,8093.51611328125,4438.55908203125,11671.3837890625,8556.048828125,23409.525390625,17.48402976989746,2958.774658203125,7299.58203125,14580.0908203125,-4362.26513671875,2045.63134765625,19168.05859375,-10204.3154296875,-3544.489501953125,3639.062255859375,10815.4609375,12232.462890625,7162.09423828125,10095.4375,7408.4599609375,-0.0,6600.22119140625,27507.939453125,31706.494140625,9726.68359375,20164.6484375,15068.8486328125,1808.007568359375,913.9378662109375,6626.447265625,15561.5810546875,12473.265625,14869.3720703125,11534.6904296875,2127.48828125,1831.8494873046875,10178.8837890625,0.0,5675.95166015625,9486.6748046875,9213.2880859375,5420.84375,10782.0830078125,12615.521484375,17624.697265625,-12712.478515625,2783.139404296875,12457.37109375,8372.4658203125,6841.818359375,5904.83349609375,0.0,10726.4521484375
5904.0390625,3536.542236328125,14979.8388671875,6949.10693359375,17367.205078125,6819.56640625,9748.935546875,14696.12109375,7210.57275390625,8927.185546875,6062.189453125,9198.1884765625,-5006.7900390625,0.0,13646.28515625,13748.009765625,1272.3604736328125,1233.4188232421875,5338.98681640625,8097.4892578125,4425.84375,11661.052734375,8548.1005859375,23400.783203125,23.047128677368164,2942.8798828125,7284.482421875,14565.78515625,-4382.92822265625,2017.8157958984375,19158.521484375,-10191.599609375,-3572.304931640625,3623.167724609375,10806.7197265625,12222.92578125,7153.35205078125,10087.490234375,7474.42236328125,-0.0,6588.30029296875,27493.634765625,31696.95703125,9717.146484375,20160.67578125,15063.2861328125,1834.233642578125,922.679931640625,6622.47314453125,15548.0703125,12467.7021484375,14854.271484375,11537.869140625,2118.74658203125,1866.8175048828125,10160.60546875,0.0,5650.5205078125,9498.595703125,9200.5732421875,5424.8173828125,10773.3408203125,12612.3427734375,17634.234375,-12714.068359375,2768.83447265625,12452.6025390625,8456.70703125,6856.91845703125,5960.46435546875,0.0,10735.1943359375
5900.06494140625,3535.74755859375,14970.302734375,6951.49072265625,17360.845703125,6803.67138671875,9741.783203125,14666.716796875,7209.77783203125,8930.365234375,6051.8583984375,9184.677734375,-5010.763671875,0.0,13643.900390625,13715.4267578125,1266.002685546875,1223.0872802734375,5331.83447265625,8099.87353515625,4417.1015625,11651.515625,8540.1533203125,23388.86328125,12.715657234191895,2922.217041015625,7272.5615234375,14539.5595703125,-4398.02783203125,1999.5372314453125,19152.958984375,-10197.1630859375,-3583.43115234375,3620.783447265625,10799.5673828125,12214.18359375,7146.19970703125,10075.5693359375,7433.89111328125,-0.0,6575.58447265625,27480.919921875,31689.8046875,9698.0732421875,20156.701171875,15052.955078125,1832.6441650390625,888.506591796875,6622.47314453125,15530.5859375,12465.3173828125,14824.0732421875,11529.1279296875,2113.183349609375,1871.5858154296875,10141.5322265625,0.0,5607.60498046875,9493.828125,9178.3212890625,5411.306640625,10764.5986328125,12607.57421875,17644.564453125,-12720.42578125,2759.297607421875,12449.423828125,8519.490234375,6862.4814453125,6015.30078125,0.0,10759.0361328125
5885.759765625,3527.80029296875,14956.7919921875,6927.64892578125,17367.205078125,6799.69775390625,9740.98828125,14661.9482421875,7201.83056640625,8925.59765625,6036.75830078125,9181.4990234375,-4991.68994140625,0.0,13633.568359375,13709.8623046875,1260.4395751953125,1223.0872802734375,5329.4501953125,8095.10498046875,4424.25390625,11648.3369140625,8539.359375,23386.478515625,-3.1789143085479736,2920.627685546875,7269.38232421875,14532.4072265625,-4390.0810546875,2002.716064453125,19151.369140625,-10218.6201171875,-3563.56298828125,3619.194091796875,10802.74609375,12210.2099609375,7145.40478515625,10071.5947265625,7354.41845703125,-0.0,6597.8369140625,27477.7421875,31691.390625,9693.3046875,20153.5234375,15051.365234375,1815.16015625,902.0169677734375,6622.47314453125,15525.818359375,12457.37109375,14818.5087890625,11525.9482421875,2110.00439453125,1865.22802734375,10135.173828125,0.0,5597.2734375,9480.3173828125,9185.4736328125,5384.28662109375,10762.21484375,12602.8056640625,17641.38671875,-12726.7841796875,2757.708251953125,12440.681640625,8529.02734375,6848.17626953125,6009.7373046875,0.0,10766.9833984375
5888.93896484375,3523.82666015625,14940.1025390625,6956.25927734375,17393.431640625,6820.36083984375,9760.0625,14677.0478515625,7217.72509765625,8947.849609375,6048.67919921875,9201.3671875,-4960.69580078125,0.0,13640.7216796875,13724.16796875,1280.3077392578125,1243.750244140625,5347.728515625,8112.58984375,4448.095703125,11670.58984375,8560.81640625,23406.34765625,10.33147144317627,2940.495849609375,7292.4296875,14548.3017578125,-4363.06005859375,2024.1737060546875,19172.826171875,-10197.1630859375,-3550.847412109375,3643.83056640625,10822.61328125,12230.873046875,7165.27294921875,10091.4638671875,7468.859375,-0.0,6628.03662109375,27502.37890625,31714.439453125,9712.37890625,20170.2109375,15068.8486328125,1811.1864013671875,930.627197265625,6624.06298828125,15542.5068359375,12464.5234375,14834.404296875,11507.669921875,2114.772705078125,1871.5858154296875,10148.6845703125,0.0,5626.6787109375,9493.828125,9198.1884765625,5395.41259765625,10784.466796875,12619.4951171875,17656.484375,-12709.2998046875,2776.78173828125,12444.6552734375,8548.1005859375,6860.8916015625,6033.57958984375,0.0,10778.109375
5887.349609375,3535.74755859375,14932.1552734375,6976.12744140625,17404.556640625,6837.0498046875,9771.1875,14688.96875,7226.46728515625,8957.3857421875,6062.984375,9218.8515625,-4926.52294921875,0.0,13642.3115234375,13737.6787109375,1298.5865478515625,1258.0552978515625,5360.4443359375,8122.12646484375,4467.16943359375,11688.0732421875,8576.7109375,23422.2421875,41.32588577270508,2961.15869140625,7307.529296875,14561.8125,-4347.16552734375,2048.810302734375,19190.310546875,-10187.6259765625,-3529.3896484375,3662.904052734375,10839.302734375,12245.97265625,7176.3994140625,10103.384765625,7525.28515625,-0.0,6657.44140625,27523.041015625,31729.537109375,9726.68359375,20178.953125,15078.3857421875,1793.7025146484375,917.9114990234375,6642.341796875,15558.40234375,12465.3173828125,14845.5302734375,11483.033203125,2131.462158203125,1884.301513671875,10167.7578125,0.0,5645.751953125,9500.185546875,9196.5986328125,5408.9228515625,10797.9775390625,12632.2109375,17662.048828125,-12696.583984375,2793.47119140625,12448.62890625,8538.5634765625,6869.63427734375,6033.57958984375,0.0,10778.109375
5872.24951171875,3518.263671875,14908.3134765625,6964.20654296875,17398.9921875,6828.30810546875,9759.2666015625,14688.173828125,7215.34130859375,8949.439453125,6067.7529296875,9208.51953125,-4937.64892578125,0.0,13631.1845703125,13736.0888671875,1289.0498046875,1249.3133544921875,5354.88134765625,8114.1787109375,4461.6064453125,11680.1259765625,8566.3798828125,23413.5,33.37860107421875,2952.416748046875,7270.17724609375,14559.427734375,-4356.7021484375,2041.65771484375,19182.36328125,-10193.984375,-3536.542236328125,3647.80419921875,10832.150390625,12237.2314453125,7163.68359375,10098.6162109375,7364.75,-0.0,6665.388671875,27515.09375,31711.26171875,9721.1201171875,20169.416015625,15073.6171875,1784.96044921875,902.8117065429688,6644.7255859375,15548.865234375,12452.6025390625,14844.7353515625,11514.8232421875,2120.3359375,1868.4068603515625,10168.552734375,0.0,5617.1416015625,9487.4697265625,9198.1884765625,5408.12841796875,10788.4404296875,12623.4697265625,17656.484375,-12709.2998046875,2782.3447265625,12436.70703125,8513.1328125,6861.6865234375,6019.2744140625,0.0,10774.9296875
5888.93896484375,3494.421630859375,14975.0712890625,7071.4951171875,17391.83984375,6836.25537109375,9768.8037109375,14699.2998046875,7224.8779296875,8958.9755859375,6075.7001953125,9206.1357421875,-4970.232421875,0.0,13643.10546875,13748.009765625,1293.818115234375,1254.081787109375,5364.41796875,8124.5107421875,4458.42724609375,11691.2529296875,8571.9423828125,23419.857421875,28.6102294921875,2959.5693359375,7295.6083984375,14572.1435546875,-4355.9072265625,2055.168212890625,19187.927734375,-10201.9306640625,-3534.157958984375,3674.0302734375,10831.3564453125,12245.97265625,7174.01513671875,10107.3583984375,7390.97607421875,-0.0,6656.646484375,27526.220703125,31714.439453125,9729.8623046875,20180.54296875,15083.94921875,1822.312744140625,928.2429809570312,6635.18896484375,15556.017578125,12465.3173828125,14855.0673828125,11521.9755859375,2108.414794921875,1867.6121826171875,10181.267578125,0.0,5609.9892578125,9493.828125,9214.083984375,5416.0751953125,10795.59375,12632.2109375,17666.021484375,-12703.736328125,2791.881591796875,12448.62890625,8525.8486328125,6869.63427734375,6029.60595703125,0.0,10794.00390625
5882.5810546875,3495.21630859375,15026.728515625,7073.87939453125,17400.583984375,6841.02392578125,9778.3408203125,14704.86328125,7227.26220703125,8965.3330078125,6080.46875,9211.69921875,-4992.48486328125,0.0,13647.0791015625,13753.5732421875,1299.3812255859375,1256.4659423828125,5369.1865234375,8127.689453125,4453.6591796875,11694.431640625,8576.7109375,23423.830078125,34.96805953979492,2962.748291015625,7325.013671875,14576.1171875,-4353.5234375,2053.57861328125,19188.72265625,-10196.3681640625,-3542.900146484375,3683.567138671875,10832.150390625,12250.7412109375,7182.7568359375,10111.33203125,7499.853515625,-0.0,6638.3681640625,27530.98828125,31729.537109375,9732.24609375,20189.28515625,15088.7177734375,1844.5650634765625,939.3692016601562,6656.646484375,15558.40234375,12470.0859375,14859.8359375,11551.3798828125,2093.315185546875,1869.20166015625,10184.447265625,0.0,5633.0361328125,9488.2646484375,9222.8251953125,5406.53857421875,10802.74609375,12638.5693359375,17669.99609375,-12696.583984375,2796.64990234375,12451.8076171875,8534.5908203125,6872.81298828125,6042.32177734375,0.0,10809.103515625
5892.1181640625,3533.36328125,15042.623046875,6992.81689453125,17410.119140625,6852.14990234375,9794.2353515625,14718.373046875,7243.951171875,8981.2275390625,6097.9521484375,9229.18359375,-4994.869140625,0.0,13672.5107421875,13768.6728515625,1314.4810791015625,1267.592041015625,5381.90234375,8143.58447265625,4460.0166015625,11702.3779296875,8587.8369140625,23436.546875,58.01518630981445,2975.4638671875,7333.75537109375,14592.01171875,-4347.16552734375,2062.32080078125,19196.66796875,-10166.962890625,-3538.1318359375,3685.156494140625,10840.0986328125,12260.27734375,7198.65185546875,10124.8427734375,7527.66943359375,-0.0,6612.9365234375,27533.373046875,31741.458984375,9744.1669921875,20204.38671875,15104.611328125,1886.6856689453125,963.2110595703125,6680.48876953125,15565.5546875,12497.90234375,14875.7294921875,11577.6064453125,2090.13623046875,1889.8646240234375,10196.3681640625,0.0,5659.26220703125,9510.517578125,9237.92578125,5419.25439453125,10816.2568359375,12652.8740234375,17687.478515625,-12681.484375,2810.160400390625,12478.828125,8536.1796875,6884.73388671875,6063.779296875,0.0,10835.330078125
5919.138671875,3553.2314453125,14987.7861328125,6956.25927734375,17395.814453125,6839.43408203125,9776.751953125,14704.86328125,7230.4404296875,8963.744140625,6089.21044921875,9217.2626953125,-5002.02197265625,0.0,13658.2060546875,13755.162109375,1297.7918701171875,1253.2869873046875,5368.3916015625,8127.689453125,4449.685546875,11687.2783203125,8575.916015625,23423.037109375,45.299530029296875,2972.284912109375,7315.47705078125,14576.1171875,-4360.67578125,2058.346923828125,19183.158203125,-10174.91015625,-3556.41064453125,3654.162109375,10828.9716796875,12249.15234375,7182.7568359375,10108.947265625,7492.701171875,-0.0,6607.37353515625,27527.013671875,31725.56640625,9731.4521484375,20186.900390625,15087.1279296875,1886.6856689453125,932.2166748046875,6666.978515625,15559.9912109375,12481.212890625,14863.80859375,11557.73828125,2073.447021484375,1864.433349609375,10186.0361328125,0.0,5652.904296875,9507.3388671875,9222.8251953125,5424.8173828125,10801.951171875,12636.9794921875,17668.40625,-12691.0205078125,2798.239501953125,12464.5234375,8512.337890625,6875.99169921875,6037.55322265625,0.0,10810.6923828125
5917.54931640625,3552.436767578125,14998.1181640625,6949.10693359375,17381.509765625,6817.9765625,9756.087890625,14682.6103515625,7205.80419921875,8935.1337890625,6078.08447265625,9204.546875,-4984.53759765625,0.0,13639.9267578125,13732.1162109375,1279.5130615234375,1235.802978515625,5346.1396484375,8103.05322265625,4432.99609375,11666.615234375,8557.6376953125,23403.16796875,46.88898849487305,2951.6220703125,7297.19775390625,14551.48046875,-4369.41748046875,2032.915771484375,19164.880859375,-10190.8046875,-3564.357666015625,3636.677978515625,10815.4609375,12229.283203125,7161.29931640625,10088.2841796875,7488.7275390625,-0.0,6591.47900390625,27503.171875,31707.287109375,9710.7890625,20166.23828125,15064.080078125,1885.09619140625,936.1903076171875,6646.31494140625,15540.123046875,12462.93359375,14839.966796875,11512.4384765625,2063.115478515625,1822.312744140625,10163.7841796875,0.0,5644.16259765625,9473.9599609375,9195.009765625,5418.45947265625,10782.0830078125,12614.7265625,17640.58984375,-12706.1201171875,2781.550048828125,12447.833984375,8478.958984375,6856.91845703125,5993.84326171875,0.0,10766.1884765625
5909.6015625,3542.10546875,14988.58203125,6953.08056640625,17383.89453125,6814.7978515625,9762.4462890625,14684.2001953125,7208.98291015625,8935.1337890625,6064.57373046875,9206.9306640625,-4971.02734375,0.0,13651.84765625,13735.2939453125,1277.1287841796875,1238.1871337890625,5350.90771484375,8106.2314453125,4434.58544921875,11665.0263671875,8560.81640625,23404.755859375,45.299530029296875,2940.495849609375,7301.171875,14548.3017578125,-4365.4443359375,2017.8157958984375,19165.673828125,-10186.8310546875,-3562.768310546875,3639.062255859375,10815.4609375,12227.6943359375,7166.8623046875,10090.6689453125,7494.291015625,-0.0,6590.6845703125,27488.07421875,31710.46484375,9712.37890625,20171.80078125,15065.669921875,1866.022705078125,968.774169921875,6635.98388671875,15534.560546875,12475.6494140625,14843.146484375,11524.359375,2129.87255859375,1835.0283203125,10161.3994140625,0.0,5644.16259765625,9463.6279296875,9198.1884765625,5419.25439453125,10784.466796875,12617.9052734375,17646.154296875,-12714.068359375,2776.78173828125,12457.37109375,8464.654296875,6863.27587890625,5981.12744140625,0.0,10776.51953125
5934.23828125,3555.61572265625,14979.8388671875,6937.98046875,17391.83984375,6825.923828125,9777.5458984375,14704.068359375,7224.0830078125,8947.0546875,6065.36865234375,9212.494140625,-4976.5908203125,0.0,13670.9208984375,13753.5732421875,1284.2813720703125,1246.1343994140625,5362.82861328125,8119.7421875,4445.71142578125,11672.1796875,8572.7373046875,23415.884765625,41.32588577270508,2944.469482421875,7317.86083984375,14568.169921875,-4367.828125,2034.505126953125,19172.826171875,-10191.599609375,-3563.56298828125,3638.267578125,10824.203125,12235.6416015625,7181.96240234375,10104.9736328125,7467.27001953125,-0.0,6614.5263671875,27494.4296875,31720.001953125,9725.09375,20186.900390625,15081.564453125,1840.5914306640625,943.3428344726562,6631.21533203125,15548.865234375,12494.7236328125,14862.2197265625,11552.9697265625,2169.609130859375,1869.20166015625,10177.294921875,0.0,5656.8779296875,9493.033203125,9222.8251953125,5422.43359375,10794.798828125,12630.6220703125,17658.076171875,-12708.5048828125,2789.497314453125,12478.0341796875,8456.70703125,6878.3759765625,5982.716796875,0.0,10790.0302734375
5923.1123046875,3562.768310546875,14975.865234375,6942.7490234375,17394.224609375,6832.28173828125,9775.162109375,14708.8369140625,7216.1357421875,8945.46484375,6061.39501953125,9212.494140625,-4956.72216796875,0.0,13663.7685546875,13756.751953125,1292.228759765625,1248.5185546875,5359.6494140625,8114.97412109375,4451.27490234375,11678.5361328125,8572.7373046875,23419.0625,38.94169998168945,2951.6220703125,7306.734375,14584.859375,-4362.26513671875,2040.068359375,19176.005859375,-10191.599609375,-3552.436767578125,3646.21484375,10827.3818359375,12239.615234375,7178.783203125,10105.76953125,7402.10205078125,-0.0,6632.8046875,27505.556640625,31718.4140625,9733.041015625,20183.720703125,15079.1806640625,1809.5970458984375,922.679931640625,6624.06298828125,15559.9912109375,12487.5703125,14865.3984375,11553.7646484375,2164.046142578125,1865.22802734375,10184.447265625,0.0,5659.26220703125,9481.9072265625,9216.4677734375,5416.0751953125,10795.59375,12628.2373046875,17649.33203125,-12706.1201171875,2794.265625,12470.8818359375,8442.40234375,6862.4814453125,5985.10107421875,0.0,10774.1357421875
5859.53369140625,3550.847412109375,14967.1240234375,6931.623046875,17387.8671875,6824.33447265625,9764.8310546875,14692.1474609375,7207.3935546875,8931.9541015625,6057.42138671875,9203.751953125,-4949.56982421875,0.0,13647.8740234375,13740.0625,1286.66552734375,1242.1607666015625,5348.5234375,8102.2578125,4448.890625,11672.9736328125,8565.5849609375,23409.525390625,26.226043701171875,2945.26416015625,7298.78759765625,14570.5537109375,-4365.4443359375,2029.73681640625,19172.033203125,-10197.1630859375,-3542.900146484375,3635.88330078125,10823.4091796875,12233.2568359375,7169.24658203125,10093.8486328125,7460.1171875,-0.0,6628.83154296875,27503.966796875,31712.0546875,9722.7099609375,20169.416015625,15063.2861328125,1793.7025146484375,909.9642333984375,6620.0888671875,15550.4541015625,12471.67578125,14850.298828125,11540.25390625,2136.23046875,1846.154541015625,10172.5263671875,0.0,5630.65185546875,9480.3173828125,9187.0625,5405.744140625,10789.2353515625,12617.111328125,17640.58984375,-12714.86328125,2782.3447265625,12453.396484375,8467.833984375,6852.94482421875,5980.3330078125,0.0,10754.267578125
5839.666015625,3546.873779296875,14983.8134765625,6955.46484375,17393.431640625,6828.30810546875,9768.8037109375,14699.2998046875,7216.93017578125,8946.259765625,6066.9580078125,9209.3154296875,-4976.5908203125,0.0,13652.642578125,13747.21484375,1292.228759765625,1246.92919921875,5354.08642578125,8112.58984375,4451.27490234375,11676.947265625,8570.353515625,23414.29296875,30.19968605041504,2951.6220703125,7301.171875,14567.375,-4369.41748046875,2032.915771484375,19178.390625,-10196.3681640625,-3538.1318359375,3644.62548828125,10828.9716796875,12238.025390625,7172.42578125,10100.205078125,7469.654296875,-0.0,6628.83154296875,27508.736328125,31717.6171875,9725.09375,20174.185546875,15073.6171875,1812.7760009765625,926.653564453125,6644.7255859375,15553.6337890625,12474.8544921875,14857.451171875,11525.9482421875,2135.435791015625,1851.7176513671875,10174.91015625,0.0,5658.4677734375,9493.033203125,9207.7255859375,5408.9228515625,10795.59375,12625.853515625,17662.84375,-12717.2470703125,2783.139404296875,12457.37109375,8498.0322265625,6857.71337890625,6008.94287109375,0.0,10781.2880859375
5929.47021484375,3583.43115234375,15000.5029296875,6984.0751953125,17400.583984375,6846.5869140625,9785.4931640625,14729.5,7238.38818359375,8977.25390625,6092.3896484375,9235.541015625,-4990.10107421875,0.0,13668.537109375,13780.59375,1308.91796875,1263.618408203125,5376.3388671875,8141.2001953125,4462.40087890625,11696.021484375,8586.2470703125,23435.75,44.50480270385742,2969.90087890625,7318.6552734375,14590.4228515625,-4355.11279296875,2057.55224609375,19195.080078125,-10177.294921875,-3548.463134765625,3666.0830078125,10841.6875,12257.8935546875,7189.115234375,10124.046875,7484.75390625,-0.0,6623.26806640625,27525.42578125,31729.537109375,9746.5517578125,20194.849609375,15104.611328125,1855.6912841796875,952.0848388671875,6656.646484375,15571.1171875,12490.7490234375,14888.4462890625,11550.5859375,2155.303955078125,1882.7120361328125,10196.3681640625,0.0,5701.38330078125,9521.6435546875,9248.2568359375,5447.86474609375,10814.6669921875,12649.6953125,17691.453125,-12694.19921875,2806.186767578125,12473.265625,8523.4638671875,6876.78662109375,6039.9375,0.0,10834.5341796875
5977.15380859375,3597.736328125,15014.8076171875,6980.89599609375,17408.529296875,6856.12353515625,9793.4404296875,14738.2421875,7251.8984375,8989.1748046875,6107.4892578125,9244.283203125,-4975.0009765625,0.0,13682.841796875,13786.9521484375,1313.6864013671875,1273.949951171875,5385.0810546875,8149.94140625,4469.5537109375,11703.9677734375,8593.400390625,23444.494140625,54.836273193359375,2975.4638671875,7337.72900390625,14598.369140625,-4339.21826171875,2072.652099609375,19202.232421875,-10169.3466796875,-3535.74755859375,3666.877685546875,10848.83984375,12265.0458984375,7197.85693359375,10131.9951171875,7495.8798828125,-0.0,6623.26806640625,27532.578125,31737.48828125,9755.2939453125,20204.38671875,15113.353515625,1874.7647705078125,956.8532104492188,6660.6201171875,15575.8857421875,12504.259765625,14894.802734375,11577.6064453125,2147.356689453125,1900.9908447265625,10204.3154296875,0.0,5701.38330078125,9532.76953125,9259.3828125,5462.96435546875,10824.998046875,12659.232421875,17689.0703125,-12676.7158203125,2814.1337890625,12485.9814453125,8540.9482421875,6899.83349609375,6062.984375,0.0,10843.27734375
5965.23291015625,3578.662841796875,14988.58203125,6961.02783203125,17396.607421875,6838.6396484375,9777.5458984375,14710.4267578125,7239.9775390625,8971.69140625,6090.7998046875,9221.236328125,-4972.61669921875,0.0,13675.689453125,13759.1357421875,1296.2022705078125,1256.4659423828125,5366.80224609375,8137.22607421875,4456.04345703125,11687.2783203125,8577.505859375,23425.419921875,34.1733283996582,2955.595703125,7312.2978515625,14574.52734375,-4351.13916015625,2048.810302734375,19185.54296875,-10186.0361328125,-3548.463134765625,3647.80419921875,10831.3564453125,12245.97265625,7182.7568359375,10112.1259765625,7503.82763671875,-0.0,6618.5,27513.50390625,31720.798828125,9735.4248046875,20191.669921875,15091.1015625,1851.7176513671875,911.5537109375,6629.6259765625,15557.6064453125,12498.6962890625,14865.3984375,11564.095703125,2142.58837890625,1885.8909912109375,10182.0634765625,0.0,5664.8251953125,9519.259765625,9222.0302734375,5440.7119140625,10803.5400390625,12642.54296875,17692.248046875,-12691.0205078125,2796.64990234375,12481.212890625,8510.7490234375,6888.70751953125,6043.1162109375,0.0,10822.61328125
5932.64892578125,3556.41064453125,14986.197265625,6960.2333984375,17392.634765625,6831.4873046875,9765.625,14702.4794921875,7221.69873046875,8953.412109375,6079.673828125,9204.546875,-4978.974609375,0.0,13657.41015625,13751.189453125,1290.6392822265625,1247.723876953125,5355.67626953125,8118.947265625,4453.6591796875,11680.9208984375,8568.763671875,23415.884765625,26.226043701171875,2950.827392578125,7298.78759765625,14565.78515625,-4360.67578125,2036.8892822265625,19178.390625,-10200.3408203125,-3546.873779296875,3644.62548828125,10825.79296875,12241.2041015625,7171.630859375,10101.794921875,7447.4013671875,-0.0,6620.0888671875,27508.736328125,31712.0546875,9726.68359375,20180.54296875,15080.76953125,1826.286376953125,900.427490234375,6622.47314453125,15552.0439453125,12482.802734375,14858.24609375,11543.43359375,2141.79345703125,1869.9964599609375,10165.3740234375,0.0,5652.10986328125,9494.6220703125,9214.083984375,5423.22802734375,10794.798828125,12630.6220703125,17670.7890625,-12701.3525390625,2783.934326171875,12464.5234375,8492.4697265625,6863.27587890625,6002.5849609375,0.0,10786.056640625
5904.83349609375,3533.36328125,14979.044921875,6976.12744140625,17388.662109375,6830.6923828125,9766.4189453125,14698.505859375,7214.54638671875,8942.2861328125,6063.779296875,9195.8046875,-4981.35888671875,0.0,13656.6162109375,13747.21484375,1286.66552734375,1245.3397216796875,5350.90771484375,8108.61572265625,4452.06982421875,11681.7158203125,8566.3798828125,23413.5,30.19968605041504,2955.595703125,7299.58203125,14566.5810546875,-4375.77587890625,2033.71044921875,19176.005859375,-10204.3154296875,-3545.2841796875,3651.778076171875,10822.61328125,12238.025390625,7170.04150390625,10097.8212890625,7425.94384765625,-0.0,6613.7314453125,27511.916015625,31712.0546875,9724.2998046875,20175.775390625,15074.412109375,1804.033935546875,936.9849853515625,6637.5732421875,15552.0439453125,12480.41796875,14853.4775390625,11529.1279296875,2125.899169921875,1853.30712890625,10163.7841796875,0.0,5644.16259765625,9485.0859375,9209.3154296875,5410.51220703125,10790.8251953125,12624.263671875,17647.744140625,-12713.2734375,2781.550048828125,12461.3447265625,8501.2119140625,6867.25,6008.1484375,0.0,10763.0087890625
5894.501953125,3531.77392578125,14969.5078125,6968.18017578125,17380.71484375,6824.33447265625,9759.2666015625,14684.2001953125,7209.77783203125,8928.775390625,6058.21630859375,9198.1884765625,-4984.53759765625,0.0,13649.4638671875,13732.1162109375,1282.69189453125,1238.9818115234375,5345.3447265625,8099.0791015625,4444.9169921875,11676.15234375,8560.021484375,23404.755859375,22.25240135192871,2952.416748046875,7293.22412109375,14557.8388671875,-4382.13330078125,2037.6842041015625,19168.05859375,-10203.5205078125,-3552.436767578125,3647.80419921875,10817.05078125,12232.462890625,7161.29931640625,10089.8740234375,7430.71240234375,-0.0,6611.34716796875,27503.966796875,31704.90234375,9715.556640625,20165.443359375,15061.6962890625,1832.6441650390625,942.548095703125,6636.7783203125,15547.275390625,12472.470703125,14840.76171875,11515.6171875,2122.719970703125,1855.6912841796875,10166.16796875,0.0,5637.01025390625,9492.23828125,9190.2421875,5405.744140625,10784.466796875,12613.9326171875,17627.080078125,-12718.041015625,2783.139404296875,12454.986328125,8490.0859375,6858.5078125,6000.99560546875,0.0,10739.1669921875
5888.14404296875,3520.647705078125,14951.2294921875,6953.875,17381.509765625,6829.10302734375,9759.2666015625,14686.583984375,7210.57275390625,8924.0078125,6066.9580078125,9203.751953125,-4982.9482421875,0.0,13655.0263671875,13733.7041015625,1289.844482421875,1243.750244140625,5346.1396484375,8099.0791015625,4454.4541015625,11680.9208984375,8563.9951171875,23408.732421875,14.30511474609375,2953.21142578125,7298.78759765625,14561.8125,-4371.8017578125,2025.7633056640625,19175.2109375,-10202.7255859375,-3541.310546875,3644.62548828125,10824.203125,12235.6416015625,7162.09423828125,10093.052734375,7440.2490234375,-0.0,6616.91064453125,27508.736328125,31706.494140625,9719.53125,20166.23828125,15060.107421875,1846.94921875,926.653564453125,6634.39404296875,15553.6337890625,12476.4443359375,14843.146484375,11502.1064453125,2114.772705078125,1867.6121826171875,10163.7841796875,0.0,5645.751953125,9500.185546875,9187.857421875,5412.1015625,10788.4404296875,12615.521484375,17619.1328125,-12708.5048828125,2783.139404296875,12461.3447265625,8476.5751953125,6866.455078125,5975.564453125,0.0,10720.888671875
5862.712890625,3506.342529296875,14961.560546875,6944.33837890625,17382.302734375,6829.8974609375,9760.0625,14692.1474609375,7210.57275390625,8932.75,6060.60009765625,9198.1884765625,-4991.68994140625,0.0,13649.4638671875,13740.0625,1289.844482421875,1242.1607666015625,5346.93408203125,8106.2314453125,4452.8642578125,11680.1259765625,8564.7900390625,23407.935546875,16.689300537109375,2950.827392578125,7301.96630859375,14565.78515625,-4375.77587890625,2019.4053955078125,19176.005859375,-10208.2890625,-3546.873779296875,3643.035888671875,10821.8193359375,12236.435546875,7165.27294921875,10096.232421875,7464.8857421875,-0.0,6616.11572265625,27516.68359375,31708.876953125,9721.9150390625,20168.623046875,15066.46484375,1835.822998046875,890.8907470703125,6632.8046875,15555.22265625,12472.470703125,14849.50390625,11506.875,2085.367919921875,1865.22802734375,10157.42578125,0.0,5632.24169921875,9485.880859375,9200.5732421875,5397.796875,10789.2353515625,12619.4951171875,17650.126953125,-12710.888671875,2773.602783203125,12454.1923828125,8476.5751953125,6861.6865234375,5978.7431640625,0.0,10751.087890625
5873.8388671875,3485.6796875,14985.40234375,6994.40625,17381.509765625,6825.12890625,9760.8564453125,14694.53125,7212.95703125,8947.849609375,6059.80517578125,9191.0361328125,-4991.68994140625,0.0,13646.28515625,13744.037109375,1289.0498046875,1241.3660888671875,5348.5234375,8114.1787109375,4447.30126953125,11680.9208984375,8563.9951171875,23406.34765625,25.43131446838379,2942.8798828125,7297.99267578125,14559.427734375,-4378.95458984375,2015.431640625,19174.41796875,-10206.69921875,-3556.41064453125,3651.778076171875,10819.435546875,12234.8466796875,7166.0673828125,10095.4375,7492.701171875,-0.0,6615.32080078125,27514.298828125,31708.080078125,9717.94140625,20171.0078125,15071.232421875,1815.16015625,892.480224609375,6627.24169921875,15546.4814453125,12471.67578125,14849.50390625,11512.4384765625,2059.141845703125,1857.28076171875,10153.453125,0.0,5617.1416015625,9485.880859375,9209.3154296875,5391.43896484375,10789.2353515625,12620.2900390625,17672.380859375,-12716.4521484375,2768.83447265625,12452.6025390625,8474.1904296875,6854.5341796875,5999.40625,0.0,10785.26171875
5890.5283203125,3457.864013671875,14944.076171875,6982.4853515625,17375.9453125,6812.41357421875,9752.1142578125,14686.583984375,7207.3935546875,8942.2861328125,6048.67919921875,9183.8837890625,-4996.45849609375,0.0,13639.9267578125,13734.5,1277.1287841796875,1231.03466796875,5338.98681640625,8105.4375,4437.7646484375,11668.205078125,8555.2529296875,23398.3984375,12.715657234191895,2926.985595703125,7284.482421875,14547.5068359375,-4386.10693359375,2009.073974609375,19164.880859375,-10212.26171875,-3573.89453125,3638.267578125,10811.48828125,12223.720703125,7157.32568359375,10085.900390625,7417.2021484375,-0.0,6624.06298828125,27493.634765625,31696.95703125,9707.6103515625,20163.05859375,15062.4912109375,1782.576171875,918.7062377929688,6605.7841796875,15535.3544921875,12464.5234375,14839.171875,11518.001953125,2059.9365234375,1824.6968994140625,10151.068359375,0.0,5622.705078125,9484.291015625,9198.9833984375,5391.43896484375,10780.494140625,12613.1376953125,17652.51171875,-12729.16796875,2760.88720703125,12447.0400390625,8482.9326171875,6853.7392578125,6016.89013671875,0.0,10785.26171875
5889.73388671875,3464.221923828125,14947.2548828125,6956.25927734375,17375.150390625,6811.61865234375,9750.525390625,14680.2265625,7201.0361328125,8932.75,6056.626953125,9185.4736328125,-4982.9482421875,0.0,13639.9267578125,13728.1416015625,1278.7183837890625,1232.6240234375,5338.19189453125,8100.6689453125,4438.55908203125,11665.8212890625,8554.458984375,23397.603515625,14.30511474609375,2926.190673828125,7279.7138671875,14544.328125,-4378.95458984375,2015.431640625,19166.46875,-10213.0576171875,-3564.357666015625,3641.4462890625,10812.2822265625,12222.92578125,7154.94140625,10083.5166015625,7394.15478515625,-0.0,6619.29443359375,27493.634765625,31697.75,9706.0205078125,20159.87890625,15057.72265625,1807.212890625,894.8643798828125,6604.19482421875,15534.560546875,12462.138671875,14834.404296875,11510.0546875,2095.69921875,1830.2598876953125,10159.810546875,0.0,5625.8837890625,9485.880859375,9191.0361328125,5395.41259765625,10780.494140625,12610.7529296875,17635.822265625,-12728.373046875,2764.86083984375,12446.244140625,8482.9326171875,6850.560546875,5998.611328125,0.0,10766.1884765625
5893.70703125,3515.87939453125,14915.466796875,6949.10693359375,17377.53515625,6817.18212890625,9756.087890625,14683.40625,7201.83056640625,8935.1337890625,6062.984375,9188.65234375,-4972.61669921875,0.0,13639.9267578125,13734.5,1281.1025390625,1238.1871337890625,5341.37109375,8101.46337890625,4448.890625,11669.794921875,8558.4326171875,23402.373046875,23.047128677368164,2931.75390625,7288.4560546875,14549.095703125,-4371.00732421875,2022.584228515625,19171.23828125,-10208.2890625,-3547.66845703125,3636.677978515625,10815.4609375,12226.1044921875,7160.5048828125,10086.6953125,7404.486328125,-0.0,6617.705078125,27498.404296875,31702.517578125,9712.37890625,20162.263671875,15063.2861328125,1813.5706787109375,886.9171142578125,6628.03662109375,15538.533203125,12463.728515625,14839.966796875,11500.517578125,2114.772705078125,1850.128173828125,10164.578125,0.0,5632.24169921875,9485.0859375,9200.5732421875,5395.41259765625,10783.671875,12613.9326171875,17636.6171875,-12717.2470703125,2771.218505859375,12445.4501953125,8482.138671875,6848.970703125,5993.84326171875,0.0,10771.7509765625
5886.5546875,3546.078857421875,14883.677734375,6949.10693359375,17390.251953125,6822.74462890625,9760.8564453125,14688.96875,7207.3935546875,8938.3125,6060.60009765625,9195.8046875,-4978.1796875,0.0,13645.4892578125,13740.0625,1287.4603271484375,1243.750244140625,5346.93408203125,8106.2314453125,4461.6064453125,11676.15234375,8563.9951171875,23407.935546875,14.30511474609375,2937.31689453125,7294.01904296875,14552.275390625,-4371.00732421875,2009.86865234375,19176.80078125,-10206.69921875,-3536.542236328125,3640.651611328125,10824.998046875,12230.873046875,7166.0673828125,10093.052734375,7405.28125,-0.0,6647.90478515625,27499.994140625,31708.876953125,9716.3515625,20167.828125,15067.259765625,1807.212890625,923.474609375,6639.95751953125,15540.123046875,12466.9072265625,14846.3251953125,11516.412109375,2112.388671875,1858.075439453125,10159.810546875,0.0,5638.599609375,9488.2646484375,9204.546875,5387.46484375,10787.646484375,12619.4951171875,17639.001953125,-12706.916015625,2768.039794921875,12450.2177734375,8486.111328125,6855.3291015625,6000.99560546875,0.0,10765.3935546875
5853.17626953125,3542.900146484375,14911.4921875,6945.92822265625,17395.01953125,6821.9501953125,9763.2412109375,14687.37890625,7207.3935546875,8942.2861328125,6055.83203125,9201.3671875,-4983.7431640625,0.0,13644.6953125,13736.8837890625,1291.4339599609375,1243.750244140625,5349.31787109375,8108.61572265625,4462.40087890625,11673.767578125,8565.5849609375,23407.140625,15.894571304321289,2938.906494140625,7303.55615234375,14552.275390625,-4374.98095703125,2011.4581298828125,19176.80078125,-10198.751953125,-3535.74755859375,3639.85693359375,10826.587890625,12231.66796875,7166.0673828125,10094.642578125,7322.62939453125,-0.0,6655.0576171875,27496.01953125,31713.646484375,9715.556640625,20169.416015625,15068.0546875,1822.312744140625,944.1375732421875,6636.7783203125,15537.7392578125,12465.3173828125,14843.9404296875,11486.212890625,2110.00439453125,1867.6121826171875,10162.1943359375,0.0,5643.36767578125,9485.0859375,9198.9833984375,5393.0283203125,10787.646484375,12620.2900390625,17650.921875,-12707.7099609375,2769.629150390625,12448.62890625,8488.49609375,6856.91845703125,6015.30078125,0.0,10776.51953125
5801.51904296875,3501.57421875,15010.0390625,6953.08056640625,17385.482421875,6820.36083984375,9753.7041015625,14681.81640625,7196.267578125,8931.16015625,6047.88427734375,9189.4462890625,-4964.669921875,0.0,13635.953125,13730.5263671875,1281.897216796875,1236.59765625,5342.16552734375,8099.87353515625,4448.890625,11671.3837890625,8557.6376953125,23402.373046875,4.76837158203125,2934.9326171875,7287.6611328125,14549.8916015625,-4368.623046875,2009.073974609375,19171.23828125,-10207.494140625,-3543.69482421875,3636.677978515625,10816.2568359375,12224.5146484375,7158.9150390625,10086.6953125,7335.3447265625,-0.0,6628.03662109375,27506.3515625,31704.90234375,9709.994140625,20159.87890625,15060.107421875,1838.207275390625,893.2749633789062,6632.009765625,15535.3544921875,12455.78125,14838.3779296875,11476.67578125,2105.236083984375,1856.4859619140625,10155.8369140625,0.0,5616.3466796875,9472.3701171875,9189.4462890625,5383.49169921875,10780.494140625,12611.548828125,17646.947265625,-12718.8369140625,2764.06591796875,12439.88671875,8459.0908203125,6850.560546875,5986.6904296875,0.0,10753.47265625
5820.59228515625,3496.805908203125,15043.41796875,6959.4384765625,17375.9453125,6813.2080078125,9739.3994140625,14675.4580078125,7178.783203125,8908.1123046875,6039.142578125,9177.525390625,-4947.185546875,0.0,13612.111328125,13722.5791015625,1273.1552734375,1224.6767578125,5328.6552734375,8077.62158203125,4435.38037109375,11664.2314453125,8543.33203125,23390.451171875,2.384185791015625,2925.39599609375,7248.7197265625,14546.7119140625,-4368.623046875,2016.2265625,19161.701171875,-10216.236328125,-3558.794677734375,3640.651611328125,10803.5400390625,12214.978515625,7143.8154296875,10074.7744140625,7481.5751953125,-0.0,6618.5,27496.814453125,31689.005859375,9700.4580078125,20142.396484375,15044.2119140625,1837.4124755859375,849.5648803710938,6630.4208984375,15533.7646484375,12434.3232421875,14830.4296875,11492.5703125,2087.752197265625,1844.5650634765625,10151.86328125,0.0,5619.52587890625,9451.70703125,9175.1416015625,5376.3388671875,10769.3671875,12595.6533203125,17616.748046875,-12725.9892578125,2761.681884765625,12416.83984375,8443.1962890625,6827.51318359375,5947.74853515625,0.0,10710.556640625
5880.197265625,3512.700439453125,15031.4970703125,6966.5908203125,17375.9453125,6817.9765625,9748.935546875,14689.7626953125,7193.08837890625,8929.5703125,6046.294921875,9184.677734375,-4959.9013671875,0.0,13619.263671875,13739.2685546875,1276.3341064453125,1231.03466796875,5338.19189453125,8095.10498046875,4438.55908203125,11668.205078125,8551.2802734375,23399.1953125,21.457672119140625,2932.548583984375,7264.6142578125,14553.8642578125,-4376.5703125,2020.2000732421875,19164.880859375,-10208.2890625,-3555.61572265625,3639.062255859375,10807.5146484375,12223.720703125,7152.5576171875,10085.900390625,7532.43798828125,-0.0,6602.60546875,27497.609375,31693.775390625,9711.5830078125,20153.5234375,15060.107421875,1828.6705322265625,887.7118530273438,6635.18896484375,15540.123046875,12443.8603515625,14845.5302734375,11506.875,2081.394287109375,1851.7176513671875,10152.6572265625,0.0,5644.95703125,9462.0390625,9198.1884765625,5394.61767578125,10778.904296875,12611.548828125,17641.38671875,-12722.015625,2765.655517578125,12426.3759765625,8446.3759765625,6833.87158203125,5971.59033203125,0.0,10759.830078125
5906.4228515625,3538.92626953125,15024.3447265625,7003.1484375,17402.171875,6848.970703125,9786.2880859375,14725.525390625,7228.056640625,8969.306640625,6084.4423828125,9221.236328125,-4975.0009765625,0.0,13666.947265625,13772.646484375,1304.149658203125,1262.82373046875,5373.95458984375,8133.251953125,4470.34814453125,11696.8154296875,8584.658203125,23433.3671875,54.04154586791992,2964.337646484375,7324.21875,14590.4228515625,-4366.2392578125,2048.015625,19194.28515625,-10174.91015625,-3532.568603515625,3669.261962890625,10837.7138671875,12254.71484375,7189.115234375,10120.07421875,7534.02734375,-0.0,6624.857421875,27523.8359375,31728.744140625,9744.9619140625,20193.2578125,15095.8701171875,1827.875732421875,951.2901611328125,6650.2890625,15572.70703125,12493.1337890625,14881.29296875,11557.73828125,2111.593994140625,1893.04345703125,10185.2421875,0.0,5668.00439453125,9496.2119140625,9232.361328125,5427.99609375,10812.2822265625,12648.10546875,17676.353515625,-12692.6103515625,2794.265625,12474.060546875,8488.49609375,6875.19677734375,6026.4267578125,0.0,10809.8984375
5927.880859375,3527.80029296875,15021.1650390625,6959.4384765625,17401.376953125,6845.79248046875,9783.904296875,14710.4267578125,7223.2880859375,8951.0283203125,6094.77392578125,9214.083984375,-4990.8955078125,0.0,13673.3056640625,13757.546875,1302.5601806640625,1256.4659423828125,5366.80224609375,8118.947265625,4463.99072265625,11690.45703125,8579.890625,23425.419921875,54.836273193359375,2960.364013671875,7328.9873046875,14579.2958984375,-4363.06005859375,2047.220947265625,19187.927734375,-10172.5263671875,-3545.2841796875,3660.519775390625,10832.9462890625,12247.5625,7186.73095703125,10113.7158203125,7541.974609375,-0.0,6617.705078125,27519.861328125,31729.537109375,9736.220703125,20190.875,15083.94921875,1843.7703857421875,928.2429809570312,6659.82568359375,15565.5546875,12497.90234375,14864.603515625,11575.2216796875,2110.799072265625,1894.6329345703125,10182.857421875,0.0,5655.28857421875,9493.828125,9213.2880859375,5424.8173828125,10805.1298828125,12639.36328125,17652.51171875,-12687.8427734375,2791.881591796875,12478.0341796875,8483.7275390625,6875.19677734375,6008.1484375,0.0,10772.5458984375
5941.39111328125,3472.169189453125,14947.2548828125,6964.20654296875,17381.509765625,6833.87158203125,9765.625,14693.7373046875,7207.3935546875,8931.16015625,6073.31591796875,9191.8310546875,-4999.6376953125,0.0,13655.822265625,13742.447265625,1285.076171875,1241.3660888671875,5350.90771484375,8102.2578125,4447.30126953125,11680.1259765625,8560.81640625,23409.525390625,34.1733283996582,2946.05908203125,7303.55615234375,14563.4013671875,-4373.3916015625,2032.1209716796875,19172.033203125,-10201.9306640625,-3562.768310546875,3653.3671875,10815.4609375,12232.462890625,7168.45166015625,10097.0263671875,7503.82763671875,-0.0,6603.39990234375,27511.119140625,31708.080078125,9720.3251953125,20170.2109375,15064.8759765625,1835.822998046875,877.38037109375,6636.7783203125,15552.0439453125,12478.0341796875,14847.9150390625,11552.1748046875,2054.37353515625,1868.4068603515625,10164.578125,0.0,5647.34130859375,9486.6748046875,9197.39453125,5393.0283203125,10786.8505859375,12620.2900390625,17638.20703125,-12707.7099609375,2772.80810546875,12458.9609375,8466.244140625,6856.91845703125,5973.18017578125,0.0,10750.2939453125
5937.41748046875,3473.7587890625,14966.3291015625,7030.9638671875,17383.09765625,6836.25537109375,9765.625,14708.8369140625,7207.3935546875,8940.6962890625,6072.52099609375,9191.8310546875,-4992.48486328125,0.0,13653.4375,13759.1357421875,1286.66552734375,1242.95556640625,5353.2919921875,8110.20556640625,4449.685546875,11684.89453125,8563.201171875,23414.29296875,35.762786865234375,2948.443115234375,7302.76123046875,14577.7060546875,-4374.18603515625,2046.426025390625,19175.2109375,-10209.8779296875,-3556.41064453125,3657.341064453125,10817.05078125,12235.6416015625,7168.45166015625,10104.1796875,7462.50146484375,-0.0,6605.7841796875,27517.4765625,31708.080078125,9728.2724609375,20170.2109375,15074.412109375,1839.001953125,912.3484497070312,6638.3681640625,15561.5810546875,12474.060546875,14865.3984375,11537.869140625,2059.9365234375,1863.6385498046875,10174.91015625,0.0,5680.7197265625,9484.291015625,9211.69921875,5385.0810546875,10790.0302734375,12623.4697265625,17644.564453125,-12710.0947265625,2772.80810546875,12457.37109375,8457.5009765625,6860.8916015625,5974.76953125,0.0,10762.21484375
5920.72802734375,3522.237060546875,15021.1650390625,7011.095703125,17390.251953125,6839.43408203125,9768.8037109375,14715.9892578125,7208.98291015625,8947.0546875,6082.05810546875,9207.7255859375,-4985.33251953125,0.0,13653.4375,13766.2890625,1295.4075927734375,1246.1343994140625,5358.85498046875,8114.1787109375,4453.6591796875,11684.89453125,8567.9697265625,23418.267578125,46.09425735473633,2954.006103515625,7309.91357421875,14582.474609375,-4364.6494140625,2055.168212890625,19180.775390625,-10198.751953125,-3544.489501953125,3651.778076171875,10823.4091796875,12238.8203125,7174.01513671875,10107.3583984375,7426.73876953125,-0.0,6612.14208984375,27516.68359375,31716.029296875,9731.4521484375,20174.98046875,15081.564453125,1847.7440185546875,967.1846923828125,6643.93115234375,15563.96484375,12474.8544921875,14872.55078125,11535.4853515625,2113.183349609375,1868.4068603515625,10185.2421875,0.0,5695.81982421875,9478.728515625,9219.646484375,5398.59130859375,10794.00390625,12628.2373046875,17651.716796875,-12705.326171875,2784.72900390625,12458.1650390625,8482.138671875,6865.66015625,5996.22705078125,0.0,10761.419921875
5903.244140625,3541.310546875,14994.14453125,6928.44384765625,17384.6875,6825.923828125,9762.4462890625,14694.53125,7197.85693359375,8930.365234375,6071.7265625,9209.3154296875,-4996.45849609375,0.0,13649.4638671875,13743.2412109375,1289.0498046875,1236.59765625,5349.31787109375,8103.05322265625,4449.685546875,11672.1796875,8559.2265625,23406.34765625,36.55751419067383,2942.085205078125,7305.93994140625,14568.169921875,-4368.623046875,2040.068359375,19172.033203125,-10201.13671875,-3546.873779296875,3643.83056640625,10816.2568359375,12226.1044921875,7166.8623046875,10094.642578125,7424.3544921875,-0.0,6615.32080078125,27502.37890625,31710.46484375,9718.7353515625,20168.623046875,15064.8759765625,1804.82861328125,936.9849853515625,6637.5732421875,15552.837890625,12474.8544921875,14851.8876953125,11537.0751953125,2131.462158203125,1860.459716796875,10174.115234375,0.0,5654.49365234375,9466.01171875,9203.751953125,5402.56494140625,10783.671875,12616.31640625,17650.921875,-12705.326171875,2786.318603515625,12455.78125,8497.23828125,6853.7392578125,5987.4853515625,0.0,10754.267578125
5876.22314453125,3527.80029296875,14966.3291015625,6912.54931640625,17375.9453125,6810.82373046875,9744.1669921875,14673.869140625,7191.4990234375,8917.6494140625,6054.24267578125,9194.21484375,-4995.6640625,0.0,13646.28515625,13720.1943359375,1273.1552734375,1223.0872802734375,5331.83447265625,8091.13232421875,4441.73828125,11659.462890625,8544.921875,23388.06640625,16.689300537109375,2928.57470703125,7282.09814453125,14553.8642578125,-4375.77587890625,2026.557861328125,19156.13671875,-10212.26171875,-3555.61572265625,3630.3203125,10804.3359375,12210.2099609375,7150.17333984375,10077.1591796875,7468.06494140625,-0.0,6621.6787109375,27492.046875,31694.572265625,9701.251953125,20152.7265625,15047.390625,1816.74951171875,869.43310546875,6616.91064453125,15535.3544921875,12470.8818359375,14829.6357421875,11518.7958984375,2121.130615234375,1840.5914306640625,10161.3994140625,0.0,5589.326171875,9481.9072265625,9192.6259765625,5392.2333984375,10766.9833984375,12603.6005859375,17643.76953125,-12714.86328125,2775.98681640625,12453.396484375,8482.138671875,6849.765625,5978.7431640625,0.0,10750.2939453125
5846.0234375,3519.05810546875,14980.6337890625,6940.36474609375,17369.587890625,6801.287109375,9735.4248046875,14659.564453125,7188.3203125,8918.4443359375,6051.0634765625,9183.8837890625,-4998.8427734375,0.0,13640.7216796875,13706.6845703125,1269.976318359375,1219.9083251953125,5326.27099609375,8089.54248046875,4437.7646484375,11660.2578125,8540.1533203125,23382.505859375,11.126200675964355,2923.01171875,7266.998046875,14534.791015625,-4378.95458984375,2009.86865234375,19156.13671875,-10224.1826171875,-3550.847412109375,3636.677978515625,10800.361328125,12207.03125,7140.63623046875,10070.80078125,7410.84423828125,-0.0,6607.37353515625,27492.046875,31684.23828125,9691.71484375,20145.57421875,15041.828125,1844.5650634765625,890.0960083007812,6606.57861328125,15518.6650390625,12464.5234375,14816.919921875,11488.5966796875,2088.546875,1839.001953125,10153.453125,0.0,5558.33203125,9480.3173828125,9171.16796875,5379.51806640625,10762.21484375,12597.2431640625,17637.41015625,-12718.8369140625,2768.039794921875,12448.62890625,8494.0595703125,6852.94482421875,6002.5849609375,0.0,10742.3466796875
5831.71826171875,3526.210693359375,14981.4287109375,6927.64892578125,17364.8203125,6802.876953125,9743.373046875,14664.33203125,7194.677734375,8924.8017578125,6061.39501953125,9194.21484375,-4987.716796875,0.0,13648.6689453125,13713.0419921875,1273.949951171875,1223.0872802734375,5331.03955078125,8095.900390625,4437.7646484375,11658.6689453125,8544.921875,23386.478515625,20.66294288635254,2925.39599609375,7282.892578125,14530.0224609375,-4373.3916015625,2014.636962890625,19156.93359375,-10214.646484375,-3546.873779296875,3627.93603515625,10801.951171875,12211.0048828125,7146.994140625,10073.9794921875,7398.92333984375,-0.0,6593.86279296875,27484.89453125,31690.59765625,9694.099609375,20153.5234375,15048.1865234375,1842.9755859375,933.0113525390625,6609.7578125,15525.0234375,12470.8818359375,14820.8935546875,11497.337890625,2083.7783203125,1858.075439453125,10158.2216796875,0.0,5609.9892578125,9481.1123046875,9170.373046875,5387.46484375,10766.9833984375,12602.8056640625,17639.794921875,-12713.2734375,2774.397705078125,12454.986328125,8498.828125,6852.94482421875,6002.5849609375,0.0,10752.677734375
5848.40771484375,3508.726806640625,14952.8193359375,6929.23876953125,17365.61328125,6801.287109375,9748.935546875,14671.4853515625,7197.06201171875,8929.5703125,6055.83203125,9191.8310546875,-4988.51171875,0.0,13651.0537109375,13719.3994140625,1271.5657958984375,1219.9083251953125,5333.423828125,8100.6689453125,4430.6123046875,11655.490234375,8544.921875,23386.478515625,19.073486328125,2922.217041015625,7291.63525390625,14535.5859375,-4378.16015625,2014.636962890625,19152.1640625,-10209.8779296875,-3568.33154296875,3623.96240234375,10797.1826171875,12211.0048828125,7151.7626953125,10079.54296875,7448.9912109375,-0.0,6589.8896484375,27478.537109375,31695.365234375,9694.8935546875,20159.87890625,15053.7490234375,1829.4652099609375,923.474609375,6625.65234375,15522.6396484375,12471.67578125,14828.8408203125,11512.4384765625,2076.625732421875,1859.6649169921875,10152.6572265625,0.0,5626.6787109375,9473.1650390625,9183.8837890625,5389.0546875,10767.77734375,12607.57421875,17650.126953125,-12715.6572265625,2768.039794921875,12455.78125,8496.443359375,6853.7392578125,6002.5849609375,0.0,10771.7509765625
5862.712890625,3496.805908203125,14908.3134765625,6941.15966796875,17364.8203125,6790.9560546875,9733.8359375,14660.3583984375,7177.1943359375,8907.318359375,6032.78515625,9173.552734375,-5010.763671875,0.0,13628.005859375,13707.478515625,1259.6448974609375,1207.9874267578125,5316.734375,8080.80029296875,4425.048828125,11645.158203125,8532.2060546875,23373.76171875,-0.7947285771369934,2910.296142578125,7273.35595703125,14526.0498046875,-4396.4384765625,2001.1265869140625,19142.626953125,-10233.7197265625,-3575.484130859375,3619.194091796875,10790.8251953125,12197.494140625,7138.25244140625,10064.4423828125,7344.0869140625,-0.0,6606.57861328125,27474.5625,31683.4453125,9682.97265625,20143.189453125,15037.8544921875,1761.1185302734375,889.30126953125,6617.705078125,15513.896484375,12451.8076171875,14816.919921875,11501.3125,2063.91015625,1832.6441650390625,10139.1474609375,0.0,5625.08935546875,9462.0390625,9179.91015625,5360.4443359375,10754.267578125,12589.294921875,17623.10546875,-12734.73046875,2749.760986328125,12433.529296875,8472.6015625,6827.51318359375,5972.38525390625,0.0,10733.6044921875
5877.81298828125,3485.6796875,14872.55078125,6970.564453125,17365.61328125,6793.34033203125,9729.8623046875,14661.1533203125,7177.1943359375,8913.67578125,6028.0166015625,9166.400390625,-4998.8427734375,0.0,13619.263671875,13709.068359375,1254.081787109375,1207.9874267578125,5314.35009765625,8083.9794921875,4428.22802734375,11646.748046875,8530.6171875,23370.583984375,-10.33147144317627,2907.912109375,7270.17724609375,14528.43359375,-4394.05419921875,1994.768798828125,19141.0390625,-10244.8466796875,-3574.689208984375,3627.93603515625,10791.619140625,12196.7001953125,7133.48388671875,10062.853515625,7332.96044921875,-0.0,6628.03662109375,27479.330078125,31682.65234375,9682.1787109375,20139.216796875,15037.8544921875,1757.1448974609375,869.43310546875,6613.7314453125,15515.486328125,12443.0654296875,14816.919921875,11479.060546875,2068.6787109375,1831.8494873046875,10135.9677734375,0.0,5629.0625,9460.44921875,9182.2939453125,5345.3447265625,10750.2939453125,12587.70703125,17638.20703125,-12737.91015625,2742.6083984375,12427.9658203125,8479.7548828125,6837.0498046875,5993.04833984375,0.0,10750.2939453125
5894.501953125,3512.700439453125,14926.5927734375,6936.39111328125,17369.587890625,6809.234375,9746.5517578125,14685.7900390625,7190.7041015625,8933.5439453125,6049.47412109375,9188.65234375,-4967.0537109375,0.0,13624.8271484375,13734.5,1266.79736328125,1221.4979248046875,5334.21826171875,8099.87353515625,4431.40673828125,11654.6943359375,8544.921875,23388.86328125,-7.9472856521606445,2925.39599609375,7286.07177734375,14552.275390625,-4375.77587890625,2028.942138671875,19151.369140625,-10221.798828125,-3575.484130859375,3627.93603515625,10801.951171875,12211.7998046875,7150.96826171875,10081.1318359375,7461.70654296875,-0.0,6609.7578125,27484.89453125,31696.95703125,9702.046875,20156.701171875,15056.927734375,1816.74951171875,903.6064453125,6620.8837890625,15533.7646484375,12449.423828125,14842.3505859375,11473.49609375,2112.388671875,1847.7440185546875,10158.2216796875,0.0,5662.44140625,9465.2177734375,9205.341796875,5377.92822265625,10766.1884765625,12607.57421875,17660.458984375,-12717.2470703125,2767.2451171875,12433.529296875,8485.3173828125,6844.99755859375,5993.84326171875,0.0,10770.162109375
5888.14404296875,3523.82666015625,15006.0654296875,6942.7490234375,17372.765625,6821.15576171875,9753.7041015625,14701.68359375,7205.80419921875,8943.0810546875,6065.36865234375,9205.341796875,-4957.51708984375,0.0,13636.748046875,13751.9833984375,1272.3604736328125,1230.2398681640625,5343.75537109375,8111.0,4432.99609375,11661.8466796875,8551.2802734375,23399.1953125,19.073486328125,2936.522216796875,7273.35595703125,14569.759765625,-4362.26513671875,2040.863037109375,19158.521484375,-10212.26171875,-3568.33154296875,3631.114990234375,10806.7197265625,12220.5419921875,7157.32568359375,10093.052734375,7502.23779296875,-0.0,6590.6845703125,27489.662109375,31696.95703125,9714.7626953125,20166.23828125,15071.232421875,1847.7440185546875,940.9586791992188,6632.009765625,15546.4814453125,12462.138671875,14860.6298828125,11479.8544921875,2128.283203125,1862.8438720703125,10170.9365234375,0.0,5679.92529296875,9487.4697265625,9216.4677734375,5397.796875,10777.314453125,12618.701171875,17667.611328125,-12704.53125,2782.3447265625,12444.6552734375,8466.244140625,6869.63427734375,5976.35888671875,0.0,10773.3408203125
5866.6865234375,3519.852783203125,14982.2236328125,6953.875,17376.7421875,6821.15576171875,9755.2939453125,14696.12109375,7205.00927734375,8941.4912109375,6062.984375,9202.95703125,-4989.30615234375,0.0,13646.28515625,13745.6259765625,1273.1552734375,1231.03466796875,5345.3447265625,8111.79443359375,4438.55908203125,11663.4365234375,8552.869140625,23401.578125,19.073486328125,2936.522216796875,7285.27685546875,14565.78515625,-4365.4443359375,2019.4053955078125,19159.31640625,-10208.2890625,-3562.768310546875,3630.3203125,10808.30859375,12221.3359375,7161.29931640625,10092.2587890625,7481.5751953125,-0.0,6612.14208984375,27496.01953125,31700.134765625,9714.7626953125,20170.2109375,15068.0546875,1835.0283203125,924.2693481445312,6634.39404296875,15542.5068359375,12468.4970703125,14853.4775390625,11514.02734375,2124.3095703125,1869.9964599609375,10165.3740234375,0.0,5662.44140625,9487.4697265625,9206.9306640625,5394.61767578125,10778.904296875,12619.4951171875,17660.458984375,-12702.94140625,2783.139404296875,12451.0126953125,8475.7802734375,6871.2236328125,5997.02197265625,0.0,10778.109375
5843.63916015625,3530.1845703125,14917.8505859375,6959.4384765625,17381.509765625,6824.33447265625,9758.47265625,14687.37890625,7203.419921875,8935.9287109375,6058.21630859375,9200.5732421875,-5018.7109375,0.0,13651.0537109375,13735.2939453125,1278.7183837890625,1234.2135009765625,5346.1396484375,8108.61572265625,4445.71142578125,11669.794921875,8556.8427734375,23403.16796875,2.384185791015625,2938.906494140625,7305.93994140625,14560.22265625,-4374.98095703125,2020.2000732421875,19163.2890625,-10200.3408203125,-3559.58935546875,3635.088623046875,10813.8720703125,12225.310546875,7162.88916015625,10090.6689453125,7487.9326171875,-0.0,6621.6787109375,27503.966796875,31705.6953125,9713.1728515625,20170.2109375,15061.6962890625,1810.3917236328125,900.427490234375,6636.7783203125,15542.5068359375,12472.470703125,14842.3505859375,11533.896484375,2111.593994140625,1842.180908203125,10163.7841796875,0.0,5640.9833984375,9493.033203125,9195.009765625,5399.3857421875,10780.494140625,12617.111328125,17656.484375,-12707.7099609375,2784.72900390625,12456.576171875,8495.6484375,6860.09716796875,6016.89013671875,0.0,10770.95703125
5849.9970703125,3519.852783203125,14940.1025390625,6965.7958984375,17385.482421875,6827.51318359375,9760.0625,14688.173828125,7208.98291015625,8947.849609375,6057.42138671875,9195.009765625,-5003.611328125,0.0,13649.4638671875,13736.8837890625,1278.7183837890625,1235.802978515625,5346.93408203125,8118.15283203125,4448.095703125,11676.15234375,8558.4326171875,23406.34765625,33.37860107421875,2945.26416015625,7305.93994140625,14557.0439453125,-4382.13330078125,2031.3262939453125,19164.0859375,-10206.69921875,-3558.794677734375,3644.62548828125,10813.8720703125,12226.8994140625,7166.0673828125,10093.052734375,7401.3076171875,-0.0,6616.91064453125,27511.119140625,31709.671875,9714.7626953125,20171.80078125,15066.46484375,1798.4708251953125,879.7645263671875,6637.5732421875,15544.8916015625,12473.265625,14843.9404296875,11518.7958984375,2090.930908203125,1845.35986328125,10167.7578125,0.0,5626.6787109375,9493.033203125,9198.1884765625,5401.77001953125,10780.494140625,12619.4951171875,17673.173828125,-12712.478515625,2782.3447265625,12458.1650390625,8525.8486328125,6860.8916015625,6042.32177734375,0.0,10805.1298828125
