4951.9541015625,3140.767333984375,12914.33984375,7526.07958984375,17001.62890625,5856.35498046875,8656.978515625,13447.6025390625,5042.552734375,8041.85888671875,8531.4111328125,7757.345703125,-5884.17041015625,0.0,11044.3427734375,12327.03515625,1808.80224609375,2175.172119140625,3350.57568359375,5679.13037109375,3808.33935546875,11324.087890625,8706.251953125,23314.953125,-2782.3447265625,-607.1726684570312,4909.83349609375,13813.97265625,-6873.607421875,3270.308349609375,19093.35546875,-10567.505859375,-5893.70703125,3817.08154296875,10805.9248046875,11820.79296875,6091.5947265625,8689.5625,4728.63525390625,-0.0,4733.40380859375,28070.607421875,31587.283203125,8686.3828125,18899.44140625,14305.115234375,-4010.200439453125,-6488.16455078125,4138.15185546875,15038.6494140625,9895.9609375,13309.3193359375,10777.314453125,1480.579345703125,-874.9962158203125,10459.4228515625,0.0,2970.695556640625,7463.29638671875,6800.49267578125,6185.373046875,11974.970703125,8785.724609375,16566.912109375,-13481.7763671875,3113.74658203125,9788.6728515625,4340.8076171875,3542.10546875,1974.1058349609375,0.0,9796.619140625
4955.92724609375,3126.462158203125,12922.287109375,7514.15869140625,17008.78125,5858.7392578125,8661.7470703125,13453.166015625,5050.50048828125,8047.42138671875,8540.9482421875,7762.1142578125,-5888.93896484375,0.0,11053.0849609375,12331.0087890625,1813.5706787109375,2180.7353515625,3355.343994140625,5684.69384765625,3817.876220703125,11324.8828125,8712.609375,23320.515625,-2782.3447265625,-600.0200805664062,4916.19091796875,13820.3310546875,-6863.27587890625,3279.050048828125,19100.5078125,-10565.9169921875,-5874.6337890625,3811.518310546875,10810.6923828125,11825.5615234375,6097.15771484375,8695.1259765625,4687.30908203125,-0.0,4743.73486328125,28070.607421875,31596.8203125,8692.7412109375,18905.00390625,14309.8828125,-4015.763671875,-6473.859375,4153.25146484375,15046.5966796875,9903.11328125,13316.4716796875,10776.51953125,1501.2423095703125,-871.8172607421875,10462.6015625,0.0,2986.590087890625,7472.0380859375,6804.46630859375,6192.525390625,11981.328125,8791.287109375,16574.064453125,-13482.5703125,3121.69384765625,9796.619140625,4339.21826171875,3551.64208984375,1979.6688232421875,0.0,9802.9775390625
4996.45849609375,3092.2890625,12930.234375,7491.11181640625,17007.193359375,5853.97119140625,8660.1572265625,13451.576171875,5048.91064453125,8042.6533203125,8536.974609375,7757.345703125,-5896.09130859375,0.0,11052.291015625,12327.830078125,1810.3917236328125,2176.76171875,3352.9599609375,5683.10400390625,3809.928955078125,11316.935546875,8709.4306640625,23318.1328125,-2789.497314453125,-605.5831909179688,4924.138671875,13814.7666015625,-6865.66015625,3269.513427734375,19095.740234375,-10561.1484375,-5884.96533203125,3802.7763671875,10805.9248046875,11820.79296875,6094.77392578125,8691.1513671875,4715.91943359375,-0.0,4727.04541015625,28060.27734375,31596.0234375,8689.5625,18904.208984375,14307.4990234375,-4018.14794921875,-6469.0908203125,4154.8408203125,15043.41796875,9903.908203125,13312.4990234375,10772.5458984375,1505.2159423828125,-882.1487426757812,10451.4765625,0.0,2982.616455078125,7469.654296875,6801.287109375,6190.14111328125,11979.7392578125,8789.6982421875,16568.501953125,-13488.9287109375,3114.541259765625,9795.029296875,4340.01318359375,3547.66845703125,1970.132080078125,0.0,9796.619140625
4977.38525390625,3102.620361328125,12981.8916015625,7477.6015625,17004.013671875,5857.1494140625,8656.1845703125,13446.8076171875,5044.93701171875,8037.09033203125,8533.0009765625,7755.75634765625,-5892.1181640625,0.0,11048.3173828125,12324.650390625,1811.1864013671875,2175.172119140625,3352.165283203125,5678.33544921875,3807.544677734375,11319.3193359375,8706.251953125,23315.748046875,-2769.629150390625,-604.7884521484375,4914.6015625,13813.177734375,-6872.81298828125,3270.308349609375,19092.560546875,-10566.7109375,-5876.22314453125,3805.955078125,10801.951171875,11820.79296875,6089.21044921875,8687.97265625,4727.84033203125,-0.0,4717.5087890625,28062.662109375,31591.255859375,8687.1787109375,18901.029296875,14305.115234375,-4008.611083984375,-6484.9853515625,4152.45654296875,15043.41796875,9901.5234375,13309.3193359375,10750.2939453125,1494.0897216796875,-894.0697021484375,10447.501953125,0.0,2968.311279296875,7468.06494140625,6798.90283203125,6175.041015625,11975.765625,8786.51953125,16562.939453125,-13491.3125,3110.56787109375,9791.056640625,4335.24462890625,3544.489501953125,1960.5953369140625,0.0,9791.056640625
4945.59619140625,3129.641357421875,12968.380859375,7483.16455078125,17003.216796875,5857.1494140625,8653.0048828125,13447.6025390625,5042.552734375,8036.2958984375,8522.669921875,7758.935546875,-5880.99169921875,0.0,11045.9326171875,12327.03515625,1811.1864013671875,2174.37744140625,3350.57568359375,5675.1572265625,3808.33935546875,11317.7294921875,8706.251953125,23314.953125,-2769.629150390625,-604.7884521484375,4909.03857421875,13815.5625,-6868.83935546875,3275.871337890625,19093.35546875,-10567.505859375,-5871.45458984375,3804.365966796875,10802.74609375,11819.9990234375,6087.62109375,8687.1787109375,4699.22998046875,-0.0,4727.04541015625,28059.482421875,31590.4609375,8687.1787109375,18897.8515625,14304.3203125,-3993.51123046875,-6483.39599609375,4149.2783203125,15045.0068359375,9898.3447265625,13310.115234375,10778.109375,1490.1160888671875,-908.374755859375,10449.091796875,0.0,2964.337646484375,7464.0908203125,6803.67138671875,6168.68359375,11974.17578125,8784.134765625,16560.5546875,-13488.1337890625,3112.951904296875,9789.466796875,4332.0654296875,3546.078857421875,1962.1849365234375,0.0,9785.4931640625
4966.2587890625,3133.61474609375,12915.134765625,7482.3701171875,17004.013671875,5855.560546875,8651.416015625,13446.013671875,5041.75830078125,8035.50048828125,8520.28515625,7758.935546875,-5878.607421875,0.0,11044.3427734375,12325.4462890625,1811.1864013671875,2173.582763671875,3348.19140625,5675.1572265625,3811.518310546875,11316.140625,8706.251953125,23311.7734375,-2783.934326171875,-603.9937133789062,4907.44921875,13815.5625,-6868.83935546875,3276.666015625,19094.1484375,-10570.685546875,-5877.81298828125,3803.571044921875,10805.1298828125,11818.4091796875,6086.03125,8685.5888671875,4689.693359375,-0.0,4738.171875,28056.302734375,31589.66796875,8687.1787109375,18896.26171875,14301.9365234375,-4007.81640625,-6473.859375,4148.4833984375,15043.41796875,9897.5498046875,13308.525390625,10786.8505859375,1496.473876953125,-877.38037109375,10453.8603515625,0.0,2946.853515625,7460.1171875,6800.49267578125,6171.06787109375,11972.5869140625,8783.3408203125,16561.349609375,-13487.3388671875,3115.336181640625,9790.26171875,4331.2705078125,3546.873779296875,1968.5428466796875,0.0,9786.2880859375
4984.53759765625,3105.79931640625,12911.16015625,7491.11181640625,16993.681640625,5852.38134765625,8648.236328125,13437.271484375,5034.60546875,8030.73193359375,8520.28515625,7752.5771484375,-5891.3232421875,0.0,11044.3427734375,12312.7294921875,1805.6234130859375,2170.40380859375,3344.218017578125,5671.97802734375,3800.39208984375,11316.935546875,8700.6884765625,23307.005859375,-2790.2919921875,-605.5831909179688,4904.27001953125,13807.6142578125,-6869.63427734375,3274.28173828125,19086.203125,-10565.9169921875,-5905.62841796875,3805.16064453125,10797.1826171875,11815.23046875,6082.05810546875,8682.41015625,4768.37158203125,-0.0,4715.12451171875,28061.8671875,31583.30859375,8682.41015625,18894.671875,14294.783203125,-4020.5322265625,-6486.57470703125,4145.30419921875,15037.8544921875,9895.1650390625,13300.578125,10785.26171875,1489.3214111328125,-857.5121459960938,10456.244140625,0.0,2921.42236328125,7447.4013671875,6786.98193359375,6180.6044921875,11969.4072265625,8779.3662109375,16559.759765625,-13484.955078125,3114.541259765625,9787.876953125,4329.681640625,3542.10546875,1970.132080078125,0.0,9785.4931640625
5002.02197265625,3103.415283203125,12924.6708984375,7538.00048828125,16999.244140625,5857.1494140625,8653.0048828125,13438.0654296875,5040.1689453125,8031.52734375,8524.2587890625,7750.193359375,-5891.3232421875,0.0,11050.701171875,12311.935546875,1809.5970458984375,2175.172119140625,3345.807373046875,5672.77294921875,3801.186767578125,11327.2666015625,8703.072265625,23311.7734375,-2783.934326171875,-603.198974609375,4916.98583984375,13802.0517578125,-6862.4814453125,3268.71875,19089.380859375,-10569.8896484375,-5904.0390625,3815.491943359375,10798.771484375,11819.9990234375,6086.03125,8683.205078125,4832.74462890625,-0.0,4730.224609375,28077.759765625,31586.486328125,8680.8203125,18899.44140625,14294.783203125,-4015.763671875,-6503.26416015625,4151.662109375,15037.8544921875,9902.318359375,13299.783203125,10801.951171875,1478.989990234375,-858.306884765625,10455.44921875,0.0,2941.29052734375,7458.52783203125,6786.98193359375,6187.7568359375,11971.791015625,8779.3662109375,16560.5546875,-13473.0341796875,3106.593994140625,9795.029296875,4332.0654296875,3542.10546875,1974.1058349609375,0.0,9789.466796875
4991.68994140625,3122.48876953125,12938.181640625,7539.59033203125,17007.986328125,5863.5078125,8657.7734375,13446.8076171875,5048.91064453125,8037.884765625,8544.921875,7756.55126953125,-5876.22314453125,0.0,11052.291015625,12324.650390625,1819.928466796875,2183.9140625,3352.165283203125,5682.3095703125,3811.518310546875,11335.2138671875,8709.4306640625,23319.720703125,-2779.166015625,-597.6359252929688,4927.3173828125,13809.2041015625,-6852.94482421875,3271.8974609375,19101.30078125,-10560.353515625,-5887.349609375,3828.207763671875,10806.7197265625,11829.53515625,6092.3896484375,8690.357421875,4833.53955078125,-0.0,4732.60888671875,28085.708984375,31592.052734375,8688.767578125,18903.4140625,14303.525390625,-4010.995361328125,-6500.08544921875,4151.662109375,15041.828125,9905.4970703125,13308.525390625,10821.8193359375,1473.4267578125,-866.254150390625,10459.4228515625,0.0,2979.4375,7472.8330078125,6798.90283203125,6189.34619140625,11977.35546875,8787.314453125,16567.70703125,-13478.5966796875,3111.362548828125,9799.00390625,4338.42333984375,3553.2314453125,1978.07958984375,0.0,9796.619140625
4932.88037109375,3119.3095703125,12944.5390625,7518.1328125,16998.44921875,5860.32861328125,8657.7734375,13450.7822265625,5047.3212890625,8040.26904296875,8552.07421875,7766.88232421875,-5865.09716796875,0.0,11052.291015625,12327.830078125,1825.4915771484375,2179.145751953125,3352.9599609375,5682.3095703125,3811.518310546875,11329.650390625,8708.63671875,23318.1328125,-2771.218505859375,-600.8148193359375,4922.548828125,13813.177734375,-6848.17626953125,3272.6923828125,19099.712890625,-10551.6123046875,-5877.81298828125,3824.23388671875,10805.1298828125,11827.1513671875,6093.18408203125,8691.947265625,4846.2548828125,-0.0,4707.97216796875,28067.4296875,31591.255859375,8689.5625,18902.62109375,14302.73046875,-4014.174072265625,-6471.47509765625,4148.4833984375,15038.6494140625,9905.4970703125,13312.4990234375,10801.951171875,1486.9371337890625,-867.0488891601562,10463.3974609375,0.0,2996.921630859375,7469.654296875,6802.876953125,6177.42529296875,11977.35546875,8786.51953125,16570.88671875,-13479.3916015625,3112.951904296875,9795.8251953125,4346.37060546875,3546.078857421875,1978.874267578125,0.0,9800.59375
4899.501953125,3053.347412109375,12868.2451171875,7490.31689453125,16982.5546875,5843.63916015625,8641.87890625,13434.0927734375,5030.6318359375,8026.75927734375,8528.232421875,7749.39892578125,-5884.17041015625,0.0,11028.44921875,12311.935546875,1804.033935546875,2160.072265625,3337.0654296875,5668.00439453125,3800.39208984375,11310.5771484375,8691.947265625,23301.443359375,-2787.907958984375,-615.9146728515625,4900.296875,13798.0771484375,-6868.83935546875,3252.823974609375,19082.228515625,-10571.4794921875,-5892.1181640625,3797.21337890625,10790.8251953125,11808.8720703125,6075.7001953125,8675.2578125,4777.11328125,-0.0,4709.56201171875,28049.150390625,31571.388671875,8672.873046875,18884.33984375,14287.630859375,-4047.552490234375,-6475.44873046875,4127.025390625,15025.138671875,9881.6552734375,13298.1943359375,10774.1357421875,1467.0689697265625,-880.5592651367188,10445.1181640625,0.0,2964.337646484375,7453.759765625,6793.34033203125,6159.94140625,11962.2548828125,8769.830078125,16561.349609375,-13500.849609375,3096.2626953125,9773.572265625,4339.21826171875,3529.3896484375,1972.516357421875,0.0,9797.4140625
4949.56982421875,3017.58447265625,12910.3662109375,7500.6484375,16982.5546875,5849.20263671875,8643.4677734375,13434.0927734375,5032.22119140625,8027.5537109375,8519.490234375,7747.80908203125,-5893.70703125,0.0,11036.396484375,12310.345703125,1801.649658203125,2163.251220703125,3337.0654296875,5668.798828125,3794.0341796875,11316.140625,8691.947265625,23305.416015625,-2797.444580078125,-614.3251953125,4908.24365234375,13804.435546875,-6872.81298828125,3252.029296875,19081.43359375,-10575.4541015625,-5906.4228515625,3810.7236328125,10790.0302734375,11809.6669921875,6077.28955078125,8676.8466796875,4765.9873046875,-0.0,4708.76708984375,28057.89453125,31569.796875,8676.0517578125,18886.724609375,14289.2197265625,-4044.3740234375,-6478.62744140625,4124.6416015625,15033.0859375,9887.21875,13296.6044921875,10780.494140625,1455.1480712890625,-876.5856323242188,10444.3232421875,0.0,2940.495849609375,7457.7333984375,6794.9296875,6171.06787109375,11962.2548828125,8770.625,16562.142578125,-13499.259765625,3097.85205078125,9780.724609375,4344.78125,3538.1318359375,1982.0531005859375,0.0,9798.208984375
5003.611328125,3103.415283203125,12938.9765625,7481.5751953125,16992.091796875,5856.35498046875,8653.7998046875,13437.271484375,5042.552734375,8036.2958984375,8528.232421875,7757.345703125,-5895.29638671875,0.0,11050.701171875,12315.9091796875,1804.82861328125,2170.40380859375,3346.602294921875,5675.1572265625,3798.008056640625,11320.908203125,8699.8935546875,23312.568359375,-2787.11328125,-605.5831909179688,4916.98583984375,13811.587890625,-6873.607421875,3259.181884765625,19085.408203125,-10556.3798828125,-5901.65478515625,3806.75,10797.1826171875,11816.0244140625,6087.62109375,8683.9990234375,4741.3505859375,-0.0,4719.0986328125,28062.662109375,31581.71875,8683.205078125,18893.876953125,14295.578125,-4016.55810546875,-6482.60107421875,4137.357421875,15044.2119140625,9901.5234375,13300.578125,10789.2353515625,1484.552978515625,-872.6119995117188,10453.064453125,0.0,2945.26416015625,7467.27001953125,6794.9296875,6179.0146484375,11970.2021484375,8776.982421875,16568.501953125,-13486.544921875,3108.18359375,9795.029296875,4352.728515625,3550.847412109375,1994.768798828125,0.0,9804.56640625
4986.12744140625,3134.40966796875,12903.2138671875,7458.52783203125,16979.375,5838.87109375,8639.4951171875,13422.171875,5024.2744140625,8017.22216796875,8522.669921875,7745.4248046875,-5894.501953125,0.0,11029.2431640625,12300.80859375,1794.4971923828125,2156.0986328125,3331.502197265625,5656.8779296875,3787.676513671875,11303.4248046875,8687.1787109375,23295.87890625,-2789.497314453125,-622.2724609375,4897.11767578125,13789.3359375,-6878.3759765625,3248.0556640625,19071.1015625,-10565.9169921875,-5910.396484375,3788.47119140625,10786.056640625,11800.1298828125,6073.31591796875,8667.3095703125,4717.5087890625,-0.0,4702.4091796875,28041.205078125,31568.2109375,8665.720703125,18877.1875,14276.5048828125,-4021.32666015625,-6497.701171875,4121.46240234375,15026.728515625,9882.4501953125,13285.4775390625,10776.51953125,1486.1424560546875,-887.7118530273438,10441.939453125,0.0,2939.701171875,7448.1962890625,6777.4453125,6166.29931640625,11955.8974609375,8758.7041015625,16549.4296875,-13494.4912109375,3097.057373046875,9774.3671875,4335.24462890625,3527.00537109375,1962.9796142578125,0.0,9779.1357421875
4963.875,3120.1044921875,12893.6767578125,7463.29638671875,16983.3515625,5830.92333984375,8637.9052734375,13418.9921875,5020.30029296875,8006.095703125,8522.669921875,7744.63037109375,-5884.96533203125,0.0,11027.6533203125,12295.24609375,1795.2918701171875,2156.0986328125,3327.52880859375,5650.5205078125,3793.239501953125,11300.24609375,8687.97265625,23292.69921875,-2783.934326171875,-624.6566772460938,4896.32275390625,13779.7998046875,-6871.2236328125,3250.43994140625,19075.07421875,-10576.248046875,-5903.244140625,3790.060791015625,10786.8505859375,11798.541015625,6070.93212890625,8664.130859375,4684.92529296875,-0.0,4713.53515625,28041.205078125,31569.00390625,8659.36328125,18874.802734375,14271.736328125,-4032.453125,-6506.44287109375,4121.46240234375,15014.8076171875,9880.8603515625,13281.5048828125,10765.3935546875,1482.963623046875,-894.8643798828125,10442.7333984375,0.0,2942.8798828125,7442.63330078125,6771.087890625,6167.09375,11954.3076171875,8757.1142578125,16538.30078125,-13494.4912109375,3101.031005859375,9771.9833984375,4317.76025390625,3524.621337890625,1935.1640625,0.0,9755.2939453125
4990.8955078125,3123.283447265625,12946.12890625,7479.19091796875,16983.3515625,5835.69189453125,8641.87890625,13420.58203125,5024.2744140625,8011.65869140625,8529.02734375,7747.80908203125,-5883.37548828125,0.0,11034.806640625,12298.4248046875,1796.086669921875,2155.303955078125,3329.912841796875,5654.49365234375,3791.650146484375,11304.2197265625,8690.357421875,23293.49609375,-2780.75537109375,-618.298828125,4901.8857421875,13784.5673828125,-6867.25,3255.208251953125,19075.07421875,-10574.658203125,-5902.44921875,3798.802734375,10786.056640625,11800.9248046875,6074.1103515625,8665.720703125,4729.4296875,-0.0,4711.94580078125,28047.5625,31574.56640625,8663.3369140625,18880.3671875,14275.7099609375,-4030.86328125,-6493.72705078125,4133.38330078125,15018.7802734375,9888.80859375,13283.888671875,10791.619140625,1488.5267333984375,-898.0433349609375,10445.912109375,0.0,2951.6220703125,7444.22314453125,6773.4716796875,6172.6572265625,11955.1015625,8760.29296875,16545.453125,-13489.7236328125,3104.2099609375,9779.9296875,4324.1181640625,3535.74755859375,1943.1114501953125,0.0,9764.03515625
5013.94287109375,3162.22509765625,12932.6181640625,7483.16455078125,16992.88671875,5849.20263671875,8653.0048828125,13438.0654296875,5039.3740234375,8030.73193359375,8527.4384765625,7759.72998046875,-5879.40234375,0.0,11049.90625,12315.9091796875,1802.4444580078125,2160.866943359375,3341.0390625,5670.388671875,3801.186767578125,11312.1669921875,8697.509765625,23303.03125,-2776.78173828125,-607.1726684570312,4912.2177734375,13803.6416015625,-6862.4814453125,3267.129150390625,19081.43359375,-10562.7373046875,-5899.2705078125,3794.8291015625,10794.00390625,11809.6669921875,6085.23681640625,8677.6416015625,4769.16650390625,-0.0,4727.04541015625,28058.6875,31582.515625,8676.8466796875,18890.69921875,14291.6044921875,-4034.837158203125,-6482.60107421875,4139.7412109375,15031.4970703125,9901.5234375,13301.3720703125,10803.5400390625,1502.037109375,-880.5592651367188,10452.2705078125,0.0,2969.10595703125,7459.322265625,6795.724609375,6184.578125,11963.8447265625,8773.009765625,16566.912109375,-13482.5703125,3111.362548828125,9792.6455078125,4354.318359375,3543.69482421875,1982.0531005859375,0.0,9792.6455078125
5009.96923828125,3158.25146484375,12936.591796875,7498.26416015625,16996.064453125,5853.17626953125,8656.1845703125,13446.8076171875,5048.91064453125,8040.26904296875,8526.642578125,7763.70361328125,-5869.0703125,0.0,11053.0849609375,12322.2666015625,1808.007568359375,2166.43017578125,3345.807373046875,5679.13037109375,3808.33935546875,11318.5244140625,8702.2783203125,23307.005859375,-2779.166015625,-609.5568237304688,4920.16455078125,13806.8203125,-6856.12353515625,3267.924072265625,19085.408203125,-10562.7373046875,-5892.91259765625,3802.7763671875,10797.9775390625,11814.4345703125,6090.00537109375,8685.5888671875,4750.88720703125,-0.0,4734.9931640625,28060.27734375,31584.900390625,8682.41015625,18897.056640625,14301.140625,-4041.19482421875,-6477.0380859375,4134.97314453125,15038.6494140625,9903.908203125,13307.73046875,10795.59375,1503.62646484375,-860.6910400390625,10457.8330078125,0.0,2966.7216796875,7468.06494140625,6808.43994140625,6183.783203125,11969.4072265625,8780.162109375,16577.244140625,-13476.212890625,3114.541259765625,9796.619140625,4363.85498046875,3547.66845703125,2000.3319091796875,0.0,9808.5400390625
4999.6376953125,3119.3095703125,12904.0078125,7475.21728515625,16976.197265625,5840.46044921875,8641.083984375,13428.5283203125,5033.81103515625,8022.78515625,8527.4384765625,7750.193359375,-5870.66015625,0.0,11041.1640625,12307.1669921875,1798.4708251953125,2155.303955078125,3331.502197265625,5664.03076171875,3798.802734375,11308.193359375,8688.767578125,23294.291015625,-2780.75537109375,-617.504150390625,4893.9384765625,13788.541015625,-6863.27587890625,3261.566162109375,19075.87109375,-10584.990234375,-5896.09130859375,3788.47119140625,10786.056640625,11800.9248046875,6074.1103515625,8670.4892578125,4746.9140625,-0.0,4715.91943359375,28050.740234375,31566.619140625,8667.3095703125,18881.95703125,14285.2470703125,-4038.810791015625,-6512.00634765625,4114.3095703125,15025.93359375,9890.3974609375,13290.24609375,10778.109375,1495.67919921875,-871.0225219726562,10447.501953125,0.0,2954.80078125,7454.55419921875,6786.1875,6165.50439453125,11954.3076171875,8766.6513671875,16555.78515625,-13485.7490234375,3107.388671875,9785.4931640625,4336.0390625,3541.310546875,1967.7479248046875,0.0,9781.51953125
4980.56396484375,3116.130859375,12899.2392578125,7464.8857421875,16982.5546875,5840.46044921875,8641.083984375,13426.14453125,5031.4267578125,8018.81103515625,8533.0009765625,7746.2197265625,-5877.81298828125,0.0,11038.7802734375,12305.5771484375,1797.676025390625,2157.688232421875,3333.091796875,5660.05712890625,3802.7763671875,11312.1669921875,8689.5625,23295.083984375,-2777.576416015625,-607.9674072265625,4901.09130859375,13789.3359375,-6865.66015625,3262.36083984375,19078.25390625,-10581.0166015625,-5895.29638671875,3791.650146484375,10789.2353515625,11804.103515625,6074.9052734375,8669.6943359375,4738.96630859375,-0.0,4715.91943359375,28063.455078125,31570.595703125,8666.515625,18882.751953125,14282.8623046875,-4006.22705078125,-6541.4111328125,4127.8203125,15028.3173828125,9891.1923828125,13289.451171875,10771.7509765625,1482.963623046875,-874.9962158203125,10444.3232421875,0.0,2962.748291015625,7455.34912109375,6780.62451171875,6171.8623046875,11955.1015625,8765.0615234375,16548.6328125,-13488.9287109375,3105.004638671875,9784.6982421875,4327.29736328125,3542.900146484375,1947.8797607421875,0.0,9766.4189453125
4966.2587890625,3135.204345703125,12951.69140625,7472.0380859375,16982.5546875,5841.25537109375,8640.2890625,13428.5283203125,5031.4267578125,8019.6064453125,8540.1533203125,7748.60400390625,-5879.40234375,0.0,11037.1904296875,12307.9619140625,1796.086669921875,2153.71435546875,3332.297119140625,5664.03076171875,3794.8291015625,11310.5771484375,8685.5888671875,23295.083984375,-2776.78173828125,-612.7357177734375,4901.8857421875,13790.9248046875,-6861.6865234375,3258.38720703125,19075.07421875,-10577.04296875,-5899.2705078125,3791.650146484375,10786.8505859375,11801.7197265625,6074.9052734375,8670.4892578125,4719.89306640625,-0.0,4704.79345703125,28056.302734375,31569.796875,8666.515625,18882.751953125,14285.2470703125,-4000.663818359375,-6508.0322265625,4133.38330078125,15025.93359375,9890.3974609375,13290.24609375,10783.671875,1483.75830078125,-874.2014770507812,10441.1435546875,0.0,2962.748291015625,7456.14404296875,6785.392578125,6179.0146484375,11955.1015625,8765.8564453125,16553.40234375,-13484.16015625,3102.620361328125,9783.1083984375,4332.8603515625,3542.10546875,1955.0323486328125,0.0,9775.9560546875
4983.7431640625,3123.283447265625,12960.43359375,7475.21728515625,16981.759765625,5838.076171875,8642.673828125,13428.5283203125,5033.01611328125,8021.99072265625,8540.9482421875,7756.55126953125,-5885.759765625,0.0,11041.958984375,12306.373046875,1799.2655029296875,2155.303955078125,3331.502197265625,5663.236328125,3797.21337890625,11304.2197265625,8687.97265625,23294.291015625,-2778.37109375,-619.0935668945312,4906.654296875,13791.720703125,-6860.09716796875,3259.181884765625,19074.28125,-10584.1953125,-5890.5283203125,3790.85546875,10787.646484375,11799.3359375,6076.49462890625,8668.8994140625,4743.73486328125,-0.0,4709.56201171875,28038.025390625,31571.388671875,8665.720703125,18885.134765625,14285.2470703125,-3999.074462890625,-6453.1962890625,4128.61474609375,15021.9599609375,9893.576171875,13291.041015625,10787.646484375,1495.67919921875,-872.6119995117188,10441.1435546875,0.0,2961.953369140625,7457.7333984375,6786.1875,6175.8359375,11956.69140625,8768.2412109375,16554.990234375,-13480.98046875,3104.2099609375,9785.4931640625,4335.24462890625,3542.900146484375,1955.8270263671875,0.0,9776.751953125
5006.7900390625,3114.541259765625,12938.9765625,7468.06494140625,16989.70703125,5842.8447265625,8646.6474609375,13434.0927734375,5038.57958984375,8027.5537109375,8541.7431640625,7762.1142578125,-5880.99169921875,0.0,11045.138671875,12310.345703125,1805.6234130859375,2163.251220703125,3337.0654296875,5667.20947265625,3805.16064453125,11306.603515625,8693.5361328125,23299.05859375,-2775.1923828125,-615.1199340820312,4913.80712890625,13796.48828125,-6859.302734375,3266.33447265625,19081.43359375,-10574.658203125,-5881.7861328125,3793.239501953125,10794.00390625,11804.8984375,6082.85302734375,8674.4619140625,4723.86669921875,-0.0,4724.6611328125,28040.408203125,31578.541015625,8670.4892578125,18889.109375,14288.42578125,-3999.074462890625,-6460.3486328125,4138.9462890625,15027.5234375,9896.7548828125,13297.3984375,10790.0302734375,1507.6002197265625,-866.254150390625,10445.912109375,0.0,2962.748291015625,7458.52783203125,6790.1611328125,6177.42529296875,11961.4599609375,8771.419921875,16559.759765625,-13477.802734375,3110.56787109375,9789.466796875,4332.0654296875,3544.489501953125,1961.3902587890625,0.0,9782.314453125
4975.7958984375,3116.925537109375,12904.0078125,7462.50146484375,16995.271484375,5840.46044921875,8645.0576171875,13431.7080078125,5036.98974609375,8025.9638671875,8526.642578125,7757.345703125,-5886.5546875,0.0,11041.958984375,12310.345703125,1802.4444580078125,2159.277587890625,3335.475830078125,5668.00439453125,3811.518310546875,11307.3984375,8694.3310546875,23295.083984375,-2787.11328125,-618.298828125,4906.654296875,13794.8994140625,-6868.04443359375,3262.36083984375,19081.43359375,-10580.2216796875,-5869.0703125,3790.85546875,10796.3876953125,11804.103515625,6081.26318359375,8672.873046875,4688.10400390625,-0.0,4746.9140625,28041.998046875,31576.94921875,8668.8994140625,18885.134765625,14286.041015625,-4030.06884765625,-6481.80615234375,4132.5888671875,15026.728515625,9892.78125,13295.8095703125,10790.8251953125,1510.779052734375,-871.0225219726562,10449.091796875,0.0,2960.364013671875,7456.9384765625,6789.3662109375,6160.736328125,11959.076171875,8769.03515625,16562.939453125,-13487.3388671875,3110.56787109375,9787.0830078125,4329.681640625,3542.900146484375,1966.1585693359375,0.0,9787.876953125
4949.56982421875,3123.283447265625,12910.3662109375,7457.7333984375,16987.32421875,5840.46044921875,8646.6474609375,13435.681640625,5040.1689453125,8034.7060546875,8519.490234375,7755.75634765625,-5884.17041015625,0.0,11044.3427734375,12314.3193359375,1803.2392578125,2157.688232421875,3337.0654296875,5674.3623046875,3809.13427734375,11308.9873046875,8693.5361328125,23295.083984375,-2785.523681640625,-619.0935668945312,4908.24365234375,13797.283203125,-6862.4814453125,3259.9765625,19080.638671875,-10580.2216796875,-5866.6865234375,3789.265869140625,10794.00390625,11803.3095703125,6081.26318359375,8674.4619140625,4693.6669921875,-0.0,4733.40380859375,28045.177734375,31575.36328125,8670.4892578125,18887.51953125,14290.015625,-4041.19482421875,-6491.34326171875,4141.33056640625,15026.728515625,9895.9609375,13299.783203125,10766.1884765625,1505.2159423828125,-871.8172607421875,10453.064453125,0.0,2961.15869140625,7456.14404296875,6798.1083984375,6159.94140625,11958.28125,8772.2138671875,16574.064453125,-13489.7236328125,3112.951904296875,9789.466796875,4340.01318359375,3547.66845703125,1990.00048828125,0.0,9813.30859375
4943.2119140625,3106.593994140625,12931.029296875,7469.654296875,16987.32421875,5842.05029296875,8649.03125,13439.6552734375,5040.9638671875,8041.85888671875,8519.490234375,7753.3720703125,-5877.81298828125,0.0,11041.1640625,12317.498046875,1799.2655029296875,2158.48291015625,3337.860107421875,5679.13037109375,3801.981689453125,11308.193359375,8692.7412109375,23295.87890625,-2784.72900390625,-615.9146728515625,4914.6015625,13798.873046875,-6860.09716796875,3259.9765625,19078.25390625,-10575.4541015625,-5888.93896484375,3790.85546875,10792.4150390625,11803.3095703125,6082.85302734375,8676.8466796875,4719.89306640625,-0.0,4723.072265625,28047.5625,31578.541015625,8671.2841796875,18888.314453125,14295.578125,-4044.3740234375,-6508.0322265625,4147.6884765625,15028.3173828125,9894.37109375,13302.1669921875,10752.677734375,1494.0897216796875,-877.38037109375,10453.8603515625,0.0,2965.132568359375,7455.34912109375,6806.0556640625,6175.8359375,11957.486328125,8773.8037109375,16583.6015625,-13482.5703125,3111.362548828125,9785.4931640625,4353.5234375,3540.515869140625,2009.073974609375,0.0,9830.7919921875
4932.88037109375,3097.057373046875,12939.7705078125,7484.75390625,16985.734375,5835.69189453125,8640.2890625,13422.9658203125,5025.86376953125,8018.0166015625,8520.28515625,7739.06689453125,-5876.22314453125,0.0,11030.0380859375,12302.3984375,1793.7025146484375,2156.0986328125,3327.52880859375,5659.26220703125,3797.21337890625,11307.3984375,8686.3828125,23291.111328125,-2795.855224609375,-622.2724609375,4903.47509765625,13789.3359375,-6864.86572265625,3253.618896484375,19075.07421875,-10584.990234375,-5893.70703125,3801.981689453125,10788.4404296875,11800.1298828125,6073.31591796875,8665.720703125,4682.541015625,-0.0,4724.6611328125,28049.150390625,31573.771484375,8660.9521484375,18876.39453125,14280.478515625,-4042.7841796875,-6532.6689453125,4142.12548828125,15021.9599609375,9883.244140625,13285.4775390625,10748.7041015625,1475.81103515625,-878.9698486328125,10444.3232421875,0.0,2943.6748046875,7444.22314453125,6783.80322265625,6169.47802734375,11953.5126953125,8760.29296875,16548.6328125,-13488.1337890625,3102.620361328125,9774.3671875,4335.24462890625,3530.979248046875,1967.7479248046875,0.0,9777.5458984375
4936.0595703125,3102.620361328125,12939.7705078125,7505.4169921875,16992.88671875,5842.05029296875,8645.8525390625,13427.734375,5029.8369140625,8021.1953125,8527.4384765625,7743.83544921875,-5869.865234375,0.0,11038.7802734375,12306.373046875,1804.82861328125,2163.251220703125,3333.886474609375,5663.236328125,3812.31298828125,11317.7294921875,8693.5361328125,23298.263671875,-2779.166015625,-619.0935668945312,4899.501953125,13797.283203125,-6860.8916015625,3256.7978515625,19086.203125,-10569.8896484375,-5861.12353515625,3813.107666015625,10798.771484375,11810.4619140625,6078.87890625,8670.4892578125,4614.98876953125,-0.0,4730.224609375,28057.89453125,31578.541015625,8668.8994140625,18883.546875,14282.8623046875,-4041.98974609375,-6513.595703125,4146.09912109375,15027.5234375,9891.9873046875,13288.6572265625,10759.830078125,1476.605712890625,-878.1751098632812,10450.6806640625,0.0,2932.548583984375,7443.42822265625,6784.59765625,6165.50439453125,11960.666015625,8765.0615234375,16556.58203125,-13491.3125,3108.18359375,9784.6982421875,4332.8603515625,3539.72119140625,1959.006103515625,0.0,9779.9296875
4967.0537109375,3101.82568359375,12901.6240234375,7485.54833984375,17001.62890625,5857.1494140625,8662.541015625,13442.833984375,5049.70556640625,8041.85888671875,8539.359375,7763.70361328125,-5863.5078125,0.0,11061.828125,12322.2666015625,1825.4915771484375,2175.967041015625,3346.602294921875,5681.5146484375,3822.64453125,11328.0615234375,8708.63671875,23311.7734375,-2768.039794921875,-604.7884521484375,4914.6015625,13809.998046875,-6846.5869140625,3273.487060546875,19098.91796875,-10557.1748046875,-5864.30224609375,3806.75,10807.5146484375,11821.587890625,6094.77392578125,8686.3828125,4701.6142578125,-0.0,4730.224609375,28067.4296875,31587.283203125,8682.41015625,18903.4140625,14300.3466796875,-4026.889892578125,-6481.80615234375,4149.2783203125,15042.623046875,9915.0341796875,13305.3466796875,10782.8779296875,1492.500244140625,-861.4857788085938,10467.3701171875,0.0,2947.648193359375,7466.47509765625,6802.876953125,6171.8623046875,11973.380859375,8782.5458984375,16581.216796875,-13473.828125,3124.078125,9807.74609375,4348.7548828125,3559.58935546875,1982.847900390625,0.0,9812.5146484375
4971.02734375,3069.24169921875,12889.703125,7500.6484375,16974.607421875,5838.87109375,8640.2890625,13420.58203125,5029.8369140625,8014.04296875,8536.974609375,7741.451171875,-5876.22314453125,0.0,11039.57421875,12299.2197265625,1807.212890625,2156.0986328125,3325.939208984375,5655.28857421875,3796.41845703125,11312.1669921875,8685.5888671875,23291.111328125,-2780.75537109375,-621.477783203125,4907.44921875,13786.9521484375,-6855.3291015625,3255.208251953125,19079.84375,-10581.810546875,-5903.244140625,3801.186767578125,10785.26171875,11803.3095703125,6074.1103515625,8664.92578125,4807.3134765625,-0.0,4715.91943359375,28054.71484375,31568.2109375,8662.541015625,18881.162109375,14276.5048828125,-4026.889892578125,-6515.97998046875,4107.9521484375,15025.138671875,9891.1923828125,13282.298828125,10794.00390625,1468.658447265625,-882.9434814453125,10449.091796875,0.0,2941.29052734375,7453.759765625,6778.240234375,6155.1728515625,11952.7177734375,8759.4990234375,16547.044921875,-13484.16015625,3106.593994140625,9783.1083984375,4313.787109375,3537.337158203125,1949.46923828125,0.0,9772.77734375
4990.10107421875,3071.6259765625,12941.3603515625,7491.90673828125,16969.044921875,5832.51318359375,8633.931640625,13415.0185546875,5022.6845703125,8002.91748046875,8537.76953125,7736.68310546875,-5885.759765625,0.0,11035.6015625,12291.2724609375,1795.2918701171875,2149.740966796875,3321.965576171875,5648.13623046875,3786.0869140625,11306.603515625,8679.23046875,23285.546875,-2778.37109375,-623.0671997070312,4906.654296875,13778.2099609375,-6864.07080078125,3249.645263671875,19070.306640625,-10575.4541015625,-5915.9599609375,3796.41845703125,10777.314453125,11798.541015625,6068.5478515625,8658.568359375,4799.3662109375,-0.0,4689.693359375,28049.9453125,31564.236328125,8656.978515625,18873.21484375,14267.76171875,-3999.868896484375,-6530.28466796875,4114.3095703125,15017.986328125,9887.21875,13274.3525390625,10791.619140625,1455.1480712890625,-905.1958618164062,10444.3232421875,0.0,2946.05908203125,7446.60693359375,6767.1142578125,6170.27294921875,11945.5654296875,8753.140625,16537.5078125,-13488.9287109375,3102.620361328125,9778.3408203125,4297.09765625,3527.00537109375,1928.0115966796875,0.0,9754.498046875
5000.4326171875,3109.77294921875,12944.5390625,7472.0380859375,16980.171875,5842.8447265625,8643.4677734375,13424.5556640625,5028.248046875,8011.65869140625,8540.1533203125,7749.39892578125,-5890.5283203125,0.0,11040.3701171875,12301.6044921875,1800.060302734375,2154.50927734375,3329.912841796875,5655.28857421875,3791.650146484375,11312.9619140625,8687.97265625,23293.49609375,-2773.602783203125,-614.3251953125,4913.80712890625,13792.5146484375,-6867.25,3261.566162109375,19076.666015625,-10566.7109375,-5907.21728515625,3800.39208984375,10783.671875,11805.693359375,6076.49462890625,8667.3095703125,4732.60888671875,-0.0,4697.64111328125,28056.302734375,31573.771484375,8664.92578125,18879.572265625,14275.7099609375,-3991.921875,-6496.90625,4139.7412109375,15026.728515625,9893.576171875,13284.68359375,10785.26171875,1459.91650390625,-884.532958984375,10451.4765625,0.0,2948.443115234375,7449.78564453125,6775.85595703125,6190.935546875,11955.1015625,8761.8828125,16544.66015625,-13484.955078125,3111.362548828125,9784.6982421875,4309.0185546875,3534.952880859375,1938.343017578125,0.0,9763.2412109375
5002.02197265625,3118.51513671875,12935.001953125,7488.7275390625,16980.171875,5849.20263671875,8646.6474609375,13434.0927734375,5035.400390625,8027.5537109375,8537.76953125,7752.5771484375,-5895.29638671875,0.0,11042.75390625,12311.935546875,1804.82861328125,2158.48291015625,3334.68115234375,5664.8251953125,3795.623779296875,11317.7294921875,8689.5625,23299.05859375,-2776.78173828125,-611.9410400390625,4910.6279296875,13805.23046875,-6872.0185546875,3267.129150390625,19081.43359375,-10565.9169921875,-5906.4228515625,3809.13427734375,10787.646484375,11811.2568359375,6080.46875,8673.66796875,4737.376953125,-0.0,4700.8193359375,28060.27734375,31574.56640625,8672.078125,18884.33984375,14287.630859375,-4003.8427734375,-6494.52197265625,4138.15185546875,15034.67578125,9894.37109375,13296.6044921875,10787.646484375,1462.3006591796875,-867.0488891601562,10453.8603515625,0.0,2939.701171875,7454.55419921875,6791.75048828125,6186.9619140625,11958.28125,8770.625,16558.96484375,-13488.1337890625,3110.56787109375,9787.0830078125,4336.833984375,3534.952880859375,1968.5428466796875,0.0,9795.029296875
4998.04833984375,3123.283447265625,12936.591796875,7509.39013671875,16982.5546875,5849.9970703125,8650.6201171875,13437.271484375,5043.34765625,8039.474609375,8544.1279296875,7751.78271484375,-5884.96533203125,0.0,11046.7275390625,12315.9091796875,1807.212890625,2164.046142578125,3341.0390625,5676.74658203125,3802.7763671875,11319.3193359375,8694.3310546875,23301.443359375,-2772.80810546875,-610.3515625,4910.6279296875,13803.6416015625,-6864.07080078125,3267.129150390625,19086.99609375,-10568.30078125,-5889.73388671875,3805.955078125,10791.619140625,11812.845703125,6085.23681640625,8678.4365234375,4772.34521484375,-0.0,4707.177734375,28059.482421875,31579.333984375,8674.4619140625,18889.904296875,14296.3720703125,-4003.8427734375,-6496.90625,4138.9462890625,15037.0595703125,9898.3447265625,13298.98828125,10795.59375,1482.1688232421875,-856.7174072265625,10452.2705078125,0.0,2927.7802734375,7461.70654296875,6803.67138671875,6174.24609375,11963.8447265625,8776.982421875,16571.6796875,-13480.1865234375,3111.362548828125,9791.056640625,4344.78125,3538.1318359375,1993.9739990234375,0.0,9818.0771484375
4978.1796875,3113.74658203125,12920.697265625,7474.42236328125,16976.197265625,5836.48681640625,8640.2890625,13418.9921875,5033.81103515625,8018.81103515625,8540.9482421875,7748.60400390625,-5880.99169921875,0.0,11037.9853515625,12297.6298828125,1802.4444580078125,2156.0986328125,3330.70751953125,5662.44140625,3794.8291015625,11311.3720703125,8688.767578125,23291.111328125,-2784.72900390625,-622.2724609375,4899.501953125,13788.541015625,-6864.07080078125,3257.592529296875,19081.43359375,-10571.4794921875,-5896.09130859375,3794.8291015625,10785.26171875,11803.3095703125,6075.7001953125,8667.3095703125,4742.9404296875,-0.0,4710.3564453125,28051.53515625,31569.796875,8661.7470703125,18879.572265625,14280.478515625,-4008.611083984375,-6486.57470703125,4131.7939453125,15019.576171875,9891.9873046875,13283.09375,10796.3876953125,1492.500244140625,-864.6647338867188,10442.7333984375,0.0,2906.322509765625,7454.55419921875,6781.41943359375,6162.3251953125,11954.3076171875,8765.0615234375,16554.990234375,-13480.98046875,3105.004638671875,9783.1083984375,4306.63427734375,3538.1318359375,1951.8533935546875,0.0,9780.724609375
4974.20654296875,3105.004638671875,12909.5712890625,7473.62744140625,16976.9921875,5834.8974609375,8641.083984375,13420.58203125,5032.22119140625,8015.6328125,8530.6171875,7751.78271484375,-5881.7861328125,0.0,11037.1904296875,12299.2197265625,1800.060302734375,2156.0986328125,3329.912841796875,5657.6728515625,3794.8291015625,11308.193359375,8688.767578125,23292.69921875,-2786.318603515625,-623.0671997070312,4897.91259765625,13786.15625,-6866.455078125,3259.9765625,19079.05078125,-10577.837890625,-5900.06494140625,3794.0341796875,10786.056640625,11802.513671875,6076.49462890625,8667.3095703125,4756.45068359375,-0.0,4715.12451171875,28048.357421875,31570.595703125,8660.9521484375,18879.572265625,14277.298828125,-4023.710693359375,-6469.88525390625,4127.8203125,15018.7802734375,9891.1923828125,13283.888671875,10789.2353515625,1490.1160888671875,-875.7908935546875,10447.501953125,0.0,2922.217041015625,7456.14404296875,6776.65087890625,6163.1201171875,11953.5126953125,8762.6767578125,16552.607421875,-13487.3388671875,3106.593994140625,9782.314453125,4319.349609375,3532.568603515625,1938.343017578125,0.0,9771.9833984375
4981.35888671875,3116.925537109375,12892.0869140625,7470.44873046875,16980.171875,5842.8447265625,8646.6474609375,13435.681640625,5037.78466796875,8040.26904296875,8519.490234375,7754.1669921875,-5884.17041015625,0.0,11034.01171875,12312.7294921875,1801.649658203125,2159.277587890625,3336.2705078125,5675.95166015625,3799.597412109375,11310.5771484375,8692.7412109375,23298.263671875,-2784.72900390625,-616.7094116210938,4903.47509765625,13794.1044921875,-6868.83935546875,3259.9765625,19082.228515625,-10577.837890625,-5899.2705078125,3798.008056640625,10789.2353515625,11804.8984375,6080.46875,8675.2578125,4762.80810546875,-0.0,4719.89306640625,28048.357421875,31572.978515625,8668.8994140625,18885.931640625,14291.6044921875,-4033.24755859375,-6473.064453125,4127.025390625,15025.138671875,9888.0126953125,13296.6044921875,10771.7509765625,1492.500244140625,-884.532958984375,10450.6806640625,0.0,2949.23779296875,7456.14404296875,6800.49267578125,6167.888671875,11958.28125,8771.419921875,16579.62890625,-13488.9287109375,3107.388671875,9777.5458984375,4355.9072265625,3532.568603515625,1993.9739990234375,0.0,9840.3291015625
4980.56396484375,3145.53564453125,12901.6240234375,7487.13818359375,16999.244140625,5861.91796875,8664.92578125,13460.318359375,5060.83154296875,8077.62158203125,8536.1796875,7768.47216796875,-5871.45458984375,0.0,11043.548828125,12338.1611328125,1819.1337890625,2177.556396484375,3357.728271484375,5710.125,3820.26025390625,11328.8564453125,8710.2255859375,23314.953125,-2764.86083984375,-596.0464477539062,4918.5751953125,13813.97265625,-6857.71337890625,3271.8974609375,19100.5078125,-10561.1484375,-5877.01806640625,3812.31298828125,10809.103515625,11823.9716796875,6097.9521484375,8696.7158203125,4765.9873046875,-0.0,4743.73486328125,28066.634765625,31591.255859375,8688.767578125,18905.00390625,14321.009765625,-4018.14794921875,-6472.26953125,4143.71484375,15041.828125,9895.9609375,13322.0361328125,10776.51953125,1506.0106201171875,-862.280517578125,10466.5751953125,0.0,2977.053466796875,7468.859375,6837.0498046875,6181.39892578125,11976.5595703125,8796.0556640625,16624.927734375,-13477.0078125,3120.899169921875,9787.876953125,4373.3916015625,3542.900146484375,2041.65771484375,0.0,9930.1337890625
4959.1064453125,3143.151611328125,12968.380859375,7491.11181640625,16998.44921875,5852.38134765625,8660.1572265625,13444.423828125,5051.294921875,8053.77978515625,8543.33203125,7768.47216796875,-5878.607421875,0.0,11047.5224609375,12323.0615234375,1818.3389892578125,2175.172119140625,3348.986328125,5691.84619140625,3815.491943359375,11326.47265625,8707.046875,23308.595703125,-2769.629150390625,-599.225341796875,4918.5751953125,13802.0517578125,-6855.3291015625,3263.15576171875,19097.328125,-10563.533203125,-5866.6865234375,3813.902587890625,10806.7197265625,11819.203125,6095.568359375,8685.5888671875,4727.04541015625,-0.0,4731.01953125,28063.455078125,31589.66796875,8680.0263671875,18899.44140625,14304.3203125,-4013.379638671875,-6472.26953125,4144.509765625,15035.4697265625,9897.5498046875,13306.935546875,10791.619140625,1503.62646484375,-859.8963623046875,10458.62890625,0.0,2958.774658203125,7464.8857421875,6815.59228515625,6179.8095703125,11970.9970703125,8785.724609375,16585.19140625,-13473.828125,3119.3095703125,9790.26171875,4324.1181640625,3542.10546875,1985.2320556640625,0.0,9872.9130859375
4961.49072265625,3104.2099609375,12937.38671875,7488.7275390625,16976.9921875,5831.71826171875,8635.5205078125,13413.4296875,5016.3271484375,7998.14892578125,8513.1328125,7752.5771484375,-5883.37548828125,0.0,11033.2177734375,12292.0673828125,1798.4708251953125,2152.919677734375,3321.965576171875,5640.9833984375,3794.8291015625,11308.193359375,8683.9990234375,23284.75390625,-2803.802490234375,-617.504150390625,4897.11767578125,13778.2099609375,-6859.302734375,3249.645263671875,19077.458984375,-10581.0166015625,-5888.14404296875,3804.365966796875,10786.056640625,11796.951171875,6070.93212890625,8657.7734375,4696.05126953125,-0.0,4712.740234375,28044.3828125,31569.796875,8654.5947265625,18870.830078125,14265.3779296875,-4032.453125,-6486.57470703125,4120.66796875,15017.19140625,9882.4501953125,13275.146484375,10773.3408203125,1487.73193359375,-886.1223754882812,10441.939453125,0.0,2954.006103515625,7437.0703125,6764.72998046875,6164.70947265625,11946.3603515625,8751.5517578125,16498.56640625,-13487.3388671875,3105.79931640625,9773.572265625,4293.91845703125,3529.3896484375,1905.7591552734375,0.0,9728.2724609375
4990.10107421875,3110.56787109375,12893.6767578125,7468.06494140625,16980.966796875,5831.71826171875,8641.083984375,13415.0185546875,5017.12158203125,7994.96923828125,8517.1064453125,7752.5771484375,-5861.91796875,0.0,11036.396484375,12294.4521484375,1796.88134765625,2150.53564453125,3324.349609375,5640.1884765625,3800.39208984375,11307.3984375,8687.1787109375,23284.75390625,-2791.0869140625,-620.6830444335938,4904.27001953125,13781.388671875,-6856.12353515625,3250.43994140625,19079.05078125,-10569.095703125,-5894.501953125,3793.239501953125,10790.8251953125,11798.541015625,6074.1103515625,8658.568359375,4723.86669921875,-0.0,4739.76123046875,28045.177734375,31573.771484375,8656.1845703125,18874.802734375,14263.7890625,-4027.6845703125,-6495.31689453125,4112.720703125,15017.19140625,9889.6025390625,13277.5302734375,10743.935546875,1491.70556640625,-900.427490234375,10441.939453125,0.0,2960.364013671875,7429.123046875,6761.55078125,6175.8359375,11948.7451171875,8752.345703125,16507.306640625,-13485.7490234375,3106.593994140625,9779.9296875,4308.2236328125,3532.568603515625,1908.9381103515625,0.0,9703.6357421875
4980.56396484375,3114.541259765625,12902.4189453125,7453.759765625,16979.375,5836.48681640625,8643.4677734375,13423.7607421875,5026.65869140625,8008.47998046875,8536.1796875,7750.98779296875,-5869.0703125,0.0,11035.6015625,12302.3984375,1800.85498046875,2155.303955078125,3327.52880859375,5654.49365234375,3803.571044921875,11308.193359375,8691.1513671875,23290.31640625,-2776.78173828125,-622.2724609375,4902.6806640625,13789.3359375,-6854.5341796875,3251.23486328125,19083.818359375,-10584.1953125,-5880.197265625,3790.85546875,10793.208984375,11801.7197265625,6076.49462890625,8663.3369140625,4679.36181640625,-0.0,4725.4560546875,28048.357421875,31573.771484375,8661.7470703125,18878.779296875,14274.1201171875,-4022.121337890625,-6504.853515625,4134.17822265625,15017.986328125,9887.21875,13286.2734375,10771.7509765625,1490.1160888671875,-885.32763671875,10442.7333984375,0.0,2950.827392578125,7451.37548828125,6779.03515625,6170.27294921875,11953.5126953125,8759.4990234375,16542.27734375,-13484.955078125,3107.388671875,9780.724609375,4325.7080078125,3532.568603515625,1942.316650390625,0.0,9743.373046875
4967.84814453125,3111.362548828125,12939.7705078125,7505.4169921875,16989.70703125,5851.5869140625,8651.416015625,13442.0390625,5040.9638671875,8031.52734375,8545.7158203125,7758.935546875,-5883.37548828125,0.0,11039.57421875,12320.677734375,1811.981201171875,2169.609130859375,3338.65478515625,5673.5673828125,3813.107666015625,11325.6767578125,8699.8935546875,23305.416015625,-2764.06591796875,-604.7884521484375,4913.80712890625,13808.41015625,-6851.35498046875,3270.308349609375,19097.328125,-10575.4541015625,-5865.89208984375,3820.26025390625,10802.74609375,11815.23046875,6084.4423828125,8679.23046875,4673.798828125,-0.0,4725.4560546875,28069.814453125,31585.693359375,8677.6416015625,18888.314453125,14293.98828125,-4005.43212890625,-6514.390625,4159.609375,15037.8544921875,9893.576171875,13304.55078125,10796.3876953125,1493.2950439453125,-869.43310546875,10457.0390625,0.0,2957.97998046875,7460.912109375,6807.6455078125,6176.63037109375,11964.638671875,8775.3935546875,16572.474609375,-13478.5966796875,3119.3095703125,9785.4931640625,4350.34423828125,3546.873779296875,1984.437255859375,0.0,9784.6982421875
4971.822265625,3081.16259765625,12938.9765625,7542.76904296875,16994.4765625,5853.17626953125,8652.2099609375,13436.4765625,5040.1689453125,8031.52734375,8544.921875,7749.39892578125,-5887.349609375,0.0,11041.1640625,12314.3193359375,1815.16015625,2168.814453125,3338.65478515625,5675.1572265625,3812.31298828125,11332.03515625,8700.6884765625,23305.416015625,-2766.4501953125,-600.0200805664062,4915.39599609375,13806.025390625,-6855.3291015625,3267.129150390625,19098.123046875,-10576.248046875,-5876.22314453125,3836.94970703125,10803.5400390625,11819.203125,6085.23681640625,8678.4365234375,4779.49755859375,-0.0,4723.86669921875,28078.556640625,31588.87109375,8677.6416015625,18889.109375,14290.015625,-4005.43212890625,-6538.232421875,4158.02001953125,15037.0595703125,9894.37109375,13298.98828125,10792.4150390625,1478.1951904296875,-855.9227294921875,10451.4765625,0.0,2948.443115234375,7461.70654296875,6795.724609375,6175.8359375,11964.638671875,8774.59765625,16572.474609375,-13475.41796875,3116.130859375,9786.2880859375,4338.42333984375,3540.515869140625,1981.2584228515625,0.0,9796.619140625
4975.7958984375,3072.4208984375,12948.5126953125,7538.00048828125,16997.65625,5859.53369140625,8656.978515625,13441.2451171875,5043.34765625,8036.2958984375,8558.4326171875,7755.75634765625,-5873.04443359375,0.0,11048.3173828125,12317.498046875,1821.5179443359375,2175.172119140625,3344.218017578125,5682.3095703125,3813.902587890625,11337.59765625,8704.662109375,23309.388671875,-2759.297607421875,-593.6622314453125,4916.19091796875,13807.6142578125,-6856.91845703125,3272.6923828125,19100.5078125,-10564.3271484375,-5880.197265625,3846.486328125,10805.9248046875,11824.767578125,6090.7998046875,8683.9990234375,4813.6708984375,-0.0,4730.224609375,28084.119140625,31591.255859375,8680.8203125,18893.083984375,14295.578125,-4007.021484375,-6519.953125,4154.8408203125,15041.0341796875,9899.93359375,13302.1669921875,10808.30859375,1471.83740234375,-846.385986328125,10455.44921875,0.0,2955.595703125,7465.6806640625,6801.287109375,6186.16748046875,11969.4072265625,8777.77734375,16578.0390625,-13467.470703125,3121.69384765625,9792.6455078125,4339.21826171875,3551.64208984375,1985.2320556640625,0.0,9806.9501953125
4989.30615234375,3050.168212890625,12973.9443359375,7472.0380859375,16987.32421875,5849.20263671875,8647.44140625,13430.1181640625,5030.6318359375,8018.81103515625,8556.048828125,7763.70361328125,-5867.4814453125,0.0,11040.3701171875,12306.373046875,1811.1864013671875,2165.63525390625,3335.475830078125,5664.8251953125,3802.7763671875,11316.140625,8695.1259765625,23299.05859375,-2763.271240234375,-601.6095581054688,4913.80712890625,13795.693359375,-6856.12353515625,3274.28173828125,19089.380859375,-10554.7900390625,-5882.5810546875,3801.981689453125,10797.1826171875,11811.2568359375,6082.05810546875,8672.873046875,4750.88720703125,-0.0,4719.0986328125,28058.6875,31581.71875,8668.8994140625,18884.33984375,14282.8623046875,-4006.22705078125,-6471.47509765625,4139.7412109375,15034.67578125,9892.78125,13290.24609375,10799.5673828125,1490.1160888671875,-856.7174072265625,10454.654296875,0.0,2952.416748046875,7452.169921875,6787.77685546875,6192.525390625,11959.076171875,8767.4453125,16550.22265625,-13470.6494140625,3124.078125,9783.904296875,4327.29736328125,3543.69482421875,1957.41650390625,0.0,9772.77734375
4986.12744140625,3074.804931640625,12945.333984375,7452.96484375,16969.83984375,5830.12890625,8626.7783203125,13406.2763671875,5008.37939453125,7983.04833984375,8539.359375,7753.3720703125,-5884.17041015625,0.0,11024.474609375,12280.94140625,1796.88134765625,2145.76708984375,3313.2236328125,5633.8310546875,3789.265869140625,11297.06640625,8676.8466796875,23276.806640625,-2780.75537109375,-622.2724609375,4897.91259765625,13776.6201171875,-6866.455078125,3259.181884765625,19071.1015625,-10575.4541015625,-5883.37548828125,3787.676513671875,10780.494140625,11792.1826171875,6059.80517578125,8648.236328125,4709.56201171875,-0.0,4699.22998046875,28030.873046875,31561.05859375,8650.6201171875,18859.705078125,14253.45703125,-4020.5322265625,-6460.3486328125,4118.28369140625,15015.6025390625,9877.681640625,13266.404296875,10778.109375,1490.1160888671875,-874.2014770507812,10444.3232421875,0.0,2924.601318359375,7433.89111328125,6754.3984375,6164.70947265625,11936.82421875,8741.2197265625,16512.87109375,-13484.16015625,3110.56787109375,9768.8037109375,4293.12353515625,3527.80029296875,1899.4013671875,0.0,9706.0205078125
4991.68994140625,3112.1572265625,12938.9765625,7464.8857421875,16968.25,5830.92333984375,8628.3681640625,13412.634765625,5013.94287109375,7998.943359375,8540.1533203125,7749.39892578125,-5888.93896484375,0.0,11030.0380859375,12290.4775390625,1796.88134765625,2146.561767578125,3316.40234375,5646.546875,3785.29248046875,11301.8349609375,8676.0517578125,23279.986328125,-2779.960693359375,-624.6566772460938,4893.14404296875,13779.7998046875,-6870.4287109375,3251.23486328125,19071.1015625,-10577.04296875,-5895.29638671875,3792.44482421875,10777.314453125,11794.5673828125,6061.39501953125,8653.7998046875,4750.88720703125,-0.0,4699.22998046875,28036.435546875,31560.26171875,8653.7998046875,18865.267578125,14260.609375,-4011.789794921875,-6469.0908203125,4119.873046875,15017.986328125,9881.6552734375,13273.556640625,10778.904296875,1475.0162353515625,-872.6119995117188,10442.7333984375,0.0,2954.006103515625,7448.9912109375,6767.90869140625,6160.736328125,11939.2080078125,8748.3720703125,16542.27734375,-13482.5703125,3102.620361328125,9775.162109375,4315.37646484375,3531.77392578125,1930.395751953125,0.0,9737.8095703125
4985.33251953125,3131.230712890625,12913.544921875,7491.90673828125,16967.455078125,5834.1025390625,8631.546875,13423.7607421875,5020.30029296875,8015.6328125,8541.7431640625,7750.98779296875,-5880.197265625,0.0,11029.2431640625,12301.6044921875,1796.88134765625,2149.740966796875,3321.965576171875,5658.4677734375,3784.49755859375,11304.2197265625,8677.6416015625,23283.958984375,-2780.75537109375,-622.2724609375,4897.11767578125,13786.9521484375,-6864.86572265625,3247.260986328125,19071.8984375,-10573.0693359375,-5902.44921875,3799.597412109375,10778.109375,11796.1572265625,6063.779296875,8660.9521484375,4742.9404296875,-0.0,4707.97216796875,28041.205078125,31561.05859375,8659.36328125,18868.447265625,14273.326171875,-4018.14794921875,-6477.8330078125,4119.078125,15022.7548828125,9882.4501953125,13285.4775390625,10790.0302734375,1470.2479248046875,-869.43310546875,10441.1435546875,0.0,2968.311279296875,7450.58056640625,6786.1875,6165.50439453125,11943.9765625,8755.5244140625,16566.119140625,-13484.16015625,3101.031005859375,9775.162109375,4330.47607421875,3536.542236328125,1962.9796142578125,0.0,9783.1083984375
4986.12744140625,3132.025390625,12896.85546875,7480.7802734375,16973.814453125,5842.05029296875,8641.87890625,13442.833984375,5033.01611328125,8037.09033203125,8537.76953125,7756.55126953125,-5872.24951171875,0.0,11037.1904296875,12322.2666015625,1800.85498046875,2156.0986328125,3331.502197265625,5675.95166015625,3790.060791015625,11311.3720703125,8687.1787109375,23295.87890625,-2774.397705078125,-616.7094116210938,4906.654296875,13799.6669921875,-6859.302734375,3252.823974609375,19075.87109375,-10578.6328125,-5904.83349609375,3800.39208984375,10786.056640625,11805.693359375,6074.9052734375,8673.66796875,4769.16650390625,-0.0,4716.71435546875,28051.53515625,31570.595703125,8671.2841796875,18880.3671875,14292.3994140625,-4038.810791015625,-6484.1904296875,4123.8466796875,15028.3173828125,9891.1923828125,13304.55078125,10802.74609375,1481.3741455078125,-863.8699951171875,10446.7080078125,0.0,2978.642822265625,7456.9384765625,6814.7978515625,6171.8623046875,11954.3076171875,8769.03515625,16592.34375,-13479.3916015625,3109.77294921875,9783.904296875,4343.986328125,3538.1318359375,2000.3319091796875,0.0,9826.0244140625
4962.28564453125,3114.541259765625,12900.8291015625,7440.2490234375,16968.25,5830.12890625,8630.7529296875,13427.734375,5020.30029296875,8023.57958984375,8517.9013671875,7745.4248046875,-5878.607421875,0.0,11020.5009765625,12307.1669921875,1785.755126953125,2143.383056640625,3319.581298828125,5661.646484375,3782.908203125,11293.8876953125,8678.4365234375,23283.162109375,-2787.907958984375,-629.425048828125,4901.09130859375,13786.15625,-6867.25,3240.1083984375,19063.94921875,-10589.7587890625,-5904.83349609375,3775.755615234375,10775.7255859375,11792.1826171875,6064.57373046875,8660.9521484375,4720.68798828125,-0.0,4723.86669921875,28035.640625,31563.44140625,8656.1845703125,18867.650390625,14277.298828125,-4054.705078125,-6492.1376953125,4115.8994140625,15014.0126953125,9874.5029296875,13289.451171875,10786.056640625,1481.3741455078125,-877.38037109375,10435.5810546875,0.0,2957.18505859375,7438.65966796875,6787.77685546875,6163.1201171875,11943.1806640625,8756.3203125,16582.806640625,-13492.107421875,3101.82568359375,9768.8037109375,4310.60791015625,3523.031982421875,1978.07958984375,0.0,9810.9248046875
4947.185546875,3111.362548828125,12919.90234375,7446.60693359375,16957.91796875,5825.36083984375,8618.037109375,13411.044921875,5000.4326171875,7994.1748046875,8523.4638671875,7739.06689453125,-5873.8388671875,0.0,11013.3486328125,12290.4775390625,1784.96044921875,2136.23046875,3307.660400390625,5638.599609375,3774.960693359375,11289.9140625,8668.10546875,23272.037109375,-2805.39208984375,-628.6303100585938,4871.6865234375,13777.4150390625,-6868.83935546875,3237.724365234375,19059.9765625,-10587.375,-5904.0390625,3777.344970703125,10766.9833984375,11783.4404296875,6052.65283203125,8648.236328125,4698.435546875,-0.0,4703.20361328125,28031.66796875,31551.521484375,8646.6474609375,18853.345703125,14254.251953125,-4022.916259765625,-6502.4697265625,4108.7470703125,15009.244140625,9867.3505859375,13272.7626953125,10770.95703125,1481.3741455078125,-879.7645263671875,10436.3759765625,0.0,2938.906494140625,7418.79150390625,6752.80908203125,6163.1201171875,11933.64453125,8739.630859375,16538.30078125,-13492.107421875,3101.82568359375,9760.0625,4268.4873046875,3513.4951171875,1900.196044921875,0.0,9748.935546875
4966.2587890625,3116.925537109375,12915.134765625,7477.6015625,16970.634765625,5847.61279296875,8636.3154296875,13430.1181640625,5017.916015625,8011.65869140625,8542.5380859375,7751.78271484375,-5865.09716796875,0.0,11036.396484375,12308.7568359375,1806.4180908203125,2152.919677734375,3328.3232421875,5654.49365234375,3790.060791015625,11312.9619140625,8684.7939453125,23293.49609375,-2787.11328125,-604.7884521484375,4889.17041015625,13802.0517578125,-6859.302734375,3260.771484375,19080.638671875,-10565.9169921875,-5894.501953125,3805.955078125,10786.056640625,11807.2822265625,6070.13720703125,8668.8994140625,4649.162109375,-0.0,4707.177734375,28055.509765625,31565.826171875,8668.8994140625,18873.21484375,14274.9150390625,-4024.505615234375,-6488.16455078125,4123.05224609375,15034.67578125,9888.80859375,13291.041015625,10775.7255859375,1486.9371337890625,-863.0752563476562,10456.244140625,0.0,2946.05908203125,7442.63330078125,6772.6767578125,6179.8095703125,11953.5126953125,8760.29296875,16543.865234375,-13477.0078125,3120.1044921875,9781.51953125,4297.09765625,3532.568603515625,1924.0379638671875,0.0,9768.0087890625
4955.92724609375,3117.720458984375,12889.703125,7484.75390625,16976.9921875,5852.38134765625,8643.4677734375,13432.5029296875,5028.248046875,8019.6064453125,8538.5634765625,7754.96142578125,-5878.607421875,0.0,11041.958984375,12310.345703125,1811.981201171875,2160.072265625,3336.2705078125,5663.236328125,3798.802734375,11318.5244140625,8691.1513671875,23300.6484375,-2779.960693359375,-602.404296875,4905.06494140625,13803.6416015625,-6865.66015625,3261.566162109375,19087.791015625,-10563.533203125,-5888.14404296875,3810.7236328125,10794.00390625,11813.640625,6076.49462890625,8676.8466796875,4734.1982421875,-0.0,4727.04541015625,28062.662109375,31571.388671875,8675.2578125,18878.779296875,14282.0673828125,-4034.04248046875,-6493.72705078125,4128.61474609375,15041.828125,9894.37109375,13292.6298828125,10780.494140625,1483.75830078125,-860.6910400390625,10457.0390625,0.0,2946.05908203125,7456.14404296875,6779.82958984375,6173.45166015625,11959.076171875,8766.6513671875,16552.607421875,-13480.98046875,3117.720458984375,9787.0830078125,4336.0390625,3545.2841796875,1951.0587158203125,0.0,9773.572265625
4964.669921875,3129.641357421875,12931.029296875,7466.47509765625,16976.197265625,5849.9970703125,8644.263671875,13427.734375,5027.453125,8018.0166015625,8542.5380859375,7754.96142578125,-5884.17041015625,0.0,11047.5224609375,12305.5771484375,1804.033935546875,2160.866943359375,3337.0654296875,5660.05712890625,3793.239501953125,11313.755859375,8692.7412109375,23299.05859375,-2774.397705078125,-607.1726684570312,4909.03857421875,13796.48828125,-6861.6865234375,3262.36083984375,19082.228515625,-10569.8896484375,-5893.70703125,3801.186767578125,10790.0302734375,11809.6669921875,6079.673828125,8675.2578125,4796.98193359375,-0.0,4718.3037109375,28063.455078125,31573.771484375,8672.078125,18880.3671875,14281.2724609375,-4012.584716796875,-6527.90087890625,4132.5888671875,15037.0595703125,9899.1396484375,13290.24609375,10793.208984375,1493.2950439453125,-864.6647338867188,10457.0390625,0.0,2950.032470703125,7453.759765625,6782.2138671875,6171.8623046875,11959.8701171875,8765.8564453125,16533.533203125,-13479.3916015625,3117.720458984375,9788.6728515625,4352.728515625,3550.847412109375,1961.3902587890625,0.0,9769.5986328125
4978.1796875,3116.925537109375,12957.2548828125,7462.50146484375,16969.83984375,5838.076171875,8641.083984375,13420.58203125,5022.6845703125,8009.2744140625,8542.5380859375,7752.5771484375,-5888.93896484375,0.0,11040.3701171875,12300.0146484375,1795.2918701171875,2155.303955078125,3331.502197265625,5653.69921875,3783.702880859375,11304.2197265625,8687.97265625,23293.49609375,-2772.013427734375,-618.298828125,4905.06494140625,13788.541015625,-6861.6865234375,3263.15576171875,19075.07421875,-10577.837890625,-5901.65478515625,3792.44482421875,10783.671875,11800.9248046875,6074.1103515625,8668.10546875,4785.85595703125,-0.0,4700.02490234375,28050.740234375,31570.595703125,8663.3369140625,18874.802734375,14274.1201171875,-3991.126953125,-6508.8271484375,4125.4365234375,15021.9599609375,9891.9873046875,13283.09375,10797.1826171875,1492.500244140625,-868.6383666992188,10444.3232421875,0.0,2930.164306640625,7448.9912109375,6776.65087890625,6164.70947265625,11954.3076171875,8760.29296875,16532.740234375,-13480.1865234375,3114.541259765625,9781.51953125,4338.42333984375,3542.900146484375,1943.9061279296875,0.0,9752.1142578125
4983.7431640625,3093.083740234375,12949.3076171875,7488.7275390625,16972.22265625,5838.076171875,8641.87890625,13422.9658203125,5025.86376953125,8008.47998046875,8530.6171875,7752.5771484375,-5902.44921875,0.0,11040.3701171875,12302.3984375,1792.90771484375,2156.0986328125,3332.297119140625,5654.49365234375,3783.702880859375,11306.603515625,8689.5625,23293.49609375,-2772.013427734375,-613.5304565429688,4903.47509765625,13794.8994140625,-6870.4287109375,3258.38720703125,19075.07421875,-10587.375,-5899.2705078125,3797.21337890625,10786.8505859375,11803.3095703125,6074.9052734375,8668.8994140625,4754.861328125,-0.0,4707.97216796875,28049.150390625,31572.181640625,8664.92578125,18875.599609375,14274.1201171875,-3999.074462890625,-6473.064453125,4128.61474609375,15021.1650390625,9891.1923828125,13287.0673828125,10799.5673828125,1471.83740234375,-873.40673828125,10435.5810546875,0.0,2914.269775390625,7450.58056640625,6779.03515625,6166.29931640625,11952.7177734375,8760.29296875,16539.09765625,-13481.7763671875,3111.362548828125,9782.314453125,4328.09228515625,3543.69482421875,1928.8062744140625,0.0,9752.1142578125
4990.10107421875,3092.2890625,12907.1875,7495.8798828125,16972.22265625,5838.076171875,8636.3154296875,13416.607421875,5018.7109375,7997.353515625,8529.822265625,7750.193359375,-5899.2705078125,0.0,11030.8330078125,12295.24609375,1789.728759765625,2153.71435546875,3328.3232421875,5646.546875,3785.29248046875,11304.2197265625,8688.767578125,23291.111328125,-2779.166015625,-615.1199340820312,4897.91259765625,13790.9248046875,-6872.81298828125,3256.003173828125,19074.28125,-10593.7314453125,-5899.2705078125,3803.571044921875,10786.8505859375,11800.1298828125,6071.7265625,8664.92578125,4697.64111328125,-0.0,4710.3564453125,28046.765625,31569.00390625,8661.7470703125,18869.2421875,14266.9677734375,-4019.7373046875,-6486.57470703125,4127.8203125,15020.3701171875,9883.244140625,13279.9150390625,10786.056640625,1451.9691162109375,-893.2749633789062,10427.6337890625,0.0,2921.42236328125,7443.42822265625,6767.90869140625,6173.45166015625,11950.333984375,8755.5244140625,16536.712890625,-13490.517578125,3106.593994140625,9773.572265625,4313.787109375,3535.74755859375,1917.68017578125,0.0,9740.98828125
4982.9482421875,3097.057373046875,12858.7080078125,7458.52783203125,16970.634765625,5828.53955078125,8629.1630859375,13407.0712890625,5003.611328125,7982.25390625,8517.1064453125,7738.27197265625,-5880.197265625,0.0,11015.732421875,12284.119140625,1782.576171875,2145.76708984375,3317.991943359375,5633.0361328125,3780.52392578125,11294.6826171875,8682.41015625,23280.779296875,-2797.444580078125,-623.0671997070312,4891.55419921875,13776.6201171875,-6870.4287109375,3247.260986328125,19067.12890625,-10595.3212890625,-5909.6015625,3781.318603515625,10783.671875,11792.1826171875,6062.984375,8655.388671875,4714.330078125,-0.0,4716.71435546875,28040.408203125,31564.236328125,8650.6201171875,18859.705078125,14252.6630859375,-4045.16845703125,-6524.7216796875,4111.92578125,15013.2177734375,9869.734375,13269.583984375,10755.8564453125,1451.9691162109375,-917.9114990234375,10426.044921875,0.0,2946.05908203125,7421.17529296875,6751.21923828125,6168.68359375,11943.9765625,8743.603515625,16525.587890625,-13497.669921875,3098.64697265625,9760.0625,4294.71337890625,3516.674072265625,1909.7327880859375,0.0,9719.53125
4971.02734375,3104.2099609375,12867.451171875,7464.8857421875,16974.607421875,5836.48681640625,8634.7265625,13422.171875,5013.14794921875,8000.533203125,8508.3642578125,7744.63037109375,-5857.1494140625,0.0,11022.8857421875,12300.0146484375,1788.93408203125,2153.71435546875,3325.939208984375,5648.93115234375,3789.265869140625,11302.630859375,8689.5625,23287.931640625,-2801.418212890625,-617.504150390625,4889.96484375,13788.541015625,-6860.09716796875,3252.029296875,19075.07421875,-10588.1689453125,-5904.0390625,3788.47119140625,10790.0302734375,11799.3359375,6071.7265625,8664.130859375,4732.60888671875,-0.0,4728.63525390625,28043.587890625,31569.00390625,8660.1572265625,18867.650390625,14265.3779296875,-4052.321044921875,-6504.05859375,4123.05224609375,15021.9599609375,9878.4765625,13283.09375,10755.0625,1467.8636474609375,-884.532958984375,10441.1435546875,0.0,2967.5166015625,7423.5595703125,6767.90869140625,6168.68359375,11951.12890625,8754.73046875,16547.044921875,-13487.3388671875,3105.004638671875,9768.0087890625,4316.17138671875,3527.00537109375,1946.2904052734375,0.0,9752.1142578125
4961.49072265625,3122.48876953125,12958.0498046875,7490.31689453125,16978.58203125,5849.20263671875,8647.44140625,13435.681640625,5026.65869140625,8014.83837890625,8532.2060546875,7766.087890625,-5856.35498046875,0.0,11039.57421875,12313.525390625,1805.6234130859375,2164.8408203125,3338.65478515625,5661.646484375,3795.623779296875,11314.5517578125,8699.8935546875,23298.263671875,-2787.907958984375,-606.3779296875,4904.27001953125,13802.0517578125,-6853.7392578125,3267.129150390625,19087.791015625,-10581.0166015625,-5876.22314453125,3806.75,10797.1826171875,11811.2568359375,6082.85302734375,8675.2578125,4735.7880859375,-0.0,4716.71435546875,28052.330078125,31576.94921875,8673.66796875,18881.162109375,14282.8623046875,-4007.021484375,-6465.1171875,4121.46240234375,15037.8544921875,9891.9873046875,13296.6044921875,10787.646484375,1489.3214111328125,-841.6175537109375,10460.2177734375,0.0,2983.4111328125,7443.42822265625,6781.41943359375,6171.8623046875,11963.8447265625,8766.6513671875,16555.78515625,-13478.5966796875,3120.899169921875,9782.314453125,4333.65478515625,3532.568603515625,1959.006103515625,0.0,9775.162109375
4947.185546875,3124.872802734375,12993.8125,7498.26416015625,16988.119140625,5853.97119140625,8655.388671875,13440.4501953125,5034.60546875,8018.81103515625,8557.6376953125,7774.03515625,-5858.7392578125,0.0,11044.3427734375,12319.087890625,1813.5706787109375,2168.01953125,3345.807373046875,5664.8251953125,3800.39208984375,11322.498046875,8704.662109375,23305.416015625,-2769.629150390625,-600.8148193359375,4922.548828125,13805.23046875,-6850.560546875,3269.513427734375,19094.1484375,-10573.0693359375,-5869.865234375,3818.6708984375,10802.74609375,11818.4091796875,6090.7998046875,8680.0263671875,4758.0400390625,-0.0,4713.53515625,28061.072265625,31584.900390625,8679.23046875,18888.314453125,14287.630859375,-3985.563720703125,-6458.75927734375,4127.025390625,15046.5966796875,9895.9609375,13302.1669921875,10790.8251953125,1504.4212646484375,-836.0545043945312,10469.75390625,0.0,2986.590087890625,7452.96484375,6786.98193359375,6163.1201171875,11967.818359375,8773.009765625,16556.58203125,-13478.5966796875,3129.641357421875,9787.0830078125,4332.8603515625,3548.463134765625,1955.0323486328125,0.0,9773.572265625
4936.0595703125,3114.541259765625,12965.9970703125,7464.8857421875,16976.9921875,5840.46044921875,8646.6474609375,13426.9404296875,5024.2744140625,8009.2744140625,8552.07421875,7760.52490234375,-5877.01806640625,0.0,11034.01171875,12306.373046875,1800.060302734375,2155.303955078125,3333.886474609375,5657.6728515625,3790.060791015625,11307.3984375,8692.7412109375,23292.69921875,-2764.86083984375,-615.1199340820312,4912.2177734375,13793.3095703125,-6860.8916015625,3260.771484375,19079.05078125,-10581.0166015625,-5881.7861328125,3793.239501953125,10793.208984375,11804.8984375,6078.87890625,8668.8994140625,4723.86669921875,-0.0,4709.56201171875,28045.177734375,31577.748046875,8665.720703125,18878.779296875,14274.9150390625,-4000.663818359375,-6480.216796875,4134.97314453125,15032.291015625,9886.423828125,13287.8623046875,10766.9833984375,1498.0634765625,-850.359619140625,10457.0390625,0.0,2957.18505859375,7446.60693359375,6776.65087890625,6159.14697265625,11958.28125,8763.47265625,16547.044921875,-13480.98046875,3119.3095703125,9777.5458984375,4336.0390625,3537.337158203125,1952.648193359375,0.0,9767.21484375
4966.2587890625,3118.51513671875,12931.82421875,7457.7333984375,16976.9921875,5841.25537109375,8648.236328125,13428.5283203125,5030.6318359375,8019.6064453125,8540.1533203125,7758.140625,-5886.5546875,0.0,11039.57421875,12308.7568359375,1795.2918701171875,2157.688232421875,3337.0654296875,5665.6201171875,3788.47119140625,11305.0146484375,8694.3310546875,23292.69921875,-2764.86083984375,-615.9146728515625,4905.859375,13795.693359375,-6863.27587890625,3259.181884765625,19076.666015625,-10580.2216796875,-5892.91259765625,3790.060791015625,10792.4150390625,11803.3095703125,6079.673828125,8672.873046875,4751.68212890625,-0.0,4711.94580078125,28045.177734375,31576.15625,8668.10546875,18881.162109375,14281.2724609375,-4003.0478515625,-6486.57470703125,4146.89404296875,15032.291015625,9892.78125,13291.8359375,10773.3408203125,1494.0897216796875,-859.8963623046875,10457.0390625,0.0,2952.416748046875,7452.96484375,6783.80322265625,6168.68359375,11958.28125,8769.03515625,16558.96484375,-13484.955078125,3116.925537109375,9783.1083984375,4347.16552734375,3540.515869140625,1969.33740234375,0.0,9790.26171875
4990.8955078125,3085.136474609375,12927.849609375,7468.859375,16974.607421875,5838.87109375,8645.0576171875,13429.32421875,5030.6318359375,8024.375,8538.5634765625,7754.96142578125,-5881.7861328125,0.0,11037.9853515625,12309.55078125,1789.728759765625,2152.919677734375,3335.475830078125,5668.798828125,3784.49755859375,11301.8349609375,8691.1513671875,23289.521484375,-2772.80810546875,-617.504150390625,4901.09130859375,13791.720703125,-6866.455078125,3256.7978515625,19071.1015625,-10587.375,-5903.244140625,3791.650146484375,10789.2353515625,11800.1298828125,6078.08447265625,8671.2841796875,4741.3505859375,-0.0,4714.330078125,28045.177734375,31572.978515625,8666.515625,18880.3671875,14283.6572265625,-4012.584716796875,-6493.72705078125,4127.025390625,15029.9072265625,9891.1923828125,13291.041015625,10780.494140625,1485.3477783203125,-867.8436279296875,10456.244140625,0.0,2956.390380859375,7452.169921875,6787.77685546875,6167.888671875,11953.5126953125,8769.03515625,16567.70703125,-13488.1337890625,3115.336181640625,9781.51953125,4352.728515625,3538.1318359375,1978.874267578125,0.0,9806.9501953125
4979.76904296875,3061.29443359375,12934.2080078125,7476.806640625,16966.662109375,5835.69189453125,8643.4677734375,13434.88671875,5033.01611328125,8034.7060546875,8536.1796875,7751.78271484375,-5872.24951171875,0.0,11035.6015625,12314.3193359375,1786.5499267578125,2149.740966796875,3335.475830078125,5675.95166015625,3780.52392578125,11299.451171875,8687.97265625,23290.31640625,-2779.960693359375,-619.0935668945312,4899.501953125,13796.48828125,-6869.63427734375,3256.003173828125,19067.921875,-10592.142578125,-5904.83349609375,3792.44482421875,10783.671875,11799.3359375,6076.49462890625,8672.873046875,4701.6142578125,-0.0,4701.6142578125,28045.177734375,31569.796875,8666.515625,18881.95703125,14288.42578125,-4029.27392578125,-6500.8798828125,4109.54150390625,15029.11328125,9888.0126953125,13296.6044921875,10784.466796875,1481.3741455078125,-874.2014770507812,10457.0390625,0.0,2965.132568359375,7452.96484375,6801.287109375,6164.70947265625,11954.3076171875,8771.419921875,16579.62890625,-13494.4912109375,3112.951904296875,9779.9296875,4363.06005859375,3537.337158203125,1997.153076171875,0.0,9837.150390625
4960.69580078125,3101.031005859375,12920.697265625,7445.017578125,16974.607421875,5844.43408203125,8651.416015625,13448.3974609375,5044.14208984375,8052.9853515625,8536.974609375,7757.345703125,-5856.35498046875,0.0,11042.75390625,12327.03515625,1789.728759765625,2156.0986328125,3346.602294921875,5691.84619140625,3785.29248046875,11306.603515625,8695.1259765625,23299.05859375,-2778.37109375,-609.5568237304688,4907.44921875,13807.6142578125,-6863.27587890625,3259.181884765625,19074.28125,-10587.375,-5896.88623046875,3790.85546875,10789.2353515625,11808.078125,6084.4423828125,8683.9990234375,4715.91943359375,-0.0,4713.53515625,28057.09765625,31576.15625,8676.8466796875,18892.2890625,14301.9365234375,-4024.505615234375,-6510.41650390625,4113.51513671875,15037.0595703125,9895.1650390625,13310.9091796875,10777.314453125,1488.5267333984375,-872.6119995117188,10461.0126953125,0.0,2973.07958984375,7451.37548828125,6819.56640625,6168.68359375,11962.2548828125,8783.3408203125,16600.291015625,-13490.517578125,3117.720458984375,9786.2880859375,4365.4443359375,3557.999755859375,2017.8157958984375,0.0,9876.091796875
4942.4169921875,3110.56787109375,12904.0078125,7455.34912109375,16974.607421875,5844.43408203125,8654.5947265625,13445.2177734375,5043.34765625,8052.9853515625,8538.5634765625,7757.345703125,-5849.9970703125,0.0,11038.7802734375,12323.8564453125,1787.3446044921875,2155.303955078125,3348.19140625,5691.84619140625,3784.49755859375,11306.603515625,8695.1259765625,23299.05859375,-2770.423828125,-610.3515625,4913.01220703125,13806.025390625,-6858.5078125,3259.9765625,19072.69140625,-10592.142578125,-5898.4755859375,3790.85546875,10787.646484375,11805.693359375,6086.03125,8684.7939453125,4754.06640625,-0.0,4711.1513671875,28054.71484375,31579.333984375,8676.0517578125,18895.466796875,14302.73046875,-4006.22705078125,-6508.8271484375,4119.873046875,15034.67578125,9891.9873046875,13309.3193359375,10759.0361328125,1486.1424560546875,-875.7908935546875,10460.2177734375,0.0,2963.54296875,7447.4013671875,6815.59228515625,6163.9150390625,11962.2548828125,8784.134765625,16601.0859375,-13487.3388671875,3117.720458984375,9783.1083984375,4348.7548828125,3547.66845703125,2026.557861328125,0.0,9888.0126953125
4929.701171875,3098.64697265625,12861.0927734375,7502.23779296875,16973.01953125,5838.076171875,8646.6474609375,13442.833984375,5033.01611328125,8045.037109375,8527.4384765625,7744.63037109375,-5867.4814453125,0.0,11033.2177734375,12322.2666015625,1780.98681640625,2149.740966796875,3343.423095703125,5681.5146484375,3778.9345703125,11300.24609375,8689.5625,23292.69921875,-2772.80810546875,-616.7094116210938,4905.06494140625,13799.6669921875,-6866.455078125,3252.823974609375,19063.94921875,-10600.884765625,-5908.80712890625,3792.44482421875,10782.0830078125,11799.3359375,6080.46875,8677.6416015625,4744.52978515625,-0.0,4715.91943359375,28047.5625,31574.56640625,8672.873046875,18889.904296875,14297.16796875,-4026.889892578125,-6512.80078125,4128.61474609375,15029.11328125,9884.833984375,13306.140625,10753.47265625,1468.658447265625,-893.2749633789062,10449.88671875,0.0,2964.337646484375,7442.63330078125,6813.2080078125,6155.1728515625,11958.28125,8777.77734375,16587.576171875,-13498.4658203125,3106.593994140625,9777.5458984375,4343.19140625,3530.1845703125,2021.78955078125,0.0,9864.966796875
4924.138671875,3074.804931640625,12883.345703125,7557.869140625,16992.88671875,5853.17626953125,8658.568359375,13458.728515625,5044.93701171875,8055.369140625,8530.6171875,7749.39892578125,-5885.759765625,0.0,11052.291015625,12338.1611328125,1798.4708251953125,2164.046142578125,3353.754638671875,5691.84619140625,3794.8291015625,11318.5244140625,8703.8681640625,23305.416015625,-2768.83447265625,-600.8148193359375,4920.16455078125,13816.3564453125,-6865.66015625,3264.7451171875,19078.25390625,-10601.6796875,-5896.88623046875,3822.64453125,10797.1826171875,11816.0244140625,6093.18408203125,8692.7412109375,4727.04541015625,-0.0,4751.68212890625,28066.634765625,31588.078125,8689.5625,18900.236328125,14309.8828125,-4047.552490234375,-6519.15869140625,4151.662109375,15043.41796875,9903.11328125,13321.240234375,10779.6982421875,1454.353271484375,-873.40673828125,10460.2177734375,0.0,2980.232177734375,7460.1171875,6829.10302734375,6156.7626953125,11970.9970703125,8788.9033203125,16598.701171875,-13492.107421875,3112.951904296875,9796.619140625,4376.5703125,3542.10546875,2021.78955078125,0.0,9862.58203125
4986.12744140625,3073.215576171875,12925.4658203125,7512.5693359375,17000.041015625,5865.89208984375,8664.130859375,13461.11328125,5048.1162109375,8044.24267578125,8540.9482421875,7769.2666015625,-5874.6337890625,0.0,11057.853515625,12338.9560546875,1806.4180908203125,2171.9931640625,3359.31787109375,5687.078125,3798.802734375,11323.29296875,8711.0205078125,23314.158203125,-2764.86083984375,-585.7149658203125,4928.11181640625,13826.6875,-6848.17626953125,3290.17626953125,19088.5859375,-10577.837890625,-5885.759765625,3815.491943359375,10803.5400390625,11824.767578125,6097.9521484375,8698.3037109375,4698.435546875,-0.0,4741.3505859375,28076.171875,31596.0234375,8696.7158203125,18901.82421875,14306.7041015625,-4025.300537109375,-6494.52197265625,4161.19921875,15056.927734375,9910.265625,13322.0361328125,10803.5400390625,1474.2215576171875,-859.1016235351562,10480.0859375,0.0,2985.00048828125,7467.27001953125,6823.53955078125,6180.6044921875,11977.35546875,8790.4931640625,16578.83203125,-13471.4443359375,3135.9990234375,9802.1826171875,4351.93408203125,3552.436767578125,1986.0267333984375,0.0,9826.8193359375
4996.45849609375,3045.39990234375,12939.7705078125,7456.14404296875,16986.529296875,5856.35498046875,8648.236328125,13452.37109375,5033.01611328125,8023.57958984375,8525.8486328125,7753.3720703125,-5866.6865234375,0.0,11038.7802734375,12331.8037109375,1792.1129150390625,2160.866943359375,3346.602294921875,5669.59375,3790.85546875,11309.783203125,8695.919921875,23301.443359375,-2773.602783203125,-601.6095581054688,4901.09130859375,13821.125,-6858.5078125,3278.25537109375,19075.07421875,-10592.142578125,-5875.4287109375,3784.49755859375,10790.8251953125,11810.4619140625,6080.46875,8685.5888671875,4606.2470703125,-0.0,4717.5087890625,28064.25,31579.333984375,8683.9990234375,18884.33984375,14292.3994140625,-4018.14794921875,-6515.97998046875,4146.89404296875,15048.98046875,9889.6025390625,13314.087890625,10768.5732421875,1465.4794921875,-878.9698486328125,10472.138671875,0.0,2967.5166015625,7451.37548828125,6806.0556640625,6164.70947265625,11963.8447265625,8774.59765625,16565.322265625,-13485.7490234375,3123.283447265625,9784.6982421875,4256.56640625,3543.69482421875,1925.6273193359375,0.0,9790.26171875
4959.9013671875,3054.936767578125,12909.5712890625,7501.443359375,16992.091796875,5861.12353515625,8659.36328125,13469.85546875,5042.552734375,8045.037109375,8528.232421875,7745.4248046875,-5857.9443359375,0.0,11046.7275390625,12349.2880859375,1804.82861328125,2167.224853515625,3356.93359375,5685.48828125,3794.8291015625,11320.1142578125,8702.2783203125,23309.388671875,-2766.4501953125,-601.6095581054688,4905.859375,13828.27734375,-6860.09716796875,3263.15576171875,19083.0234375,-10581.810546875,-5886.5546875,3807.544677734375,10797.9775390625,11819.9990234375,6088.41552734375,8693.5361328125,4760.42431640625,-0.0,4719.89306640625,28075.376953125,31584.900390625,8692.7412109375,18895.466796875,14307.4990234375,-3997.484619140625,-6509.6220703125,4150.86767578125,15053.7490234375,9899.1396484375,13330.77734375,10759.0361328125,1441.6376953125,-852.7437744140625,10471.34375,0.0,2985.795166015625,7452.96484375,6823.53955078125,6151.19921875,11970.2021484375,8787.314453125,16593.93359375,-13484.16015625,3115.336181640625,9792.6455078125,4287.56103515625,3546.873779296875,1947.0850830078125,0.0,9816.4873046875
4924.93310546875,3058.11572265625,12931.82421875,7531.64306640625,16980.966796875,5853.97119140625,8655.388671875,13457.9345703125,5045.73193359375,8064.90625,8536.974609375,7744.63037109375,-5877.01806640625,0.0,11046.7275390625,12336.5712890625,1800.85498046875,2159.277587890625,3356.138916015625,5700.58837890625,3785.29248046875,11314.5517578125,8698.3037109375,23304.62109375,-2775.1923828125,-607.1726684570312,4902.6806640625,13814.7666015625,-6864.07080078125,3257.592529296875,19077.458984375,-10578.6328125,-5901.65478515625,3819.465576171875,10789.2353515625,11812.05078125,6088.41552734375,8689.5625,4800.16064453125,-0.0,4709.56201171875,28065.83984375,31579.333984375,8684.7939453125,18896.26171875,14312.267578125,-4007.81640625,-6485.7802734375,4140.53564453125,15045.8017578125,9899.1396484375,13318.0615234375,10752.677734375,1433.6904296875,-849.5648803710938,10462.6015625,0.0,2975.4638671875,7453.759765625,6821.9501953125,6142.45751953125,11967.0224609375,8790.4931640625,16616.98046875,-13489.7236328125,3112.951904296875,9791.056640625,4375.77587890625,3536.542236328125,2044.8367919921875,0.0,9900.7294921875
4923.34375,3074.804931640625,12915.9287109375,7483.958984375,16965.0703125,5832.51318359375,8639.4951171875,13430.1181640625,5032.22119140625,8044.24267578125,8533.794921875,7739.06689453125,-5888.93896484375,0.0,11039.57421875,12307.1669921875,1780.98681640625,2141.79345703125,3339.44970703125,5681.5146484375,3766.218994140625,11294.6826171875,8682.41015625,23284.75390625,-2793.47119140625,-623.8619384765625,4897.91259765625,13786.9521484375,-6868.83935546875,3242.49267578125,19060.76953125,-10596.1162109375,-5925.49658203125,3787.676513671875,10774.1357421875,11792.9775390625,6072.52099609375,8671.2841796875,4755.65576171875,-0.0,4696.05126953125,28041.205078125,31564.236328125,8662.541015625,18881.95703125,14292.3994140625,-4020.5322265625,-6492.9326171875,4124.6416015625,15025.93359375,9891.9873046875,13291.041015625,10749.4990234375,1445.611328125,-871.8172607421875,10442.7333984375,0.0,2954.006103515625,7445.017578125,6801.287109375,6132.1259765625,11950.333984375,8773.009765625,16578.0390625,-13500.849609375,3102.620361328125,9782.314453125,4391.67041015625,3534.952880859375,2042.4525146484375,0.0,9868.14453125
4943.2119140625,3091.494384765625,12882.5498046875,7437.0703125,16958.712890625,5805.4921875,8622.009765625,13396.740234375,5009.96923828125,7990.201171875,8523.4638671875,7730.3251953125,-5892.91259765625,0.0,11027.6533203125,12272.1982421875,1764.2974853515625,2125.899169921875,3316.40234375,5638.599609375,3754.2978515625,11272.4306640625,8667.3095703125,23262.5,-2795.855224609375,-644.52490234375,4889.17041015625,13757.546875,-6875.99169921875,3227.392822265625,19044.876953125,-10605.65234375,-5936.62255859375,3761.450439453125,10761.419921875,11773.109375,6055.037109375,8645.8525390625,4736.58251953125,-0.0,4691.28271484375,28012.59375,31550.724609375,8634.7265625,18863.677734375,14255.046875,-4024.505615234375,-6502.4697265625,4119.078125,14995.734375,9880.8603515625,13258.45703125,10763.8046875,1461.505859375,-880.5592651367188,10422.0703125,0.0,2922.217041015625,7438.65966796875,6757.57763671875,6136.89404296875,11932.849609375,8742.8095703125,16504.12890625,-13504.0283203125,3085.93115234375,9772.77734375,4346.37060546875,3527.00537109375,1961.3902587890625,0.0,9731.4521484375
4978.1796875,3103.415283203125,12921.4921875,7433.89111328125,16948.380859375,5810.2607421875,8621.2158203125,13402.302734375,5013.94287109375,7983.84375,8529.822265625,7734.298828125,-5895.29638671875,0.0,11037.1904296875,12278.556640625,1765.886962890625,2124.3095703125,3316.40234375,5635.42041015625,3751.913818359375,11273.224609375,8664.92578125,23263.296875,-2788.70263671875,-642.1406860351562,4896.32275390625,13766.2890625,-6883.14453125,3243.287353515625,19044.876953125,-10604.064453125,-5929.47021484375,3763.039794921875,10758.240234375,11775.4931640625,6057.42138671875,8648.236328125,4731.01953125,-0.0,4674.59326171875,28017.36328125,31548.33984375,8637.9052734375,18862.8828125,14254.251953125,-4013.379638671875,-6490.548828125,4111.13134765625,15003.681640625,9888.80859375,13263.2255859375,10784.466796875,1474.2215576171875,-866.254150390625,10425.25,0.0,2925.39599609375,7441.0439453125,6758.3720703125,6153.58349609375,11933.64453125,8744.3994140625,16510.486328125,-13496.0810546875,3092.2890625,9780.724609375,4348.7548828125,3550.847412109375,1947.0850830078125,0.0,9702.046875
4984.53759765625,3112.951904296875,12899.2392578125,7405.28125,16945.998046875,5804.69775390625,8618.83203125,13395.150390625,5004.40576171875,7974.30712890625,8525.8486328125,7735.09375,-5895.29638671875,0.0,11032.421875,12270.609375,1763.502685546875,2121.130615234375,3310.83935546875,5626.6787109375,3751.118896484375,11268.4560546875,8660.9521484375,23258.52734375,-2795.060302734375,-644.52490234375,4895.5283203125,13759.1357421875,-6876.78662109375,3238.51904296875,19041.697265625,-10608.83203125,-5932.64892578125,3759.861083984375,10756.65234375,11769.1357421875,6052.65283203125,8641.87890625,4728.63525390625,-0.0,4672.20947265625,28011.00390625,31545.162109375,8633.13671875,18859.705078125,14244.7158203125,-4024.505615234375,-6489.75390625,4115.1044921875,14999.70703125,9882.4501953125,13255.2783203125,10789.2353515625,1472.632080078125,-865.45947265625,10424.455078125,0.0,2925.39599609375,7430.71240234375,6744.06689453125,6163.1201171875,11928.0810546875,8737.24609375,16507.306640625,-13493.697265625,3094.673095703125,9775.162109375,4321.73388671875,3534.157958984375,1918.474853515625,0.0,9694.8935546875
4978.1796875,3118.51513671875,12893.6767578125,7422.76513671875,16961.09765625,5813.43994140625,8630.7529296875,13406.2763671875,5018.7109375,7994.1748046875,8523.4638671875,7743.04052734375,-5883.37548828125,0.0,11031.6279296875,12285.708984375,1772.2447509765625,2135.435791015625,3322.76025390625,5645.751953125,3763.834716796875,11279.5830078125,8672.873046875,23268.064453125,-2783.139404296875,-637.372314453125,4908.24365234375,13771.056640625,-6867.25,3236.9296875,19053.6171875,-10601.6796875,-5923.1123046875,3769.397705078125,10770.162109375,11779.4677734375,6063.779296875,8653.0048828125,4695.2568359375,-0.0,4693.6669921875,28018.951171875,31557.876953125,8643.4677734375,18871.625,14261.4052734375,-4024.505615234375,-6488.16455078125,4123.8466796875,15009.244140625,9884.833984375,13268.7880859375,10793.208984375,1485.3477783203125,-859.8963623046875,10430.8125,0.0,2944.469482421875,7441.8388671875,6761.55078125,6171.8623046875,11940.001953125,8753.140625,16537.5078125,-13487.3388671875,3100.236083984375,9775.9560546875,4336.0390625,3541.310546875,1940.727294921875,0.0,9729.8623046875
4954.337890625,3090.699462890625,12910.3662109375,7440.2490234375,16969.83984375,5812.64501953125,8631.546875,13406.2763671875,5022.6845703125,7994.96923828125,8526.642578125,7737.4775390625,-5878.607421875,0.0,11037.9853515625,12285.708984375,1777.807861328125,2140.2041015625,3324.349609375,5648.13623046875,3774.166015625,11284.3515625,8678.4365234375,23268.857421875,-2777.576416015625,-634.9881591796875,4903.47509765625,13770.2626953125,-6866.455078125,3236.134765625,19059.9765625,-10608.83203125,-5901.65478515625,3775.755615234375,10775.7255859375,11782.646484375,6066.16357421875,8655.388671875,4622.93603515625,-0.0,4714.330078125,28025.30859375,31562.64453125,8645.8525390625,18874.802734375,14262.19921875,-4025.300537109375,-6500.8798828125,4128.61474609375,15008.44921875,9891.1923828125,13267.994140625,10769.3671875,1476.605712890625,-861.4857788085938,10430.8125,0.0,2945.26416015625,7450.58056640625,6757.57763671875,6164.70947265625,11942.38671875,8753.935546875,16537.5078125,-13485.7490234375,3099.44140625,9782.314453125,4324.1181640625,3554.0263671875,1920.8590087890625,0.0,9733.8359375
4936.0595703125,3091.494384765625,12925.4658203125,7439.45458984375,16965.865234375,5815.82421875,8634.7265625,13422.171875,5044.93701171875,8031.52734375,8524.2587890625,7729.5302734375,-5879.40234375,0.0,11047.5224609375,12303.193359375,1777.01318359375,2139.409423828125,3329.912841796875,5680.7197265625,3774.960693359375,11285.1455078125,8680.0263671875,23272.83203125,-2792.67626953125,-635.7828979492188,4898.70703125,13779.00390625,-6872.0185546875,3234.54541015625,19059.181640625,-10612.8056640625,-5891.3232421875,3772.57666015625,10776.51953125,11783.4404296875,6068.5478515625,8662.541015625,4636.4462890625,-0.0,4711.94580078125,28025.30859375,31560.26171875,8650.6201171875,18888.314453125,14284.451171875,-4051.526611328125,-6512.80078125,4107.9521484375,15011.6279296875,9899.1396484375,13284.68359375,10747.9091796875,1463.0953369140625,-874.2014770507812,10433.197265625,0.0,2948.443115234375,7473.62744140625,6791.75048828125,6151.994140625,11942.38671875,8767.4453125,16593.138671875,-13493.697265625,3097.057373046875,9791.8505859375,4333.65478515625,3581.047119140625,1991.58984375,0.0,9833.9716796875
4933.67529296875,3105.79931640625,12917.5185546875,7443.42822265625,16973.814453125,5830.12890625,8649.03125,13448.3974609375,5062.42138671875,8071.26318359375,8519.490234375,7735.88818359375,-5855.560546875,0.0,11052.291015625,12328.625,1782.576171875,2149.740966796875,3343.423095703125,5710.919921875,3780.52392578125,11293.8876953125,8691.1513671875,23285.546875,-2811.749755859375,-626.2461547851562,4914.6015625,13797.283203125,-6865.66015625,3246.46630859375,19067.12890625,-10603.2685546875,-5895.29638671875,3784.49755859375,10782.8779296875,11793.7724609375,6082.05810546875,8679.23046875,4703.99853515625,-0.0,4718.3037109375,28037.23046875,31571.388671875,8666.515625,18904.208984375,14313.0615234375,-4069.01025390625,-6522.33740234375,4098.41552734375,15025.138671875,9906.2919921875,13311.7041015625,10743.935546875,1468.658447265625,-871.0225219726562,10445.1181640625,0.0,2969.90087890625,7479.19091796875,6831.4873046875,6149.60986328125,11952.7177734375,8788.1083984375,16636.84765625,-13496.8759765625,3102.620361328125,9798.208984375,4366.2392578125,3588.994384765625,2063.91015625,0.0,9927.75
4942.4169921875,3099.44140625,12903.2138671875,7442.63330078125,16966.662109375,5825.36083984375,8639.4951171875,13436.4765625,5042.552734375,8050.60107421875,8519.490234375,7727.94091796875,-5850.7919921875,0.0,11037.9853515625,12313.525390625,1780.1920166015625,2144.97265625,3335.475830078125,5689.46240234375,3774.960693359375,11292.2978515625,8683.9990234375,23277.6015625,-2803.0078125,-630.2197875976562,4888.3759765625,13790.9248046875,-6862.4814453125,3240.903076171875,19062.361328125,-10604.064453125,-5908.01220703125,3786.0869140625,10777.314453125,11789.798828125,6072.52099609375,8670.4892578125,4775.52392578125,-0.0,4716.71435546875,28038.8203125,31564.236328125,8657.7734375,18891.4921875,14297.9619140625,-4032.453125,-6538.232421875,4118.28369140625,15019.576171875,9893.576171875,13298.1943359375,10716.12109375,1463.89013671875,-874.2014770507812,10440.349609375,0.0,2958.774658203125,7462.50146484375,6813.2080078125,6146.43115234375,11948.7451171875,8774.59765625,16604.265625,-13504.0283203125,3097.85205078125,9784.6982421875,4345.57568359375,3566.741943359375,2025.7633056640625,0.0,9884.0400390625
4953.54296875,3119.3095703125,12942.9501953125,7465.6806640625,16976.9921875,5836.48681640625,8640.2890625,13434.0927734375,5018.7109375,8021.1953125,8546.51171875,7747.80908203125,-5863.5078125,0.0,11037.9853515625,12311.935546875,1797.676025390625,2153.71435546875,3337.0654296875,5658.4677734375,3788.47119140625,11305.0146484375,8689.5625,23287.931640625,-2760.88720703125,-612.7357177734375,4903.47509765625,13800.4619140625,-6849.765625,3264.7451171875,19075.87109375,-10576.248046875,-5892.1181640625,3794.0341796875,10789.2353515625,11801.7197265625,6074.1103515625,8674.4619140625,4785.06103515625,-0.0,4734.1982421875,28049.150390625,31570.595703125,8665.720703125,18880.3671875,14286.041015625,-4001.458740234375,-6498.49560546875,4134.97314453125,15033.880859375,9891.1923828125,13296.6044921875,10767.77734375,1480.579345703125,-881.35400390625,10457.8330078125,0.0,2967.5166015625,7440.2490234375,6792.54541015625,6165.50439453125,11955.8974609375,8764.2666015625,16535.91796875,-13484.955078125,3122.48876953125,9783.904296875,4341.6025390625,3522.237060546875,1976.489990234375,0.0,9789.466796875
4949.56982421875,3120.899169921875,12937.38671875,7476.01171875,16982.5546875,5841.25537109375,8641.083984375,13426.9404296875,5001.22705078125,7996.55908203125,8560.81640625,7756.55126953125,-5876.22314453125,0.0,11045.9326171875,12304.783203125,1804.033935546875,2156.8935546875,3337.860107421875,5635.42041015625,3790.85546875,11311.3720703125,8691.947265625,23290.31640625,-2756.11865234375,-607.9674072265625,4920.16455078125,13798.873046875,-6844.20263671875,3269.513427734375,19081.43359375,-10569.8896484375,-5882.5810546875,3805.16064453125,10791.619140625,11805.693359375,6076.49462890625,8670.4892578125,4751.68212890625,-0.0,4715.91943359375,28053.91796875,31574.56640625,8667.3095703125,18874.009765625,14274.1201171875,-3985.563720703125,-6485.7802734375,4137.357421875,15036.265625,9898.3447265625,13289.451171875,10793.208984375,1481.3741455078125,-861.4857788085938,10460.2177734375,0.0,2957.18505859375,7407.6650390625,6778.240234375,6175.041015625,11957.486328125,8755.5244140625,16501.74609375,-13473.0341796875,3129.641357421875,9791.056640625,4337.62890625,3505.5478515625,1944.7008056640625,0.0,9714.7626953125
4958.3115234375,3120.899169921875,12940.56640625,7471.2431640625,16996.064453125,5845.228515625,8650.6201171875,13428.5283203125,5003.611328125,7994.96923828125,8565.5849609375,7761.31982421875,-5862.712890625,0.0,11050.701171875,12304.783203125,1811.1864013671875,2166.43017578125,3343.423095703125,5637.01025390625,3801.186767578125,11316.935546875,8703.8681640625,23295.083984375,-2755.32421875,-605.5831909179688,4931.291015625,13800.4619140625,-6835.46044921875,3272.6923828125,19089.380859375,-10565.9169921875,-5874.6337890625,3811.518310546875,10802.74609375,11812.845703125,6085.23681640625,8675.2578125,4739.76123046875,-0.0,4724.6611328125,28058.6875,31586.486328125,8671.2841796875,18881.95703125,14276.5048828125,-3983.1796875,-6487.36962890625,4150.07275390625,15040.23828125,9904.7021484375,13289.451171875,10797.1826171875,1490.1160888671875,-832.080810546875,10461.8076171875,0.0,2930.164306640625,7414.02294921875,6773.4716796875,6193.31982421875,11965.43359375,8760.29296875,16512.87109375,-13463.4970703125,3132.025390625,9795.029296875,4319.349609375,3500.779296875,1917.68017578125,0.0,9700.4580078125
4967.84814453125,3095.4677734375,12927.849609375,7470.44873046875,16983.3515625,5836.48681640625,8635.5205078125,13421.3759765625,5002.02197265625,7989.40673828125,8551.2802734375,7750.98779296875,-5861.12353515625,0.0,11029.2431640625,12297.6298828125,1797.676025390625,2155.303955078125,3333.091796875,5635.42041015625,3782.908203125,11306.603515625,8691.1513671875,23285.546875,-2765.655517578125,-613.5304565429688,4913.80712890625,13790.130859375,-6846.5869140625,3262.36083984375,19077.458984375,-10573.0693359375,-5899.2705078125,3799.597412109375,10789.2353515625,11802.513671875,6070.13720703125,8665.720703125,4734.9931640625,-0.0,4715.12451171875,28049.150390625,31572.978515625,8659.36328125,18869.2421875,14269.3515625,-3984.769287109375,-6492.9326171875,4135.767578125,15033.880859375,9880.8603515625,13282.298828125,10787.646484375,1475.81103515625,-837.6439208984375,10453.064453125,0.0,2922.217041015625,7428.328125,6770.29296875,6180.6044921875,11953.5126953125,8751.5517578125,16524.791015625,-13475.41796875,3120.1044921875,9775.162109375,4300.2763671875,3503.16357421875,1902.580322265625,0.0,9706.0205078125
4961.49072265625,3069.24169921875,12896.060546875,7437.86474609375,16948.380859375,5807.87646484375,8607.705078125,13396.740234375,4979.76904296875,7968.7431640625,8521.080078125,7724.76171875,-5893.70703125,0.0,10997.455078125,12275.3779296875,1767.4764404296875,2123.514892578125,3303.686767578125,5615.55224609375,3747.1455078125,11277.9931640625,8659.36328125,23256.9375,-2791.881591796875,-640.55126953125,4878.0439453125,13762.314453125,-6879.1708984375,3232.161376953125,19047.259765625,-10601.6796875,-5935.82763671875,3770.1923828125,10759.0361328125,11773.109375,6038.34765625,8636.3154296875,4723.072265625,-0.0,4679.36181640625,28023.720703125,31540.39453125,8633.13671875,18841.42578125,14245.509765625,-4006.22705078125,-6517.56884765625,4104.77294921875,15007.6552734375,9849.8662109375,13259.251953125,10755.8564453125,1444.816650390625,-869.43310546875,10426.8388671875,0.0,2927.7802734375,7404.486328125,6751.21923828125,6146.43115234375,11925.697265625,8725.3251953125,16513.666015625,-13502.4384765625,3093.87841796875,9744.1669921875,4278.81884765625,3479.32177734375,1895.427734375,0.0,9695.689453125
4951.9541015625,3069.24169921875,12900.8291015625,7434.68603515625,16942.8203125,5807.87646484375,8607.705078125,13402.302734375,4988.51171875,7980.6640625,8522.669921875,7723.96728515625,-5896.88623046875,0.0,11001.427734375,12282.53125,1764.2974853515625,2124.3095703125,3308.455322265625,5628.267578125,3747.1455078125,11276.404296875,8660.1572265625,23259.3203125,-2788.70263671875,-643.7301635742188,4871.6865234375,13763.904296875,-6882.349609375,3228.982177734375,19046.46484375,-10610.4208984375,-5939.0068359375,3769.397705078125,10756.65234375,11773.109375,6042.32177734375,8639.4951171875,4740.55615234375,-0.0,4676.18310546875,28020.541015625,31539.599609375,8634.7265625,18846.98828125,14251.0732421875,-4019.7373046875,-6523.13232421875,4102.388671875,15006.859375,9854.634765625,13266.404296875,10756.65234375,1440.843017578125,-876.5856323242188,10420.4814453125,0.0,2946.853515625,7410.04931640625,6755.193359375,6138.4833984375,11928.0810546875,8733.2724609375,16534.328125,-13504.0283203125,3089.110107421875,9747.345703125,4289.9453125,3491.24267578125,1929.60107421875,0.0,9725.888671875
4954.337890625,3081.95751953125,12920.697265625,7452.169921875,16959.509765625,5823.77099609375,8624.39453125,13420.58203125,5008.37939453125,8006.89013671875,8534.5908203125,7735.09375,-5872.24951171875,0.0,11017.322265625,12300.0146484375,1778.6025390625,2140.998779296875,3326.73388671875,5648.93115234375,3764.62939453125,11292.2978515625,8676.0517578125,23276.009765625,-2772.013427734375,-629.425048828125,4889.17041015625,13779.00390625,-6864.86572265625,3247.260986328125,19063.154296875,-10597.7060546875,-5919.93310546875,3786.0869140625,10772.5458984375,11789.00390625,6058.21630859375,8657.7734375,4750.0927734375,-0.0,4695.2568359375,28037.23046875,31555.4921875,8652.2099609375,18863.677734375,14270.94140625,-4014.174072265625,-6518.36376953125,4115.8994140625,15021.1650390625,9872.119140625,13282.298828125,10772.5458984375,1454.353271484375,-862.280517578125,10435.5810546875,0.0,2955.595703125,7427.53369140625,6774.2666015625,6149.60986328125,11943.9765625,8751.5517578125,16551.017578125,-13487.3388671875,3101.031005859375,9764.03515625,4316.9658203125,3509.521484375,1975.6953125,0.0,9779.9296875
4953.54296875,3090.699462890625,12915.9287109375,7467.27001953125,16972.22265625,5830.92333984375,8634.7265625,13426.14453125,5013.14794921875,8005.30126953125,8545.7158203125,7747.0146484375,-5873.8388671875,0.0,11033.2177734375,12303.98828125,1791.3182373046875,2153.71435546875,3334.68115234375,5650.5205078125,3776.55029296875,11303.4248046875,8687.97265625,23285.546875,-2765.655517578125,-616.7094116210938,4905.859375,13786.15625,-6862.4814453125,3259.9765625,19075.07421875,-10586.5791015625,-5904.83349609375,3798.008056640625,10783.671875,11797.74609375,6066.9580078125,8665.720703125,4758.0400390625,-0.0,4712.740234375,28047.5625,31565.826171875,8659.36328125,18872.419921875,14275.7099609375,-4006.22705078125,-6504.853515625,4125.4365234375,15028.3173828125,9886.423828125,13288.6572265625,10782.0830078125,1466.2742919921875,-855.1279907226562,10450.6806640625,0.0,2956.390380859375,7437.86474609375,6774.2666015625,6165.50439453125,11954.3076171875,8758.7041015625,16535.123046875,-13482.5703125,3113.74658203125,9779.1357421875,4312.9921875,3523.82666015625,1949.46923828125,0.0,9759.2666015625
4940.033203125,3085.136474609375,12907.1875,7464.0908203125,16969.044921875,5826.9501953125,8631.546875,13423.7607421875,5011.55859375,8002.91748046875,8542.5380859375,7743.83544921875,-5887.349609375,0.0,11027.6533203125,12300.0146484375,1788.139404296875,2148.1513671875,3330.70751953125,5648.13623046875,3772.57666015625,11299.451171875,8683.9990234375,23282.369140625,-2779.960693359375,-618.298828125,4893.14404296875,13784.5673828125,-6869.63427734375,3256.7978515625,19071.1015625,-10591.34765625,-5908.80712890625,3794.8291015625,10780.494140625,11796.951171875,6062.984375,8663.3369140625,4745.32470703125,-0.0,4715.12451171875,28045.97265625,31561.05859375,8655.388671875,18870.03515625,14274.9150390625,-4007.021484375,-6506.44287109375,4116.69384765625,15025.138671875,9880.8603515625,13284.68359375,10772.5458984375,1463.89013671875,-865.45947265625,10450.6806640625,0.0,2954.80078125,7432.3017578125,6776.65087890625,6167.09375,11951.923828125,8756.3203125,16539.09765625,-13493.697265625,3114.541259765625,9771.9833984375,4325.7080078125,3521.4423828125,1950.263916015625,0.0,9756.087890625
4929.701171875,3082.752197265625,12891.29296875,7461.70654296875,16965.865234375,5823.77099609375,8628.3681640625,13412.634765625,5009.96923828125,7998.943359375,8536.974609375,7739.86181640625,-5884.17041015625,0.0,11023.6806640625,12288.8876953125,1783.3709716796875,2145.76708984375,3327.52880859375,5645.751953125,3770.9873046875,11296.2724609375,8680.0263671875,23277.6015625,-2783.934326171875,-624.6566772460938,4889.17041015625,13778.2099609375,-6868.83935546875,3249.645263671875,19068.71875,-10592.142578125,-5914.3701171875,3790.85546875,10778.109375,11793.7724609375,6059.80517578125,8658.568359375,4725.4560546875,-0.0,4711.1513671875,28041.998046875,31559.466796875,8650.6201171875,18869.2421875,14270.94140625,-4009.405517578125,-6505.64794921875,4115.1044921875,15021.1650390625,9876.091796875,13274.3525390625,10759.0361328125,1462.3006591796875,-867.0488891601562,10448.296875,0.0,2942.085205078125,7426.73876953125,6765.5244140625,6159.94140625,11947.94921875,8752.345703125,16542.27734375,-13496.8759765625,3111.362548828125,9768.8037109375,4332.8603515625,3516.674072265625,1974.1058349609375,0.0,9762.4462890625
4933.67529296875,3084.341796875,12865.06640625,7462.50146484375,16973.01953125,5825.36083984375,8628.3681640625,13409.455078125,5009.17431640625,7994.1748046875,8533.794921875,7739.86181640625,-5870.66015625,0.0,11025.26953125,12287.298828125,1783.3709716796875,2147.356689453125,3329.912841796875,5644.95703125,3776.55029296875,11298.65625,8682.41015625,23277.6015625,-2778.37109375,-625.451416015625,4883.607421875,13778.2099609375,-6865.66015625,3249.645263671875,19074.28125,-10595.3212890625,-5908.80712890625,3790.85546875,10782.8779296875,11796.1572265625,6061.39501953125,8657.7734375,4695.2568359375,-0.0,4718.3037109375,28041.205078125,31559.466796875,8650.6201171875,18870.830078125,14267.76171875,-4025.300537109375,-6503.26416015625,4124.6416015625,15022.7548828125,9877.681640625,13273.556640625,10754.267578125,1461.505859375,-863.0752563476562,10447.501953125,0.0,2942.8798828125,7426.73876953125,6762.345703125,6153.58349609375,11948.7451171875,8753.935546875,16540.685546875,-13496.8759765625,3107.388671875,9768.8037109375,4332.0654296875,3518.263671875,1964.569091796875,0.0,9754.498046875
4944.00634765625,3085.136474609375,12935.001953125,7457.7333984375,16976.197265625,5826.1552734375,8632.3427734375,13421.3759765625,5013.14794921875,8007.685546875,8532.2060546875,7739.06689453125,-5866.6865234375,0.0,11024.474609375,12296.8359375,1788.139404296875,2151.330322265625,3333.886474609375,5652.10986328125,3775.755615234375,11301.8349609375,8684.7939453125,23280.779296875,-2775.98681640625,-624.6566772460938,4893.9384765625,13782.978515625,-6864.07080078125,3246.46630859375,19075.87109375,-10596.1162109375,-5895.29638671875,3792.44482421875,10785.26171875,11799.3359375,6066.9580078125,8664.92578125,4683.3359375,-0.0,4713.53515625,28041.205078125,31564.236328125,8659.36328125,18874.802734375,14277.298828125,-4016.55810546875,-6500.08544921875,4122.25732421875,15023.548828125,9877.681640625,13283.09375,10762.21484375,1468.658447265625,-867.0488891601562,10446.7080078125,0.0,2949.23779296875,7427.53369140625,6779.82958984375,6157.55712890625,11952.7177734375,8761.087890625,16547.837890625,-13494.4912109375,3106.593994140625,9768.8037109375,4350.34423828125,3519.05810546875,1985.2320556640625,0.0,9779.9296875
4938.44384765625,3077.98388671875,12956.4599609375,7458.52783203125,16981.759765625,5825.36083984375,8638.69921875,13418.9921875,5013.14794921875,8008.47998046875,8538.5634765625,7737.4775390625,-5863.5078125,0.0,11028.44921875,12297.6298828125,1790.5235595703125,2155.303955078125,3339.44970703125,5653.69921875,3777.344970703125,11305.0146484375,8689.5625,23284.75390625,-2772.80810546875,-623.0671997070312,4899.501953125,13780.59375,-6863.27587890625,3240.903076171875,19079.84375,-10588.1689453125,-5894.501953125,3795.623779296875,10789.2353515625,11800.9248046875,6074.1103515625,8668.8994140625,4730.224609375,-0.0,4714.330078125,28042.79296875,31571.388671875,8659.36328125,18880.3671875,14278.888671875,-4013.379638671875,-6502.4697265625,4128.61474609375,15021.1650390625,9882.4501953125,13281.5048828125,10778.109375,1472.632080078125,-867.0488891601562,10443.5283203125,0.0,2940.495849609375,7421.17529296875,6776.65087890625,6161.53076171875,11955.8974609375,8763.47265625,16547.837890625,-13492.9013671875,3105.79931640625,9773.572265625,4341.6025390625,3520.647705078125,1986.8214111328125,0.0,9781.51953125
4926.52294921875,3090.699462890625,12928.6455078125,7472.8330078125,16991.296875,5830.92333984375,8643.4677734375,13416.607421875,5011.55859375,7998.14892578125,8545.7158203125,7743.83544921875,-5876.22314453125,0.0,11034.01171875,12295.24609375,1796.086669921875,2160.866943359375,3341.833740234375,5646.546875,3783.702880859375,11311.3720703125,8695.919921875,23288.7265625,-2768.039794921875,-616.7094116210938,4905.06494140625,13780.59375,-6860.8916015625,3249.645263671875,19085.408203125,-10584.1953125,-5899.2705078125,3805.16064453125,10796.3876953125,11804.103515625,6078.87890625,8667.3095703125,4762.80810546875,-0.0,4736.58251953125,28050.740234375,31580.130859375,8659.36328125,18882.751953125,14273.326171875,-4022.121337890625,-6497.701171875,4145.30419921875,15025.93359375,9887.21875,13279.9150390625,10782.8779296875,1471.0426025390625,-857.5121459960938,10452.2705078125,0.0,2937.31689453125,7425.1494140625,6761.55078125,6166.29931640625,11959.8701171875,8761.087890625,16532.740234375,-13486.544921875,3115.336181640625,9778.3408203125,4311.40283203125,3520.647705078125,1948.674560546875,0.0,9752.1142578125
4920.95947265625,3105.004638671875,12942.1552734375,7478.39599609375,16994.4765625,5837.28173828125,8645.8525390625,13429.32421875,5026.65869140625,8012.4541015625,8549.6904296875,7751.78271484375,-5898.4755859375,0.0,11032.421875,12307.1669921875,1805.6234130859375,2164.8408203125,3347.39697265625,5656.8779296875,3787.676513671875,11316.935546875,8699.8935546875,23293.49609375,-2760.092529296875,-610.3515625,4908.24365234375,13791.720703125,-6859.302734375,3261.566162109375,19090.970703125,-10577.837890625,-5894.501953125,3811.518310546875,10801.15625,11811.2568359375,6080.46875,8675.2578125,4758.8349609375,-0.0,4738.171875,28057.89453125,31580.130859375,8667.3095703125,18885.134765625,14285.2470703125,-3991.126953125,-6492.1376953125,4151.662109375,15033.880859375,9884.833984375,13292.6298828125,10780.494140625,1476.605712890625,-849.5648803710938,10458.62890625,0.0,2950.032470703125,7443.42822265625,6777.4453125,6175.8359375,11964.638671875,8768.2412109375,16549.4296875,-13484.16015625,3124.872802734375,9776.751953125,4320.939453125,3527.00537109375,1962.9796142578125,0.0,9774.3671875
4936.85400390625,3095.4677734375,12959.6396484375,7469.654296875,16988.912109375,5837.28173828125,8646.6474609375,13435.681640625,5026.65869140625,8025.16943359375,8552.869140625,7750.193359375,-5886.5546875,0.0,11032.421875,12316.7041015625,1804.033935546875,2165.63525390625,3349.781005859375,5666.41455078125,3786.881591796875,11313.755859375,8698.3037109375,23294.291015625,-2763.271240234375,-610.3515625,4907.44921875,13798.0771484375,-6858.5078125,3261.566162109375,19089.380859375,-10577.837890625,-5883.37548828125,3804.365966796875,10799.5673828125,11811.2568359375,6079.673828125,8677.6416015625,4707.177734375,-0.0,4724.6611328125,28056.302734375,31576.94921875,8669.6943359375,18886.724609375,14291.6044921875,-3974.437744140625,-6492.9326171875,4147.6884765625,15037.0595703125,9883.244140625,13298.1943359375,10774.9296875,1477.400390625,-853.5385131835938,10457.8330078125,0.0,2958.774658203125,7436.275390625,6792.54541015625,6176.63037109375,11965.43359375,8773.009765625,16564.52734375,-13486.544921875,3122.48876953125,9775.9560546875,4336.0390625,3530.1845703125,1993.9739990234375,0.0,9810.9248046875
4957.51708984375,3092.2890625,12928.6455078125,7477.6015625,16996.064453125,5849.20263671875,8659.36328125,13461.9072265625,5041.75830078125,8063.31640625,8545.7158203125,7754.96142578125,-5849.20263671875,0.0,11045.9326171875,12341.33984375,1809.5970458984375,2173.582763671875,3363.29150390625,5695.02490234375,3793.239501953125,11322.498046875,8708.63671875,23308.595703125,-2761.681884765625,-599.225341796875,4920.95947265625,13817.1513671875,-6848.970703125,3271.10302734375,19097.328125,-10569.8896484375,-5884.96533203125,3811.518310546875,10808.30859375,11822.3828125,6093.97900390625,8695.919921875,4713.53515625,-0.0,4734.9931640625,28066.634765625,31588.87109375,8687.1787109375,18905.00390625,14318.625,-3981.59033203125,-6485.7802734375,4150.07275390625,15048.98046875,9897.5498046875,13324.419921875,10794.00390625,1482.1688232421875,-845.5912475585938,10465.78125,0.0,2980.232177734375,7441.8388671875,6829.10302734375,6178.22021484375,11976.5595703125,8795.26171875,16613.005859375,-13470.6494140625,3125.66748046875,9787.876953125,4379.74951171875,3537.337158203125,2068.6787109375,0.0,9898.3447265625
4958.3115234375,3099.44140625,12921.4921875,7484.75390625,17007.193359375,5854.765625,8664.92578125,13468.265625,5050.50048828125,8067.29052734375,8558.4326171875,7761.31982421875,-5840.46044921875,0.0,11053.0849609375,12345.314453125,1818.3389892578125,2180.7353515625,3372.033447265625,5698.9990234375,3801.981689453125,11330.4453125,8716.5830078125,23315.748046875,-2751.350341796875,-592.0728149414062,4929.701171875,13822.71484375,-6837.0498046875,3274.28173828125,19106.865234375,-10565.9169921875,-5884.17041015625,3820.26025390625,10817.845703125,11827.9453125,6100.33642578125,8702.2783203125,4765.1923828125,-0.0,4750.88720703125,28074.583984375,31596.0234375,8693.5361328125,18912.15625,14323.3935546875,-3982.38525390625,-6481.80615234375,4155.6357421875,15055.3388671875,9905.4970703125,13332.3671875,10810.6923828125,1485.3477783203125,-834.4650268554688,10469.75390625,0.0,2973.07958984375,7460.1171875,6829.10302734375,6181.39892578125,11984.5078125,8802.4140625,16607.443359375,-13467.470703125,3129.641357421875,9795.8251953125,4359.880859375,3542.10546875,2050.39990234375,0.0,9891.9873046875
4920.16455078125,3081.16259765625,12938.181640625,7460.1171875,16982.5546875,5828.53955078125,8635.5205078125,13433.296875,5020.30029296875,8014.83837890625,8549.6904296875,7737.4775390625,-5867.4814453125,0.0,11033.2177734375,12310.345703125,1794.4971923828125,2154.50927734375,3345.807373046875,5656.08349609375,3775.755615234375,11307.3984375,8691.1513671875,23287.931640625,-2772.013427734375,-616.7094116210938,4904.27001953125,13794.8994140625,-6860.8916015625,3248.8505859375,19082.228515625,-10584.990234375,-5901.65478515625,3799.597412109375,10792.4150390625,11803.3095703125,6070.93212890625,8672.078125,4759.6298828125,-0.0,4725.4560546875,28052.330078125,31569.796875,8664.92578125,18885.134765625,14286.8359375,-4001.458740234375,-6510.41650390625,4127.8203125,15028.3173828125,9885.62890625,13296.6044921875,10774.1357421875,1463.0953369140625,-851.154296875,10447.501953125,0.0,2934.137939453125,7436.275390625,6783.0087890625,6160.736328125,11958.28125,8769.03515625,16539.09765625,-13490.517578125,3106.593994140625,9775.9560546875,4309.0185546875,3523.82666015625,1970.132080078125,0.0,9788.6728515625
4906.654296875,3074.01025390625,12935.7978515625,7453.759765625,16962.6875,5816.61865234375,8618.037109375,13415.0185546875,5000.4326171875,7979.86962890625,8536.974609375,7728.7353515625,-5874.6337890625,0.0,11020.5009765625,12292.0673828125,1782.576171875,2140.998779296875,3327.52880859375,5626.6787109375,3761.450439453125,11294.6826171875,8676.8466796875,23272.83203125,-2779.166015625,-627.0408935546875,4889.17041015625,13778.2099609375,-6871.2236328125,3243.287353515625,19068.71875,-10590.5537109375,-5917.54931640625,3789.265869140625,10776.51953125,11791.388671875,6052.65283203125,8656.1845703125,4728.63525390625,-0.0,4711.94580078125,28039.61328125,31553.90625,8651.416015625,18866.0625,14264.583984375,-4007.81640625,-6512.80078125,4094.44189453125,15015.6025390625,9872.9130859375,13275.9404296875,10743.1416015625,1458.326904296875,-861.4857788085938,10439.5546875,0.0,2928.57470703125,7423.5595703125,6755.193359375,6153.58349609375,11944.7705078125,8748.3720703125,16494.591796875,-13500.0546875,3102.620361328125,9764.03515625,4290.73974609375,3519.05810546875,1917.68017578125,0.0,9710.7890625
4916.19091796875,3068.447021484375,12948.5126953125,7456.9384765625,16961.892578125,5815.82421875,8621.2158203125,13417.4033203125,5004.40576171875,7987.81689453125,8533.0009765625,7727.14599609375,-5868.27587890625,0.0,11022.0908203125,12295.24609375,1784.96044921875,2140.2041015625,3329.912841796875,5631.44677734375,3759.861083984375,11295.4775390625,8677.6416015625,23272.83203125,-2780.75537109375,-626.2461547851562,4890.759765625,13781.388671875,-6868.04443359375,3243.287353515625,19067.12890625,-10592.9375,-5919.138671875,3792.44482421875,10775.7255859375,11792.1826171875,6055.037109375,8659.36328125,4724.6611328125,-0.0,4707.97216796875,28041.205078125,31553.90625,8654.5947265625,18869.2421875,14268.5576171875,-4001.458740234375,-6519.953125,4086.494384765625,15019.576171875,9873.7080078125,13279.1201171875,10748.7041015625,1455.9427490234375,-863.0752563476562,10440.349609375,0.0,2934.137939453125,7424.3544921875,6759.96142578125,6149.60986328125,11945.5654296875,8751.5517578125,16514.458984375,-13499.259765625,3101.031005859375,9766.4189453125,4312.197265625,3518.263671875,1937.54833984375,0.0,9720.3251953125
4924.93310546875,3062.089111328125,12934.2080078125,7458.52783203125,16960.302734375,5814.234375,8619.6259765625,13416.607421875,5002.02197265625,7996.55908203125,8533.794921875,7722.3779296875,-5864.30224609375,0.0,11019.70703125,12296.041015625,1784.165771484375,2140.2041015625,3329.117919921875,5635.42041015625,3756.68212890625,11293.8876953125,8675.2578125,23271.2421875,-2781.550048828125,-628.6303100585938,4889.96484375,13779.7998046875,-6864.07080078125,3239.313720703125,19065.5390625,-10594.52734375,-5920.72802734375,3790.060791015625,10772.5458984375,11791.388671875,6053.44775390625,8658.568359375,4733.40380859375,-0.0,4703.99853515625,28040.408203125,31552.314453125,8653.0048828125,18869.2421875,14273.326171875,-4009.405517578125,-6527.90087890625,4087.289306640625,15017.19140625,9870.529296875,13280.708984375,10760.625,1449.5849609375,-865.45947265625,10437.1708984375,0.0,2928.57470703125,7421.17529296875,6767.1142578125,6148.81494140625,11943.9765625,8754.73046875,16523.99609375,-13500.0546875,3100.236083984375,9761.6513671875,4307.4287109375,3513.4951171875,1950.263916015625,0.0,9751.3203125
4916.98583984375,3067.65234375,12925.4658203125,7464.0908203125,16976.197265625,5824.56591796875,8628.3681640625,13429.32421875,5010.763671875,8005.30126953125,8545.7158203125,7732.70947265625,-5862.712890625,0.0,11024.474609375,12308.7568359375,1792.1129150390625,2148.1513671875,3339.44970703125,5645.751953125,3768.60302734375,11302.630859375,8687.1787109375,23281.57421875,-2767.2451171875,-619.8883056640625,4899.501953125,13792.5146484375,-6856.91845703125,3250.43994140625,19075.07421875,-10588.1689453125,-5912.78076171875,3798.008056640625,10786.056640625,11800.9248046875,6062.984375,8667.3095703125,4741.3505859375,-0.0,4724.6611328125,28050.740234375,31567.4140625,8662.541015625,18876.39453125,14283.6572265625,-4006.22705078125,-6508.8271484375,4115.8994140625,15029.11328125,9877.681640625,13292.6298828125,10772.5458984375,1455.1480712890625,-863.8699951171875,10449.091796875,0.0,2938.906494140625,7428.328125,6786.98193359375,6156.7626953125,11953.5126953125,8764.2666015625,16527.970703125,-13492.9013671875,3110.56787109375,9766.4189453125,4315.37646484375,3522.237060546875,1959.80078125,0.0,9759.2666015625
4905.06494140625,3071.6259765625,12923.876953125,7471.2431640625,16996.064453125,5833.3076171875,8641.87890625,13436.4765625,5022.6845703125,8015.6328125,8555.2529296875,7739.86181640625,-5867.4814453125,0.0,11037.1904296875,12315.9091796875,1800.060302734375,2160.866943359375,3351.37060546875,5653.69921875,3783.702880859375,11312.1669921875,8703.072265625,23291.111328125,-2754.529296875,-612.7357177734375,4918.5751953125,13798.873046875,-6848.970703125,3257.592529296875,19085.408203125,-10581.0166015625,-5900.85986328125,3807.544677734375,10801.951171875,11808.8720703125,6075.7001953125,8677.6416015625,4736.58251953125,-0.0,4754.861328125,28058.6875,31584.900390625,8668.8994140625,18889.904296875,14292.3994140625,-4010.995361328125,-6496.90625,4138.9462890625,15037.8544921875,9891.1923828125,13299.783203125,10781.2880859375,1461.505859375,-870.227783203125,10458.62890625,0.0,2948.443115234375,7442.63330078125,6786.98193359375,6163.1201171875,11963.8447265625,8775.3935546875,16535.123046875,-13485.7490234375,3116.130859375,9780.724609375,4328.09228515625,3537.337158203125,1974.1058349609375,0.0,9758.47265625
