8659.36328125,6748.04052734375,16785.462890625,12184.779296875,20918.845703125,8824.666015625,11781.8515625,17083.486328125,8203.9833984375,11960.666015625,10721.68359375,11027.6533203125,-5122.8203125,0.0,12676.7158203125,15838.146484375,4948.77490234375,5555.94775390625,5671.18310546875,9329.3193359375,6398.35986328125,14859.8359375,11378.9248046875,27307.66796875,-975.9266967773438,3796.41845703125,8132.45751953125,18002.986328125,-5846.818359375,5743.50341796875,22919.97265625,-5818.2080078125,-3514.289794921875,8198.4208984375,13858.4775390625,14892.4189453125,9218.056640625,11428.9921875,9751.3203125,-0.0,6297.4296875,32453.537109375,35529.13671875,12300.80859375,22776.126953125,18548.169921875,-4388.4912109375,-3342.62841796875,7958.412109375,19404.888671875,11606.216796875,16834.736328125,13454.7548828125,4239.87744140625,658.8300170898438,14061.1337890625,0.0,5885.759765625,10391.076171875,10494.3916015625,9617.0107421875,15284.220703125,12040.138671875,19977.091796875,-11327.2666015625,6148.81494140625,11137.326171875,4656.31494140625,3499.98486328125,3245.671630859375,0.0,13031.1650390625
8692.7412109375,6761.55078125,16778.310546875,12210.2099609375,20937.125,8847.7138671875,11804.103515625,17112.09765625,8227.0302734375,11996.4287109375,10735.1943359375,11052.291015625,-5110.8994140625,0.0,12698.173828125,15867.5517578125,4969.43798828125,5578.99462890625,5693.435546875,9361.107421875,6418.22802734375,14884.4716796875,11399.5869140625,27329.921875,-962.4163208007812,3815.491943359375,8149.14697265625,18026.828125,-5836.48681640625,5762.5771484375,22943.01953125,-5799.92919921875,-3500.779296875,8227.8251953125,13881.5244140625,14916.2607421875,9242.6943359375,11453.62890625,9740.98828125,-0.0,6318.88720703125,32474.994140625,35549.80078125,12325.4462890625,22799.173828125,18576.78125,-4376.5703125,-3337.0654296875,7973.51171875,19427.935546875,11629.263671875,16864.140625,13464.2919921875,4252.5927734375,698.56640625,14074.6435546875,0.0,5926.291015625,10408.560546875,10530.9482421875,9644.03125,15306.47265625,12063.98046875,20021.59765625,-11312.9619140625,6167.09375,11157.1953125,4677.7724609375,3523.031982421875,3296.5341796875,0.0,13096.3330078125
8689.5625,6795.724609375,16790.232421875,12202.2626953125,20945.8671875,8855.66015625,11819.9990234375,17134.34765625,8242.1298828125,12025.8330078125,10747.115234375,11062.6220703125,-5109.31005859375,0.0,12709.2998046875,15887.4189453125,4978.974609375,5588.53125,5706.1513671875,9383.361328125,6430.14892578125,14892.4189453125,11411.5078125,27341.046875,-956.8532104492188,3819.465576171875,8158.68359375,18041.134765625,-5830.92333984375,5760.19287109375,22954.94140625,-5791.1875,-3486.474365234375,8227.8251953125,13891.060546875,14925.7978515625,9256.2041015625,11468.728515625,9731.4521484375,-0.0,6330.80810546875,32480.556640625,35561.72265625,12336.5712890625,22813.478515625,18599.033203125,-4371.8017578125,-3329.117919921875,7985.4326171875,19435.8828125,11638.0048828125,16887.1875,13478.5966796875,4274.05029296875,712.0768432617188,14080.20703125,0.0,5939.0068359375,10418.09765625,10564.3271484375,9648.7998046875,15317.599609375,12081.4638671875,20043.849609375,-11305.0146484375,6170.27294921875,11168.3203125,4703.20361328125,3532.568603515625,3339.44970703125,0.0,13159.9111328125
8671.2841796875,6824.33447265625,16819.634765625,12156.962890625,20940.3046875,8846.9189453125,11810.4619140625,17121.6328125,8227.8251953125,12002.7861328125,10747.115234375,11058.6484375,-5115.66796875,0.0,12698.9677734375,15875.498046875,4972.61669921875,5583.76318359375,5696.61474609375,9365.08203125,6425.380859375,14882.8818359375,11405.9453125,27333.1015625,-956.8532104492188,3807.544677734375,8154.7099609375,18030.802734375,-5832.51318359375,5753.04052734375,22950.171875,-5795.16064453125,-3480.9111328125,8208.751953125,13884.7041015625,14917.8505859375,9246.6669921875,11456.8076171875,9702.046875,-0.0,6326.03955078125,32468.634765625,35556.15625,12325.4462890625,22802.353515625,18585.5234375,-4366.2392578125,-3336.2705078125,7986.22802734375,19426.345703125,11626.083984375,16873.677734375,13484.955078125,4283.5869140625,704.9242553710938,14070.669921875,0.0,5900.06494140625,10406.1767578125,10546.84375,9644.03125,15308.857421875,12067.1591796875,20012.85546875,-11302.630859375,6161.53076171875,11156.3994140625,4669.8251953125,3514.289794921875,3287.792236328125,0.0,13108.25390625
8648.236328125,6834.666015625,16804.537109375,12153.78515625,20938.71484375,8840.560546875,11807.2822265625,17113.685546875,8227.0302734375,11999.607421875,10743.935546875,11052.291015625,-5110.8994140625,0.0,12695.7890625,15867.5517578125,4970.232421875,5579.78955078125,5692.640625,9361.107421875,6425.380859375,14878.9091796875,11403.560546875,27329.126953125,-960.0321655273438,3802.7763671875,8153.91552734375,18020.470703125,-5835.69189453125,5737.14599609375,22944.609375,-5797.544921875,-3480.11669921875,8200.009765625,13883.908203125,14914.671875,9242.6943359375,11452.833984375,9734.630859375,-0.0,6326.833984375,32466.251953125,35553.7734375,12317.498046875,22799.173828125,18579.958984375,-4374.18603515625,-3348.986328125,7986.22802734375,19416.80859375,11625.2900390625,16865.73046875,13477.0078125,4289.9453125,704.1295166015625,14057.1591796875,0.0,5873.8388671875,10405.380859375,10541.2802734375,9644.826171875,15304.8828125,12063.185546875,20012.85546875,-11308.193359375,6155.1728515625,11156.3994140625,4653.9306640625,3508.726806640625,3299.713134765625,0.0,13100.306640625
8660.1572265625,6839.43408203125,16801.357421875,12175.2421875,20956.197265625,8852.4814453125,11821.587890625,17124.017578125,8246.8984375,12024.2431640625,10755.8564453125,11056.263671875,-5090.23681640625,0.0,12707.7099609375,15878.677734375,4983.7431640625,5594.88916015625,5707.74072265625,9383.361328125,6438.89111328125,14891.6240234375,11416.2763671875,27342.638671875,-953.67431640625,3816.286865234375,8168.220703125,18027.625,-5819.79736328125,5743.50341796875,22958.9140625,-5788.80322265625,-3470.579833984375,8213.5205078125,13899.802734375,14927.3876953125,9256.2041015625,11466.34375,9782.314453125,-0.0,6341.93408203125,32481.353515625,35569.66796875,12328.625,22814.2734375,18595.853515625,-4372.5966796875,-3351.37060546875,7996.55908203125,19426.345703125,11638.80078125,16876.0625,13477.802734375,4297.89208984375,716.0504760742188,14071.46484375,0.0,5899.2705078125,10422.0703125,10550.81640625,9656.7470703125,15318.3935546875,12081.4638671875,20051.001953125,-11296.2724609375,6167.888671875,11167.5263671875,4660.28857421875,3531.77392578125,3327.52880859375,0.0,13151.1689453125
8659.36328125,6829.8974609375,16811.689453125,12191.931640625,20961.76171875,8866.787109375,11827.9453125,17136.732421875,8253.2568359375,12025.0390625,10756.65234375,11061.828125,-5074.34228515625,0.0,12712.478515625,15890.5986328125,4990.8955078125,5603.63134765625,5716.482421875,9384.94921875,6444.4541015625,14905.9296875,11424.2236328125,27352.96875,-950.4954223632812,3829.797119140625,8168.220703125,18039.544921875,-5803.9033203125,5764.16650390625,22969.24609375,-5788.80322265625,-3466.606201171875,8229.4150390625,13906.1611328125,14938.513671875,9264.1513671875,11475.880859375,9791.8505859375,-0.0,6349.0869140625,32504.3984375,35576.8203125,12340.5458984375,22823.015625,18601.41796875,-4365.4443359375,-3367.264892578125,7992.5849609375,19439.85546875,11641.1845703125,16885.599609375,13475.41796875,4291.5341796875,723.2030029296875,14089.7431640625,0.0,5935.82763671875,10424.455078125,10557.1748046875,9659.9267578125,15327.9306640625,12088.6162109375,20049.4140625,-11288.3251953125,6178.22021484375,11169.91015625,4662.67236328125,3540.515869140625,3295.739501953125,0.0,13133.685546875
8637.9052734375,6817.9765625,16832.3515625,12172.8583984375,20953.814453125,8865.197265625,11817.6142578125,17128.78515625,8237.3623046875,11988.48046875,10746.3193359375,11055.4697265625,-5079.11083984375,0.0,12703.736328125,15885.0341796875,4987.716796875,5597.2734375,5704.5615234375,9357.134765625,6440.48046875,14903.544921875,11416.2763671875,27345.021484375,-949.70068359375,3828.207763671875,8159.47802734375,18042.72265625,-5808.67138671875,5776.88232421875,22963.681640625,-5795.95556640625,-3470.579833984375,8229.4150390625,13899.802734375,14933.7451171875,9255.4091796875,11465.5498046875,9771.9833984375,-0.0,6355.4443359375,32508.373046875,35568.078125,12335.77734375,22811.09375,18583.93359375,-4376.5703125,-3391.901611328125,7993.38037109375,19439.85546875,11630.8525390625,16880.830078125,13464.2919921875,4281.20263671875,712.0768432617188,14085.76953125,0.0,5914.3701171875,10407.765625,10532.5380859375,9648.7998046875,15320.7783203125,12072.72265625,19993.78125,-11294.6826171875,6178.22021484375,11161.16796875,4595.91552734375,3526.210693359375,3212.29296875,0.0,13047.8544921875
8625.984375,6824.33447265625,16804.537109375,12216.568359375,20956.9921875,8865.9921875,11822.3828125,17135.939453125,8236.5673828125,11990.0703125,10737.578125,11062.6220703125,-5072.75244140625,0.0,12696.583984375,15893.7783203125,4994.07421875,5601.2470703125,5707.74072265625,9357.134765625,6447.63330078125,14905.134765625,11420.25,27345.81640625,-952.0848388671875,3828.207763671875,8167.42626953125,18056.234375,-5807.08154296875,5782.4453125,22966.861328125,-5790.392578125,-3462.63232421875,8249.283203125,13904.5712890625,14935.333984375,9258.587890625,11467.1396484375,9756.8828125,-0.0,6370.54443359375,32498.8359375,35570.4609375,12341.33984375,22815.068359375,18590.291015625,-4414.71728515625,-3346.602294921875,8001.32763671875,19446.21484375,11626.8798828125,16889.572265625,13460.318359375,4277.2294921875,696.1822509765625,14087.359375,0.0,5896.09130859375,10399.0244140625,10546.0478515625,9648.7998046875,15322.3671875,12073.5166015625,19990.6015625,-11296.2724609375,6183.783203125,11154.810546875,4599.09423828125,3522.237060546875,3218.65087890625,0.0,13043.0859375
8618.83203125,6748.04052734375,16744.931640625,12215.7734375,20939.5078125,8846.9189453125,11799.3359375,17112.890625,8225.44140625,11985.3017578125,10714.53125,11039.57421875,-5087.0576171875,0.0,12665.5888671875,15868.345703125,4977.38525390625,5582.173828125,5690.2568359375,9348.392578125,6430.14892578125,14886.8564453125,11398.7919921875,27327.537109375,-974.3372802734375,3811.518310546875,8137.22607421875,18031.59765625,-5839.666015625,5753.8349609375,22949.376953125,-5801.51904296875,-3477.732421875,8230.208984375,13887.087890625,14917.0556640625,9236.3359375,11448.8603515625,9702.046875,-0.0,6336.37109375,32482.146484375,35549.80078125,12322.2666015625,22793.611328125,18575.19140625,-4430.6123046875,-3355.343994140625,7968.7431640625,19428.73046875,11596.6796875,16864.935546875,13449.986328125,4240.671875,661.2141723632812,14062.72265625,0.0,5875.4287109375,10396.6396484375,10525.3857421875,9629.7265625,15303.2939453125,12058.4169921875,19995.37109375,-11320.908203125,6156.7626953125,11126.2001953125,4630.8837890625,3493.626953125,3254.41357421875,0.0,13055.8017578125
8640.2890625,6745.65625,16783.873046875,12200.6728515625,20941.892578125,8857.25,11807.2822265625,17121.6328125,8235.7724609375,11996.4287109375,10733.6044921875,11042.75390625,-5091.826171875,0.0,12681.484375,15876.29296875,4981.35888671875,5588.53125,5697.4091796875,9357.134765625,6431.73828125,14892.4189453125,11405.150390625,27333.89453125,-961.62158203125,3821.05517578125,8141.2001953125,18034.77734375,-5834.8974609375,5753.8349609375,22952.556640625,-5791.98193359375,-3486.474365234375,8223.056640625,13891.8564453125,14925.0029296875,9245.078125,11458.396484375,9733.8359375,-0.0,6334.78173828125,32493.275390625,35556.15625,12330.21484375,22803.94140625,18583.138671875,-4386.90185546875,-3358.523193359375,7979.0751953125,19438.267578125,11610.1904296875,16873.677734375,13469.85546875,4249.4140625,659.624755859375,14067.490234375,0.0,5922.3173828125,10402.2021484375,10532.5380859375,9639.2626953125,15309.6513671875,12064.7744140625,20004.11328125,-11310.5771484375,6166.29931640625,11140.505859375,4641.21484375,3500.779296875,3275.871337890625,0.0,13067.72265625
8673.66796875,6787.77685546875,16864.140625,12219.7470703125,20960.171875,8869.1708984375,11829.53515625,17144.6796875,8254.845703125,12015.501953125,10759.0361328125,11061.0322265625,-5104.5419921875,0.0,12716.4521484375,15899.33984375,4994.07421875,5603.63134765625,5717.27734375,9378.5927734375,6440.48046875,14908.3134765625,11422.6337890625,27354.55859375,-938.574462890625,3833.770751953125,8166.630859375,18056.234375,-5822.9765625,5766.55078125,22966.861328125,-5776.88232421875,-3475.34814453125,8234.18359375,13905.3662109375,14940.8974609375,9266.5361328125,11476.67578125,9796.619140625,-0.0,6336.37109375,32505.98828125,35575.23046875,12349.2880859375,22827.783203125,18603.005859375,-4344.78125,-3328.3232421875,8010.06982421875,19451.77734375,11645.158203125,16895.9296875,13485.7490234375,4274.84521484375,693.0033569335938,14088.9482421875,0.0,5960.46435546875,10421.2763671875,10547.6376953125,9652.7734375,15327.9306640625,12084.6435546875,20022.392578125,-11291.50390625,6179.0146484375,11176.2685546875,4641.21484375,3533.36328125,3294.150146484375,0.0,13085.2060546875
8681.615234375,6806.8505859375,16849.8359375,12224.5146484375,20953.814453125,8862.8134765625,11829.53515625,17137.52734375,8254.05078125,12006.759765625,10766.1884765625,11070.5693359375,-5095.7998046875,0.0,12719.630859375,15892.982421875,4991.68994140625,5600.45263671875,5715.68798828125,9373.0283203125,6437.3017578125,14906.7236328125,11422.6337890625,27350.583984375,-940.1639404296875,3833.770751953125,8172.98876953125,18046.697265625,-5815.029296875,5762.5771484375,22965.2734375,-5780.06103515625,-3480.11669921875,8238.9521484375,13901.392578125,14937.71875,9265.740234375,11474.2919921875,9831.587890625,-0.0,6326.03955078125,32497.24609375,35572.05078125,12343.724609375,22826.990234375,18598.23828125,-4342.39697265625,-3302.097412109375,7994.1748046875,19439.85546875,11648.3369140625,16890.3671875,13493.697265625,4259.7451171875,723.9977416992188,14090.5380859375,0.0,5940.59619140625,10419.6865234375,10537.306640625,9658.3369140625,15326.3408203125,12083.84765625,20015.240234375,-11285.94140625,6182.19384765625,11179.447265625,4636.4462890625,3527.00537109375,3259.9765625,0.0,13062.9541015625
8660.1572265625,6814.7978515625,16822.01953125,12195.1103515625,20937.919921875,8854.0712890625,11818.4091796875,17127.1953125,8250.873046875,12017.8857421875,10751.8837890625,11056.263671875,-5112.4892578125,0.0,12706.1201171875,15879.47265625,4977.38525390625,5590.12060546875,5706.94580078125,9378.5927734375,6422.99658203125,14894.0087890625,11411.5078125,27341.046875,-972.747802734375,3825.823486328125,8155.50537109375,18033.98046875,-5830.12890625,5745.8876953125,22951.76171875,-5801.51904296875,-3492.832275390625,8227.0302734375,13888.6767578125,14928.181640625,9256.2041015625,11467.1396484375,9790.26171875,-0.0,6308.5556640625,32486.123046875,35559.3359375,12330.21484375,22819.837890625,18595.853515625,-4352.728515625,-3329.117919921875,7971.9228515625,19430.318359375,11634.0322265625,16879.240234375,13489.7236328125,4237.4931640625,725.5872192382812,14073.0546875,0.0,5911.19140625,10427.6337890625,10543.6640625,9648.005859375,15316.8037109375,12080.6689453125,20039.08203125,-11301.041015625,6171.06787109375,11165.1416015625,4675.38818359375,3514.289794921875,3305.276123046875,0.0,13117.7900390625
8657.7734375,6812.41357421875,16795.0,12174.447265625,20929.177734375,8845.3291015625,11810.4619140625,17117.658203125,8246.8984375,12017.8857421875,10740.7568359375,11047.5224609375,-5117.2578125,0.0,12696.583984375,15872.3203125,4966.2587890625,5581.37890625,5699.79345703125,9377.0029296875,6414.2548828125,14882.8818359375,11400.3818359375,27333.1015625,-992.6160278320312,3811.518310546875,8149.94140625,18024.4453125,-5843.63916015625,5731.58251953125,22942.224609375,-5812.64501953125,-3508.726806640625,8212.7255859375,13880.7294921875,14917.8505859375,9248.2568359375,11459.19140625,9790.26171875,-0.0,6309.3505859375,32474.994140625,35550.59375,12321.47265625,22811.890625,18592.67578125,-4372.5966796875,-3356.93359375,7960.79638671875,19422.373046875,11626.083984375,16870.498046875,13479.3916015625,4254.18212890625,710.4873657226562,14058.7490234375,0.0,5901.65478515625,10418.8916015625,10542.869140625,9642.44140625,15306.47265625,12074.3115234375,20039.08203125,-11312.1669921875,6157.55712890625,11155.60546875,4665.056640625,3513.4951171875,3319.581298828125,0.0,13143.2216796875
8683.9990234375,6787.77685546875,16796.58984375,12227.6943359375,20940.3046875,8850.8916015625,11816.8193359375,17122.427734375,8246.8984375,12010.7333984375,10747.115234375,11055.4697265625,-5117.2578125,0.0,12698.9677734375,15877.0888671875,4978.1796875,5590.91552734375,5705.3564453125,9369.8505859375,6425.380859375,14895.5986328125,11409.123046875,27339.458984375,-967.1846923828125,3817.08154296875,8160.2734375,18033.185546875,-5834.8974609375,5738.7353515625,22952.556640625,-5796.75048828125,-3499.98486328125,8231.00390625,13892.650390625,14925.0029296875,9254.615234375,11463.1650390625,9786.2880859375,-0.0,6329.21826171875,32485.32421875,35560.92578125,12327.830078125,22815.068359375,18592.67578125,-4374.98095703125,-3345.807373046875,7978.2802734375,19430.318359375,11628.46875,16874.470703125,13480.98046875,4281.20263671875,712.0768432617188,14066.6962890625,0.0,5913.57568359375,10416.5078125,10537.306640625,9654.3623046875,15314.419921875,12074.3115234375,20008.8828125,-11299.451171875,6166.29931640625,11156.3994140625,4658.69921875,3514.289794921875,3281.434326171875,0.0,13100.306640625
8693.5361328125,6779.82958984375,16759.236328125,12243.5888671875,20949.044921875,8850.8916015625,11824.767578125,17124.810546875,8247.693359375,12003.5810546875,10746.3193359375,11054.6748046875,-5112.4892578125,0.0,12705.326171875,15878.677734375,4979.76904296875,5594.0947265625,5707.74072265625,9367.4658203125,6433.328125,14898.77734375,11415.4814453125,27343.431640625,-963.2110595703125,3817.08154296875,8170.6044921875,18037.955078125,-5826.9501953125,5749.861328125,22956.529296875,-5798.33984375,-3499.190185546875,8231.00390625,13899.0087890625,14928.9765625,9260.9716796875,11465.5498046875,9764.03515625,-0.0,6336.37109375,32491.68359375,35571.2578125,12330.21484375,22821.42578125,18592.67578125,-4394.05419921875,-3341.0390625,7987.81689453125,19431.11328125,11632.4423828125,16874.470703125,13479.3916015625,4271.666015625,708.1031494140625,14069.080078125,0.0,5900.06494140625,10418.8916015625,10538.8955078125,9653.568359375,15318.3935546875,12076.6953125,20005.703125,-11297.8623046875,6172.6572265625,11161.9638671875,4665.8515625,3521.4423828125,3268.71875,0.0,13080.4375
8666.515625,6825.12890625,16798.177734375,12202.2626953125,20964.146484375,8866.787109375,11836.6884765625,17143.091796875,8261.998046875,12013.912109375,10751.087890625,11064.2119140625,-5081.49462890625,0.0,12716.4521484375,15899.33984375,4992.48486328125,5608.39990234375,5720.45654296875,9381.771484375,6452.40185546875,14909.9033203125,11430.5810546875,27356.943359375,-951.2901611328125,3831.386474609375,8182.525390625,18055.439453125,-5811.85009765625,5778.4716796875,22969.24609375,-5791.98193359375,-3469.784912109375,8231.00390625,13914.1083984375,14942.486328125,9274.482421875,11480.6494140625,9755.2939453125,-0.0,6356.2392578125,32502.810546875,35583.97265625,12345.314453125,22834.935546875,18608.5703125,-4373.3916015625,-3350.57568359375,8001.32763671875,19445.419921875,11643.5693359375,16894.33984375,13483.365234375,4284.3818359375,718.4346313476562,14088.9482421875,0.0,5913.57568359375,10430.0185546875,10567.505859375,9659.130859375,15332.69921875,12090.2060546875,20023.1875,-11285.1455078125,6187.7568359375,11173.0888671875,4667.44091796875,3536.542236328125,3265.539794921875,0.0,13102.6904296875
8664.92578125,6833.07666015625,16852.220703125,12194.3154296875,20969.708984375,8877.1181640625,11839.8662109375,17162.958984375,8270.740234375,12025.8330078125,10769.3671875,11065.005859375,-5080.69970703125,0.0,12710.888671875,15919.208984375,4999.6376953125,5613.962890625,5728.40380859375,9389.7177734375,6456.375,14916.2607421875,11433.7607421875,27363.30078125,-952.0848388671875,3841.718017578125,8180.93603515625,18072.923828125,-5813.43994140625,5791.1875,22977.986328125,-5783.23974609375,-3455.47998046875,8241.3359375,13918.876953125,14950.4345703125,9278.45703125,11489.3916015625,9744.1669921875,-0.0,6348.2919921875,32514.732421875,35586.35546875,12355.6455078125,22838.115234375,18620.490234375,-4345.57568359375,-3375.21240234375,7998.943359375,19457.33984375,11639.5947265625,16913.4140625,13486.544921875,4289.9453125,719.2293701171875,14097.6904296875,0.0,5941.39111328125,10440.349609375,10588.9638671875,9664.6943359375,15338.26171875,12096.564453125,20030.33984375,-11281.1728515625,6190.935546875,11168.3203125,4648.3671875,3540.515869140625,3271.8974609375,0.0,13103.4853515625
8660.9521484375,6815.59228515625,16825.994140625,12219.7470703125,20953.01953125,8861.224609375,11829.53515625,17147.064453125,8257.2294921875,12020.2705078125,10761.419921875,11051.4951171875,-5101.36279296875,0.0,12704.53125,15902.51953125,4987.716796875,5600.45263671875,5714.8935546875,9380.9765625,6442.86474609375,14907.51953125,11421.0439453125,27350.583984375,-956.8532104492188,3825.028564453125,8173.783203125,18057.02734375,-5828.53955078125,5770.5244140625,22965.2734375,-5795.16064453125,-3469.784912109375,8238.9521484375,13906.1611328125,14936.923828125,9268.125,11477.470703125,9746.5517578125,-0.0,6332.3974609375,32505.98828125,35574.4375,12341.33984375,22828.578125,18607.775390625,-4367.828125,-3389.517578125,7984.63818359375,19443.830078125,11633.2373046875,16900.697265625,13468.265625,4276.4345703125,686.6455078125,14082.5908203125,0.0,5931.0595703125,10418.09765625,10553.99609375,9654.3623046875,15325.5458984375,12084.6435546875,20020.0078125,-11297.06640625,6178.22021484375,11161.16796875,4637.2412109375,3538.1318359375,3269.513427734375,0.0,13091.564453125
8660.1572265625,6823.53955078125,16802.15234375,12267.4306640625,20971.298828125,8875.529296875,11847.01953125,17157.396484375,8274.71484375,12032.9853515625,10777.314453125,11073.7490234375,-5087.8525390625,0.0,12734.73046875,15911.2607421875,5003.611328125,5618.73095703125,5730.78759765625,9396.87109375,6463.52783203125,14925.7978515625,11439.3232421875,27367.2734375,-936.1903076171875,3839.333740234375,8184.115234375,18067.359375,-5803.1083984375,5776.88232421875,22984.345703125,-5787.2138671875,-3459.45361328125,8266.7666015625,13925.234375,14955.203125,9284.8134765625,11494.16015625,9778.3408203125,-0.0,6371.33935546875,32516.318359375,35592.71484375,12354.8505859375,22850.037109375,18620.490234375,-4378.95458984375,-3332.297119140625,7995.7646484375,19458.9296875,11662.642578125,16910.234375,13498.4658203125,4286.76611328125,696.9769897460938,14096.896484375,0.0,5943.775390625,10453.064453125,10560.353515625,9668.66796875,15343.8251953125,12101.3330078125,20034.3125,-11285.94140625,6201.26708984375,11192.9580078125,4657.10986328125,3542.900146484375,3290.970947265625,0.0,13098.716796875
8598.9638671875,6755.193359375,16783.873046875,12183.189453125,20938.71484375,8842.9453125,11813.640625,17123.22265625,8252.4619140625,12008.349609375,10736.783203125,11045.138671875,-5118.05224609375,0.0,12702.94140625,15877.8818359375,4971.02734375,5586.9423828125,5700.58837890625,9372.234375,6430.94384765625,14889.240234375,11409.123046875,27333.89453125,-984.668701171875,3806.75,8144.37890625,18037.955078125,-5841.25537109375,5737.14599609375,22952.556640625,-5818.2080078125,-3489.6533203125,8228.619140625,13892.650390625,14920.234375,9252.23046875,11462.37109375,9752.1142578125,-0.0,6345.11328125,32477.37890625,35560.1328125,12323.8564453125,22819.04296875,18590.291015625,-4409.94873046875,-3338.65478515625,7965.56494140625,19428.73046875,11631.6484375,16876.0625,13480.1865234375,4258.95068359375,668.3667602539062,14056.365234375,0.0,5901.65478515625,10430.8125,10526.974609375,9631.31640625,15311.2412109375,12070.337890625,20014.4453125,-11323.29296875,6169.47802734375,11161.9638671875,4628.49951171875,3528.594970703125,3283.02392578125,0.0,13086.7958984375
8581.4794921875,6732.9404296875,16801.357421875,12133.916015625,20914.078125,8823.8720703125,11796.951171875,17112.09765625,8231.00390625,11999.607421875,10718.5048828125,11027.6533203125,-5146.662109375,0.0,12683.8681640625,15868.345703125,4951.9541015625,5564.689453125,5684.69384765625,9355.544921875,6401.5390625,14864.603515625,11390.845703125,27316.412109375,-995.794921875,3787.676513671875,8131.6630859375,18022.85546875,-5865.09716796875,5721.2509765625,22929.509765625,-5822.181640625,-3521.4423828125,8188.08837890625,13868.0146484375,14898.77734375,9235.541015625,11448.0654296875,9777.5458984375,-0.0,6283.9189453125,32454.330078125,35545.03125,12309.55078125,22802.353515625,18580.755859375,-4397.2333984375,-3361.701904296875,7967.154296875,19409.65625,11613.369140625,16866.525390625,13441.2451171875,4247.82421875,676.3140258789062,14043.6484375,0.0,5885.759765625,10402.9970703125,10528.564453125,9609.8583984375,15291.373046875,12056.8271484375,20004.11328125,-11336.0087890625,6147.22607421875,11142.0947265625,4642.8046875,3495.21630859375,3279.050048828125,0.0,13099.5107421875
8622.009765625,6767.1142578125,16821.2265625,12144.248046875,20926.794921875,8833.408203125,11813.640625,17125.607421875,8243.7197265625,12023.44921875,10739.962890625,11037.9853515625,-5136.3310546875,0.0,12692.6103515625,15880.2666015625,4963.875,5578.99462890625,5698.9990234375,9374.6181640625,6411.07568359375,14878.9091796875,11406.7392578125,27333.89453125,-969.5689086914062,3797.21337890625,8149.14697265625,18031.59765625,-5847.61279296875,5733.966796875,22942.224609375,-5812.64501953125,-3508.726806640625,8198.4208984375,13882.3193359375,14913.08203125,9250.640625,11465.5498046875,9810.1298828125,-0.0,6289.48193359375,32467.841796875,35557.74609375,12321.47265625,22815.068359375,18599.828125,-4359.08642578125,-3364.086181640625,7982.25390625,19418.3984375,11622.111328125,16879.240234375,13446.013671875,4267.6923828125,706.5137329101562,14058.7490234375,0.0,5885.759765625,10411.7392578125,10550.81640625,9627.341796875,15308.857421875,12073.5166015625,20030.33984375,-11311.3720703125,6156.7626953125,11151.6318359375,4682.541015625,3490.447998046875,3325.939208984375,0.0,13137.658203125
8660.9521484375,6799.69775390625,16820.431640625,12148.220703125,20933.150390625,8846.1240234375,11827.9453125,17140.70703125,8259.6142578125,12045.701171875,10750.2939453125,11044.3427734375,-5125.20458984375,0.0,12705.326171875,15896.955078125,4971.02734375,5590.12060546875,5712.50927734375,9398.4599609375,6419.02294921875,14886.8564453125,11416.2763671875,27344.2265625,-965.59521484375,3803.571044921875,8162.65771484375,18041.9296875,-5839.666015625,5742.70849609375,22950.96875,-5806.287109375,-3502.368896484375,8203.9833984375,13891.8564453125,14922.619140625,9264.9462890625,11477.470703125,9818.0771484375,-0.0,6294.25048828125,32479.763671875,35565.69140625,12332.5986328125,22830.962890625,18615.72265625,-4351.13916015625,-3367.264892578125,7977.48583984375,19426.345703125,11634.826171875,16893.544921875,13470.6494140625,4272.4609375,713.666259765625,14061.927734375,0.0,5892.1181640625,10417.3017578125,10568.30078125,9650.3896484375,15319.9833984375,12088.6162109375,20069.28125,-11301.041015625,6165.50439453125,11163.552734375,4707.97216796875,3503.95849609375,3356.138916015625,0.0,13184.5478515625
8681.615234375,6798.90283203125,16804.537109375,12157.7578125,20927.587890625,8842.9453125,11823.177734375,17143.884765625,8262.7939453125,12052.853515625,10744.73046875,11034.01171875,-5124.41015625,0.0,12696.583984375,15898.5458984375,4963.875,5586.1474609375,5712.50927734375,9403.228515625,6415.84375,14883.677734375,11411.5078125,27341.841796875,-976.721435546875,3803.571044921875,8156.2998046875,18043.517578125,-5852.38134765625,5742.70849609375,22946.19921875,-5815.82421875,-3511.111083984375,8203.1884765625,13887.087890625,14921.029296875,9260.9716796875,11476.67578125,9783.1083984375,-0.0,6289.48193359375,32483.73828125,35560.92578125,12330.21484375,22828.578125,18619.6953125,-4370.21240234375,-3410.180419921875,7959.20654296875,19423.9609375,11624.4951171875,16895.13671875,13477.0078125,4231.9296875,699.3611450195312,14052.390625,0.0,5880.197265625,10426.044921875,10576.248046875,9648.7998046875,15319.9833984375,12089.412109375,20081.201171875,-11312.1669921875,6160.736328125,11154.810546875,4705.587890625,3503.16357421875,3368.059814453125,0.0,13211.568359375
8691.1513671875,6749.6298828125,16787.84765625,12176.037109375,20922.025390625,8834.203125,11814.4345703125,17127.990234375,8248.48828125,12024.2431640625,10743.935546875,11022.8857421875,-5124.41015625,0.0,12689.431640625,15882.650390625,4962.28564453125,5580.583984375,5702.177734375,9379.38671875,6411.87060546875,14884.4716796875,11405.150390625,27336.279296875,-979.900390625,3797.21337890625,8150.73681640625,18031.59765625,-5857.9443359375,5745.8876953125,22944.609375,-5828.53955078125,-3520.647705078125,8210.341796875,13883.908203125,14919.4404296875,9250.640625,11467.93359375,9748.935546875,-0.0,6290.27685546875,32486.123046875,35556.953125,12320.677734375,22818.24609375,18603.80078125,-4380.5439453125,-3423.69091796875,7956.02783203125,19413.62890625,11618.1376953125,16879.240234375,13485.7490234375,4221.59814453125,696.1822509765625,14040.4697265625,0.0,5869.0703125,10415.712890625,10547.6376953125,9628.13671875,15315.21484375,12076.6953125,20024.77734375,-11313.755859375,6155.9677734375,11147.658203125,4660.28857421875,3498.395263671875,3298.12353515625,0.0,13151.962890625
8685.5888671875,6663.79931640625,16762.4140625,12214.978515625,20925.998046875,8831.0244140625,11812.845703125,17116.865234375,8238.9521484375,11999.607421875,10746.3193359375,11026.859375,-5123.615234375,0.0,12692.6103515625,15872.3203125,4965.46435546875,5579.78955078125,5697.4091796875,9358.7236328125,6414.2548828125,14887.650390625,11406.7392578125,27332.306640625,-979.1055908203125,3794.0341796875,8153.91552734375,18027.625,-5851.5869140625,5754.62939453125,22945.404296875,-5827.7451171875,-3519.05810546875,8221.466796875,13885.498046875,14918.64453125,9249.8466796875,11462.37109375,9760.0625,-0.0,6299.01904296875,32477.37890625,35559.3359375,12316.7041015625,22813.478515625,18590.291015625,-4388.4912109375,-3371.23876953125,7961.5908203125,19409.65625,11622.111328125,16870.498046875,13491.3125,4231.134765625,697.771728515625,14035.7021484375,0.0,5867.4814453125,10410.1494140625,10526.974609375,9615.4208984375,15312.8310546875,12066.3642578125,19969.939453125,-11308.9873046875,6155.9677734375,11148.453125,4640.42041015625,3501.57421875,3249.645263671875,0.0,13078.0537109375
8673.66796875,6699.56201171875,16761.62109375,12179.2158203125,20930.767578125,8831.0244140625,11816.0244140625,17120.04296875,8239.74609375,11997.22265625,10738.373046875,11031.6279296875,-5125.99951171875,0.0,12699.763671875,15874.7041015625,4963.875,5581.37890625,5697.4091796875,9358.7236328125,6416.638671875,14882.087890625,11411.5078125,27333.1015625,-979.1055908203125,3796.41845703125,8158.68359375,18030.802734375,-5850.7919921875,5760.19287109375,22944.609375,-5819.79736328125,-3517.46875,8205.5732421875,13887.8818359375,14917.0556640625,9254.615234375,11460.78125,9761.6513671875,-0.0,6304.58203125,32468.634765625,35564.10546875,12316.7041015625,22817.453125,18589.49609375,-4401.20703125,-3359.31787109375,7963.97509765625,19412.8359375,11630.05859375,16872.8828125,13481.7763671875,4247.02978515625,693.0033569335938,14038.0859375,0.0,5869.0703125,10412.5341796875,10527.7705078125,9618.599609375,15314.419921875,12066.3642578125,19977.888671875,-11309.783203125,6155.1728515625,11157.1953125,4650.75146484375,3507.931884765625,3260.771484375,0.0,13060.5693359375
8637.9052734375,6779.82958984375,16776.720703125,12149.810546875,20928.3828125,8823.0771484375,11810.4619140625,17110.505859375,8233.3876953125,11982.91796875,10730.42578125,11033.2177734375,-5124.41015625,0.0,12690.2265625,15864.3720703125,4961.49072265625,5577.4052734375,5690.2568359375,9348.392578125,6417.43310546875,14873.345703125,11406.7392578125,27325.154296875,-986.2581787109375,3793.239501953125,8151.53125,18017.29296875,-5849.9970703125,5751.451171875,22940.634765625,-5823.77099609375,-3513.4951171875,8195.2412109375,13885.498046875,14910.6982421875,9245.8720703125,11452.0390625,9763.2412109375,-0.0,6306.17138671875,32459.896484375,35559.3359375,12307.9619140625,22807.916015625,18577.576171875,-4414.71728515625,-3351.37060546875,7964.7705078125,19411.24609375,11619.7275390625,16863.345703125,13465.880859375,4260.5400390625,688.2349853515625,14053.185546875,0.0,5894.501953125,10409.35546875,10510.28515625,9617.8056640625,15307.267578125,12056.8271484375,19981.861328125,-11312.9619140625,6159.94140625,11147.658203125,4619.75732421875,3503.95849609375,3227.392822265625,0.0,13033.548828125
8621.2158203125,6835.46044921875,16778.310546875,12160.1416015625,20936.330078125,8827.0498046875,11815.23046875,17127.990234375,8238.15625,11990.865234375,10728.8359375,11036.396484375,-5115.66796875,0.0,12691.0205078125,15883.4453125,4965.46435546875,5583.76318359375,5697.4091796875,9355.544921875,6422.99658203125,14878.9091796875,11410.712890625,27331.509765625,-983.0792846679688,3792.44482421875,8152.32568359375,18029.212890625,-5843.63916015625,5736.35107421875,22945.404296875,-5822.181640625,-3503.16357421875,8201.599609375,13893.4453125,14916.2607421875,9250.640625,11459.19140625,9729.0673828125,-0.0,6318.88720703125,32463.8671875,35565.69140625,12315.9091796875,22811.09375,18587.11328125,-4424.25390625,-3345.807373046875,7970.3330078125,19412.8359375,11620.521484375,16881.625,13465.0869140625,4264.513671875,688.2349853515625,14065.9013671875,0.0,5938.2119140625,10405.380859375,10529.3583984375,9630.5205078125,15312.03515625,12061.595703125,19997.755859375,-11310.5771484375,6164.70947265625,11147.658203125,4611.01513671875,3508.726806640625,3220.240234375,0.0,13051.033203125
8640.2890625,6852.94482421875,16815.662109375,12176.8310546875,20937.125,8834.998046875,11818.4091796875,17139.912109375,8238.9521484375,12000.4013671875,10734.3984375,11044.3427734375,-5108.51513671875,0.0,12694.19921875,15898.5458984375,4969.43798828125,5586.9423828125,5702.177734375,9361.9033203125,6426.17578125,14883.677734375,11412.302734375,27337.07421875,-980.6951293945312,3798.008056640625,8145.1728515625,18045.107421875,-5840.46044921875,5737.14599609375,22949.376953125,-5823.77099609375,-3502.368896484375,8207.162109375,13896.625,14918.64453125,9253.8193359375,11467.1396484375,9715.556640625,-0.0,6320.4765625,32471.01953125,35565.69140625,12323.8564453125,22816.658203125,18595.060546875,-4410.74365234375,-3352.165283203125,7968.7431640625,19419.98828125,11623.7001953125,16895.13671875,13475.41796875,4261.3349609375,693.0033569335938,14077.822265625,0.0,5941.39111328125,10401.408203125,10550.0224609375,9643.2373046875,15314.419921875,12067.1591796875,20000.935546875,-11308.193359375,6174.24609375,11151.6318359375,4630.0888671875,3503.16357421875,3235.340087890625,0.0,13074.875
8636.3154296875,6819.56640625,16792.615234375,12150.60546875,20922.025390625,8824.666015625,11806.48828125,17122.427734375,8224.646484375,11989.2763671875,10728.8359375,11036.396484375,-5116.462890625,0.0,12680.689453125,15877.0888671875,4957.51708984375,5575.81591796875,5687.078125,9349.1865234375,6413.4599609375,14870.9609375,11399.5869140625,27323.564453125,-983.0792846679688,3786.881591796875,8140.40478515625,18030.802734375,-5847.61279296875,5733.171875,22937.45703125,-5831.71826171875,-3514.289794921875,8192.0625,13882.3193359375,14906.7236328125,9241.1044921875,11452.0390625,9735.4248046875,-0.0,6303.787109375,32457.51171875,35549.80078125,12310.345703125,22803.94140625,18581.548828125,-4397.2333984375,-3363.29150390625,7964.7705078125,19410.451171875,11608.6005859375,16874.470703125,13461.11328125,4260.5400390625,689.8244018554688,14064.3115234375,0.0,5903.244140625,10386.3076171875,10526.974609375,9636.87890625,15301.7041015625,12054.443359375,19991.3984375,-11315.345703125,6168.68359375,11137.326171875,4612.6044921875,3481.705810546875,3238.51904296875,0.0,13074.875
8653.0048828125,6814.7978515625,16768.7734375,12154.5791015625,20924.41015625,8831.0244140625,11809.6669921875,17126.40234375,8234.9775390625,12001.9912109375,10735.98828125,11041.1640625,-5118.8466796875,0.0,12680.689453125,15880.2666015625,4960.69580078125,5578.99462890625,5691.05126953125,9363.4921875,6415.04931640625,14875.7294921875,11405.150390625,27328.33203125,-982.2845458984375,3789.265869140625,8155.50537109375,18031.59765625,-5842.8447265625,5741.119140625,22939.83984375,-5819.00244140625,-3515.87939453125,8195.2412109375,13883.908203125,14910.6982421875,9245.8720703125,11457.6025390625,9734.630859375,-0.0,6302.19775390625,32465.45703125,35554.5703125,12314.3193359375,22807.916015625,18589.49609375,-4391.67041015625,-3368.059814453125,7963.97509765625,19416.013671875,11609.3955078125,16877.650390625,13450.7822265625,4279.61328125,693.0033569335938,14066.6962890625,0.0,5892.1181640625,10405.380859375,10538.1015625,9644.03125,15307.267578125,12061.595703125,20014.4453125,-11310.5771484375,6175.041015625,11138.916015625,4636.4462890625,3495.21630859375,3270.308349609375,0.0,13105.0751953125
8678.4365234375,6826.71875,16760.03125,12186.3681640625,20947.45703125,8850.09765625,11829.53515625,17144.6796875,8258.8193359375,12025.0390625,10750.2939453125,11058.6484375,-5113.28369140625,0.0,12700.5576171875,15900.9306640625,4980.56396484375,5598.86328125,5712.50927734375,9387.333984375,6436.5068359375,14900.3671875,11425.0185546875,27351.37890625,-975.1319580078125,3812.31298828125,8176.962890625,18051.466796875,-5824.56591796875,5759.39794921875,22962.09375,-5796.75048828125,-3499.190185546875,8219.8779296875,13902.9814453125,14932.9501953125,9265.740234375,11478.2646484375,9731.4521484375,-0.0,6326.833984375,32494.861328125,35575.23046875,12334.982421875,22828.578125,18611.75,-4396.4384765625,-3376.8017578125,7983.84375,19438.267578125,11628.46875,16895.9296875,13464.2919921875,4301.8662109375,712.0768432617188,14084.9755859375,0.0,5914.3701171875,10427.6337890625,10560.353515625,9659.130859375,15327.1357421875,12083.84765625,20039.08203125,-11295.4775390625,6192.525390625,11157.1953125,4668.23583984375,3523.82666015625,3295.739501953125,0.0,13124.9423828125
8684.7939453125,6826.71875,16815.662109375,12230.873046875,20957.7890625,8862.8134765625,11842.2509765625,17160.57421875,8269.9462890625,12039.34375,10773.3408203125,11068.98046875,-5104.5419921875,0.0,12710.0947265625,15915.2353515625,4995.6640625,5612.37353515625,5723.63525390625,9398.4599609375,6448.427734375,14915.466796875,11436.14453125,27361.7109375,-961.62158203125,3827.412841796875,8171.39892578125,18071.33203125,-5811.85009765625,5779.2666015625,22977.193359375,-5793.5712890625,-3484.090087890625,8238.9521484375,13914.90234375,14945.666015625,9276.8671875,11491.775390625,9762.4462890625,-0.0,6333.98681640625,32510.7578125,35583.97265625,12350.876953125,22840.5,18626.0546875,-4371.8017578125,-3364.086181640625,7997.353515625,19455.751953125,11638.80078125,16912.619140625,13488.1337890625,4293.91845703125,726.3819580078125,14099.2802734375,0.0,5940.59619140625,10433.9912109375,10573.0693359375,9660.720703125,15336.6728515625,12093.384765625,20052.591796875,-11283.556640625,6202.8564453125,11166.7314453125,4665.8515625,3530.979248046875,3302.097412109375,0.0,13155.9375
8648.236328125,6808.43994140625,16830.763671875,12195.904296875,20945.072265625,8858.83984375,11831.1240234375,17165.341796875,8261.998046875,12044.1123046875,10766.9833984375,11059.443359375,-5116.462890625,0.0,12697.37890625,15920.796875,4988.51171875,5603.63134765625,5716.482421875,9399.2548828125,6440.48046875,14905.134765625,11427.40234375,27355.3515625,-968.774169921875,3816.286865234375,8158.68359375,18074.51171875,-5833.3076171875,5770.5244140625,22968.451171875,-5811.0556640625,-3480.9111328125,8230.208984375,13904.5712890625,14937.71875,9268.919921875,11487.0068359375,9672.6416015625,-0.0,6322.06591796875,32499.630859375,35574.4375,12346.9033203125,22832.552734375,18625.259765625,-4366.2392578125,-3371.23876953125,7979.86962890625,19451.77734375,11627.673828125,16917.38671875,13473.828125,4283.5869140625,716.0504760742188,14092.1279296875,0.0,5939.0068359375,10421.2763671875,10588.1689453125,9641.6474609375,15331.904296875,12090.2060546875,20060.5390625,-11297.06640625,6194.11474609375,11156.3994140625,4656.31494140625,3515.87939453125,3311.634033203125,0.0,13178.984375
8614.857421875,6779.03515625,16748.904296875,12207.03125,20937.919921875,8848.5078125,11821.587890625,17147.859375,8247.693359375,12035.3701171875,10749.4990234375,11048.3173828125,-5129.97314453125,0.0,12687.046875,15903.314453125,4979.76904296875,5594.0947265625,5704.5615234375,9385.7451171875,6436.5068359375,14897.982421875,11417.8662109375,27343.431640625,-983.8739624023438,3809.928955078125,8158.68359375,18062.591796875,-5849.20263671875,5769.7294921875,22960.50390625,-5822.9765625,-3488.8583984375,8230.208984375,13896.625,14929.771484375,9257.79296875,11471.9072265625,9677.41015625,-0.0,6321.271484375,32494.068359375,35566.48828125,12333.3935546875,22821.42578125,18611.75,-4395.6435546875,-3387.13330078125,7964.7705078125,19442.240234375,11615.7529296875,16899.904296875,13460.318359375,4254.9765625,701.745361328125,14084.9755859375,0.0,5911.98583984375,10402.9970703125,10564.3271484375,9625.7529296875,15321.572265625,12078.28515625,20040.669921875,-11308.193359375,6188.55126953125,11142.8896484375,4635.65185546875,3499.98486328125,3329.912841796875,0.0,13175.8046875
8620.421875,6763.93505859375,16786.255859375,12197.494140625,20940.3046875,8846.9189453125,11823.177734375,17143.091796875,8246.8984375,12025.0390625,10743.935546875,11044.3427734375,-5123.615234375,0.0,12691.8154296875,15897.7509765625,4980.56396484375,5592.5048828125,5703.76708984375,9377.0029296875,6434.91748046875,14899.5712890625,11417.0712890625,27343.431640625,-987.0529174804688,3808.33935546875,8163.4521484375,18058.619140625,-5847.61279296875,5771.31884765625,22961.298828125,-5816.61865234375,-3496.010986328125,8231.00390625,13896.625,14932.1552734375,9260.9716796875,11471.9072265625,9729.0673828125,-0.0,6319.681640625,32498.04296875,35568.875,12330.21484375,22823.810546875,18609.365234375,-4404.38623046875,-3379.18603515625,7966.359375,19439.0625,11621.31640625,16895.9296875,13464.2919921875,4244.6455078125,673.9298706054688,14081.7958984375,0.0,5882.5810546875,10407.765625,10559.55859375,9626.5478515625,15321.572265625,12073.5166015625,20020.802734375,-11310.5771484375,6185.373046875,11147.658203125,4642.8046875,3508.726806640625,3302.89208984375,0.0,13154.34765625
8606.1162109375,6749.6298828125,16807.71484375,12180.0107421875,20923.615234375,8828.6396484375,11815.23046875,17127.1953125,8239.74609375,12009.9384765625,10736.783203125,11031.6279296875,-5118.8466796875,0.0,12688.63671875,15880.2666015625,4967.0537109375,5578.19970703125,5692.640625,9366.671875,6414.2548828125,14883.677734375,11405.150390625,27330.716796875,-992.6160278320312,3791.650146484375,8153.91552734375,18039.544921875,-5846.818359375,5756.21923828125,22946.19921875,-5825.36083984375,-3515.87939453125,8207.95703125,13881.5244140625,14916.2607421875,9250.640625,11459.986328125,9827.6142578125,-0.0,6292.6611328125,32478.171875,35557.74609375,12315.9091796875,22815.86328125,18596.6484375,-4390.0810546875,-3379.18603515625,7945.69677734375,19421.578125,11617.3427734375,16878.447265625,13475.41796875,4229.54541015625,651.6774291992188,14061.927734375,0.0,5848.40771484375,10404.5869140625,10545.25390625,9613.037109375,15310.4462890625,12062.390625,20016.828125,-11319.3193359375,6171.06787109375,11145.2744140625,4664.26220703125,3494.421630859375,3290.17626953125,0.0,13130.505859375
8621.2158203125,6761.55078125,16806.125,12183.189453125,20920.435546875,8830.2294921875,11817.6142578125,17127.1953125,8238.9521484375,12019.474609375,10743.935546875,11034.806640625,-5120.43603515625,0.0,12682.2783203125,15881.0615234375,4967.0537109375,5580.583984375,5695.81982421875,9373.82421875,6411.07568359375,14885.2666015625,11406.7392578125,27331.509765625,-987.84765625,3795.623779296875,8157.88916015625,18034.77734375,-5841.25537109375,5753.04052734375,22946.19921875,-5822.9765625,-3529.3896484375,8215.109375,13880.7294921875,14917.0556640625,9252.23046875,11462.37109375,9852.25,-0.0,6291.0712890625,32482.146484375,35560.92578125,12316.7041015625,22815.068359375,18600.623046875,-4386.90185546875,-3384.749267578125,7953.6435546875,19421.578125,11611.779296875,16878.447265625,13473.828125,4223.982421875,697.771728515625,14062.72265625,0.0,5880.99169921875,10405.380859375,10547.6376953125,9622.57421875,15312.8310546875,12065.5703125,20023.98046875,-11310.5771484375,6175.8359375,11139.7099609375,4675.38818359375,3487.26904296875,3310.04443359375,0.0,13163.8837890625
8641.87890625,6765.5244140625,16804.537109375,12176.8310546875,20932.35546875,8841.35546875,11827.1513671875,17140.70703125,8252.4619140625,12036.9599609375,10747.9091796875,11040.3701171875,-5126.79443359375,0.0,12689.431640625,15896.955078125,4977.38525390625,5590.91552734375,5707.74072265625,9389.7177734375,6423.79150390625,14895.5986328125,11417.8662109375,27343.431640625,-978.3109130859375,3804.365966796875,8161.8623046875,18047.490234375,-5840.46044921875,5743.50341796875,22956.529296875,-5812.64501953125,-3517.46875,8226.2353515625,13892.650390625,14927.3876953125,9262.5615234375,11475.0859375,9820.4609375,-0.0,6303.787109375,32489.298828125,35568.875,12327.03515625,22824.60546875,18614.927734375,-4376.5703125,-3395.08056640625,7969.53857421875,19431.11328125,11618.931640625,16895.13671875,13469.0595703125,4247.82421875,717.639892578125,14063.517578125,0.0,5908.80712890625,10418.09765625,10565.9169921875,9630.5205078125,15322.3671875,12079.875,20032.724609375,-11303.4248046875,6179.8095703125,11147.658203125,4680.15673828125,3504.753173828125,3324.349609375,0.0,13186.13671875
8618.037109375,6766.3193359375,16783.080078125,12151.400390625,20937.919921875,8838.1767578125,11830.330078125,17138.322265625,8255.640625,12021.859375,10751.8837890625,11045.9326171875,-5116.462890625,0.0,12701.3525390625,15893.7783203125,4978.1796875,5592.5048828125,5708.53564453125,9380.9765625,6426.17578125,14892.4189453125,11419.455078125,27344.2265625,-978.3109130859375,3803.571044921875,8166.630859375,18041.9296875,-5832.51318359375,5745.0927734375,22957.32421875,-5804.69775390625,-3519.05810546875,8207.162109375,13895.8291015625,14927.3876953125,9265.740234375,11475.0859375,9829.998046875,-0.0,6313.32421875,32483.73828125,35573.64453125,12323.0615234375,22829.375,18608.5703125,-4369.41748046875,-3379.18603515625,7966.359375,19426.345703125,11631.6484375,16892.751953125,13465.880859375,4272.4609375,717.639892578125,14061.1337890625,0.0,5908.01220703125,10417.3017578125,10555.5849609375,9639.2626953125,15325.5458984375,12078.28515625,20017.623046875,-11297.8623046875,6181.39892578125,11158.7841796875,4667.44091796875,3524.621337890625,3290.17626953125,0.0,13125.7373046875
8608.5,6766.3193359375,16785.462890625,12160.9375,20931.5625,8834.203125,11830.330078125,17135.939453125,8252.4619140625,12009.1435546875,10748.7041015625,11047.5224609375,-5118.8466796875,0.0,12705.326171875,15890.5986328125,4968.64306640625,5588.53125,5705.3564453125,9373.0283203125,6419.8173828125,14888.4462890625,11417.8662109375,27341.046875,-983.8739624023438,3800.39208984375,8172.1943359375,18041.9296875,-5838.87109375,5749.861328125,22952.556640625,-5816.61865234375,-3527.80029296875,8202.3935546875,13891.060546875,14924.208984375,9267.330078125,11472.7021484375,9829.203125,-0.0,6302.9921875,32482.146484375,35574.4375,12319.8828125,22830.962890625,18605.390625,-4381.33837890625,-3365.67578125,7964.7705078125,19421.578125,11634.826171875,16889.572265625,13470.6494140625,4281.20263671875,713.666259765625,14061.927734375,0.0,5900.06494140625,10418.09765625,10547.6376953125,9639.2626953125,15323.162109375,12074.3115234375,20011.267578125,-11302.630859375,6182.19384765625,11162.7578125,4660.28857421875,3524.621337890625,3271.10302734375,0.0,13095.5380859375
8647.44140625,6795.724609375,16797.384765625,12168.08984375,20942.6875,8846.1240234375,11844.634765625,17150.244140625,8271.53515625,12032.9853515625,10758.240234375,11052.291015625,-5106.92578125,0.0,12718.041015625,15903.314453125,4975.0009765625,5598.068359375,5719.66162109375,9395.2822265625,6430.94384765625,14899.5712890625,11429.787109375,27352.96875,-984.668701171875,3805.955078125,8184.90966796875,18051.466796875,-5833.3076171875,5752.24560546875,22962.09375,-5818.2080078125,-3518.263671875,8213.5205078125,13902.9814453125,14936.1298828125,9279.2509765625,11487.0068359375,9783.904296875,-0.0,6317.29736328125,32496.453125,35586.35546875,12331.8037109375,22846.857421875,18622.875,-4394.84912109375,-3369.649169921875,7973.51171875,19432.703125,11646.748046875,16903.08203125,13483.365234375,4289.9453125,704.1295166015625,14070.669921875,0.0,5903.244140625,10440.349609375,10565.1220703125,9645.62109375,15334.2890625,12090.2060546875,20056.56640625,-11298.65625,6186.16748046875,11176.2685546875,4657.10986328125,3538.1318359375,3294.94482421875,0.0,13140.837890625
8664.130859375,6805.26123046875,16790.232421875,12157.7578125,20930.767578125,8834.203125,11830.330078125,17132.759765625,8256.435546875,12010.7333984375,10754.267578125,11042.75390625,-5099.7734375,0.0,12702.1474609375,15887.4189453125,4969.43798828125,5589.326171875,5710.919921875,9377.796875,6420.6123046875,14891.6240234375,11419.455078125,27342.638671875,-984.668701171875,3794.8291015625,8169.81005859375,18040.337890625,-5827.7451171875,5748.27197265625,22950.96875,-5828.53955078125,-3521.4423828125,8205.5732421875,13895.03515625,14927.3876953125,9265.740234375,11474.2919921875,9771.1875,-0.0,6310.14501953125,32485.32421875,35574.4375,12321.47265625,22833.34765625,18605.390625,-4395.6435546875,-3379.18603515625,7966.359375,19425.55078125,11630.05859375,16886.392578125,13471.4443359375,4273.255859375,695.3875122070312,14068.2861328125,0.0,5888.93896484375,10433.197265625,10539.69140625,9645.62109375,15323.162109375,12076.6953125,20028.75,-11297.8623046875,6182.19384765625,11159.5791015625,4633.26806640625,3524.621337890625,3251.23486328125,0.0,13103.4853515625
8668.8994140625,6798.1083984375,16781.48828125,12149.810546875,20922.025390625,8823.0771484375,11813.640625,17124.810546875,8228.619140625,11989.2763671875,10741.5517578125,11037.1904296875,-5106.92578125,0.0,12675.921875,15878.677734375,4958.3115234375,5578.99462890625,5695.81982421875,9350.7763671875,6408.69140625,14881.29296875,11407.5341796875,27329.126953125,-988.642333984375,3783.702880859375,8154.7099609375,18033.98046875,-5841.25537109375,5748.27197265625,22942.224609375,-5838.076171875,-3531.77392578125,8197.625,13882.3193359375,14915.466796875,9251.435546875,11462.37109375,9755.2939453125,-0.0,6301.40283203125,32467.048828125,35560.92578125,12311.140625,22809.505859375,18589.49609375,-4398.82275390625,-3361.701904296875,7962.38623046875,19416.80859375,11603.83203125,16876.85546875,13454.7548828125,4261.3349609375,684.2613525390625,14061.1337890625,0.0,5883.37548828125,10404.5869140625,10534.9228515625,9640.0576171875,15310.4462890625,12058.4169921875,19974.708984375,-11302.630859375,6177.42529296875,11133.353515625,4622.93603515625,3480.9111328125,3228.982177734375,0.0,13067.72265625
8657.7734375,6788.57177734375,16767.978515625,12151.400390625,20922.818359375,8819.8974609375,11808.078125,17127.1953125,8223.8515625,11994.0439453125,10731.220703125,11033.2177734375,-5109.31005859375,0.0,12668.7685546875,15881.0615234375,4953.54296875,5575.021484375,5691.05126953125,9351.5712890625,6406.30712890625,14877.3193359375,11403.560546875,27328.33203125,-987.84765625,3778.139892578125,8142.7890625,18037.16015625,-5849.9970703125,5750.65625,22939.046875,-5838.87109375,-3540.515869140625,8193.65234375,13878.345703125,14911.4921875,9246.6669921875,11462.37109375,9738.6044921875,-0.0,6292.6611328125,32464.6640625,35557.74609375,12310.345703125,22803.1484375,18590.291015625,-4417.1015625,-3365.67578125,7958.412109375,19413.62890625,11596.6796875,16879.240234375,13460.318359375,4251.00341796875,676.3140258789062,14052.390625,0.0,5868.27587890625,10390.28125,10542.0751953125,9626.5478515625,15306.47265625,12054.443359375,19985.833984375,-11311.3720703125,6170.27294921875,11126.9951171875,4621.34716796875,3467.40087890625,3247.260986328125,0.0,13085.2060546875
8645.8525390625,6790.1611328125,16783.080078125,12160.9375,20915.666015625,8824.666015625,11812.845703125,17131.962890625,8234.18359375,12011.5283203125,10736.783203125,11033.2177734375,-5128.3837890625,0.0,12681.484375,15887.4189453125,4954.337890625,5576.6103515625,5698.2041015625,9369.8505859375,6407.896484375,14879.703125,11405.150390625,27334.689453125,-989.4371337890625,3781.318603515625,8137.22607421875,18046.697265625,-5856.35498046875,5749.06689453125,22941.431640625,-5845.228515625,-3535.74755859375,8199.21484375,13878.345703125,14916.2607421875,9249.8466796875,11469.5234375,9751.3203125,-0.0,6278.35595703125,32469.43359375,35556.15625,12317.498046875,22815.068359375,18600.623046875,-4417.1015625,-3368.8544921875,7949.669921875,19421.578125,11610.984375,16884.8046875,13469.0595703125,4247.82421875,677.9035034179688,14053.185546875,0.0,5855.560546875,10395.0498046875,10545.25390625,9617.0107421875,15310.4462890625,12064.7744140625,20014.4453125,-11320.1142578125,6168.68359375,11140.505859375,4618.962890625,3490.447998046875,3279.050048828125,0.0,13130.505859375
8665.720703125,6804.46630859375,16800.5625,12172.0625,20926.794921875,8838.970703125,11831.919921875,17156.6015625,8246.1044921875,12036.1640625,10763.0087890625,11038.7802734375,-5129.1787109375,0.0,12698.9677734375,15911.2607421875,4966.2587890625,5589.326171875,5714.8935546875,9386.5390625,6418.22802734375,14890.830078125,11420.25,27348.19921875,-975.9266967773438,3795.623779296875,8161.8623046875,18067.359375,-5844.43408203125,5755.42431640625,22950.96875,-5835.69189453125,-3515.87939453125,8204.77734375,13890.2666015625,14926.5927734375,9268.125,11486.212890625,9733.8359375,-0.0,6283.9189453125,32482.146484375,35568.875,12333.3935546875,22835.732421875,18622.080078125,-4386.10693359375,-3364.880859375,7964.7705078125,19439.0625,11630.05859375,16908.646484375,13488.1337890625,4254.9765625,693.0033569335938,14068.2861328125,0.0,5904.0390625,10397.4345703125,10571.4794921875,9630.5205078125,15324.751953125,12082.2587890625,20038.287109375,-11310.5771484375,6182.19384765625,11156.3994140625,4627.70458984375,3502.368896484375,3316.40234375,0.0,13167.8583984375
8672.873046875,6794.134765625,16778.310546875,12164.91015625,20937.125,8843.7392578125,11842.2509765625,17170.90625,8257.2294921875,12052.0595703125,10766.9833984375,11038.7802734375,-5130.767578125,0.0,12702.1474609375,15926.361328125,4973.41162109375,5596.47900390625,5724.43017578125,9400.8447265625,6429.35400390625,14897.982421875,11428.9921875,27354.55859375,-973.5425415039062,3800.39208984375,8181.7314453125,18071.33203125,-5838.87109375,5766.55078125,22959.708984375,-5830.92333984375,-3506.342529296875,8203.9833984375,13899.802734375,14933.7451171875,9276.8671875,11494.9541015625,9707.6103515625,-0.0,6302.9921875,32491.68359375,35579.203125,12338.1611328125,22844.47265625,18637.1796875,-4390.87548828125,-3375.21240234375,7974.30712890625,19443.830078125,11631.6484375,16922.951171875,13500.0546875,4266.10302734375,705.718994140625,14074.6435546875,0.0,5944.56982421875,10414.91796875,10592.142578125,9633.7001953125,15331.904296875,12093.384765625,20062.923828125,-11303.4248046875,6186.16748046875,11160.3740234375,4652.34130859375,3489.6533203125,3342.62841796875,0.0,13202.826171875
8637.9052734375,6789.3662109375,16802.9453125,12190.341796875,20933.947265625,8838.970703125,11829.53515625,17156.6015625,8251.6669921875,12028.2177734375,10762.21484375,11041.1640625,-5138.71533203125,0.0,12693.4052734375,15909.671875,4977.38525390625,5596.47900390625,5716.482421875,9383.361328125,6430.94384765625,14901.9560546875,11425.0185546875,27350.583984375,-976.721435546875,3794.8291015625,8169.81005859375,18061.001953125,-5838.076171875,5764.96142578125,22961.298828125,-5825.36083984375,-3499.98486328125,8215.109375,13899.0087890625,14931.361328125,9266.5361328125,11486.212890625,9716.3515625,-0.0,6310.14501953125,32493.275390625,35572.05078125,12330.21484375,22830.16796875,18622.080078125,-4395.6435546875,-3379.980712890625,7968.7431640625,19436.677734375,11622.111328125,16907.056640625,13496.8759765625,4264.513671875,705.718994140625,14071.46484375,0.0,5931.8544921875,10427.6337890625,10571.4794921875,9632.9052734375,15328.724609375,12083.0537109375,20021.59765625,-11301.041015625,6182.98876953125,11150.04296875,4645.9833984375,3498.395263671875,3290.970947265625,0.0,13145.6064453125
8609.294921875,6766.3193359375,16788.640625,12164.91015625,20927.587890625,8817.513671875,11816.0244140625,17116.0703125,8223.8515625,11974.17578125,10743.935546875,11030.0380859375,-5138.71533203125,0.0,12682.2783203125,15869.140625,4971.02734375,5583.76318359375,5696.61474609375,9339.650390625,6426.97021484375,14886.8564453125,11412.302734375,27330.716796875,-983.8739624023438,3775.755615234375,8157.09423828125,18030.802734375,-5846.0234375,5738.7353515625,22952.556640625,-5836.48681640625,-3499.98486328125,8204.77734375,13893.4453125,14917.8505859375,9251.435546875,11461.5751953125,9691.71484375,-0.0,6318.88720703125,32475.7890625,35562.515625,12306.373046875,22811.890625,18582.34375,-4414.71728515625,-3403.02783203125,7953.6435546875,19415.220703125,11610.1904296875,16866.525390625,13469.0595703125,4248.619140625,699.3611450195312,14047.623046875,0.0,5867.4814453125,10399.818359375,10507.9013671875,9621.779296875,15313.625,12054.443359375,19962.787109375,-11308.9873046875,6171.06787109375,11137.326171875,4588.7626953125,3478.527099609375,3183.6826171875,0.0,13026.396484375
8614.0634765625,6746.45068359375,16772.74609375,12145.8369140625,20922.818359375,8812.7451171875,11815.23046875,17108.91796875,8222.2626953125,11970.9970703125,10739.1669921875,11022.8857421875,-5137.12548828125,0.0,12677.5107421875,15861.98828125,4967.84814453125,5581.37890625,5694.23046875,9339.650390625,6419.02294921875,14880.498046875,11409.123046875,27325.154296875,-989.4371337890625,3773.371337890625,8154.7099609375,18022.060546875,-5854.765625,5729.1982421875,22948.583984375,-5838.87109375,-3522.237060546875,8195.2412109375,13887.8818359375,14913.876953125,9250.640625,11457.6025390625,9738.6044921875,-0.0,6307.7607421875,32471.01953125,35561.72265625,12300.0146484375,22815.068359375,18575.986328125,-4413.1279296875,-3428.459228515625,7949.669921875,19410.451171875,11607.0107421875,16861.7578125,13453.9599609375,4235.9033203125,702.5401000976562,14032.5234375,0.0,5848.40771484375,10399.0244140625,10499.9541015625,9618.599609375,15310.4462890625,12053.6494140625,19973.119140625,-11310.5771484375,6163.9150390625,11134.9423828125,4580.02099609375,3475.34814453125,3187.656494140625,0.0,13030.3701171875
8637.9052734375,6719.4306640625,16795.79296875,12145.0419921875,20915.666015625,8813.5400390625,11814.4345703125,17119.25,8233.3876953125,11986.8916015625,10750.2939453125,11020.5009765625,-5145.86767578125,0.0,12683.07421875,15873.9091796875,4967.0537109375,5579.78955078125,5696.61474609375,9353.955078125,6408.69140625,14884.4716796875,11407.5341796875,27328.33203125,-991.8212890625,3770.1923828125,8149.14697265625,18026.828125,-5861.12353515625,5725.22509765625,22946.19921875,-5830.92333984375,-3541.310546875,8200.8046875,13882.3193359375,14915.466796875,9250.640625,11463.9599609375,9808.5400390625,-0.0,6279.150390625,32474.994140625,35558.5390625,12301.6044921875,22819.837890625,18586.31640625,-4397.2333984375,-3414.94873046875,7948.87548828125,19409.65625,11613.369140625,16871.294921875,13470.6494140625,4226.36669921875,702.5401000976562,14032.5234375,0.0,5877.01806640625,10412.5341796875,10513.46484375,9623.3681640625,15312.8310546875,12059.2119140625,19993.78125,-11305.0146484375,6159.14697265625,11139.7099609375,4588.7626953125,3489.6533203125,3222.62451171875,0.0,13071.6962890625
8672.873046875,6747.24560546875,16813.27734375,12168.08984375,20929.97265625,8824.666015625,11832.7138671875,17134.34765625,8247.693359375,12003.5810546875,10764.5986328125,11035.6015625,-5133.94677734375,0.0,12698.173828125,15889.009765625,4980.56396484375,5594.0947265625,5713.30419921875,9369.0556640625,6419.8173828125,14898.77734375,11422.6337890625,27344.2265625,-979.900390625,3778.139892578125,8162.65771484375,18040.337890625,-5842.05029296875,5747.47705078125,22960.50390625,-5815.029296875,-3530.979248046875,8215.904296875,13895.8291015625,14928.181640625,9266.5361328125,11478.2646484375,9826.0244140625,-0.0,6291.8662109375,32482.94140625,35572.84375,12317.498046875,22835.732421875,18603.80078125,-4376.5703125,-3379.980712890625,7959.20654296875,19418.3984375,11626.8798828125,16887.1875,13492.107421875,4256.56640625,714.4609985351562,14053.98046875,0.0,5880.197265625,10423.66015625,10538.8955078125,9642.44140625,15326.3408203125,12074.3115234375,20008.8828125,-11297.06640625,6176.63037109375,11154.015625,4618.962890625,3503.16357421875,3235.340087890625,0.0,13089.974609375
8681.615234375,6798.1083984375,16825.19921875,12191.931640625,20939.5078125,8835.79296875,11839.072265625,17139.912109375,8255.640625,12011.5283203125,10773.3408203125,11045.9326171875,-5127.5888671875,0.0,12700.5576171875,15894.5712890625,4990.10107421875,5602.83642578125,5721.2509765625,9375.4130859375,6430.94384765625,14907.51953125,11432.96484375,27353.763671875,-969.5689086914062,3790.85546875,8174.57861328125,18049.08203125,-5830.92333984375,5758.603515625,22970.833984375,-5811.0556640625,-3514.289794921875,8226.2353515625,13906.1611328125,14938.513671875,9275.27734375,11487.8017578125,9799.00390625,-0.0,6309.3505859375,32490.890625,35582.3828125,12327.03515625,22842.884765625,18610.158203125,-4347.9599609375,-3369.649169921875,7970.3330078125,19431.91015625,11630.05859375,16891.95703125,13494.4912109375,4274.84521484375,712.87158203125,14065.9013671875,0.0,5858.7392578125,10433.9912109375,10539.69140625,9646.416015625,15335.0830078125,12083.0537109375,20008.8828125,-11293.8876953125,6190.14111328125,11155.60546875,4639.62548828125,3509.521484375,3252.823974609375,0.0,13086.7958984375
8658.568359375,6812.41357421875,16797.384765625,12173.65234375,20935.53515625,8834.203125,11838.27734375,17142.294921875,8254.05078125,12013.912109375,10768.5732421875,11040.3701171875,-5128.3837890625,0.0,12692.6103515625,15895.3662109375,4982.1533203125,5601.2470703125,5718.86669921875,9377.0029296875,6429.35400390625,14903.544921875,11430.5810546875,27349.791015625,-978.3109130859375,3792.44482421875,8177.75732421875,18053.0546875,-5829.33447265625,5750.65625,22966.861328125,-5824.56591796875,-3515.08447265625,8223.056640625,13903.77734375,14935.333984375,9272.0986328125,11484.623046875,9768.8037109375,-0.0,6302.19775390625,32493.275390625,35580.796875,12327.03515625,22841.294921875,18610.158203125,-4369.41748046875,-3383.954345703125,7968.7431640625,19436.677734375,11622.111328125,16891.95703125,13491.3125,4267.6923828125,698.56640625,14064.3115234375,0.0,5872.24951171875,10429.22265625,10539.69140625,9632.9052734375,15333.4931640625,12083.0537109375,20012.85546875,-11300.24609375,6182.19384765625,11148.453125,4610.22021484375,3507.13720703125,3256.7978515625,0.0,13101.8955078125
8661.7470703125,6798.1083984375,16767.978515625,12194.3154296875,20940.3046875,8839.7666015625,11844.634765625,17161.369140625,8254.845703125,12029.806640625,10771.7509765625,11041.1640625,-5113.28369140625,0.0,12691.8154296875,15914.4404296875,4986.921875,5604.42578125,5723.63525390625,9385.7451171875,6433.328125,14909.1083984375,11435.349609375,27356.943359375,-981.4898071289062,3794.0341796875,8176.16748046875,18067.359375,-5823.77099609375,5750.65625,22971.630859375,-5819.00244140625,-3520.647705078125,8234.18359375,13909.33984375,14939.30859375,9278.45703125,11494.9541015625,9777.5458984375,-0.0,6303.787109375,32498.04296875,35586.35546875,12334.982421875,22845.267578125,18626.0546875,-4383.72265625,-3392.6962890625,7975.1015625,19440.650390625,11621.31640625,16911.029296875,13492.9013671875,4245.43994140625,706.5137329101562,14070.669921875,0.0,5917.54931640625,10420.4814453125,10565.1220703125,9644.03125,15339.056640625,12091.0009765625,20028.75,-11295.4775390625,6179.8095703125,11148.453125,4626.115234375,3493.626953125,3277.460693359375,0.0,13136.86328125
8675.2578125,6786.98193359375,16802.15234375,12188.751953125,20960.966796875,8862.8134765625,11862.9140625,17184.416015625,8273.125,12060.005859375,10782.0830078125,11052.291015625,-5098.18408203125,0.0,12709.2998046875,15939.0771484375,5002.81689453125,5623.49951171875,5745.0927734375,9410.380859375,6454.78564453125,14930.5654296875,11456.0126953125,27377.60546875,-964.800537109375,3815.491943359375,8188.08837890625,18094.380859375,-5806.287109375,5780.85546875,22990.703125,-5811.0556640625,-3492.03759765625,8246.1044921875,13929.2080078125,14961.560546875,9299.119140625,11515.6171875,9743.373046875,-0.0,6331.6025390625,32529.037109375,35605.4296875,12359.619140625,22864.341796875,18649.896484375,-4382.13330078125,-3404.6171875,7994.96923828125,19466.08203125,11638.0048828125,16935.66796875,13503.234375,4236.6982421875,723.2030029296875,14096.896484375,0.0,5903.244140625,10430.8125,10592.142578125,9660.720703125,15359.7197265625,12112.4580078125,20057.359375,-11272.4306640625,6204.4462890625,11164.34765625,4668.23583984375,3500.779296875,3317.991943359375,0.0,13198.05859375
8630.7529296875,6722.60888671875,16767.978515625,12183.9833984375,20938.71484375,8836.5869140625,11839.8662109375,17153.421875,8252.4619140625,12032.9853515625,10749.4990234375,11012.5537109375,-5130.767578125,0.0,12688.63671875,15907.287109375,4982.9482421875,5601.2470703125,5720.45654296875,9388.923828125,6434.91748046875,14914.671875,11431.3759765625,27354.55859375,-993.4107055664062,3786.881591796875,8161.06787109375,18063.38671875,-5842.8447265625,5748.27197265625,22970.041015625,-5837.28173828125,-3512.700439453125,8236.5673828125,13906.9560546875,14939.30859375,9277.6611328125,11490.185546875,9701.251953125,-0.0,6317.29736328125,32513.142578125,35583.1796875,12332.5986328125,22842.087890625,18624.46484375,-4414.71728515625,-3432.432861328125,7965.56494140625,19436.677734375,11618.931640625,16903.876953125,13465.0869140625,4188.2197265625,689.8244018554688,14058.7490234375,0.0,5811.0556640625,10407.765625,10568.30078125,9634.4951171875,15335.876953125,12087.822265625,20042.26171875,-11300.24609375,6171.8623046875,11142.8896484375,4618.16796875,3487.26904296875,3263.15576171875,0.0,13194.87890625
8556.8427734375,6709.0986328125,16756.853515625,12168.884765625,20937.919921875,8821.4873046875,11841.4560546875,17139.912109375,8253.2568359375,12017.0908203125,10748.7041015625,11028.44921875,-5126.79443359375,0.0,12698.173828125,15892.1875,4980.56396484375,5597.2734375,5715.68798828125,9378.5927734375,6431.73828125,14902.7509765625,11429.787109375,27347.40625,-998.973876953125,3774.960693359375,8179.34716796875,18037.955078125,-5846.818359375,5737.9404296875,22966.06640625,-5832.51318359375,-3522.237060546875,8224.646484375,13905.3662109375,14929.771484375,9278.45703125,11483.828125,9761.6513671875,-0.0,6313.32421875,32486.123046875,35586.35546875,12316.7041015625,22846.064453125,18614.134765625,-4402.79638671875,-3376.007080078125,7963.1806640625,19416.013671875,11626.8798828125,16891.95703125,13453.9599609375,4206.49853515625,696.9769897460938,14042.0595703125,0.0,5824.56591796875,10426.044921875,10561.943359375,9631.31640625,15331.109375,12083.0537109375,20013.650390625,-11305.0146484375,6171.06787109375,11154.810546875,4592.73681640625,3507.13720703125,3228.1875,0.0,13140.837890625
8543.33203125,6706.71484375,16798.177734375,12156.962890625,20924.41015625,8811.951171875,11839.8662109375,17134.34765625,8250.0771484375,12009.9384765625,10747.115234375,11037.1904296875,-5122.02587890625,0.0,12698.9677734375,15887.4189453125,4974.20654296875,5590.91552734375,5710.919921875,9372.234375,6419.8173828125,14890.03515625,11425.8125,27340.25390625,-1002.1527709960938,3767.013671875,8187.2939453125,18032.392578125,-5842.05029296875,5732.37744140625,22957.32421875,-5832.51318359375,-3527.80029296875,8200.009765625,13895.8291015625,14921.029296875,9276.8671875,11478.2646484375,9796.619140625,-0.0,6284.7138671875,32469.43359375,35579.99609375,12310.345703125,22844.47265625,18604.59765625,-4394.05419921875,-3356.138916015625,7948.87548828125,19408.068359375,11628.46875,16887.1875,13456.3447265625,4235.9033203125,708.1031494140625,14036.49609375,0.0,5874.6337890625,10422.0703125,10533.3330078125,9620.984375,15324.751953125,12078.28515625,20004.11328125,-11303.4248046875,6167.888671875,11155.60546875,4571.27880859375,3513.4951171875,3237.724365234375,0.0,13105.869140625
8590.2216796875,6736.11962890625,16798.97265625,12141.8642578125,20909.30859375,8799.2353515625,11823.177734375,17127.990234375,8234.9775390625,11997.22265625,10724.0673828125,11024.474609375,-5148.251953125,0.0,12684.6630859375,15881.8564453125,4960.69580078125,5576.6103515625,5698.2041015625,9356.33984375,6403.1279296875,14877.3193359375,11410.712890625,27328.33203125,-1018.04736328125,3755.092529296875,8161.8623046875,18028.41796875,-5856.35498046875,5724.43017578125,22943.01953125,-5836.48681640625,-3549.258056640625,8190.47265625,13879.935546875,14909.1083984375,9261.767578125,11465.5498046875,9799.7978515625,-0.0,6270.40869140625,32455.921875,35566.48828125,12300.80859375,22829.375,18593.46875,-4398.82275390625,-3368.059814453125,7940.92822265625,19398.53125,11614.958984375,16879.240234375,13442.833984375,4252.5927734375,693.798095703125,14020.6025390625,0.0,5889.73388671875,10410.9453125,10519.02734375,9602.7060546875,15312.03515625,12065.5703125,19980.271484375,-11313.755859375,6154.37841796875,11142.8896484375,4559.35791015625,3494.421630859375,3226.59814453125,0.0,13075.6689453125
8618.037109375,6790.9560546875,16780.6953125,12138.6845703125,20925.203125,8810.361328125,11835.0986328125,17138.322265625,8255.640625,12015.501953125,10742.3466796875,11031.6279296875,-5163.3515625,0.0,12699.763671875,15893.7783203125,4972.61669921875,5591.71044921875,5711.71435546875,9378.5927734375,6420.6123046875,14891.6240234375,11424.2236328125,27340.25390625,-1007.7158203125,3766.218994140625,8164.24658203125,18039.544921875,-5858.7392578125,5735.55615234375,22958.12109375,-5830.12890625,-3536.542236328125,8194.4462890625,13895.8291015625,14923.4130859375,9272.0986328125,11478.2646484375,9752.1142578125,-0.0,6298.22412109375,32471.01953125,35579.203125,12311.140625,22842.884765625,18607.775390625,-4394.84912109375,-3378.391357421875,7960.001953125,19408.068359375,11627.673828125,16890.3671875,13449.986328125,4274.84521484375,696.1822509765625,14033.3173828125,0.0,5888.14404296875,10440.349609375,10535.716796875,9600.3212890625,15326.3408203125,12079.080078125,20020.0078125,-11312.9619140625,6164.70947265625,11155.60546875,4605.4521484375,3519.852783203125,3244.876953125,0.0,13097.126953125
8623.599609375,6791.75048828125,16757.646484375,12113.25390625,20918.845703125,8803.2080078125,11827.9453125,17123.22265625,8246.8984375,12002.7861328125,10742.3466796875,11022.0908203125,-5162.55712890625,0.0,12690.2265625,15875.498046875,4961.49072265625,5582.96826171875,5701.38330078125,9370.64453125,6412.6650390625,14884.4716796875,11417.0712890625,27330.716796875,-1010.894775390625,3758.271484375,8154.7099609375,18027.625,-5868.27587890625,5715.68798828125,22951.76171875,-5848.40771484375,-3546.873779296875,8184.90966796875,13889.4716796875,14916.2607421875,9262.5615234375,11468.728515625,9720.3251953125,-0.0,6287.892578125,32468.634765625,35571.2578125,12301.6044921875,22834.935546875,18596.6484375,-4421.0751953125,-3419.717041015625,7946.4912109375,19400.119140625,11618.931640625,16873.677734375,13444.423828125,4270.87158203125,683.4666137695312,14030.138671875,0.0,5858.7392578125,10426.044921875,10519.822265625,9593.9638671875,15317.599609375,12068.748046875,20015.240234375,-11321.7041015625,6157.55712890625,11146.86328125,4603.86279296875,3519.05810546875,3232.161376953125,0.0,13094.7431640625
8644.263671875,6763.93505859375,16750.494140625,12115.6376953125,20893.416015625,8780.162109375,11808.078125,17100.96875,8222.2626953125,11983.7119140625,10723.2734375,10999.0439453125,-5164.146484375,0.0,12671.947265625,15854.0400390625,4938.44384765625,5561.5107421875,5680.7197265625,9349.982421875,6387.23388671875,14862.2197265625,11394.818359375,27310.84765625,-1035.5313720703125,3736.813720703125,8139.6103515625,18006.958984375,-5878.607421875,5692.640625,22930.302734375,-5864.30224609375,-3573.89453125,8169.01513671875,13865.6298828125,14893.2138671875,9244.283203125,11448.8603515625,9687.7412109375,-0.0,6256.8984375,32447.974609375,35551.38671875,12280.94140625,22817.453125,18579.1640625,-4444.9169921875,-3442.76416015625,7918.67529296875,19378.662109375,11600.6533203125,16853.013671875,13442.833984375,4250.20849609375,666.7772827148438,14013.44921875,0.0,5824.56591796875,10402.2021484375,10504.72265625,9601.1162109375,15296.935546875,12048.0849609375,19974.708984375,-11334.4189453125,6137.68896484375,11128.5849609375,4568.10009765625,3482.500732421875,3204.345703125,0.0,13097.126953125
8671.2841796875,6755.98779296875,16746.521484375,12151.400390625,20906.12890625,8803.2080078125,11823.9716796875,17137.52734375,8243.7197265625,12012.322265625,10736.783203125,11010.96484375,-5153.81494140625,0.0,12680.689453125,15892.982421875,4956.72216796875,5582.173828125,5701.38330078125,9373.82421875,6405.51220703125,14880.498046875,11412.302734375,27329.921875,-1016.4578857421875,3755.092529296875,8155.50537109375,18039.544921875,-5861.91796875,5714.8935546875,22946.9921875,-5859.53369140625,-3556.41064453125,8191.26806640625,13882.3193359375,14913.08203125,9261.767578125,11471.1123046875,9722.7099609375,-0.0,6278.35595703125,32470.2265625,35564.8984375,12305.5771484375,22832.552734375,18606.185546875,-4436.1748046875,-3418.127685546875,7943.3125,19400.916015625,11610.1904296875,16889.572265625,13481.7763671875,4258.15576171875,675.519287109375,14035.7021484375,0.0,5857.9443359375,10420.4814453125,10547.6376953125,9624.9580078125,15315.21484375,12069.54296875,20000.138671875,-11316.935546875,6154.37841796875,11136.5322265625,4526.77392578125,3492.832275390625,3211.498291015625,0.0,13145.6064453125
8672.873046875,6771.88232421875,16791.025390625,12218.158203125,20952.224609375,8846.1240234375,11868.4765625,17202.6953125,8290.6083984375,12079.875,10769.3671875,11047.5224609375,-5118.05224609375,0.0,12711.6845703125,15960.53515625,5002.02197265625,5626.6787109375,5746.6826171875,9435.017578125,6453.1962890625,14926.5927734375,11455.21875,27376.017578125,-991.8212890625,3793.239501953125,8188.8837890625,18091.998046875,-5822.9765625,5754.62939453125,22992.29296875,-5832.51318359375,-3500.779296875,8235.7724609375,13929.2080078125,14957.5869140625,9304.6826171875,11521.1796875,9788.6728515625,-0.0,6334.78173828125,32516.318359375,35608.609375,12353.2607421875,22876.26171875,18666.5859375,-4417.896484375,-3382.364990234375,7979.0751953125,19443.830078125,11643.5693359375,16957.125,13499.259765625,4275.64013671875,704.1295166015625,14079.4111328125,0.0,5928.67529296875,10456.244140625,10628.7001953125,9648.7998046875,15358.130859375,12120.40625,20095.505859375,-11284.3515625,6192.525390625,11168.3203125,4578.431640625,3523.82666015625,3293.355224609375,0.0,13261.6357421875
8648.236328125,6800.49267578125,16833.94140625,12220.5419921875,20959.376953125,8846.9189453125,11874.0400390625,17198.720703125,8285.83984375,12096.564453125,10785.26171875,11058.6484375,-5107.720703125,0.0,12706.916015625,15952.5869140625,5008.37939453125,5630.65185546875,5750.65625,9441.3759765625,6453.1962890625,14931.361328125,11459.19140625,27379.990234375,-980.6951293945312,3794.8291015625,8196.8310546875,18088.021484375,-5813.43994140625,5762.5771484375,22998.65234375,-5811.85009765625,-3497.6005859375,8242.1298828125,13934.771484375,14962.35546875,9308.6552734375,11523.564453125,9810.1298828125,-0.0,6333.1923828125,32517.1171875,35614.96875,12351.671875,22881.03125,18672.1484375,-4386.90185546875,-3362.49658203125,7980.6640625,19446.21484375,11639.5947265625,16949.177734375,13488.1337890625,4277.2294921875,726.3819580078125,14084.9755859375,0.0,5918.34423828125,10441.939453125,10629.4951171875,9657.5419921875,15364.4873046875,12124.37890625,20106.634765625,-11272.4306640625,6198.8828125,11164.34765625,4660.28857421875,3500.779296875,3370.444091796875,0.0,13298.98828125
8637.9052734375,6808.43994140625,16815.662109375,12155.3740234375,20935.53515625,8818.30859375,11841.4560546875,17136.732421875,8237.3623046875,12028.2177734375,10776.51953125,11048.3173828125,-5133.15185546875,0.0,12681.484375,15888.2138671875,4987.716796875,5604.42578125,5715.68798828125,9375.4130859375,6427.7646484375,14905.9296875,11432.1708984375,27348.19921875,-983.8739624023438,3775.755615234375,8168.220703125,18044.3125,-5836.48681640625,5757.80859375,22974.013671875,-5817.4130859375,-3525.416015625,8215.904296875,13909.33984375,14932.1552734375,9278.45703125,11485.4169921875,9808.5400390625,-0.0,6301.40283203125,32489.298828125,35585.5625,12315.1142578125,22840.5,18615.72265625,-4377.365234375,-3364.880859375,7960.001953125,19419.98828125,11612.57421875,16887.982421875,13471.4443359375,4264.513671875,713.666259765625,14059.5439453125,0.0,5856.35498046875,10411.7392578125,10543.6640625,9650.3896484375,15335.876953125,12078.28515625,20001.73046875,-11285.94140625,6188.55126953125,11138.1220703125,4646.7783203125,3447.53271484375,3306.071044921875,0.0,13155.9375
8662.541015625,6806.8505859375,16787.84765625,12145.0419921875,20931.5625,8812.7451171875,11837.482421875,17126.40234375,8234.9775390625,12009.9384765625,10774.1357421875,11042.75390625,-5137.92041015625,0.0,12687.8427734375,15879.47265625,4985.33251953125,5600.45263671875,5710.125,9366.671875,6426.97021484375,14902.7509765625,11428.9921875,27345.021484375,-986.2581787109375,3770.9873046875,8172.1943359375,18040.337890625,-5844.43408203125,5764.96142578125,22972.42578125,-5830.12890625,-3530.979248046875,8212.7255859375,13905.3662109375,14926.5927734375,9274.482421875,11479.060546875,9797.4140625,-0.0,6295.83984375,32482.94140625,35582.3828125,12309.55078125,22837.3203125,18605.390625,-4386.10693359375,-3371.23876953125,7952.849609375,19415.220703125,11615.7529296875,16877.650390625,13488.9287109375,4261.3349609375,708.1031494140625,14050.8017578125,0.0,5830.92333984375,10415.712890625,10530.154296875,9644.03125,15330.314453125,12072.72265625,19996.166015625,-11293.09375,6189.34619140625,11143.6845703125,4651.54638671875,3465.0166015625,3280.6396484375,0.0,13099.5107421875
8676.8466796875,6798.1083984375,16795.79296875,12184.779296875,20937.125,8816.71875,11842.2509765625,17125.607421875,8242.1298828125,11999.607421875,10778.109375,11037.9853515625,-5126.79443359375,0.0,12698.173828125,15877.8818359375,4990.10107421875,5604.42578125,5716.482421875,9364.287109375,6431.73828125,14909.1083984375,11434.5546875,27346.611328125,-977.5161743164062,3773.371337890625,8185.7041015625,18038.75,-5832.51318359375,5748.27197265625,22976.3984375,-5827.7451171875,-3527.00537109375,8227.0302734375,13911.7236328125,14932.1552734375,9277.6611328125,11481.4443359375,9803.771484375,-0.0,6305.37646484375,32492.4765625,35589.53515625,12311.935546875,22843.6796875,18602.212890625,-4386.90185546875,-3388.72265625,7960.001953125,19420.78125,11626.8798828125,16876.0625,13508.001953125,4251.79833984375,716.84521484375,14046.033203125,0.0,5827.7451171875,10422.8662109375,10523.7958984375,9644.826171875,15334.2890625,12075.1064453125,19998.55078125,-11282.76171875,6194.11474609375,11150.8369140625,4626.115234375,3488.063720703125,3225.803466796875,0.0,13053.4169921875
8679.23046875,6775.06103515625,16803.7421875,12164.91015625,20932.35546875,8819.8974609375,11838.27734375,17127.1953125,8234.9775390625,11991.66015625,10777.314453125,11030.8330078125,-5132.35693359375,0.0,12689.431640625,15879.47265625,4989.30615234375,5602.04150390625,5711.71435546875,9358.7236328125,6426.97021484375,14910.6982421875,11431.3759765625,27344.2265625,-979.900390625,3778.9345703125,8178.5517578125,18039.544921875,-5830.92333984375,5745.8876953125,22974.013671875,-5827.7451171875,-3523.82666015625,8227.0302734375,13907.75,14932.1552734375,9273.6884765625,11478.2646484375,9779.1357421875,-0.0,6294.25048828125,32505.1953125,35584.765625,12311.935546875,22836.52734375,18598.23828125,-4374.98095703125,-3432.432861328125,7957.61767578125,19425.55078125,11618.1376953125,16876.85546875,13507.20703125,4254.18212890625,717.639892578125,14045.23828125,0.0,5835.69189453125,10414.91796875,10520.6171875,9644.03125,15332.69921875,12071.1328125,19988.21875,-11280.376953125,6190.14111328125,11142.8896484375,4601.478515625,3480.9111328125,3202.756103515625,0.0,13045.470703125
8660.1572265625,6776.65087890625,16790.232421875,12129.943359375,20926.794921875,8815.12890625,11830.330078125,17135.939453125,8227.8251953125,12004.375,10770.162109375,11027.6533203125,-5140.3046875,0.0,12668.7685546875,15890.5986328125,4982.1533203125,5596.47900390625,5706.94580078125,9361.107421875,6422.20166015625,14905.9296875,11423.4287109375,27341.046875,-987.0529174804688,3773.371337890625,8164.24658203125,18041.134765625,-5835.69189453125,5743.50341796875,22966.861328125,-5828.53955078125,-3529.3896484375,8212.7255859375,13902.1875,14928.181640625,9266.5361328125,11479.060546875,9781.51953125,-0.0,6285.5087890625,32499.630859375,35574.4375,12309.55078125,22828.578125,18605.390625,-4376.5703125,-3437.201171875,7946.4912109375,19417.603515625,11599.8583984375,16890.3671875,13498.4658203125,4257.36083984375,706.5137329101562,14045.23828125,0.0,5873.04443359375,10410.1494140625,10539.69140625,9641.6474609375,15327.9306640625,12067.9541015625,19986.62890625,-11289.1201171875,6182.98876953125,11124.611328125,4622.93603515625,3449.916748046875,3236.9296875,0.0,13084.412109375
8645.8525390625,6770.29296875,16775.92578125,12168.884765625,20934.740234375,8816.71875,11830.330078125,17147.859375,8231.798828125,12013.912109375,10759.0361328125,11027.6533203125,-5137.12548828125,0.0,12667.1787109375,15902.51953125,4984.53759765625,5599.65771484375,5711.71435546875,9369.0556640625,6423.79150390625,14911.4921875,11427.40234375,27344.2265625,-992.6160278320312,3776.55029296875,8158.68359375,18046.697265625,-5841.25537109375,5747.47705078125,22970.833984375,-5838.076171875,-3527.80029296875,8227.0302734375,13904.5712890625,14932.9501953125,9268.919921875,11485.4169921875,9745.7568359375,-0.0,6289.48193359375,32502.810546875,35577.61328125,12312.7294921875,22832.552734375,18612.54296875,-4394.05419921875,-3411.769775390625,7938.54443359375,19416.013671875,11599.0634765625,16899.904296875,13485.7490234375,4239.87744140625,669.1614990234375,14059.5439453125,0.0,5892.91259765625,10410.9453125,10553.201171875,9632.1103515625,15331.904296875,12074.3115234375,20004.908203125,-11297.8623046875,6186.9619140625,11123.81640625,4607.0419921875,3453.095703125,3225.0087890625,0.0,13105.869140625
8641.083984375,6767.1142578125,16777.515625,12183.9833984375,20943.482421875,8823.0771484375,11844.634765625,17166.13671875,8246.8984375,12036.1640625,10754.267578125,11035.6015625,-5114.07861328125,0.0,12684.6630859375,15920.796875,4993.27978515625,5608.39990234375,5724.43017578125,9387.333984375,6441.27490234375,14913.08203125,11439.3232421875,27355.3515625,-988.642333984375,3779.729248046875,8173.783203125,18068.94921875,-5830.12890625,5760.98779296875,22980.37109375,-5835.69189453125,-3503.16357421875,8231.798828125,13917.287109375,14939.30859375,9283.224609375,11497.337890625,9638.46875,-0.0,6316.5029296875,32491.68359375,35589.53515625,12325.4462890625,22846.857421875,18631.6171875,-4419.4853515625,-3389.517578125,7950.46533203125,19427.935546875,11616.5478515625,16918.978515625,13477.0078125,4240.671875,658.0352783203125,14073.0546875,0.0,5900.85986328125,10421.2763671875,10581.810546875,9644.826171875,15342.2353515625,12087.822265625,20043.849609375,-11292.2978515625,6198.08837890625,11140.505859375,4613.3994140625,3464.221923828125,3252.823974609375,0.0,13151.962890625
8598.16796875,6692.40966796875,16806.921875,12180.8056640625,20946.66015625,8829.4345703125,11847.8134765625,17168.521484375,8256.435546875,12058.4169921875,10747.9091796875,11031.6279296875,-5105.33642578125,0.0,12689.431640625,15923.181640625,4998.04833984375,5612.37353515625,5727.609375,9404.818359375,6450.017578125,14918.64453125,11441.7080078125,27359.328125,-997.3843994140625,3783.702880859375,8170.6044921875,18078.486328125,-5828.53955078125,5757.80859375,22985.935546875,-5834.8974609375,-3492.832275390625,8223.8515625,13920.466796875,14944.076171875,9284.8134765625,11502.1064453125,9690.125,-0.0,6336.37109375,32504.3984375,35590.33203125,12331.8037109375,22851.625,18641.154296875,-4423.45947265625,-3391.901611328125,7950.46533203125,19435.8828125,11618.931640625,16919.771484375,13449.986328125,4217.62451171875,696.9769897460938,14063.517578125,0.0,5865.09716796875,10421.2763671875,10583.400390625,9635.2890625,15347.798828125,12094.974609375,20075.640625,-11291.50390625,6193.31982421875,11145.2744140625,4630.0888671875,3458.658935546875,3345.807373046875,0.0,13217.1318359375
8572.7373046875,6699.56201171875,16794.205078125,12186.3681640625,20923.615234375,8815.9248046875,11831.919921875,17149.44921875,8237.3623046875,12034.5751953125,10745.525390625,11026.859375,-5116.462890625,0.0,12679.89453125,15904.9033203125,4989.30615234375,5599.65771484375,5713.30419921875,9382.5654296875,6428.5595703125,14908.3134765625,11425.8125,27343.431640625,-1006.1264038085938,3772.57666015625,8153.91552734375,18058.619140625,-5838.87109375,5740.32470703125,22973.21875,-5835.69189453125,-3522.237060546875,8221.466796875,13902.9814453125,14931.361328125,9268.919921875,11488.5966796875,9801.3876953125,-0.0,6304.58203125,32497.24609375,35569.66796875,12317.498046875,22834.142578125,18622.080078125,-4420.2802734375,-3402.233154296875,7922.6494140625,19424.7578125,11608.6005859375,16901.4921875,13431.7080078125,4219.2138671875,717.639892578125,14048.4169921875,0.0,5865.89208984375,10402.2021484375,10561.1484375,9619.3955078125,15331.109375,12077.4912109375,20033.517578125,-11295.4775390625,6180.6044921875,11136.5322265625,4622.93603515625,3450.71142578125,3305.276123046875,0.0,13180.5732421875
8584.658203125,6759.16650390625,16784.66796875,12168.884765625,20916.462890625,8806.3876953125,11827.1513671875,17139.912109375,8227.8251953125,12016.296875,10759.0361328125,11029.2431640625,-5147.45703125,0.0,12679.099609375,15891.3935546875,4975.7958984375,5587.73681640625,5703.76708984375,9366.671875,6411.87060546875,14895.5986328125,11420.25,27333.89453125,-1004.5369873046875,3763.834716796875,8157.88916015625,18046.697265625,-5848.40771484375,5738.7353515625,22961.298828125,-5838.87109375,-3538.92626953125,8211.9306640625,13890.2666015625,14918.64453125,9264.9462890625,11477.470703125,9817.2822265625,-0.0,6274.38232421875,32479.763671875,35571.2578125,12307.1669921875,22829.375,18608.5703125,-4398.02783203125,-3387.927978515625,7940.13330078125,19415.220703125,11609.3955078125,16890.3671875,13450.7822265625,4235.10888671875,719.2293701171875,14048.4169921875,0.0,5892.1181640625,10395.8447265625,10546.84375,9623.3681640625,15319.9833984375,12065.5703125,20003.318359375,-11297.06640625,6177.42529296875,11134.9423828125,4609.42578125,3442.76416015625,3256.003173828125,0.0,13139.248046875
8605.3212890625,6783.0087890625,16779.900390625,12125.1748046875,20923.615234375,8803.2080078125,11830.330078125,17136.732421875,8230.208984375,12011.5283203125,10768.5732421875,11039.57421875,-5156.19921875,0.0,12687.046875,15889.009765625,4973.41162109375,5586.9423828125,5704.5615234375,9361.9033203125,6410.28076171875,14889.240234375,11420.25,27333.1015625,-996.5896606445312,3759.06640625,8160.2734375,18041.9296875,-5853.17626953125,5729.1982421875,22958.12109375,-5832.51318359375,-3546.873779296875,8198.4208984375,13891.8564453125,14915.466796875,9268.125,11477.470703125,9821.255859375,-0.0,6276.76611328125,32471.81640625,35574.4375,12305.5771484375,22833.34765625,18605.390625,-4386.90185546875,-3372.033447265625,7957.61767578125,19412.041015625,11616.5478515625,16887.1875,13480.1865234375,4271.666015625,708.8978881835938,14044.4443359375,0.0,5893.70703125,10402.2021484375,10542.0751953125,9635.2890625,15322.3671875,12065.5703125,19992.986328125,-11301.041015625,6180.6044921875,11142.0947265625,4620.55224609375,3449.1220703125,3259.9765625,0.0,13112.2275390625
8622.009765625,6789.3662109375,16756.05859375,12106.1005859375,20910.10546875,8784.134765625,11816.0244140625,17112.890625,8215.904296875,11983.7119140625,10759.830078125,11027.6533203125,-5167.32568359375,0.0,12674.33203125,15866.7568359375,4961.49072265625,5571.04736328125,5688.66748046875,9339.650390625,6397.5654296875,14874.935546875,11405.9453125,27315.6171875,-1006.921142578125,3740.78759765625,8154.7099609375,18019.67578125,-5853.97119140625,5719.66162109375,22943.814453125,-5840.46044921875,-3566.741943359375,8182.525390625,13879.1396484375,14899.5712890625,9253.8193359375,11459.19140625,9771.9833984375,-0.0,6265.64013671875,32456.71484375,35558.5390625,12285.708984375,22818.24609375,18581.548828125,-4406.77001953125,-3396.670166015625,7941.72265625,19390.583984375,11603.0380859375,16863.345703125,13481.7763671875,4283.5869140625,696.9769897460938,14030.138671875,0.0,5857.9443359375,10397.4345703125,10510.28515625,9628.13671875,15308.0625,12046.49609375,19969.14453125,-11312.1669921875,6169.47802734375,11130.173828125,4601.478515625,3446.738037109375,3220.240234375,0.0,13055.0068359375
8631.546875,6791.75048828125,16777.515625,12116.4326171875,20903.74609375,8776.982421875,11810.4619140625,17102.560546875,8206.3671875,11973.380859375,10751.8837890625,11022.0908203125,-5175.2724609375,0.0,12661.6162109375,15855.630859375,4959.9013671875,5564.689453125,5682.3095703125,9333.29296875,6392.796875,14873.345703125,11398.7919921875,27308.46484375,-1011.6895141601562,3736.01904296875,8152.32568359375,18009.34375,-5856.35498046875,5726.01953125,22940.634765625,-5843.63916015625,-3562.768310546875,8182.525390625,13874.37109375,14894.802734375,9246.6669921875,11452.0390625,9752.9091796875,-0.0,6253.71923828125,32450.359375,35552.9765625,12276.966796875,22812.685546875,18572.806640625,-4414.71728515625,-3408.591064453125,7931.3916015625,19381.841796875,11592.7060546875,16853.80859375,13474.6240234375,4276.4345703125,675.519287109375,14029.34375,0.0,5834.1025390625,10388.6923828125,10492.8017578125,9621.779296875,15303.2939453125,12040.138671875,19971.529296875,-11312.9619140625,6167.09375,11120.63671875,4580.81591796875,3429.25390625,3191.630126953125,0.0,13043.0859375
8626.7783203125,6790.9560546875,16793.41015625,12126.763671875,20910.8984375,8792.0830078125,11819.203125,17126.40234375,8219.8779296875,11992.4541015625,10754.267578125,11027.6533203125,-5158.5830078125,0.0,12666.384765625,15880.2666015625,4967.84814453125,5576.6103515625,5695.02490234375,9348.392578125,6400.744140625,14884.4716796875,11406.7392578125,27322.76953125,-1008.5106201171875,3749.529541015625,8156.2998046875,18031.59765625,-5853.17626953125,5733.966796875,22949.376953125,-5843.63916015625,-3549.258056640625,8192.8564453125,13881.5244140625,14906.7236328125,9256.9990234375,11468.728515625,9781.51953125,-0.0,6260.8720703125,32465.45703125,35558.5390625,12293.65625,22823.015625,18591.880859375,-4399.61767578125,-3414.94873046875,7928.21240234375,19395.3515625,11595.8857421875,16877.650390625,13480.98046875,4274.05029296875,678.6982421875,14040.4697265625,0.0,5864.30224609375,10400.61328125,10522.2060546875,9622.57421875,15314.419921875,12053.6494140625,19994.578125,-11301.8349609375,6179.8095703125,11123.021484375,4580.81591796875,3432.432861328125,3209.114013671875,0.0,13086.0009765625
8653.7998046875,6802.876953125,16799.767578125,12144.248046875,20928.3828125,8819.8974609375,11842.2509765625,17165.341796875,8251.6669921875,12031.3955078125,10775.7255859375,11044.3427734375,-5122.8203125,0.0,12683.07421875,15921.5927734375,4991.68994140625,5601.2470703125,5722.8408203125,9384.94921875,6424.5859375,14909.1083984375,11432.1708984375,27352.173828125,-996.5896606445312,3774.960693359375,8176.962890625,18069.744140625,-5829.33447265625,5753.8349609375,22973.21875,-5827.7451171875,-3523.82666015625,8213.5205078125,13902.9814453125,14934.5400390625,9280.0458984375,11499.72265625,9767.21484375,-0.0,6283.9189453125,32496.453125,35579.99609375,12325.4462890625,22851.625,18627.64453125,-4389.2861328125,-3410.97509765625,7931.3916015625,19427.140625,11613.369140625,16918.181640625,13489.7236328125,4289.150390625,702.5401000976562,14063.517578125,0.0,5906.4228515625,10426.044921875,10564.3271484375,9644.03125,15340.6455078125,12084.6435546875,20031.9296875,-11285.94140625,6201.26708984375,11139.7099609375,4586.37841796875,3476.9375,3240.903076171875,0.0,13140.837890625
8645.8525390625,6807.6455078125,16767.978515625,12177.626953125,20941.099609375,8829.4345703125,11856.5556640625,17182.03125,8260.4091796875,12050.4697265625,10769.3671875,11053.8798828125,-5101.36279296875,0.0,12691.8154296875,15937.486328125,5000.4326171875,5612.37353515625,5737.14599609375,9400.8447265625,6438.0966796875,14918.64453125,11444.091796875,27363.30078125,-999.7686157226562,3783.702880859375,8187.2939453125,18085.638671875,-5814.234375,5763.3720703125,22985.935546875,-5819.79736328125,-3520.647705078125,8224.646484375,13916.4921875,14945.666015625,9294.3505859375,11512.4384765625,9776.751953125,-0.0,6302.9921875,32505.1953125,35592.71484375,12340.5458984375,22866.7265625,18643.537109375,-4404.38623046875,-3385.5439453125,7932.18603515625,19440.650390625,11622.9052734375,16934.076171875,13498.4658203125,4292.3291015625,695.3875122070312,14073.8486328125,0.0,5920.72802734375,10423.66015625,10582.6064453125,9650.3896484375,15353.3623046875,12097.3583984375,20050.20703125,-11285.1455078125,6207.625,11147.658203125,4588.7626953125,3472.169189453125,3271.10302734375,0.0,13182.1630859375
8622.009765625,6779.03515625,16766.390625,12187.1630859375,20926.794921875,8818.30859375,11847.01953125,17174.87890625,8257.2294921875,12052.853515625,10757.4462890625,11034.01171875,-5125.99951171875,0.0,12687.8427734375,15929.541015625,4989.30615234375,5601.2470703125,5727.609375,9400.0498046875,6428.5595703125,14911.4921875,11433.7607421875,27356.1484375,-1007.7158203125,3770.9873046875,8167.42626953125,18074.51171875,-5822.181640625,5745.8876953125,22976.3984375,-5835.69189453125,-3526.210693359375,8219.8779296875,13905.3662109375,14935.333984375,9284.01953125,11502.1064453125,9763.2412109375,-0.0,6296.634765625,32497.24609375,35579.99609375,12330.21484375,22857.189453125,18638.76953125,-4437.7646484375,-3408.591064453125,7948.0810546875,19428.73046875,11618.931640625,16927.71875,13484.955078125,4258.15576171875,686.6455078125,14058.7490234375,0.0,5900.06494140625,10424.455078125,10586.5791015625,9634.4951171875,15342.2353515625,12091.0009765625,20051.798828125,-11298.65625,6185.373046875,11143.6845703125,4607.0419921875,3459.45361328125,3295.739501953125,0.0,13213.9521484375
8646.6474609375,6774.2666015625,16807.71484375,12186.3681640625,20937.919921875,8819.8974609375,11854.171875,17164.548828125,8264.3828125,12051.2646484375,10775.7255859375,11029.2431640625,-5153.0205078125,0.0,12698.173828125,15920.00390625,4994.07421875,5609.1943359375,5730.78759765625,9403.228515625,6434.12255859375,14917.8505859375,11440.9130859375,27360.12109375,-991.0265502929688,3773.371337890625,8183.31982421875,18066.564453125,-5826.9501953125,5734.76171875,22981.962890625,-5827.7451171875,-3521.4423828125,8226.2353515625,13914.1083984375,14941.6923828125,9289.58203125,11502.90234375,9767.21484375,-0.0,6302.9921875,32505.1953125,35591.125,12328.625,22861.95703125,18635.591796875,-4420.2802734375,-3424.4853515625,7963.97509765625,19423.9609375,11630.8525390625,16917.38671875,13477.0078125,4246.23486328125,708.8978881835938,14052.390625,0.0,5877.81298828125,10433.197265625,10569.8896484375,9639.2626953125,15348.59375,12094.974609375,20050.20703125,-11291.50390625,6180.6044921875,11155.60546875,4622.93603515625,3480.11669921875,3294.94482421875,0.0,13202.826171875
8659.36328125,6763.93505859375,16793.41015625,12145.8369140625,20930.767578125,8802.4140625,11842.2509765625,17139.912109375,8246.8984375,12025.8330078125,10777.314453125,11020.5009765625,-5149.04638671875,0.0,12686.2529296875,15892.982421875,4984.53759765625,5596.47900390625,5717.27734375,9377.796875,6419.02294921875,14902.7509765625,11429.787109375,27345.81640625,-999.7686157226562,3759.861083984375,8172.98876953125,18043.517578125,-5835.69189453125,5712.50927734375,22969.24609375,-5827.7451171875,-3545.2841796875,8210.341796875,13902.1875,14926.5927734375,9279.2509765625,11488.5966796875,9800.59375,-0.0,6283.9189453125,32484.53125,35583.1796875,12311.140625,22849.2421875,18614.134765625,-4398.02783203125,-3416.538330078125,7958.412109375,19404.888671875,11619.7275390625,16891.95703125,13472.2392578125,4243.0556640625,715.2557373046875,14035.7021484375,0.0,5839.666015625,10427.6337890625,10544.458984375,9636.87890625,15337.466796875,12079.080078125,20007.291015625,-11288.3251953125,6171.8623046875,11143.6845703125,4614.98876953125,3457.864013671875,3264.7451171875,0.0,13156.7314453125
8644.263671875,6753.603515625,16779.103515625,12143.453125,20918.845703125,8794.466796875,11833.5087890625,17131.962890625,8243.7197265625,12027.4228515625,10766.9833984375,11021.296875,-5145.07275390625,0.0,12678.3056640625,15885.0341796875,4977.38525390625,5590.12060546875,5710.919921875,9377.796875,6409.486328125,14894.802734375,11421.0439453125,27336.279296875,-1010.1000366210938,3753.503173828125,8167.42626953125,18033.185546875,-5849.9970703125,5711.71435546875,22962.09375,-5835.69189453125,-3556.41064453125,8208.751953125,13891.8564453125,14919.4404296875,9272.892578125,11483.033203125,9790.26171875,-0.0,6272.79296875,32474.994140625,35575.23046875,12302.3984375,22842.884765625,18613.337890625,-4402.79638671875,-3406.206787109375,7937.7490234375,19394.556640625,11610.1904296875,16885.599609375,13478.5966796875,4239.87744140625,712.87158203125,14029.34375,0.0,5817.4130859375,10414.91796875,10548.4326171875,9616.2158203125,15328.724609375,12075.1064453125,20026.365234375,-11293.09375,6172.6572265625,11135.7373046875,4630.8837890625,3453.095703125,3286.20263671875,0.0,13170.2421875
8655.388671875,6762.345703125,16779.103515625,12176.8310546875,20929.97265625,8808.7724609375,11848.609375,17147.859375,8257.2294921875,12038.548828125,10779.6982421875,11030.0380859375,-5132.35693359375,0.0,12699.763671875,15901.7236328125,4994.07421875,5605.220703125,5726.01953125,9389.7177734375,6426.97021484375,14913.08203125,11437.7333984375,27352.173828125,-991.8212890625,3767.80810546875,8184.90966796875,18049.08203125,-5834.1025390625,5734.76171875,22978.783203125,-5820.59228515625,-3534.157958984375,8227.8251953125,13907.75,14935.333984375,9287.1982421875,11496.5439453125,9770.3935546875,-0.0,6286.30322265625,32494.068359375,35590.33203125,12315.1142578125,22859.57421875,18627.64453125,-4398.02783203125,-3393.490966796875,7945.69677734375,19407.271484375,11630.05859375,16901.4921875,13508.001953125,4254.9765625,723.2030029296875,14040.4697265625,0.0,5846.818359375,10437.1708984375,10561.943359375,9629.7265625,15342.2353515625,12087.02734375,20041.46484375,-11280.376953125,6189.34619140625,11154.810546875,4642.8046875,3473.7587890625,3295.739501953125,0.0,13167.0634765625
8656.1845703125,6754.3984375,16770.36328125,12165.7060546875,20925.998046875,8795.26171875,11835.0986328125,17127.990234375,8231.798828125,11993.2490234375,10767.77734375,11020.5009765625,-5137.92041015625,0.0,12681.484375,15880.2666015625,4985.33251953125,5594.0947265625,5707.74072265625,9350.7763671875,6422.20166015625,14902.7509765625,11426.6083984375,27339.458984375,-997.3843994140625,3755.88720703125,8169.01513671875,18034.77734375,-5838.87109375,5724.43017578125,22971.630859375,-5831.71826171875,-3535.74755859375,8213.5205078125,13900.59765625,14925.0029296875,9272.0986328125,11479.060546875,9719.53125,-0.0,6287.892578125,32486.916015625,35579.99609375,12301.6044921875,22838.115234375,18597.4453125,-4401.20703125,-3411.769775390625,7947.28564453125,19395.3515625,11609.3955078125,16880.03515625,13495.2861328125,4250.20849609375,708.8978881835938,14030.93359375,0.0,5835.69189453125,10414.91796875,10520.6171875,9637.673828125,15332.69921875,12063.185546875,19967.556640625,-11291.50390625,6180.6044921875,11136.5322265625,4594.326171875,3452.301025390625,3217.061279296875,0.0,13064.5439453125
8641.87890625,6736.11962890625,16779.900390625,12132.3271484375,20924.41015625,8789.6982421875,11829.53515625,17122.427734375,8228.619140625,11981.328125,10761.419921875,11012.5537109375,-5141.89404296875,0.0,12675.921875,15873.9091796875,4978.1796875,5589.326171875,5700.58837890625,9344.4189453125,6415.04931640625,14897.982421875,11420.25,27332.306640625,-1008.5106201171875,3745.555908203125,8157.09423828125,18030.802734375,-5841.25537109375,5722.8408203125,22964.4765625,-5851.5869140625,-3539.72119140625,8207.162109375,13895.03515625,14920.234375,9266.5361328125,11472.7021484375,9724.2998046875,-0.0,6279.9453125,32482.94140625,35578.41015625,12295.24609375,22832.552734375,18590.291015625,-4415.51220703125,-3419.717041015625,7948.0810546875,19389.787109375,11603.0380859375,16872.087890625,13484.16015625,4226.36669921875,690.619140625,14026.958984375,0.0,5821.38671875,10413.3291015625,10509.4912109375,9628.931640625,15325.5458984375,12057.6220703125,19966.759765625,-11298.65625,6171.8623046875,11131.763671875,4572.8681640625,3454.685302734375,3192.4248046875,0.0,13055.0068359375
8653.0048828125,6752.01416015625,16780.6953125,12146.6318359375,20949.044921875,8815.9248046875,11856.5556640625,17158.984375,8267.5615234375,12032.19140625,10776.51953125,11034.806640625,-5137.12548828125,0.0,12699.763671875,15912.8515625,4997.25341796875,5615.55224609375,5729.9931640625,9388.923828125,6436.5068359375,14917.8505859375,11448.0654296875,27359.328125,-997.3843994140625,3768.60302734375,8177.75732421875,18064.1796875,-5827.7451171875,5759.39794921875,22986.73046875,-5830.92333984375,-3525.416015625,8227.0302734375,13922.0556640625,14943.2822265625,9295.1455078125,11502.90234375,9764.8310546875,-0.0,6311.73486328125,32501.220703125,35602.25390625,12324.650390625,22865.9296875,18629.232421875,-4420.2802734375,-3394.285888671875,7967.154296875,19417.603515625,11626.8798828125,16909.44140625,13494.4912109375,4239.87744140625,709.692626953125,14056.365234375,0.0,5861.91796875,10448.296875,10557.1748046875,9648.005859375,15351.7724609375,12091.7958984375,20034.3125,-11274.814453125,6194.11474609375,11154.810546875,4621.34716796875,3496.010986328125,3264.7451171875,0.0,13147.1953125
8645.0576171875,6755.98779296875,16794.205078125,12164.91015625,20941.892578125,8816.71875,11860.5302734375,17163.75390625,8272.330078125,12036.1640625,10778.109375,11031.6279296875,-5139.509765625,0.0,12705.326171875,15915.2353515625,4998.8427734375,5616.3466796875,5734.76171875,9393.6923828125,6435.71240234375,14918.64453125,11449.654296875,27361.7109375,-998.973876953125,3772.57666015625,8188.8837890625,18065.771484375,-5830.12890625,5753.8349609375,22986.73046875,-5830.12890625,-3526.210693359375,8225.44140625,13919.6708984375,14946.4609375,9298.32421875,11506.875,9769.5986328125,-0.0,6295.83984375,32502.810546875,35601.45703125,12327.830078125,22869.90625,18633.20703125,-4404.38623046875,-3414.154052734375,7963.97509765625,19417.603515625,11634.0322265625,16914.208984375,13480.1865234375,4251.79833984375,720.81884765625,14054.775390625,0.0,5864.30224609375,10445.1181640625,10563.533203125,9643.2373046875,15354.15625,12094.974609375,20049.4140625,-11275.609375,6193.31982421875,11161.16796875,4611.81005859375,3500.779296875,3258.38720703125,0.0,13171.037109375
8629.1630859375,6776.65087890625,16798.97265625,12172.8583984375,20946.66015625,8823.8720703125,11869.271484375,17170.90625,8269.9462890625,12027.4228515625,10793.208984375,11036.396484375,-5125.99951171875,0.0,12710.888671875,15923.181640625,5005.20068359375,5624.29443359375,5739.5302734375,9386.5390625,6446.83837890625,14927.3876953125,11457.6025390625,27368.86328125,-983.0792846679688,3778.139892578125,8212.7255859375,18072.923828125,-5815.82421875,5748.27197265625,22996.267578125,-5826.1552734375,-3517.46875,8229.4150390625,13926.8232421875,14952.8193359375,9305.4775390625,11514.02734375,9771.1875,-0.0,6303.787109375,32513.142578125,35611.7890625,12333.3935546875,22874.673828125,18635.591796875,-4383.72265625,-3421.306640625,7974.30712890625,19423.166015625,11641.9794921875,16921.361328125,13477.0078125,4270.87158203125,739.0975952148438,14060.337890625,0.0,5880.99169921875,10440.349609375,10572.2744140625,9651.18359375,15359.7197265625,12096.564453125,20023.1875,-11262.099609375,6199.677734375,11167.5263671875,4602.2734375,3486.474365234375,3231.366455078125,0.0,13137.658203125
8619.6259765625,6779.03515625,16783.873046875,12152.1953125,20933.947265625,8811.951171875,11856.5556640625,17159.78125,8264.3828125,12021.064453125,10786.056640625,11035.6015625,-5134.7412109375,0.0,12703.736328125,15912.8515625,4995.6640625,5612.37353515625,5730.78759765625,9380.181640625,6436.5068359375,14915.466796875,11445.681640625,27359.328125,-987.0529174804688,3766.218994140625,8190.47265625,18062.591796875,-5823.77099609375,5740.32470703125,22985.140625,-5834.1025390625,-3523.031982421875,8218.2880859375,13916.4921875,14941.6923828125,9293.556640625,11503.6962890625,9726.68359375,-0.0,6290.27685546875,32498.04296875,35597.484375,12321.47265625,22865.13671875,18626.0546875,-4400.412109375,-3399.848876953125,7958.412109375,19414.42578125,11631.6484375,16910.234375,13471.4443359375,4268.4873046875,729.5608520507812,14051.5966796875,0.0,5869.0703125,10445.912109375,10557.96875,9651.18359375,15350.9775390625,12088.6162109375,20016.828125,-11270.0458984375,6196.4990234375,11157.9892578125,4598.29931640625,3474.553466796875,3234.54541015625,0.0,13124.1484375
8606.9111328125,6751.21923828125,16751.2890625,12122.7900390625,20912.48828125,8788.1083984375,11836.6884765625,17143.091796875,8252.4619140625,12027.4228515625,10750.2939453125,11014.1435546875,-5158.5830078125,0.0,12673.537109375,15896.162109375,4970.232421875,5589.326171875,5711.71435546875,9378.5927734375,6412.6650390625,14890.03515625,11423.4287109375,27337.07421875,-1016.4578857421875,3743.171630859375,8166.630859375,18041.134765625,-5853.97119140625,5718.86669921875,22960.50390625,-5858.7392578125,-3543.69482421875,8189.67822265625,13892.650390625,14917.8505859375,9271.3037109375,11483.828125,9662.310546875,-0.0,6271.20361328125,32467.841796875,35575.23046875,12300.0146484375,22846.857421875,18615.72265625,-4434.58544921875,-3408.591064453125,7924.2392578125,19391.37890625,11605.421875,16893.544921875,13444.423828125,4243.0556640625,698.56640625,14025.3701171875,0.0,5846.0234375,10422.8662109375,10549.2275390625,9631.31640625,15328.724609375,12075.1064453125,20042.26171875,-11302.630859375,6171.06787109375,11130.173828125,4588.7626953125,3459.45361328125,3265.539794921875,0.0,13184.5478515625
8625.984375,6763.93505859375,16777.515625,12129.1474609375,20922.818359375,8800.82421875,11853.376953125,17162.958984375,8268.3564453125,12060.005859375,10763.8046875,11026.064453125,-5146.662109375,0.0,12690.2265625,15916.82421875,4979.76904296875,5601.2470703125,5726.814453125,9405.61328125,6418.22802734375,14903.544921875,11434.5546875,27352.173828125,-1007.7158203125,3757.476806640625,8183.31982421875,18061.796875,-5845.228515625,5733.966796875,22970.833984375,-5839.666015625,-3550.052734375,8202.3935546875,13902.9814453125,14931.361328125,9287.9931640625,11500.517578125,9764.8310546875,-0.0,6275.1767578125,32481.353515625,35588.7421875,12318.2939453125,22866.7265625,18639.564453125,-4413.9228515625,-3404.6171875,7939.3388671875,19406.4765625,11622.9052734375,16914.208984375,13472.2392578125,4258.15576171875,708.1031494140625,14039.67578125,0.0,5857.1494140625,10433.9912109375,10573.8642578125,9644.03125,15343.0302734375,12095.7685546875,20074.84375,-11290.7099609375,6182.19384765625,11146.86328125,4589.5576171875,3475.34814453125,3293.355224609375,0.0,13271.1728515625
8614.0634765625,6754.3984375,16799.767578125,12115.6376953125,20914.078125,8796.8515625,11847.8134765625,17158.984375,8263.587890625,12048.880859375,10770.162109375,11022.0908203125,-5146.662109375,0.0,12693.4052734375,15913.64453125,4976.5908203125,5595.68408203125,5720.45654296875,9395.2822265625,6411.07568359375,14901.9560546875,11428.197265625,27347.40625,-1011.6895141601562,3757.476806640625,8176.962890625,18060.20703125,-5844.43408203125,5729.9931640625,22967.65625,-5848.40771484375,-3552.436767578125,8196.8310546875,13897.4189453125,14928.181640625,9284.8134765625,11496.5439453125,9750.525390625,-0.0,6266.43505859375,32486.916015625,35583.97265625,12315.1142578125,22862.751953125,18634.796875,-4409.94873046875,-3433.2275390625,7935.36474609375,19407.271484375,11623.7001953125,16911.82421875,13481.7763671875,4256.56640625,702.5401000976562,14038.0859375,0.0,5851.5869140625,10436.3759765625,10565.9169921875,9630.5205078125,15336.6728515625,12088.6162109375,20039.876953125,-11294.6826171875,6179.8095703125,11150.04296875,4572.0732421875,3479.32177734375,3275.07666015625,0.0,13246.5361328125
8609.294921875,6737.708984375,16787.052734375,12116.4326171875,20900.568359375,8784.134765625,11831.1240234375,17135.939453125,8239.74609375,12009.9384765625,10763.0087890625,11013.3486328125,-5155.40478515625,0.0,12682.2783203125,15890.5986328125,4964.669921875,5583.76318359375,5704.5615234375,9358.7236328125,6399.15478515625,14889.240234375,11415.4814453125,27331.509765625,-1022.0209350585938,3746.3505859375,8165.0419921875,18039.544921875,-5852.38134765625,5721.2509765625,22956.529296875,-5850.7919921875,-3569.126220703125,8189.67822265625,13884.7041015625,14913.876953125,9268.125,11477.470703125,9776.751953125,-0.0,6256.103515625,32475.7890625,35570.4609375,12296.041015625,22844.47265625,18607.775390625,-4417.1015625,-3452.301025390625,7922.6494140625,19392.966796875,11611.779296875,16888.77734375,13474.6240234375,4241.46630859375,691.4138793945312,14021.396484375,0.0,5846.818359375,10424.455078125,10533.3330078125,9619.3955078125,15323.162109375,12064.7744140625,19971.529296875,-11302.630859375,6172.6572265625,11138.916015625,4573.6630859375,3472.964111328125,3252.029296875,0.0,13136.86328125
8618.83203125,6724.19873046875,16768.7734375,12115.6376953125,20895.00390625,8775.3935546875,11820.79296875,17124.017578125,8220.6728515625,11990.0703125,10758.240234375,10998.2490234375,-5163.3515625,0.0,12663.205078125,15877.0888671875,4958.3115234375,5574.2265625,5693.435546875,9341.240234375,6391.20703125,14878.11328125,11407.5341796875,27319.58984375,-1026.789306640625,3736.01904296875,8159.47802734375,18029.212890625,-5855.560546875,5706.94580078125,22947.7890625,-5852.38134765625,-3579.45751953125,8182.525390625,13875.9609375,14902.7509765625,9258.587890625,11467.1396484375,9788.6728515625,-0.0,6244.1826171875,32463.07421875,35562.515625,12284.119140625,22829.375,18591.0859375,-4428.22802734375,-3457.0693359375,7917.08642578125,19385.01953125,11594.2958984375,16874.470703125,13465.0869140625,4216.82958984375,685.0560302734375,14011.0654296875,0.0,5829.33447265625,10400.61328125,10520.6171875,9611.447265625,15313.625,12052.0595703125,19977.091796875,-11306.603515625,6163.1201171875,11119.0478515625,4578.431640625,3435.61181640625,3239.313720703125,0.0,13105.869140625
8631.546875,6733.7353515625,16759.236328125,12126.763671875,20910.8984375,8785.724609375,11830.330078125,17131.169921875,8223.8515625,11997.22265625,10763.0087890625,11005.4013671875,-5149.84130859375,0.0,12665.5888671875,15883.4453125,4971.02734375,5584.55810546875,5702.177734375,9347.59765625,6401.5390625,14891.6240234375,11417.8662109375,27330.716796875,-1018.04736328125,3743.171630859375,8170.6044921875,18040.337890625,-5844.43408203125,5727.609375,22957.32421875,-5849.20263671875,-3574.689208984375,8201.599609375,13888.6767578125,14912.2880859375,9268.125,11474.2919921875,9793.4404296875,-0.0,6259.28271484375,32479.763671875,35572.84375,12296.041015625,22834.935546875,18597.4453125,-4429.8173828125,-3454.685302734375,7925.828125,19392.966796875,11597.4736328125,16882.419921875,13476.212890625,4217.62451171875,691.4138793945312,14030.138671875,0.0,5824.56591796875,10388.6923828125,10527.7705078125,9618.599609375,15323.9560546875,12059.2119140625,19993.78125,-11296.2724609375,6174.24609375,11119.8427734375,4595.12109375,3425.2802734375,3237.724365234375,0.0,13115.40625
8636.3154296875,6736.11962890625,16744.931640625,12135.505859375,20910.10546875,8777.77734375,11831.1240234375,17124.017578125,8223.056640625,11989.2763671875,10763.8046875,11008.580078125,-5137.92041015625,0.0,12677.5107421875,15875.498046875,4970.232421875,5583.76318359375,5700.58837890625,9342.830078125,6400.744140625,14891.6240234375,11417.0712890625,27329.126953125,-1019.6367797851562,3733.635009765625,8170.6044921875,18035.5703125,-5841.25537109375,5733.171875,22956.529296875,-5853.97119140625,-3574.689208984375,8201.599609375,13888.6767578125,14911.4921875,9268.125,11473.49609375,9782.314453125,-0.0,6264.84521484375,32477.37890625,35572.84375,12293.65625,22836.52734375,18590.291015625,-4425.84375,-3430.84326171875,7915.4970703125,19388.994140625,11607.806640625,16873.677734375,13478.5966796875,4214.44580078125,696.9769897460938,14031.7275390625,0.0,5807.08154296875,10395.8447265625,10510.28515625,9622.57421875,15320.7783203125,12056.033203125,19975.50390625,-11292.2978515625,6176.63037109375,11131.763671875,4587.17333984375,3434.022216796875,3226.59814453125,0.0,13089.974609375
8628.3681640625,6743.2724609375,16767.978515625,12158.552734375,20914.078125,8788.1083984375,11838.27734375,17144.6796875,8242.9248046875,12017.0908203125,10771.7509765625,11022.0908203125,-5138.71533203125,0.0,12683.8681640625,15897.7509765625,4976.5908203125,5594.0947265625,5712.50927734375,9366.671875,6413.4599609375,14900.3671875,11425.0185546875,27339.458984375,-1022.0209350585938,3744.76123046875,8167.42626953125,18051.466796875,-5841.25537109375,5737.9404296875,22965.2734375,-5852.38134765625,-3551.64208984375,8206.3671875,13895.8291015625,14921.029296875,9276.072265625,11487.8017578125,9763.2412109375,-0.0,6260.8720703125,32481.353515625,35579.99609375,12305.5771484375,22846.857421875,18614.134765625,-4413.9228515625,-3398.259521484375,7925.828125,19400.916015625,11612.57421875,16896.724609375,13480.1865234375,4232.724609375,703.3348388671875,14038.0859375,0.0,5842.05029296875,10419.6865234375,10538.1015625,9627.341796875,15331.109375,12074.3115234375,20012.85546875,-11286.7353515625,6185.373046875,11138.1220703125,4596.7099609375,3452.301025390625,3256.7978515625,0.0,13151.962890625
8611.6787109375,6754.3984375,16770.36328125,12147.4267578125,20921.23046875,8797.6455078125,11848.609375,17157.396484375,8248.48828125,12025.0390625,10766.1884765625,11029.2431640625,-5149.04638671875,0.0,12687.046875,15910.466796875,4982.9482421875,5601.2470703125,5719.66162109375,9373.82421875,6424.5859375,14907.51953125,11431.3759765625,27346.611328125,-1027.5841064453125,3752.70849609375,8173.783203125,18061.796875,-5846.0234375,5745.8876953125,22972.42578125,-5846.0234375,-3544.489501953125,8207.95703125,13902.1875,14928.181640625,9283.224609375,11496.5439453125,9760.8564453125,-0.0,6271.20361328125,32485.32421875,35584.765625,12311.935546875,22855.599609375,18626.84765625,-4422.66455078125,-3394.285888671875,7944.10693359375,19409.65625,11618.1376953125,16911.82421875,13476.212890625,4247.02978515625,704.1295166015625,14038.0859375,0.0,5879.40234375,10426.8388671875,10553.99609375,9628.13671875,15339.8515625,12082.2587890625,20004.11328125,-11290.7099609375,6197.2939453125,11142.8896484375,4591.14697265625,3465.0166015625,3259.9765625,0.0,13167.8583984375
8587.04296875,6738.50390625,16761.62109375,12125.96875,20914.078125,8784.9306640625,11834.3037109375,17144.6796875,8233.3876953125,12013.1181640625,10750.2939453125,11010.96484375,-5167.32568359375,0.0,12671.947265625,15896.162109375,4972.61669921875,5589.326171875,5707.74072265625,9358.7236328125,6411.87060546875,14894.0087890625,11420.25,27333.89453125,-1038.710205078125,3742.376953125,8165.83642578125,18049.08203125,-5856.35498046875,5726.814453125,22961.298828125,-5856.35498046875,-3550.847412109375,8196.0361328125,13892.650390625,14913.876953125,9271.3037109375,11483.033203125,9748.935546875,-0.0,6263.255859375,32473.404296875,35574.4375,12300.0146484375,22841.294921875,18614.134765625,-4430.6123046875,-3417.3330078125,7938.54443359375,19395.3515625,11601.4482421875,16897.51953125,13455.5498046875,4235.9033203125,685.8507690429688,14019.806640625,0.0,5852.38134765625,10407.765625,10543.6640625,9611.447265625,15326.3408203125,12068.748046875,19979.4765625,-11306.603515625,6176.63037109375,11128.5849609375,4578.431640625,3445.1484375,3252.029296875,0.0,13159.1162109375
8598.9638671875,6752.80908203125,16778.310546875,12129.1474609375,20918.05078125,8788.9033203125,11839.8662109375,17153.421875,8242.9248046875,12030.6015625,10762.21484375,11012.5537109375,-5156.99365234375,0.0,12678.3056640625,15906.4921875,4975.0009765625,5594.0947265625,5713.30419921875,9374.6181640625,6413.4599609375,14897.1875,11424.2236328125,27341.046875,-1029.96826171875,3747.93994140625,8174.57861328125,18059.412109375,-5845.228515625,5724.43017578125,22965.2734375,-5852.38134765625,-3555.61572265625,8198.4208984375,13895.8291015625,14920.234375,9275.27734375,11489.3916015625,9761.6513671875,-0.0,6265.64013671875,32478.96875,35582.3828125,12307.9619140625,22849.2421875,18623.669921875,-4418.69091796875,-3422.101318359375,7936.16015625,19400.119140625,11609.3955078125,16903.876953125,13467.470703125,4245.43994140625,696.1822509765625,14026.1650390625,0.0,5826.9501953125,10416.5078125,10559.55859375,9615.4208984375,15330.314453125,12077.4912109375,20012.85546875,-11303.4248046875,6173.45166015625,11134.1474609375,4602.2734375,3445.1484375,3298.12353515625,0.0,13193.2900390625
8615.6533203125,6761.55078125,16796.58984375,12135.505859375,20918.845703125,8792.0830078125,11844.634765625,17152.62890625,8249.283203125,12025.8330078125,10770.162109375,11019.70703125,-5145.07275390625,0.0,12686.2529296875,15904.9033203125,4978.1796875,5596.47900390625,5715.68798828125,9377.796875,6414.2548828125,14901.9560546875,11426.6083984375,27344.2265625,-1026.789306640625,3754.2978515625,8178.5517578125,18064.1796875,-5838.076171875,5737.9404296875,22970.041015625,-5849.20263671875,-3551.64208984375,8199.21484375,13897.4189453125,14926.5927734375,9279.2509765625,11491.775390625,9732.24609375,-0.0,6262.46142578125,32486.916015625,35587.15234375,12310.345703125,22855.599609375,18622.875,-4407.564453125,-3430.048583984375,7939.3388671875,19408.068359375,11616.5478515625,16903.876953125,13471.4443359375,4253.3876953125,708.8978881835938,14038.0859375,0.0,5819.00244140625,10423.66015625,10552.40625,9626.5478515625,15334.2890625,12077.4912109375,20035.90234375,-11289.9140625,6187.7568359375,11140.505859375,4604.65771484375,3460.248291015625,3278.25537109375,0.0,13179.779296875
