11390.0498046875,9636.87890625,25808.810546875,7628.599609375,24870.23828125,2107.6201171875,3443.558837890625,3468.195556640625,6483.39599609375,3495.21630859375,12474.8544921875,-3296.5341796875,5002.02197265625,0.0,18400.349609375,1577.5362548828125,21049.181640625,14261.4052734375,6159.14697265625,9235.541015625,18842.220703125,25463.900390625,11920.134765625,14818.5087890625,16140.9375,3987.153564453125,24293.263671875,-6176.63037109375,-0.0,224.90818786621094,9340.4453125,4014.96875,20316.443359375,13395.9453125,8413.7919921875,20646.25390625,7408.4599609375,8638.69921875,3512.700439453125,-764.5289306640625,19330.18359375,4854.2021484375,14313.857421875,5798.33984375,2686.1826171875,8927.9814453125,10118.484375,-167.68772888183594,3887.017578125,-1252.4923095703125,10709.7626953125,-131.92494201660156,2522.468505859375,-670.7509155273438,2855.4599609375,2555.052490234375,19503.435546875,2666.314453125,9364.287109375,58.01518630981445,7558.6640625,22450.2890625,18573.603515625,13883.1142578125,-0.0,-49668.94921875,15910.466796875,5633.8310546875,0.0,5847.61279296875,0.0,0.0
11385.28125,9638.46875,25808.015625,7619.06298828125,24864.673828125,2103.646484375,3441.1748046875,3467.40087890625,6483.39599609375,3494.421630859375,12479.623046875,-3302.89208984375,5008.37939453125,0.0,18400.349609375,1579.125732421875,21043.619140625,14258.2255859375,6155.9677734375,9235.541015625,18837.451171875,25458.3359375,11915.3662109375,14814.5361328125,16132.990234375,3979.2060546875,24288.49609375,-6180.6044921875,-0.0,218.5503692626953,9335.6767578125,4010.200439453125,20313.263671875,13388.79296875,8408.228515625,20642.28125,7405.28125,8634.7265625,3503.95849609375,-770.88671875,19325.4140625,4846.2548828125,14311.47265625,5795.16064453125,2683.798583984375,8924.8017578125,10124.046875,-166.09828186035156,3872.71240234375,-1255.671142578125,10708.1728515625,-132.7196807861328,2524.852783203125,-660.41943359375,2864.201904296875,2545.515869140625,19501.84375,2667.109130859375,9365.8759765625,55.63100051879883,7552.3056640625,22445.51953125,18573.603515625,13885.498046875,-0.0,-49668.15234375,15910.466796875,5639.39404296875,0.0,5846.818359375,0.0,0.0
11386.87109375,9642.44140625,25811.1953125,7625.4208984375,24872.62109375,2098.08349609375,3445.1484375,3465.0166015625,6482.60107421875,3492.03759765625,12497.90234375,-3298.91845703125,5023.4794921875,0.0,18405.119140625,1573.5626220703125,21044.412109375,14260.609375,6154.37841796875,9234.74609375,18838.248046875,25454.36328125,11918.544921875,14812.9462890625,16146.501953125,3971.258544921875,24296.44140625,-6185.373046875,-0.0,220.1398162841797,9337.265625,4010.995361328125,20315.646484375,13388.79296875,8409.8173828125,20639.1015625,7407.6650390625,8633.13671875,3509.521484375,-772.4761962890625,19331.7734375,4839.10205078125,14318.625,5795.16064453125,2687.77197265625,8924.0078125,10130.4052734375,-153.3826141357422,3887.812255859375,-1259.6448974609375,10712.94140625,-137.48805236816406,2532.00537109375,-656.44580078125,2880.89111328125,2541.5419921875,19507.408203125,2665.519775390625,9369.8505859375,52.45208740234375,7553.8955078125,22443.9296875,18573.603515625,13883.908203125,-0.0,-49666.56640625,15912.0556640625,5639.39404296875,0.0,5843.63916015625,0.0,0.0
11381.30859375,9639.2626953125,25804.837890625,7628.599609375,24869.44140625,2096.493896484375,3445.1484375,3461.837890625,6482.60107421875,3491.24267578125,12499.4912109375,-3294.94482421875,5009.96923828125,0.0,18407.50390625,1569.5889892578125,21040.439453125,14255.8408203125,6150.404296875,9234.74609375,18832.68359375,25448.798828125,11913.7763671875,14807.3837890625,16134.5810546875,3973.642822265625,24299.62109375,-6187.7568359375,-0.0,217.75563049316406,9331.703125,4007.81640625,20310.87890625,13386.4091796875,8406.638671875,20634.33203125,7405.28125,8629.1630859375,3512.700439453125,-772.4761962890625,19327.798828125,4839.89697265625,14317.830078125,5788.80322265625,2687.77197265625,8919.2392578125,10125.63671875,-143.0511474609375,3889.401611328125,-1255.671142578125,10714.53125,-140.66696166992188,2525.6474609375,-658.8300170898438,2878.5068359375,2545.515869140625,19509.79296875,2666.314453125,9370.64453125,51.6573600769043,7549.92138671875,22438.3671875,18572.01171875,13887.8818359375,-0.0,-49666.56640625,15914.4404296875,5641.7783203125,0.0,5849.20263671875,0.0,0.0
11372.56640625,9640.8525390625,25800.0703125,7631.77880859375,24863.87890625,2099.673095703125,3448.327392578125,3461.043212890625,6485.7802734375,3494.421630859375,12489.1591796875,-3291.765869140625,4993.27978515625,0.0,18405.9140625,1571.178466796875,21038.0546875,14251.8681640625,6150.404296875,9238.7197265625,18827.916015625,25449.59375,11912.1865234375,14804.9990234375,16121.8642578125,3977.61669921875,24303.59375,-6184.578125,-0.0,222.5240020751953,9329.3193359375,4004.63720703125,20305.314453125,13385.61328125,8402.6650390625,20631.154296875,7403.69189453125,8629.9580078125,3516.674072265625,-778.039306640625,19319.853515625,4843.076171875,14315.4462890625,5787.2138671875,2688.56689453125,8921.623046875,10116.89453125,-139.8722381591797,3876.68603515625,-1250.108154296875,10717.7099609375,-139.8722381591797,2522.468505859375,-661.2141723632812,2867.380859375,2551.078857421875,19495.486328125,2669.493408203125,9373.0283203125,55.63100051879883,7548.33203125,22434.392578125,18571.21875,13891.060546875,-0.0,-49662.58984375,15914.4404296875,5642.57275390625,0.0,5851.5869140625,0.0,0.0
11356.6708984375,9628.931640625,25783.380859375,7616.6787109375,24849.572265625,2085.367919921875,3439.58544921875,3445.943115234375,6477.0380859375,3480.9111328125,12470.8818359375,-3310.83935546875,4975.7958984375,0.0,18399.556640625,1556.873291015625,21022.955078125,14236.767578125,6139.2783203125,9225.208984375,18814.40625,25434.494140625,11901.0615234375,14791.48828125,16099.611328125,3959.337646484375,24294.853515625,-6199.677734375,-0.0,224.11346435546875,9312.6298828125,3990.33203125,20291.009765625,13368.1298828125,8389.1552734375,20615.259765625,7393.3603515625,8616.447265625,3501.57421875,-794.7285766601562,19303.95703125,4829.5654296875,14305.115234375,5774.498046875,2679.82470703125,8908.1123046875,10098.6162109375,-162.1246337890625,3862.380859375,-1269.181640625,10712.146484375,-152.587890625,2504.984619140625,-672.3403930664062,2853.07568359375,2533.5947265625,19486.74609375,2653.598876953125,9362.697265625,42.1206169128418,7536.4111328125,22421.677734375,18560.88671875,13875.9609375,-0.0,-49681.6640625,15898.5458984375,5628.267578125,0.0,5840.46044921875,0.0,0.0
11363.029296875,9625.7529296875,25776.228515625,7607.93701171875,24847.984375,2081.394287109375,3436.406494140625,3442.76416015625,6478.62744140625,3478.527099609375,12474.060546875,-3321.965576171875,4972.61669921875,0.0,18395.58203125,1554.4891357421875,21017.392578125,14233.5888671875,6136.09912109375,9225.208984375,18809.63671875,25429.7265625,11897.8818359375,14787.5146484375,16094.8427734375,3954.5693359375,24282.931640625,-6203.6513671875,-0.0,189.9401397705078,9307.861328125,3987.947998046875,20286.2421875,13363.361328125,8383.591796875,20611.287109375,7390.18115234375,8614.0634765625,3498.395263671875,-801.08642578125,19300.779296875,4827.97607421875,14302.73046875,5772.90869140625,2680.619384765625,8905.728515625,10097.8212890625,-179.60865783691406,3859.996826171875,-1278.7183837890625,10707.3779296875,-154.97207641601562,2504.984619140625,-685.0560302734375,2849.10205078125,2520.879150390625,19495.486328125,2650.419921875,9360.3134765625,39.73643112182617,7523.6953125,22418.498046875,18558.501953125,13875.1669921875,-0.0,-49688.81640625,15897.7509765625,5623.49951171875,0.0,5842.05029296875,0.0,0.0
11382.8974609375,9641.6474609375,25795.30078125,7623.03662109375,24862.2890625,2098.878173828125,3439.58544921875,3455.47998046875,6487.36962890625,3488.063720703125,12489.1591796875,-3305.276123046875,4995.6640625,0.0,18401.94140625,1569.5889892578125,21030.90234375,14245.509765625,6147.22607421875,9233.951171875,18823.94140625,25442.44140625,11909.0078125,14801.025390625,16117.8916015625,3977.61669921875,24292.46875,-6184.578125,-0.0,210.6030731201172,9319.7822265625,4006.22705078125,20300.546875,13378.4609375,8393.923828125,20624.001953125,7396.5390625,8625.984375,3512.700439453125,-781.2182006835938,19318.26171875,4839.10205078125,14313.857421875,5788.80322265625,2687.77197265625,8916.8544921875,10124.8427734375,-154.97207641601562,3873.50732421875,-1259.6448974609375,10702.6103515625,-140.66696166992188,2512.13720703125,-665.1878662109375,2856.254638671875,2548.694580078125,19517.740234375,2666.314453125,9365.08203125,50.86262893676758,7529.2587890625,22428.83203125,18567.244140625,13885.498046875,-0.0,-49673.71875,15910.466796875,5631.44677734375,0.0,5845.228515625,0.0,0.0
11382.8974609375,9640.8525390625,25798.478515625,7619.85791015625,24863.083984375,2102.851806640625,3444.353759765625,3460.248291015625,6490.548828125,3490.447998046875,12485.1865234375,-3289.3818359375,5002.81689453125,0.0,18405.119140625,1574.357421875,21030.107421875,14243.1259765625,6148.81494140625,9233.1572265625,18823.94140625,25439.26171875,11912.1865234375,14803.4091796875,16121.0693359375,3985.563720703125,24299.62109375,-6179.0146484375,-0.0,233.65020751953125,9318.98828125,4003.0478515625,20300.546875,13376.8720703125,8394.7177734375,20624.001953125,7398.92333984375,8628.3681640625,3507.13720703125,-783.6024169921875,19316.673828125,4835.12890625,14313.857421875,5793.5712890625,2691.745849609375,8919.2392578125,10135.173828125,-147.02479553222656,3875.0966796875,-1251.697509765625,10709.7626953125,-138.28277587890625,2507.368896484375,-669.9561767578125,2857.04931640625,2566.178466796875,19509.79296875,2671.082763671875,9368.2607421875,51.6573600769043,7535.6162109375,22429.625,18568.833984375,13885.498046875,-0.0,-49664.1796875,15912.8515625,5640.9833984375,0.0,5845.228515625,0.0,0.0
11386.0771484375,9642.44140625,25799.275390625,7625.4208984375,24851.1640625,2106.82568359375,3442.76416015625,3460.248291015625,6491.34326171875,3488.8583984375,12487.5703125,-3290.970947265625,4993.27978515625,0.0,18404.326171875,1568.794189453125,21030.90234375,14240.7421875,6149.60986328125,9233.1572265625,18821.55859375,25441.646484375,11909.802734375,14803.4091796875,16123.453125,3983.974365234375,24286.111328125,-6178.22021484375,-0.0,235.2396697998047,9317.3984375,4004.63720703125,20298.95703125,13377.666015625,8389.9501953125,20624.001953125,7393.3603515625,8625.984375,3506.342529296875,-782.012939453125,19313.494140625,4839.10205078125,14305.9091796875,5798.33984375,2693.335205078125,8918.4443359375,10130.4052734375,-141.46168518066406,3870.328125,-1247.723876953125,10710.556640625,-139.8722381591797,2515.31591796875,-668.3667602539062,2856.254638671875,2560.615478515625,19495.486328125,2666.314453125,9367.4658203125,51.6573600769043,7548.33203125,22428.03515625,18568.0390625,13879.935546875,-0.0,-49664.97265625,15912.8515625,5640.9833984375,0.0,5846.0234375,0.0,0.0
11390.0498046875,9648.005859375,25800.86328125,7632.57373046875,24855.931640625,2107.6201171875,3447.53271484375,3463.42724609375,6498.49560546875,3491.24267578125,12492.3388671875,-3288.5869140625,4996.45849609375,0.0,18409.09375,1570.3836669921875,21032.4921875,14243.919921875,6152.78857421875,9237.1298828125,18825.53125,25444.03125,11915.3662109375,14806.587890625,16125.8369140625,3983.974365234375,24292.46875,-6175.041015625,-0.0,230.47129821777344,9321.3720703125,4007.021484375,20300.546875,13380.05078125,8393.1279296875,20625.591796875,7397.33349609375,8629.9580078125,3507.931884765625,-779.6287841796875,19319.853515625,4839.89697265625,14311.47265625,5803.1083984375,2694.924560546875,8920.8291015625,10126.431640625,-149.4089813232422,3879.0703125,-1241.3660888671875,10717.7099609375,-136.6933135986328,2517.7001953125,-668.3667602539062,2851.486328125,2560.615478515625,19501.05078125,2668.698486328125,9369.8505859375,54.836273193359375,7554.68994140625,22431.21484375,18572.806640625,13889.4716796875,-0.0,-49663.3828125,15912.8515625,5641.7783203125,0.0,5845.228515625,0.0,0.0
11392.4345703125,9642.44140625,25801.658203125,7613.5,24852.751953125,2103.646484375,3441.9697265625,3459.45361328125,6493.72705078125,3484.885009765625,12506.64453125,-3294.150146484375,5000.4326171875,0.0,18400.349609375,1564.8206787109375,21027.72265625,14243.1259765625,6147.22607421875,9230.7734375,18820.76171875,25440.8515625,11912.1865234375,14801.8193359375,16119.48046875,3980.79541015625,24289.2890625,-6181.39892578125,-0.0,219.3450927734375,9318.98828125,4003.0478515625,20298.162109375,13376.0771484375,8389.9501953125,20622.412109375,7392.5654296875,8625.984375,3514.289794921875,-800.2916870117188,19315.876953125,4839.10205078125,14306.7041015625,5796.75048828125,2689.361572265625,8916.8544921875,10140.736328125,-168.4824676513672,3873.50732421875,-1241.3660888671875,10710.556640625,-141.46168518066406,2531.210693359375,-679.492919921875,2856.254638671875,2556.641845703125,19505.0234375,2667.109130859375,9364.287109375,48.47844314575195,7549.126953125,22427.240234375,18564.859375,13884.7041015625,-0.0,-49668.15234375,15905.69921875,5628.267578125,0.0,5838.87109375,0.0,0.0
11382.1025390625,9631.31640625,25797.685546875,7599.9892578125,24847.984375,2097.288818359375,3432.432861328125,3453.890625,6489.75390625,3479.32177734375,12492.3388671875,-3296.5341796875,5004.40576171875,0.0,18390.01953125,1558.4627685546875,21025.33984375,14237.5634765625,6141.66259765625,9225.208984375,18819.173828125,25440.05859375,11905.8291015625,14799.435546875,16124.248046875,3976.027099609375,24274.19140625,-6189.34619140625,-0.0,220.1398162841797,9316.603515625,4001.458740234375,20296.57421875,13374.48828125,8385.9755859375,20621.619140625,7386.20751953125,8622.009765625,3517.46875,-800.2916870117188,19313.494140625,4837.51318359375,14298.7568359375,5788.80322265625,2683.003662109375,8911.2919921875,10131.9951171875,-170.8666534423828,3868.73876953125,-1250.108154296875,10697.046875,-145.43533325195312,2514.521240234375,-677.9035034179688,2872.94384765625,2551.87353515625,19510.587890625,2665.519775390625,9356.33984375,41.32588577270508,7543.56396484375,22424.85546875,18559.296875,13878.345703125,-0.0,-49675.3046875,15904.9033203125,5617.1416015625,0.0,5833.3076171875,0.0,0.0
11378.9248046875,9636.87890625,25796.095703125,7616.6787109375,24849.572265625,2102.05712890625,3436.406494140625,3457.864013671875,6484.1904296875,3483.29541015625,12488.365234375,-3289.3818359375,4984.53759765625,0.0,18388.4296875,1564.8206787109375,21034.08203125,14243.1259765625,6145.63623046875,9224.4150390625,18827.119140625,25445.619140625,11908.2138671875,14805.7939453125,16118.6845703125,3981.59033203125,24276.57421875,-6186.9619140625,-0.0,231.26602172851562,9322.9609375,4007.81640625,20301.341796875,13382.4345703125,8390.744140625,20626.38671875,7387.00244140625,8626.7783203125,3501.57421875,-773.2709350585938,19313.494140625,4843.076171875,14301.140625,5791.1875,2683.003662109375,8915.2646484375,10123.2529296875,-150.99842834472656,3867.1494140625,-1254.87646484375,10696.251953125,-139.8722381591797,2514.521240234375,-660.41943359375,2869.76513671875,2553.462890625,19501.84375,2663.93017578125,9353.1611328125,46.88898849487305,7545.9482421875,22428.03515625,18564.06640625,13874.37109375,-0.0,-49657.8203125,15905.69921875,5631.44677734375,0.0,5840.46044921875,0.0,0.0
11380.513671875,9635.2890625,25803.248046875,7623.03662109375,24854.341796875,2107.6201171875,3436.406494140625,3461.043212890625,6479.421875,3484.090087890625,12496.3125,-3285.407958984375,4990.10107421875,0.0,18390.01953125,1568.794189453125,21040.439453125,14255.8408203125,6149.60986328125,9220.4404296875,18832.68359375,25451.18359375,11913.7763671875,14810.5625,16121.0693359375,3982.38525390625,24288.49609375,-6179.0146484375,-0.0,234.44493103027344,9330.9091796875,4015.763671875,20308.494140625,13387.998046875,8398.6923828125,20631.94921875,7389.38671875,8632.3427734375,3519.05810546875,-755.786865234375,19321.44140625,4847.0498046875,14305.9091796875,5796.75048828125,2684.59326171875,8918.4443359375,10131.9951171875,-142.2564239501953,3872.71240234375,-1252.4923095703125,10698.6357421875,-136.6933135986328,2522.468505859375,-654.8563842773438,2864.201904296875,2551.87353515625,19501.05078125,2671.082763671875,9353.955078125,50.86262893676758,7551.51123046875,22431.21484375,18564.06640625,13868.0146484375,-0.0,-49653.0546875,15904.1083984375,5637.8046875,0.0,5845.228515625,0.0,0.0
11376.5400390625,9626.5478515625,25802.453125,7619.06298828125,24856.7265625,2108.414794921875,3440.380126953125,3461.837890625,6485.7802734375,3484.885009765625,12500.2861328125,-3281.434326171875,5003.611328125,0.0,18393.994140625,1568.794189453125,21041.234375,14258.2255859375,6151.19921875,9223.6201171875,18832.68359375,25452.771484375,11917.75,14811.3564453125,16125.8369140625,3972.848388671875,24297.23828125,-6180.6044921875,-0.0,224.11346435546875,9334.0869140625,4016.55810546875,20308.494140625,13387.998046875,8398.6923828125,20635.923828125,7393.3603515625,8632.3427734375,3524.621337890625,-757.3763427734375,19324.62109375,4844.66552734375,14310.677734375,5799.92919921875,2688.56689453125,8918.4443359375,10131.2001953125,-154.17735290527344,3883.0439453125,-1254.081787109375,10704.2001953125,-135.89859008789062,2515.31591796875,-664.3931274414062,2866.5859375,2544.720947265625,19504.228515625,2673.467041015625,9357.9296875,52.45208740234375,7548.33203125,22434.392578125,18563.271484375,13873.5771484375,-0.0,-49651.4609375,15905.69921875,5636.21533203125,0.0,5845.228515625,0.0,0.0
11381.30859375,9628.931640625,25804.837890625,7617.4736328125,24856.7265625,2107.6201171875,3438.79052734375,3459.45361328125,6487.36962890625,3484.090087890625,12505.0546875,-3279.844970703125,5008.37939453125,0.0,18390.814453125,1569.5889892578125,21042.82421875,14259.8154296875,6151.19921875,9225.208984375,18836.65625,25454.36328125,11918.544921875,14812.15234375,16126.6328125,3971.258544921875,24286.111328125,-6183.783203125,-0.0,224.11346435546875,9336.4716796875,4017.35302734375,20310.083984375,13391.9716796875,8399.486328125,20636.716796875,7390.97607421875,8631.546875,3511.90576171875,-766.1183471679688,19326.2109375,4843.87060546875,14309.0888671875,5798.33984375,2688.56689453125,8917.6494140625,10132.7900390625,-159.74044799804688,3876.68603515625,-1260.4395751953125,10701.8154296875,-133.514404296875,2516.110595703125,-669.1614990234375,2875.328125,2546.310546875,19500.255859375,2673.467041015625,9357.9296875,51.6573600769043,7545.1533203125,22435.1875,18563.271484375,13876.755859375,-0.0,-49647.4921875,15905.69921875,5636.21533203125,0.0,5842.8447265625,0.0,0.0
11382.8974609375,9633.7001953125,25801.658203125,7623.8310546875,24857.521484375,2105.236083984375,3439.58544921875,3458.658935546875,6488.16455078125,3483.29541015625,12505.0546875,-3281.434326171875,5009.17431640625,0.0,18393.994140625,1567.99951171875,21044.412109375,14260.609375,6151.19921875,9224.4150390625,18835.86328125,25455.15625,11920.134765625,14811.3564453125,16117.095703125,3972.053466796875,24283.728515625,-6186.9619140625,-0.0,224.11346435546875,9334.0869140625,4016.55810546875,20310.87890625,13391.9716796875,8401.076171875,20635.923828125,7392.5654296875,8629.9580078125,3509.521484375,-770.092041015625,19326.2109375,4842.28125,14309.8828125,5795.16064453125,2689.361572265625,8915.2646484375,10123.2529296875,-171.661376953125,3867.1494140625,-1266.002685546875,10702.6103515625,-133.514404296875,2520.08447265625,-670.7509155273438,2872.94384765625,2549.4892578125,19495.486328125,2667.90380859375,9357.134765625,49.27317428588867,7544.35888671875,22435.1875,18564.06640625,13873.5771484375,-0.0,-49653.0546875,15904.9033203125,5633.8310546875,0.0,5841.25537109375,0.0,0.0
11374.9501953125,9640.0576171875,25800.0703125,7625.4208984375,24863.083984375,2098.878173828125,3441.1748046875,3454.685302734375,6483.39599609375,3477.732421875,12500.2861328125,-3286.20263671875,4995.6640625,0.0,18393.197265625,1563.2310791015625,21038.0546875,14254.251953125,6146.43115234375,9219.646484375,18830.298828125,25451.18359375,11917.75,14807.3837890625,16117.8916015625,3972.053466796875,24299.62109375,-6191.73046875,-0.0,217.75563049316406,9328.5244140625,4009.405517578125,20305.314453125,13387.998046875,8400.28125,20632.744140625,7391.77099609375,8624.39453125,3507.13720703125,-784.3970947265625,19326.2109375,4835.923828125,14314.6513671875,5788.80322265625,2686.977294921875,8911.2919921875,10120.869140625,-168.4824676513672,3866.354736328125,-1269.976318359375,10705.7890625,-140.66696166992188,2516.905517578125,-671.545654296875,2862.612548828125,2545.515869140625,19491.513671875,2667.90380859375,9355.544921875,42.1206169128418,7538.79541015625,22435.1875,18559.296875,13863.24609375,-0.0,-49664.1796875,15903.314453125,5625.8837890625,0.0,5831.71826171875,0.0,0.0
11374.9501953125,9644.03125,25797.685546875,7630.189453125,24860.701171875,2094.904541015625,3444.353759765625,3453.890625,6483.39599609375,3480.11669921875,12484.3916015625,-3283.818603515625,4999.6376953125,0.0,18396.376953125,1563.2310791015625,21034.875,14253.45703125,6149.60986328125,9219.646484375,18827.916015625,25448.798828125,11917.75,14805.7939453125,16124.248046875,3980.0009765625,24294.853515625,-6190.935546875,-0.0,222.5240020751953,9327.7294921875,4007.021484375,20302.13671875,13385.61328125,8401.076171875,20631.154296875,7394.94921875,8625.984375,3507.13720703125,-791.5496826171875,19322.236328125,4838.3076171875,14318.625,5786.4189453125,2688.56689453125,8914.470703125,10123.2529296875,-147.02479553222656,3862.380859375,-1268.3868408203125,10712.146484375,-139.8722381591797,2521.673828125,-662.0089111328125,2857.04931640625,2553.462890625,19498.666015625,2670.2880859375,9359.5185546875,44.50480270385742,7541.1796875,22435.1875,18561.681640625,13866.4248046875,-0.0,-49659.4140625,15906.4921875,5626.6787109375,0.0,5832.51318359375,0.0,0.0
11369.3876953125,9635.2890625,25791.326171875,7622.2421875,24850.369140625,2086.16259765625,3434.817138671875,3448.327392578125,6475.44873046875,3476.142822265625,12485.1865234375,-3292.560546875,5000.4326171875,0.0,18393.197265625,1559.257568359375,21028.51953125,14244.7158203125,6141.66259765625,9216.4677734375,18819.966796875,25440.8515625,11905.8291015625,14797.8466796875,16128.2216796875,3977.61669921875,24276.57421875,-6196.4990234375,-0.0,220.93455505371094,9318.1923828125,3999.074462890625,20295.77734375,13376.8720703125,8392.333984375,20622.412109375,7386.20751953125,8618.83203125,3499.98486328125,-791.5496826171875,19313.494140625,4833.53955078125,14306.7041015625,5776.08740234375,2680.619384765625,8908.908203125,10120.07421875,-143.0511474609375,3871.917724609375,-1277.1287841796875,10701.8154296875,-143.8458709716797,2519.289794921875,-669.1614990234375,2857.843994140625,2559.026123046875,19504.228515625,2655.188232421875,9356.33984375,39.73643112182617,7537.2060546875,22428.03515625,18555.322265625,13863.24609375,-0.0,-49665.76953125,15904.9033203125,5625.8837890625,0.0,5829.33447265625,0.0,0.0
11372.56640625,9626.5478515625,25788.94140625,7618.2685546875,24853.548828125,2081.394287109375,3430.048583984375,3446.738037109375,6469.0908203125,3472.169189453125,12494.7236328125,-3299.713134765625,5004.40576171875,0.0,18395.58203125,1559.257568359375,21027.72265625,14242.3310546875,6139.2783203125,9214.083984375,18819.173828125,25437.673828125,11902.6494140625,14793.873046875,16136.96484375,3968.87451171875,24286.90625,-6198.08837890625,-0.0,216.1661834716797,9315.013671875,3999.074462890625,20296.57421875,13376.0771484375,8390.744140625,20617.642578125,7382.23388671875,8616.447265625,3505.5478515625,-785.986572265625,19316.673828125,4828.77099609375,14305.9091796875,5771.31884765625,2675.056396484375,8904.93359375,10120.869140625,-153.3826141357422,3885.42822265625,-1281.897216796875,10698.6357421875,-147.81951904296875,2515.31591796875,-681.0823974609375,2865.791259765625,2548.694580078125,19510.587890625,2653.598876953125,9356.33984375,37.35224533081055,7535.6162109375,22425.65234375,18553.734375,13856.09375,-0.0,-49672.921875,15904.1083984375,5625.8837890625,0.0,5822.181640625,0.0,0.0
11379.71875,9633.7001953125,25788.1484375,7623.8310546875,24853.548828125,2085.367919921875,3436.406494140625,3453.095703125,6470.68017578125,3475.34814453125,12493.1337890625,-3291.765869140625,4998.04833984375,0.0,18398.76171875,1569.5889892578125,21030.90234375,14246.3046875,6143.251953125,9216.4677734375,18820.76171875,25438.466796875,11905.0341796875,14800.2314453125,16122.66015625,3968.87451171875,24291.673828125,-6186.9619140625,-0.0,216.96090698242188,9317.3984375,4003.8427734375,20298.162109375,13378.4609375,8391.5400390625,20619.234375,7387.796875,8621.2158203125,3507.931884765625,-782.8076782226562,19313.494140625,4830.3603515625,14311.47265625,5780.06103515625,2679.0302734375,8911.2919921875,10120.07421875,-165.3035430908203,3877.480712890625,-1272.3604736328125,10704.2001953125,-138.28277587890625,2518.494873046875,-682.671875,2869.76513671875,2537.568359375,19506.61328125,2671.082763671875,9359.5185546875,43.7100715637207,7542.76904296875,22426.447265625,18557.70703125,13855.2978515625,-0.0,-49661.0,15904.9033203125,5635.42041015625,0.0,5824.56591796875,0.0,0.0
11366.2080078125,9632.1103515625,25777.021484375,7615.88427734375,24841.626953125,2079.010009765625,3428.459228515625,3445.943115234375,6466.70654296875,3473.7587890625,12475.6494140625,-3298.12353515625,4990.10107421875,0.0,18394.7890625,1567.99951171875,21020.5703125,14229.615234375,6136.09912109375,9213.2880859375,18808.841796875,25428.13671875,11894.703125,14791.48828125,16103.5859375,3971.258544921875,24275.779296875,-6195.7041015625,-0.0,214.57672119140625,9307.0673828125,3994.30615234375,20287.037109375,13369.7197265625,8378.8232421875,20610.490234375,7381.439453125,8615.6533203125,3496.010986328125,-793.13916015625,19299.984375,4824.79736328125,14300.3466796875,5774.498046875,2675.056396484375,8908.1123046875,10102.58984375,-178.81393432617188,3864.76513671875,-1276.3341064453125,10699.431640625,-144.64060974121094,2500.21630859375,-693.798095703125,2853.07568359375,2532.00537109375,19499.4609375,2672.67236328125,9356.33984375,39.73643112182617,7532.43798828125,22416.115234375,18552.14453125,13859.2724609375,-0.0,-49664.1796875,15909.671875,5628.267578125,0.0,5825.36083984375,0.0,0.0
11371.771484375,9636.87890625,25788.1484375,7620.65283203125,24848.779296875,2088.546875,3430.84326171875,3448.327392578125,6470.68017578125,3478.527099609375,12480.41796875,-3291.765869140625,4994.07421875,0.0,18397.966796875,1574.357421875,21026.9296875,14232.794921875,6137.68896484375,9216.4677734375,18812.814453125,25436.87890625,11896.29296875,14794.6669921875,16111.5322265625,3999.868896484375,24278.958984375,-6194.11474609375,-0.0,223.31874084472656,9311.0400390625,4000.663818359375,20292.6015625,13377.666015625,8382.0029296875,20616.849609375,7383.0283203125,8618.037109375,3515.08447265625,-792.3444213867188,19307.931640625,4835.923828125,14305.9091796875,5780.06103515625,2675.85107421875,8909.7021484375,10115.3056640625,-167.68772888183594,3867.1494140625,-1266.002685546875,10701.8154296875,-145.43533325195312,2504.189697265625,-686.6455078125,2849.896728515625,2554.257568359375,19501.84375,2680.619384765625,9358.7236328125,45.299530029296875,7538.00048828125,22420.087890625,18555.322265625,13864.0400390625,-0.0,-49653.0546875,15908.0830078125,5635.42041015625,0.0,5829.33447265625,0.0,0.0
11367.7978515625,9625.7529296875,25792.12109375,7618.2685546875,24851.1640625,2090.930908203125,3432.432861328125,3449.916748046875,6468.2958984375,3479.32177734375,12492.3388671875,-3283.818603515625,4994.869140625,0.0,18399.556640625,1570.3836669921875,21028.51953125,14233.5888671875,6139.2783203125,9218.8515625,18816.7890625,25436.87890625,11894.703125,14795.462890625,16123.453125,3988.742919921875,24283.728515625,-6194.11474609375,-0.0,216.1661834716797,9313.423828125,3999.868896484375,20297.369140625,13377.666015625,8383.591796875,20616.849609375,7383.8232421875,8619.6259765625,3487.26904296875,-805.8547973632812,19312.701171875,4835.12890625,14310.677734375,5780.85546875,2674.26171875,8909.7021484375,10128.8154296875,-164.50881958007812,3870.328125,-1261.2342529296875,10703.404296875,-147.02479553222656,2504.189697265625,-679.492919921875,2857.843994140625,2551.078857421875,19503.435546875,2673.467041015625,9359.5185546875,47.6837158203125,7537.2060546875,22422.47265625,18556.1171875,13866.4248046875,-0.0,-49647.4921875,15903.314453125,5637.8046875,0.0,5834.1025390625,0.0,0.0
11359.8505859375,9611.447265625,25792.91796875,7615.88427734375,24850.369140625,2093.315185546875,3431.637939453125,3452.301025390625,6465.1171875,3480.11669921875,12492.3388671875,-3290.17626953125,4986.12744140625,0.0,18397.966796875,1567.204833984375,21028.51953125,14235.9736328125,6138.4833984375,9218.8515625,18815.19921875,25438.466796875,11890.728515625,14797.0517578125,16120.275390625,3980.79541015625,24282.13671875,-6193.31982421875,-0.0,209.0136260986328,9313.423828125,4000.663818359375,20298.95703125,13378.4609375,8384.38671875,20618.439453125,7382.23388671875,8619.6259765625,3486.474365234375,-795.5233154296875,19312.701171875,4834.333984375,14309.8828125,5780.85546875,2673.467041015625,8909.7021484375,10130.4052734375,-161.3299102783203,3865.559814453125,-1257.2606201171875,10703.404296875,-147.02479553222656,2504.984619140625,-681.0823974609375,2853.870361328125,2540.747314453125,19497.87109375,2668.698486328125,9358.7236328125,46.09425735473633,7538.79541015625,22420.8828125,18556.1171875,13867.21875,-0.0,-49657.8203125,15904.9033203125,5631.44677734375,0.0,5841.25537109375,0.0,0.0
11356.6708984375,9606.6787109375,25794.505859375,7620.65283203125,24854.341796875,2087.752197265625,3435.61181640625,3453.890625,6468.2958984375,3484.090087890625,12482.0068359375,-3289.3818359375,4994.869140625,0.0,18402.734375,1567.99951171875,21029.314453125,14236.767578125,6142.45751953125,9225.208984375,18819.173828125,25440.8515625,11893.908203125,14796.2568359375,16129.0166015625,3966.490234375,24291.673828125,-6194.11474609375,-0.0,212.9872589111328,9315.013671875,4000.663818359375,20300.546875,13380.8447265625,8389.1552734375,20618.439453125,7386.20751953125,8621.2158203125,3492.832275390625,-779.6287841796875,19314.2890625,4831.1552734375,14313.857421875,5779.2666015625,2677.440673828125,8912.880859375,10124.046875,-162.9193572998047,3873.50732421875,-1263.618408203125,10708.9677734375,-146.2300567626953,2503.39501953125,-683.4666137695312,2839.565185546875,2535.18408203125,19504.228515625,2665.519775390625,9365.8759765625,50.067901611328125,7535.6162109375,22426.447265625,18561.681640625,13875.1669921875,-0.0,-49664.1796875,15909.671875,5630.65185546875,0.0,5848.40771484375,0.0,0.0
11361.439453125,9621.779296875,25795.30078125,7619.06298828125,24861.494140625,2086.16259765625,3437.201171875,3453.095703125,6469.88525390625,3484.885009765625,12491.5439453125,-3295.739501953125,5002.81689453125,0.0,18403.529296875,1566.4100341796875,21032.4921875,14240.7421875,6144.046875,9226.798828125,18823.94140625,25440.8515625,11897.0869140625,14797.0517578125,16144.1171875,3967.28515625,24294.05859375,-6195.7041015625,-0.0,216.1661834716797,9318.1923828125,3999.868896484375,20302.13671875,13379.255859375,8393.1279296875,20620.02734375,7388.591796875,8623.599609375,3496.010986328125,-785.986572265625,19319.853515625,4829.5654296875,14317.0361328125,5780.06103515625,2677.440673828125,8913.67578125,10120.07421875,-162.1246337890625,3880.659912109375,-1267.592041015625,10708.1728515625,-148.61424255371094,2500.21630859375,-677.9035034179688,2857.04931640625,2548.694580078125,19505.0234375,2661.5458984375,9365.8759765625,50.86262893676758,7532.43798828125,22429.625,18562.474609375,13878.345703125,-0.0,-49674.51171875,15912.0556640625,5628.267578125,0.0,5849.20263671875,0.0,0.0
11363.029296875,9628.931640625,25796.890625,7618.2685546875,24862.2890625,2089.34130859375,3437.201171875,3452.301025390625,6469.0908203125,3482.500732421875,12496.3125,-3302.097412109375,5016.3271484375,0.0,18401.94140625,1566.4100341796875,21031.697265625,14246.3046875,6144.841796875,9226.798828125,18827.119140625,25441.646484375,11900.265625,14797.8466796875,16145.7060546875,3968.87451171875,24291.673828125,-6195.7041015625,-0.0,216.1661834716797,9319.7822265625,3999.868896484375,20300.546875,13379.255859375,8395.5126953125,20621.619140625,7389.38671875,8623.599609375,3496.010986328125,-785.986572265625,19321.44140625,4831.1552734375,14316.2412109375,5782.4453125,2677.440673828125,8911.2919921875,10117.6904296875,-152.587890625,3885.42822265625,-1269.181640625,10706.583984375,-150.99842834472656,2492.268798828125,-668.3667602539062,2881.68603515625,2545.515869140625,19505.0234375,2656.777587890625,9365.08203125,47.6837158203125,7530.84814453125,22430.419921875,18562.474609375,13872.7822265625,-0.0,-49680.87109375,15912.8515625,5629.857421875,0.0,5846.0234375,0.0,0.0
11366.2080078125,9628.13671875,25790.533203125,7618.2685546875,24852.751953125,2094.10986328125,3435.61181640625,3455.47998046875,6466.70654296875,3485.6796875,12489.1591796875,-3298.12353515625,4994.07421875,0.0,18400.349609375,1569.5889892578125,21030.90234375,14247.89453125,6146.43115234375,9226.798828125,18822.3515625,25444.03125,11901.85546875,14801.025390625,16112.3271484375,3972.053466796875,24283.728515625,-6190.935546875,-0.0,212.19253540039062,9319.7822265625,3999.074462890625,20298.162109375,13377.666015625,8393.1279296875,20624.796875,7390.18115234375,8625.189453125,3496.010986328125,-782.8076782226562,19312.701171875,4833.53955078125,14313.857421875,5786.4189453125,2677.440673828125,8916.060546875,10111.33203125,-156.56153869628906,3864.76513671875,-1262.029052734375,10704.994140625,-144.64060974121094,2501.8056640625,-669.1614990234375,2864.99658203125,2545.515869140625,19496.283203125,2657.572509765625,9364.287109375,50.86262893676758,7534.02734375,22432.0078125,18563.271484375,13874.37109375,-0.0,-49673.71875,15913.64453125,5639.39404296875,0.0,5849.9970703125,0.0,0.0
11369.3876953125,9635.2890625,25791.326171875,7620.65283203125,24851.1640625,2101.262451171875,3439.58544921875,3458.658935546875,6469.88525390625,3486.474365234375,12486.775390625,-3294.150146484375,4975.7958984375,0.0,18397.173828125,1569.5889892578125,21033.287109375,14253.45703125,6150.404296875,9227.59375,18821.55859375,25448.798828125,11906.6240234375,14807.3837890625,16103.5859375,3978.4111328125,24291.673828125,-6184.578125,-0.0,215.37144470214844,9323.755859375,4002.253173828125,20299.75390625,13383.2294921875,8394.7177734375,20631.94921875,7393.3603515625,8628.3681640625,3502.368896484375,-776.4498291015625,19311.109375,4840.69189453125,14314.6513671875,5792.7763671875,2681.414306640625,8915.2646484375,10116.1005859375,-173.25083923339844,3853.638916015625,-1251.697509765625,10706.583984375,-139.07749938964844,2511.34228515625,-667.572021484375,2861.817626953125,2549.4892578125,19478.798828125,2665.519775390625,9363.4921875,51.6573600769043,7534.82177734375,22435.984375,18564.06640625,13875.1669921875,-0.0,-49672.125,15912.8515625,5641.7783203125,0.0,5847.61279296875,0.0,0.0
11374.9501953125,9642.44140625,25793.7109375,7623.03662109375,24851.1640625,2105.236083984375,3445.1484375,3458.658935546875,6477.0380859375,3488.063720703125,12489.1591796875,-3283.02392578125,4972.61669921875,0.0,18397.966796875,1569.5889892578125,21034.875,14259.0205078125,6153.58349609375,9231.5673828125,18823.94140625,25450.388671875,11912.1865234375,14809.767578125,16101.9951171875,3982.38525390625,24290.083984375,-6183.783203125,-0.0,223.31874084472656,9325.3447265625,4003.8427734375,20303.7265625,13386.4091796875,8397.896484375,20634.33203125,7398.12841796875,8630.7529296875,3505.5478515625,-773.2709350585938,19312.701171875,4845.46044921875,14318.625,5795.16064453125,2689.361572265625,8916.060546875,10117.6904296875,-177.22447204589844,3853.638916015625,-1253.2869873046875,10712.94140625,-135.89859008789062,2517.7001953125,-662.8036499023438,2856.254638671875,2557.436767578125,19485.154296875,2671.082763671875,9366.671875,51.6573600769043,7537.2060546875,22438.3671875,18565.654296875,13881.5244140625,-0.0,-49658.61328125,15912.8515625,5633.8310546875,0.0,5846.0234375,0.0,0.0
11385.28125,9648.005859375,25797.685546875,7627.80517578125,24855.931640625,2114.772705078125,3445.943115234375,3463.42724609375,6478.62744140625,3492.03759765625,12492.3388671875,-3263.950439453125,4983.7431640625,0.0,18397.966796875,1578.3310546875,21041.234375,14262.19921875,6156.7626953125,9232.361328125,18831.095703125,25456.74609375,11916.16015625,14816.919921875,16101.9951171875,3993.51123046875,24279.751953125,-6176.63037109375,-0.0,238.4185791015625,9331.703125,4011.789794921875,20307.69921875,13393.5615234375,8401.87109375,20639.896484375,7399.7177734375,8635.5205078125,3509.521484375,-767.7078247070312,19316.673828125,4854.2021484375,14319.419921875,5800.72412109375,2690.15625,8920.8291015625,10122.4580078125,-165.3035430908203,3859.996826171875,-1246.92919921875,10709.7626953125,-130.3354949951172,2520.08447265625,-655.651123046875,2860.228271484375,2575.71533203125,19500.255859375,2683.003662109375,9365.8759765625,58.80991744995117,7546.74267578125,22443.9296875,18569.626953125,13885.498046875,-0.0,-49638.75,15916.029296875,5642.57275390625,0.0,5852.38134765625,0.0,0.0
11381.30859375,9646.416015625,25794.505859375,7634.1630859375,24852.751953125,2117.95166015625,3433.2275390625,3461.837890625,6472.26953125,3489.6533203125,12481.212890625,-3278.25537109375,4984.53759765625,0.0,18390.814453125,1576.7415771484375,21038.8515625,14259.8154296875,6153.58349609375,9226.0048828125,18825.53125,25457.541015625,11914.5712890625,14816.919921875,16101.9951171875,3997.484619140625,24273.396484375,-6176.63037109375,-0.0,240.80276489257812,9331.703125,4009.405517578125,20303.7265625,13394.35546875,8397.1025390625,20638.306640625,7390.97607421875,8633.13671875,3502.368896484375,-771.6814575195312,19314.2890625,4862.14990234375,14311.47265625,5801.51904296875,2680.619384765625,8917.6494140625,10119.279296875,-150.99842834472656,3859.996826171875,-1244.544921875,10689.099609375,-135.10386657714844,2510.547607421875,-661.2141723632812,2859.433349609375,2570.15234375,19501.05078125,2680.619384765625,9353.1611328125,55.63100051879883,7545.1533203125,22440.751953125,18565.654296875,13875.9609375,-0.0,-49643.515625,15908.8759765625,5637.8046875,0.0,5850.7919921875,0.0,0.0
11379.71875,9638.46875,25798.478515625,7635.75244140625,24856.7265625,2115.5673828125,3439.58544921875,3462.63232421875,6480.216796875,3491.24267578125,12485.9814453125,-3292.560546875,4982.1533203125,0.0,18393.197265625,1575.152099609375,21037.259765625,14260.609375,6155.9677734375,9230.7734375,18827.119140625,25455.951171875,11919.3388671875,14816.919921875,16109.1484375,3987.947998046875,24286.111328125,-6180.6044921875,-0.0,212.9872589111328,9329.3193359375,4005.43212890625,20304.521484375,13391.1767578125,8400.28125,20637.51171875,7394.15478515625,8634.7265625,3505.5478515625,-774.065673828125,19318.26171875,4858.17578125,14318.625,5799.92919921875,2686.1826171875,8919.2392578125,10129.611328125,-147.81951904296875,3861.58642578125,-1251.697509765625,10697.046875,-137.48805236816406,2518.494873046875,-671.545654296875,2845.923095703125,2553.462890625,19497.076171875,2671.877685546875,9358.7236328125,54.04154586791992,7542.76904296875,22443.13671875,18568.833984375,13879.935546875,-0.0,-49664.1796875,15911.2607421875,5628.267578125,0.0,5849.9970703125,0.0,0.0
11378.12890625,9636.87890625,25796.095703125,7630.98388671875,24855.13671875,2109.209716796875,3441.9697265625,3464.221923828125,6486.57470703125,3493.626953125,12484.3916015625,-3290.970947265625,4986.921875,0.0,18393.197265625,1575.94677734375,21033.287109375,14256.63671875,6157.55712890625,9233.1572265625,18825.53125,25448.798828125,11920.9287109375,14814.5361328125,16114.7119140625,3981.59033203125,24285.31640625,-6179.8095703125,-0.0,228.0871124267578,9326.140625,4004.63720703125,20302.931640625,13386.4091796875,8399.486328125,20633.5390625,7395.744140625,8635.5205078125,3503.16357421875,-781.2182006835938,19317.46875,4841.486328125,14318.625,5799.92919921875,2690.15625,8923.212890625,10128.021484375,-143.0511474609375,3860.79150390625,-1254.87646484375,10700.2255859375,-135.89859008789062,2515.31591796875,-673.9298706054688,2847.512451171875,2561.41015625,19493.8984375,2674.26171875,9362.697265625,57.220458984375,7540.384765625,22443.13671875,18572.01171875,13882.3193359375,-0.0,-49664.97265625,15914.4404296875,5640.9833984375,0.0,5853.17626953125,0.0,0.0
11368.591796875,9635.2890625,25784.96875,7623.03662109375,24842.419921875,2104.44140625,3433.2275390625,3458.658935546875,6482.60107421875,3485.6796875,12472.470703125,-3292.560546875,4997.25341796875,0.0,18385.251953125,1567.204833984375,21024.544921875,14247.099609375,6150.404296875,9226.798828125,18815.994140625,25440.05859375,11912.1865234375,14805.7939453125,16109.1484375,3981.59033203125,24270.216796875,-6186.9619140625,-0.0,228.8818359375,9318.1923828125,3999.074462890625,20291.8046875,13379.255859375,8389.9501953125,20624.796875,7387.796875,8626.7783203125,3492.03759765625,-784.3970947265625,19305.546875,4834.333984375,14305.115234375,5796.75048828125,2683.798583984375,8915.2646484375,10110.537109375,-141.46168518066406,3867.944091796875,-1255.671142578125,10693.0732421875,-141.46168518066406,2488.29541015625,-680.2876586914062,2861.02294921875,2569.357666015625,19491.513671875,2673.467041015625,9356.33984375,49.27317428588867,7534.82177734375,22434.392578125,18563.271484375,13874.37109375,-0.0,-49664.1796875,15910.466796875,5638.599609375,0.0,5843.63916015625,0.0,0.0
11363.029296875,9630.5205078125,25786.55859375,7619.85791015625,24837.65234375,2102.05712890625,3429.25390625,3453.890625,6481.01171875,3480.11669921875,12466.9072265625,-3292.560546875,4984.53759765625,0.0,18380.484375,1565.6153564453125,21020.5703125,14243.919921875,6145.63623046875,9222.8251953125,18813.609375,25436.08203125,11909.0078125,14801.8193359375,16101.9951171875,3973.642822265625,24263.859375,-6190.14111328125,-0.0,223.31874084472656,9313.423828125,3994.30615234375,20288.625,13378.4609375,8384.38671875,20620.02734375,7381.439453125,8622.009765625,3489.6533203125,-785.986572265625,19302.3671875,4835.12890625,14300.3466796875,5792.7763671875,2679.82470703125,8909.7021484375,10109.7421875,-149.4089813232422,3862.380859375,-1255.671142578125,10685.9208984375,-143.8458709716797,2484.321533203125,-685.8507690429688,2847.512451171875,2559.82080078125,19488.333984375,2671.877685546875,9351.5712890625,45.299530029296875,7531.64306640625,22428.83203125,18557.70703125,13871.193359375,-0.0,-49662.58984375,15912.8515625,5637.8046875,0.0,5839.666015625,0.0,0.0
11370.181640625,9633.7001953125,25790.533203125,7615.08935546875,24841.626953125,2102.05712890625,3431.637939453125,3455.47998046875,6481.80615234375,3480.11669921875,12474.8544921875,-3287.792236328125,4978.974609375,0.0,18379.6875,1568.794189453125,21022.955078125,14243.919921875,6146.43115234375,9222.0302734375,18816.7890625,25436.08203125,11909.802734375,14802.615234375,16103.5859375,3972.053466796875,24265.447265625,-6186.9619140625,-0.0,228.0871124267578,9313.423828125,3998.279541015625,20289.421875,13380.05078125,8385.181640625,20617.642578125,7381.439453125,8624.39453125,3506.342529296875,-778.8340454101562,19306.341796875,4836.71826171875,14302.73046875,5793.5712890625,2680.619384765625,8911.2919921875,10104.9736328125,-153.3826141357422,3856.023193359375,-1254.081787109375,10685.1259765625,-141.46168518066406,2494.653076171875,-682.671875,2847.512451171875,2552.668212890625,19489.130859375,2671.082763671875,9348.392578125,50.86262893676758,7535.6162109375,22425.65234375,18557.70703125,13870.3984375,-0.0,-49654.64453125,15909.671875,5641.7783203125,0.0,5839.666015625,0.0,0.0
11368.591796875,9630.5205078125,25787.353515625,7615.88427734375,24842.419921875,2101.262451171875,3427.66455078125,3450.71142578125,6479.421875,3476.9375,12481.212890625,-3286.99755859375,4981.35888671875,0.0,18378.892578125,1560.846923828125,21022.955078125,14240.7421875,6141.66259765625,9216.4677734375,18814.40625,25435.2890625,11908.2138671875,14799.435546875,16108.3544921875,3978.4111328125,24266.2421875,-6190.14111328125,-0.0,226.49765014648438,9313.423828125,3996.690185546875,20289.421875,13378.4609375,8385.181640625,20616.0546875,7379.05517578125,8622.8056640625,3487.26904296875,-781.2182006835938,19307.931640625,4835.12890625,14302.73046875,5790.392578125,2678.2353515625,8906.5234375,10108.1533203125,-151.7931671142578,3858.4072265625,-1261.2342529296875,10684.3310546875,-149.4089813232422,2506.573974609375,-673.9298706054688,2853.870361328125,2550.2841796875,19488.333984375,2660.75146484375,9346.0078125,41.32588577270508,7534.82177734375,22422.47265625,18553.734375,13867.21875,-0.0,-49657.8203125,15910.466796875,5629.857421875,0.0,5832.51318359375,0.0,0.0
11366.2080078125,9630.5205078125,25792.91796875,7626.21533203125,24848.779296875,2103.646484375,3431.637939453125,3454.685302734375,6485.7802734375,3481.705810546875,12478.0341796875,-3292.560546875,4988.51171875,0.0,18382.8671875,1565.6153564453125,21027.72265625,14243.919921875,6146.43115234375,9221.236328125,18819.173828125,25441.646484375,11913.7763671875,14801.8193359375,16113.123046875,3990.33203125,24271.01171875,-6180.6044921875,-0.0,230.47129821777344,9318.98828125,4002.253173828125,20297.369140625,13384.8193359375,8389.9501953125,20620.02734375,7381.439453125,8626.7783203125,3478.527099609375,-780.4234619140625,19312.701171875,4843.076171875,14308.29296875,5796.75048828125,2682.208984375,8911.2919921875,10116.89453125,-143.8458709716797,3865.559814453125,-1257.2606201171875,10688.3046875,-145.43533325195312,2509.7529296875,-669.1614990234375,2856.254638671875,2550.2841796875,19492.30859375,2669.493408203125,9350.7763671875,43.7100715637207,7536.4111328125,22426.447265625,18556.9140625,13872.7822265625,-0.0,-49661.0,15911.2607421875,5636.21533203125,0.0,5842.05029296875,0.0,0.0
11366.2080078125,9624.9580078125,25790.533203125,7628.599609375,24852.751953125,2103.646484375,3437.995849609375,3462.63232421875,6495.31689453125,3490.447998046875,12474.8544921875,-3295.739501953125,4987.716796875,0.0,18385.251953125,1575.152099609375,21030.107421875,14250.2783203125,6151.994140625,9231.5673828125,18822.3515625,25442.44140625,11919.3388671875,14807.3837890625,16110.73828125,3989.53759765625,24277.369140625,-6176.63037109375,-0.0,222.5240020751953,9322.166015625,4003.0478515625,20299.75390625,13387.203125,8393.1279296875,20621.619140625,7387.00244140625,8632.3427734375,3494.421630859375,-780.4234619140625,19315.083984375,4843.87060546875,14315.4462890625,5799.92919921875,2688.56689453125,8917.6494140625,10115.3056640625,-150.20370483398438,3865.559814453125,-1251.697509765625,10691.4833984375,-139.07749938964844,2506.573974609375,-679.492919921875,2855.4599609375,2548.694580078125,19486.74609375,2676.64599609375,9356.33984375,53.2468147277832,7535.6162109375,22431.21484375,18565.654296875,13882.3193359375,-0.0,-49664.97265625,15912.8515625,5647.34130859375,0.0,5856.35498046875,0.0,0.0
11364.619140625,9620.189453125,25788.1484375,7623.03662109375,24853.548828125,2095.69921875,3439.58544921875,3458.658935546875,6504.05859375,3495.21630859375,12474.8544921875,-3300.5078125,4974.20654296875,0.0,18389.224609375,1575.94677734375,21026.134765625,14247.099609375,6152.78857421875,9237.92578125,18819.173828125,25440.05859375,11919.3388671875,14805.7939453125,16108.3544921875,3977.61669921875,24288.49609375,-6186.16748046875,-0.0,210.6030731201172,9318.98828125,3999.868896484375,20295.77734375,13381.640625,8390.744140625,20619.234375,7388.591796875,8629.1630859375,3501.57421875,-785.1918334960938,19311.904296875,4836.71826171875,14318.625,5795.95556640625,2690.951171875,8919.2392578125,10115.3056640625,-162.1246337890625,3858.4072265625,-1259.6448974609375,10697.046875,-141.46168518066406,2502.600341796875,-687.4402465820312,2849.10205078125,2534.389404296875,19480.38671875,2671.877685546875,9362.697265625,57.220458984375,7530.84814453125,22428.83203125,18566.44921875,13894.240234375,-0.0,-49676.89453125,15917.6201171875,5654.49365234375,0.0,5867.4814453125,0.0,0.0
11363.82421875,9622.57421875,25784.96875,7615.08935546875,24855.13671875,2090.930908203125,3446.738037109375,3459.45361328125,6508.0322265625,3494.421630859375,12470.8818359375,-3299.713134765625,4953.54296875,0.0,18391.609375,1574.357421875,21023.75,14243.919921875,6151.994140625,9238.7197265625,18817.583984375,25438.466796875,11919.3388671875,14801.025390625,16104.3798828125,3970.464111328125,24294.853515625,-6191.73046875,-0.0,208.21888732910156,9316.603515625,3995.8955078125,20291.8046875,13376.8720703125,8393.1279296875,20618.439453125,7390.18115234375,8627.57421875,3496.805908203125,-788.3707885742188,19308.724609375,4832.74462890625,14321.8037109375,5790.392578125,2693.335205078125,8919.2392578125,10110.537109375,-170.8666534423828,3855.228515625,-1264.4132080078125,10703.404296875,-143.8458709716797,2499.42138671875,-691.4138793945312,2839.565185546875,2530.415771484375,19484.361328125,2666.314453125,9366.671875,62.78356170654297,7530.84814453125,22428.03515625,18569.626953125,13897.4189453125,-0.0,-49678.484375,15924.7724609375,5658.4677734375,0.0,5864.30224609375,0.0,0.0
11368.591796875,9629.7265625,25788.94140625,7613.5,24859.109375,2094.904541015625,3448.327392578125,3459.45361328125,6506.44287109375,3492.03759765625,12471.67578125,-3289.3818359375,4975.0009765625,0.0,18393.994140625,1571.178466796875,21027.72265625,14247.89453125,6151.19921875,9237.92578125,18819.173828125,25441.646484375,11920.134765625,14802.615234375,16111.5322265625,3976.027099609375,24290.880859375,-6190.935546875,-0.0,220.93455505371094,9319.7822265625,3997.484619140625,20294.984375,13380.05078125,8393.1279296875,20622.412109375,7391.77099609375,8627.57421875,3496.805908203125,-785.1918334960938,19310.31640625,4837.51318359375,14325.7783203125,5791.1875,2694.1298828125,8920.033203125,10112.1259765625,-167.68772888183594,3865.559814453125,-1255.671142578125,10708.1728515625,-145.43533325195312,2498.626708984375,-681.0823974609375,2837.975830078125,2541.5419921875,19493.8984375,2666.314453125,9366.671875,57.220458984375,7535.6162109375,22432.8046875,18569.626953125,13892.650390625,-0.0,-49669.7421875,15922.3876953125,5648.13623046875,0.0,5852.38134765625,0.0,0.0
11374.15625,9628.931640625,25788.1484375,7629.39453125,24850.369140625,2101.262451171875,3433.2275390625,3457.864013671875,6500.08544921875,3489.6533203125,12466.9072265625,-3294.94482421875,4990.10107421875,0.0,18386.83984375,1567.204833984375,21030.107421875,14249.484375,6147.22607421875,9234.74609375,18819.966796875,25446.4140625,11912.1865234375,14804.9990234375,16113.123046875,3986.358642578125,24278.1640625,-6188.55126953125,-0.0,233.65020751953125,9320.5771484375,4002.253173828125,20297.369140625,13385.61328125,8386.771484375,20624.001953125,7386.20751953125,8626.7783203125,3499.98486328125,-797.11279296875,19309.521484375,4843.076171875,14310.677734375,5791.1875,2684.59326171875,8916.8544921875,10115.3056640625,-155.7667999267578,3879.0703125,-1250.90283203125,10693.0732421875,-147.02479553222656,2505.779296875,-668.3667602539062,2827.644287109375,2552.668212890625,19496.283203125,2665.519775390625,9360.3134765625,49.27317428588867,7541.974609375,22432.0078125,18564.06640625,13892.650390625,-0.0,-49665.76953125,15917.6201171875,5632.24169921875,0.0,5848.40771484375,0.0,0.0
11378.9248046875,9637.673828125,25790.533203125,7627.80517578125,24847.984375,2109.209716796875,3429.25390625,3463.42724609375,6494.52197265625,3495.21630859375,12471.67578125,-3272.6923828125,4996.45849609375,0.0,18385.251953125,1574.357421875,21034.08203125,14251.0732421875,6151.994140625,9233.951171875,18822.3515625,25450.388671875,11910.59765625,14811.3564453125,16104.3798828125,3980.79541015625,24265.447265625,-6182.19384765625,-0.0,239.2133026123047,9322.166015625,4005.43212890625,20301.341796875,13389.587890625,8389.1552734375,20631.154296875,7387.00244140625,8632.3427734375,3503.16357421875,-781.2182006835938,19311.109375,4843.076171875,14305.115234375,5795.95556640625,2680.619384765625,8921.623046875,10113.7158203125,-159.74044799804688,3866.354736328125,-1248.5185546875,10685.9208984375,-138.28277587890625,2509.7529296875,-666.7772827148438,2838.7705078125,2558.2314453125,19495.486328125,2672.67236328125,9357.134765625,56.42573165893555,7547.537109375,22434.392578125,18566.44921875,13891.060546875,-0.0,-49653.0546875,15912.8515625,5635.42041015625,0.0,5860.32861328125,0.0,0.0
11376.5400390625,9644.03125,25796.890625,7623.8310546875,24856.7265625,2106.03076171875,3434.817138671875,3465.0166015625,6493.72705078125,3495.21630859375,12480.41796875,-3270.308349609375,5000.4326171875,0.0,18389.224609375,1576.7415771484375,21035.671875,14254.251953125,6155.1728515625,9233.1572265625,18826.326171875,25451.978515625,11914.5712890625,14812.9462890625,16125.0439453125,3976.027099609375,24268.626953125,-6182.19384765625,-0.0,232.0607452392578,9323.755859375,4007.81640625,20304.521484375,13388.79296875,8393.923828125,20634.33203125,7389.38671875,8636.3154296875,3504.753173828125,-771.6814575195312,19320.646484375,4839.89697265625,14312.267578125,5797.544921875,2685.387939453125,8924.8017578125,10117.6904296875,-163.71409606933594,3871.917724609375,-1258.85009765625,10693.0732421875,-135.89859008789062,2499.42138671875,-671.545654296875,2860.228271484375,2551.87353515625,19496.283203125,2675.056396484375,9359.5185546875,58.01518630981445,7544.35888671875,22438.3671875,18568.833984375,13887.8818359375,-0.0,-49657.02734375,15911.2607421875,5643.36767578125,0.0,5861.12353515625,0.0,0.0
11370.181640625,9643.2373046875,25797.685546875,7627.01025390625,24857.521484375,2104.44140625,3437.995849609375,3469.784912109375,6500.08544921875,3499.190185546875,12479.623046875,-3276.666015625,4989.30615234375,0.0,18395.58203125,1583.099365234375,21037.259765625,14258.2255859375,6158.35205078125,9242.6943359375,18828.7109375,25454.36328125,11916.955078125,14816.125,16123.453125,3991.126953125,24279.751953125,-6177.42529296875,-0.0,223.31874084472656,9326.9345703125,4006.22705078125,20305.314453125,13390.3818359375,8398.6923828125,20638.306640625,7394.94921875,8639.4951171875,3501.57421875,-768.5025634765625,19317.46875,4849.43408203125,14316.2412109375,5800.72412109375,2691.745849609375,8927.9814453125,10120.07421875,-161.3299102783203,3874.302001953125,-1255.671142578125,10701.0205078125,-131.92494201660156,2491.47412109375,-667.572021484375,2866.5859375,2562.999755859375,19495.486328125,2677.440673828125,9367.4658203125,61.19409942626953,7541.1796875,22443.9296875,18574.396484375,13893.4453125,-0.0,-49659.4140625,15914.4404296875,5649.7255859375,0.0,5861.12353515625,0.0,0.0
11361.439453125,9636.0849609375,25786.55859375,7624.6259765625,24849.572265625,2107.6201171875,3439.58544921875,3471.37451171875,6498.49560546875,3499.190185546875,12471.67578125,-3292.560546875,4986.921875,0.0,18394.7890625,1587.86767578125,21032.4921875,14255.8408203125,6160.736328125,9245.078125,18823.94140625,25451.18359375,11912.982421875,14818.5087890625,16099.611328125,3996.690185546875,24282.13671875,-6175.041015625,-0.0,225.7029266357422,9322.9609375,3999.074462890625,20299.75390625,13385.61328125,8393.923828125,20636.716796875,7395.744140625,8638.69921875,3492.832275390625,-772.4761962890625,19304.751953125,4849.43408203125,14314.6513671875,5803.1083984375,2691.745849609375,8928.775390625,10111.33203125,-159.74044799804688,3863.175537109375,-1243.750244140625,10701.0205078125,-128.74603271484375,2492.268798828125,-670.7509155273438,2851.486328125,2562.205078125,19491.513671875,2675.85107421875,9368.2607421875,62.78356170654297,7536.4111328125,22443.9296875,18575.986328125,13896.625,-0.0,-49665.76953125,15916.029296875,5643.36767578125,0.0,5857.1494140625,0.0,0.0
11361.439453125,9635.2890625,25788.1484375,7627.01025390625,24855.931640625,2110.00439453125,3443.558837890625,3477.732421875,6493.72705078125,3505.5478515625,12461.3447265625,-3283.818603515625,4990.10107421875,0.0,18393.994140625,1598.19921875,21035.671875,14259.8154296875,6164.70947265625,9242.6943359375,18825.53125,25455.951171875,11912.982421875,14824.0732421875,16091.6650390625,3991.126953125,24285.31640625,-6169.47802734375,-0.0,233.65020751953125,9326.9345703125,4000.663818359375,20303.7265625,13386.4091796875,8397.896484375,20639.896484375,7398.12841796875,8644.263671875,3496.010986328125,-774.065673828125,19309.521484375,4846.2548828125,14319.419921875,5807.08154296875,2691.745849609375,8934.3388671875,10102.58984375,-148.61424255371094,3852.049560546875,-1240.5714111328125,10703.404296875,-122.38819885253906,2493.8583984375,-670.7509155273438,2823.670654296875,2562.999755859375,19489.923828125,2689.361572265625,9368.2607421875,70.73084259033203,7540.384765625,22447.904296875,18579.958984375,13889.4716796875,-0.0,-49657.02734375,15916.029296875,5660.05712890625,0.0,5863.5078125,0.0,0.0
11360.6455078125,9628.13671875,25788.1484375,7615.08935546875,24852.751953125,2100.4677734375,3439.58544921875,3472.169189453125,6489.75390625,3499.98486328125,12454.1923828125,-3283.02392578125,4989.30615234375,0.0,18393.994140625,1591.84130859375,21032.4921875,14255.8408203125,6159.14697265625,9240.3095703125,18820.76171875,25449.59375,11907.41796875,14817.71484375,16096.43359375,3982.38525390625,24278.1640625,-6175.8359375,-0.0,226.49765014648438,9322.9609375,3998.279541015625,20302.13671875,13381.640625,8393.1279296875,20635.12890625,7393.3603515625,8640.2890625,3498.395263671875,-781.2182006835938,19307.931640625,4836.71826171875,14313.857421875,5798.33984375,2686.977294921875,8930.365234375,10094.642578125,-154.97207641601562,3849.665283203125,-1242.95556640625,10701.8154296875,-129.54075622558594,2485.1162109375,-677.9035034179688,2822.081298828125,2559.026123046875,19493.8984375,2687.77197265625,9367.4658203125,65.1677474975586,7535.6162109375,22442.341796875,18577.576171875,13883.908203125,-0.0,-49657.02734375,15918.4130859375,5657.6728515625,0.0,5861.91796875,0.0,0.0
11365.4140625,9629.7265625,25788.1484375,7611.91015625,24841.626953125,2098.08349609375,3433.2275390625,3464.221923828125,6481.01171875,3494.421630859375,12462.93359375,-3283.02392578125,4986.921875,0.0,18393.197265625,1584.6888427734375,21029.314453125,14251.8681640625,6151.994140625,9234.74609375,18819.173828125,25446.4140625,11897.0869140625,14812.15234375,16106.763671875,3983.1796875,24272.599609375,-6181.39892578125,-0.0,220.93455505371094,9317.3984375,3997.484619140625,20297.369140625,13377.666015625,8386.771484375,20628.771484375,7388.591796875,8633.13671875,3504.753173828125,-783.6024169921875,19303.1640625,4835.923828125,14303.525390625,5790.392578125,2681.414306640625,8924.8017578125,10089.080078125,-154.97207641601562,3863.970458984375,-1242.95556640625,10698.6357421875,-138.28277587890625,2489.884521484375,-679.492919921875,2834.796875,2552.668212890625,19496.283203125,2681.414306640625,9361.9033203125,58.01518630981445,7536.4111328125,22434.392578125,18570.423828125,13876.755859375,-0.0,-49657.02734375,15906.4921875,5644.95703125,0.0,5851.5869140625,0.0,0.0
11361.439453125,9623.3681640625,25783.380859375,7609.5263671875,24837.65234375,2091.7255859375,3430.048583984375,3458.658935546875,6480.216796875,3491.24267578125,12462.138671875,-3288.5869140625,4971.02734375,0.0,18392.404296875,1579.125732421875,21021.365234375,14242.3310546875,6147.22607421875,9233.1572265625,18813.609375,25440.05859375,11891.5244140625,14805.7939453125,16098.0224609375,3973.642822265625,24270.216796875,-6186.9619140625,-0.0,209.808349609375,9311.8349609375,3988.742919921875,20292.6015625,13372.103515625,8382.796875,20621.619140625,7384.6181640625,8625.984375,3478.527099609375,-793.13916015625,19300.779296875,4830.3603515625,14302.73046875,5784.03466796875,2679.0302734375,8918.4443359375,10085.900390625,-160.53517150878906,3853.638916015625,-1254.87646484375,10695.45703125,-143.8458709716797,2489.884521484375,-690.619140625,2827.644287109375,2544.720947265625,19492.30859375,2673.467041015625,9364.287109375,55.63100051879883,7529.2587890625,22428.83203125,18568.0390625,13879.1396484375,-0.0,-49661.0,15912.8515625,5636.21533203125,0.0,5842.8447265625,0.0,0.0
11363.82421875,9623.3681640625,25789.73828125,7618.2685546875,24843.216796875,2092.5205078125,3435.61181640625,3463.42724609375,6488.16455078125,3498.395263671875,12473.265625,-3290.970947265625,4981.35888671875,0.0,18397.173828125,1578.3310546875,21026.134765625,14243.1259765625,6151.994140625,9243.48828125,18817.583984375,25444.826171875,11894.703125,14808.177734375,16104.3798828125,3974.437744140625,24274.19140625,-6185.373046875,-0.0,212.19253540039062,9316.603515625,3991.921875,20298.162109375,13377.666015625,8385.181640625,20625.591796875,7389.38671875,8630.7529296875,3483.29541015625,-790.7549438476562,19306.341796875,4831.94970703125,14309.0888671875,5786.4189453125,2686.1826171875,8925.59765625,10104.9736328125,-162.1246337890625,3856.81787109375,-1256.4659423828125,10701.8154296875,-141.46168518066406,2492.268798828125,-690.619140625,2842.744140625,2547.10498046875,19496.283203125,2671.877685546875,9373.0283203125,61.98883056640625,7532.43798828125,22433.599609375,18573.603515625,13895.8291015625,-0.0,-49666.56640625,15916.82421875,5648.93115234375,0.0,5857.1494140625,0.0,0.0
11349.5185546875,9617.8056640625,25779.40625,7610.3212890625,24837.65234375,2082.983642578125,3430.84326171875,3455.47998046875,6488.16455078125,3492.832275390625,12468.4970703125,-3301.302734375,4983.7431640625,0.0,18397.966796875,1570.3836669921875,21018.1875,14237.5634765625,6144.841796875,9242.6943359375,18810.4296875,25436.08203125,11887.55078125,14797.8466796875,16098.8173828125,3964.90087890625,24273.396484375,-6197.2939453125,-0.0,205.83470153808594,9308.6552734375,3983.974365234375,20293.39453125,13369.7197265625,8378.8232421875,20616.849609375,7384.6181640625,8622.8056640625,3481.705810546875,-797.9075317382812,19299.984375,4823.2080078125,14305.115234375,5779.2666015625,2683.003662109375,8918.4443359375,10101.0009765625,-178.81393432617188,3855.228515625,-1267.592041015625,10701.8154296875,-150.20370483398438,2479.55322265625,-698.56640625,2839.565185546875,2539.95263671875,19496.283203125,2665.519775390625,9371.439453125,52.45208740234375,7521.3115234375,22424.0625,18568.0390625,13899.802734375,-0.0,-49679.28125,15911.2607421875,5636.21533203125,0.0,5849.20263671875,0.0,0.0
11350.314453125,9616.2158203125,25779.40625,7609.5263671875,24832.884765625,2081.394287109375,3430.84326171875,3453.095703125,6492.9326171875,3489.6533203125,12465.3173828125,-3304.4814453125,4974.20654296875,0.0,18396.376953125,1566.4100341796875,21018.1875,14232.794921875,6142.45751953125,9246.6669921875,18806.45703125,25432.109375,11885.166015625,14794.6669921875,16089.28125,3964.106201171875,24271.806640625,-6201.26708984375,-0.0,209.808349609375,9306.271484375,3983.974365234375,20289.421875,13368.1298828125,8375.64453125,20611.287109375,7382.23388671875,8621.2158203125,3484.090087890625,-797.11279296875,19296.8046875,4822.4130859375,14303.525390625,5778.4716796875,2685.387939453125,8915.2646484375,10102.58984375,-175.63502502441406,3848.075927734375,-1273.949951171875,10701.0205078125,-149.4089813232422,2483.52685546875,-696.9769897460938,2830.028564453125,2539.157958984375,19493.103515625,2665.519775390625,9374.6181640625,48.47844314575195,7518.1328125,22420.087890625,18568.0390625,13908.5458984375,-0.0,-49684.046875,15910.466796875,5620.32080078125,0.0,5836.48681640625,0.0,0.0
11363.82421875,9625.7529296875,25789.73828125,7620.65283203125,24845.599609375,2094.10986328125,3441.1748046875,3461.837890625,6500.8798828125,3498.395263671875,12472.470703125,-3298.91845703125,4985.33251953125,0.0,18404.326171875,1575.94677734375,21026.134765625,14242.3310546875,6151.994140625,9255.4091796875,18816.7890625,25440.8515625,11894.703125,14802.615234375,16105.970703125,3973.642822265625,24283.728515625,-6190.935546875,-0.0,222.5240020751953,9314.2197265625,3992.71630859375,20296.57421875,13376.0771484375,8383.591796875,20619.234375,7391.77099609375,8630.7529296875,3493.626953125,-788.3707885742188,19307.931640625,4833.53955078125,14314.6513671875,5788.80322265625,2696.51416015625,8924.8017578125,10116.1005859375,-162.9193572998047,3863.175537109375,-1259.6448974609375,10710.556640625,-135.89859008789062,2493.063720703125,-680.2876586914062,2835.591552734375,2550.2841796875,19500.255859375,2674.26171875,9383.361328125,57.220458984375,7526.87451171875,22428.83203125,18576.78125,13910.9296875,-0.0,-49675.3046875,15916.82421875,5634.6259765625,0.0,5846.0234375,0.0,0.0
11367.00390625,9624.9580078125,25790.533203125,7621.447265625,24848.779296875,2100.4677734375,3441.1748046875,3463.42724609375,6488.16455078125,3496.805908203125,12464.5234375,-3287.792236328125,4984.53759765625,0.0,18402.734375,1583.8941650390625,21025.33984375,14243.1259765625,6153.58349609375,9241.1044921875,18818.37890625,25441.646484375,11898.6767578125,14802.615234375,16106.763671875,3978.4111328125,24286.111328125,-6182.19384765625,-0.0,221.72927856445312,9315.013671875,3993.51123046875,20296.57421875,13378.4609375,8385.181640625,20620.02734375,7390.97607421875,8632.3427734375,3493.626953125,-783.6024169921875,19308.724609375,4835.923828125,14317.0361328125,5793.5712890625,2693.335205078125,8926.3916015625,10117.6904296875,-161.3299102783203,3868.73876953125,-1249.3133544921875,10709.7626953125,-128.74603271484375,2491.47412109375,-675.519287109375,2834.796875,2558.2314453125,19501.05078125,2680.619384765625,9376.2080078125,62.78356170654297,7528.4638671875,22429.625,18574.396484375,13879.1396484375,-0.0,-49664.97265625,15916.82421875,5642.57275390625,0.0,5856.35498046875,0.0,0.0
11366.2080078125,9618.599609375,25792.12109375,7611.11572265625,24851.1640625,2095.69921875,3437.995849609375,3459.45361328125,6474.65380859375,3490.447998046875,12467.7021484375,-3292.560546875,4984.53759765625,0.0,18396.376953125,1581.5098876953125,21023.75,14241.5361328125,6151.19921875,9228.388671875,18815.19921875,25436.08203125,11898.6767578125,14801.025390625,16106.763671875,3971.258544921875,24286.111328125,-6182.98876953125,-0.0,218.5503692626953,9311.8349609375,3992.71630859375,20293.39453125,13374.48828125,8383.591796875,20616.849609375,7387.796875,8628.3681640625,3492.832275390625,-782.012939453125,19309.521484375,4830.3603515625,14317.830078125,5789.59814453125,2686.1826171875,8923.212890625,10120.07421875,-166.89300537109375,3874.302001953125,-1255.671142578125,10707.3779296875,-133.514404296875,2497.83203125,-685.0560302734375,2845.12841796875,2548.694580078125,19493.8984375,2677.440673828125,9365.08203125,59.604644775390625,7526.07958984375,22428.83203125,18568.833984375,13859.2724609375,-0.0,-49665.76953125,15906.4921875,5644.95703125,0.0,5856.35498046875,0.0,0.0
11379.71875,9632.9052734375,25806.427734375,7623.03662109375,24863.87890625,2110.00439453125,3452.301025390625,3472.964111328125,6484.9853515625,3500.779296875,12495.517578125,-3283.818603515625,4977.38525390625,0.0,18404.326171875,1592.6361083984375,21037.259765625,14255.8408203125,6165.50439453125,9240.3095703125,18827.916015625,25452.771484375,11911.392578125,14813.7412109375,16116.30078125,3989.53759765625,24306.7734375,-6172.6572265625,-0.0,234.44493103027344,9325.3447265625,4007.81640625,20309.2890625,13387.203125,8397.896484375,20630.359375,7402.89697265625,8642.673828125,3507.931884765625,-761.3499755859375,19324.62109375,4846.2548828125,14334.51953125,5800.72412109375,2699.69287109375,8934.3388671875,10132.7900390625,-154.17735290527344,3878.275634765625,-1248.5185546875,10721.68359375,-123.18293762207031,2522.468505859375,-671.545654296875,2863.4072265625,2555.052490234375,19478.798828125,2685.387939453125,9372.234375,65.96247100830078,7542.76904296875,22443.13671875,18581.548828125,13875.9609375,-0.0,-49655.4375,15908.8759765625,5651.3154296875,0.0,5862.712890625,0.0,0.0
11374.9501953125,9638.46875,25805.630859375,7640.5205078125,24873.4140625,2125.104248046875,3465.8115234375,3482.500732421875,6495.31689453125,3507.931884765625,12485.9814453125,-3282.229248046875,4971.02734375,0.0,18413.06640625,1599.7886962890625,21042.82421875,14265.3779296875,6175.041015625,9248.2568359375,18834.271484375,25464.693359375,11924.107421875,14824.8671875,16118.6845703125,4013.379638671875,24320.283203125,-6159.14697265625,-0.0,219.3450927734375,9334.0869140625,4010.200439453125,20312.466796875,13398.330078125,8405.8447265625,20643.076171875,7415.61279296875,8653.7998046875,3507.931884765625,-759.7605590820312,19328.59375,4867.71240234375,14346.4404296875,5811.85009765625,2713.203369140625,8943.0810546875,10120.869140625,-139.8722381591797,3879.0703125,-1232.6240234375,10739.1669921875,-116.0303726196289,2512.13720703125,-667.572021484375,2863.4072265625,2557.436767578125,19480.38671875,2700.48779296875,9382.5654296875,74.7044906616211,7546.74267578125,22453.466796875,18589.49609375,13884.7041015625,-0.0,-49647.4921875,15913.64453125,5655.28857421875,0.0,5863.5078125,0.0,0.0
11360.6455078125,9623.3681640625,25786.55859375,7623.03662109375,24867.05859375,2098.08349609375,3461.043212890625,3470.579833984375,6488.958984375,3499.98486328125,12457.37109375,-3285.407958984375,4976.5908203125,0.0,18409.88671875,1582.3045654296875,21025.33984375,14256.63671875,6164.70947265625,9240.3095703125,18820.76171875,25445.619140625,11918.544921875,14812.15234375,16105.1748046875,3988.742919921875,24309.953125,-6173.45166015625,-0.0,225.7029266357422,9318.1923828125,3991.921875,20295.77734375,13381.640625,8397.1025390625,20625.591796875,7407.6650390625,8642.673828125,3488.063720703125,-774.8603515625,19312.701171875,4839.10205078125,14341.671875,5798.33984375,2706.845458984375,8931.9541015625,10101.794921875,-152.587890625,3873.50732421875,-1246.92919921875,10736.783203125,-127.95130920410156,2489.08984375,-681.0823974609375,2832.41259765625,2559.026123046875,19497.076171875,2690.951171875,9377.796875,65.96247100830078,7532.43798828125,22441.544921875,18582.34375,13875.1669921875,-0.0,-49652.26171875,15907.287109375,5648.13623046875,0.0,5857.1494140625,0.0,0.0
11359.0556640625,9616.2158203125,25779.40625,7616.6787109375,24849.572265625,2092.5205078125,3437.201171875,3457.864013671875,6477.8330078125,3491.24267578125,12468.4970703125,-3286.99755859375,4990.8955078125,0.0,18389.224609375,1571.178466796875,21018.982421875,14247.89453125,6150.404296875,9228.388671875,18811.2265625,25438.466796875,11905.8291015625,14803.4091796875,16105.970703125,3985.563720703125,24277.369140625,-6183.783203125,-0.0,225.7029266357422,9313.423828125,3987.153564453125,20288.625,13375.2822265625,8385.9755859375,20618.439453125,7389.38671875,8632.3427734375,3486.474365234375,-782.8076782226562,19304.751953125,4827.97607421875,14317.830078125,5791.98193359375,2688.56689453125,8920.033203125,10101.794921875,-162.9193572998047,3860.79150390625,-1252.4923095703125,10698.6357421875,-139.8722381591797,2492.268798828125,-687.4402465820312,2844.333740234375,2555.052490234375,19508.203125,2664.72509765625,9357.134765625,54.04154586791992,7523.6953125,22430.419921875,18568.833984375,13866.4248046875,-0.0,-49664.1796875,15900.134765625,5644.95703125,0.0,5853.97119140625,0.0,0.0
11361.439453125,9621.779296875,25771.458984375,7623.03662109375,24839.2421875,2096.493896484375,3429.25390625,3456.274658203125,6479.421875,3488.063720703125,12466.11328125,-3287.792236328125,4998.8427734375,0.0,18383.662109375,1571.178466796875,21020.5703125,14249.484375,6149.60986328125,9226.798828125,18808.841796875,25441.646484375,11903.4453125,14805.7939453125,16105.1748046875,3988.742919921875,24263.859375,-6184.578125,-0.0,227.29237365722656,9315.013671875,3987.153564453125,20287.83203125,13379.255859375,8382.0029296875,20621.619140625,7383.0283203125,8629.9580078125,3487.26904296875,-781.2182006835938,19300.779296875,4837.51318359375,14305.115234375,5791.1875,2685.387939453125,8920.033203125,10082.7216796875,-167.68772888183594,3860.79150390625,-1253.2869873046875,10689.099609375,-139.8722381591797,2486.705810546875,-679.492919921875,2844.333740234375,2552.668212890625,19508.203125,2668.698486328125,9353.1611328125,52.45208740234375,7526.87451171875,22431.21484375,18566.44921875,13866.4248046875,-0.0,-49662.58984375,15901.7236328125,5638.599609375,0.0,5847.61279296875,0.0,0.0
11359.0556640625,9621.779296875,25777.81640625,7614.29443359375,24844.8046875,2096.493896484375,3437.201171875,3457.0693359375,6485.7802734375,3492.03759765625,12469.2919921875,-3288.5869140625,4994.869140625,0.0,18392.404296875,1571.178466796875,21018.982421875,14251.8681640625,6151.19921875,9231.5673828125,18812.021484375,25440.8515625,11906.6240234375,14808.177734375,16103.5859375,3980.79541015625,24274.984375,-6185.373046875,-0.0,224.11346435546875,9314.2197265625,3986.358642578125,20287.83203125,13379.255859375,8387.5654296875,20624.001953125,7387.796875,8630.7529296875,3480.9111328125,-787.5760498046875,19306.341796875,4833.53955078125,14310.677734375,5793.5712890625,2689.361572265625,8920.033203125,10091.4638671875,-172.4561004638672,3866.354736328125,-1254.87646484375,10699.431640625,-141.46168518066406,2478.758544921875,-681.0823974609375,2846.7177734375,2553.462890625,19502.640625,2669.493408203125,9361.9033203125,53.2468147277832,7526.07958984375,22433.599609375,18571.21875,13874.37109375,-0.0,-49666.56640625,15908.0830078125,5632.24169921875,0.0,5844.43408203125,0.0,0.0
11357.466796875,9613.8310546875,25782.5859375,7609.5263671875,24841.626953125,2091.7255859375,3431.637939453125,3453.095703125,6481.01171875,3488.8583984375,12471.67578125,-3294.150146484375,4991.68994140625,0.0,18390.01953125,1571.178466796875,21017.392578125,14245.509765625,6144.841796875,9227.59375,18805.662109375,25436.87890625,11901.0615234375,14802.615234375,16101.2021484375,3974.437744140625,24272.599609375,-6187.7568359375,-0.0,215.37144470214844,9309.451171875,3983.1796875,20284.65234375,13374.48828125,8385.181640625,20620.02734375,7384.6181640625,8624.39453125,3492.832275390625,-793.13916015625,19300.779296875,4827.18115234375,14309.0888671875,5789.59814453125,2684.59326171875,8915.2646484375,10106.5634765625,-166.09828186035156,3859.996826171875,-1259.6448974609375,10696.251953125,-145.43533325195312,2483.52685546875,-684.2613525390625,2842.744140625,2551.87353515625,19496.283203125,2670.2880859375,9357.9296875,51.6573600769043,7522.10595703125,22428.83203125,18564.06640625,13871.193359375,-0.0,-49672.921875,15900.134765625,5634.6259765625,0.0,5845.228515625,0.0,0.0
11343.9560546875,9606.6787109375,25771.458984375,7613.5,24832.08984375,2083.7783203125,3420.511962890625,3442.76416015625,6471.47509765625,3478.527099609375,12457.37109375,-3299.713134765625,4987.716796875,0.0,18379.6875,1563.2310791015625,21010.240234375,14235.9736328125,6132.9208984375,9218.056640625,18796.919921875,25431.314453125,11889.1396484375,14792.283203125,16084.5126953125,3969.66943359375,24262.26953125,-6199.677734375,-0.0,208.21888732910156,9300.708984375,3974.437744140625,20276.705078125,13368.1298828125,8374.0546875,20610.490234375,7371.90234375,8613.2685546875,3471.37451171875,-797.9075317382812,19290.447265625,4820.82373046875,14297.9619140625,5779.2666015625,2672.67236328125,8902.5498046875,10095.4375,-162.1246337890625,3845.691650390625,-1269.976318359375,10686.71484375,-154.17735290527344,2479.55322265625,-691.4138793945312,2824.465576171875,2541.5419921875,19488.333984375,2663.93017578125,9346.802734375,39.73643112182617,7513.3642578125,22417.703125,18550.5546875,13865.6298828125,-0.0,-49676.1015625,15889.802734375,5627.47314453125,0.0,5838.076171875,0.0,0.0
11351.9033203125,9632.9052734375,25790.533203125,7633.3681640625,24854.341796875,2102.851806640625,3441.1748046875,3461.043212890625,6493.72705078125,3494.421630859375,12475.6494140625,-3279.050048828125,5002.81689453125,0.0,18397.173828125,1579.92041015625,21030.90234375,14253.45703125,6148.81494140625,9240.3095703125,18819.966796875,25451.18359375,11909.0078125,14810.5625,16110.73828125,3990.33203125,24287.701171875,-6182.98876953125,-0.0,227.29237365722656,9318.98828125,3992.71630859375,20297.369140625,13387.203125,8392.333984375,20630.359375,7390.97607421875,8629.9580078125,3482.500732421875,-773.2709350585938,19313.494140625,4843.076171875,14321.009765625,5797.544921875,2690.951171875,8918.4443359375,10108.947265625,-139.8722381591797,3871.917724609375,-1249.3133544921875,10707.3779296875,-136.6933135986328,2489.08984375,-677.9035034179688,2855.4599609375,2559.82080078125,19497.87109375,2677.440673828125,9369.8505859375,55.63100051879883,7531.64306640625,22435.984375,18569.626953125,13892.650390625,-0.0,-49653.84765625,15902.51953125,5636.21533203125,0.0,5846.818359375,0.0,0.0
11358.2607421875,9638.46875,25800.0703125,7633.3681640625,24863.083984375,2106.82568359375,3451.50634765625,3465.0166015625,6504.853515625,3499.190185546875,12489.1591796875,-3275.871337890625,4991.68994140625,0.0,18411.478515625,1581.5098876953125,21034.08203125,14257.4306640625,6154.37841796875,9249.8466796875,18826.326171875,25454.36328125,11912.982421875,14813.7412109375,16118.6845703125,3991.126953125,24305.978515625,-6175.8359375,-0.0,232.0607452392578,9323.755859375,3998.279541015625,20303.7265625,13391.1767578125,8397.1025390625,20634.33203125,7397.33349609375,8634.7265625,3494.421630859375,-770.88671875,19320.646484375,4847.0498046875,14331.3408203125,5802.3134765625,2700.48779296875,8924.0078125,10120.869140625,-145.43533325195312,3871.917724609375,-1246.92919921875,10720.09375,-132.7196807861328,2498.626708984375,-677.9035034179688,2869.76513671875,2570.15234375,19498.666015625,2679.0302734375,9388.923828125,59.604644775390625,7533.232421875,22441.544921875,18575.19140625,13899.0087890625,-0.0,-49657.02734375,15912.0556640625,5628.267578125,0.0,5845.228515625,0.0,0.0
11363.82421875,9635.2890625,25803.248046875,7626.21533203125,24859.904296875,2106.03076171875,3449.1220703125,3462.63232421875,6500.8798828125,3495.21630859375,12485.1865234375,-3280.6396484375,4962.28564453125,0.0,18405.119140625,1579.92041015625,21033.287109375,14254.251953125,6151.19921875,9242.6943359375,18824.736328125,25450.388671875,11907.41796875,14810.5625,16112.3271484375,3989.53759765625,24301.2109375,-6175.8359375,-0.0,240.00804138183594,9322.166015625,3996.690185546875,20302.931640625,13387.998046875,8393.1279296875,20632.744140625,7392.5654296875,8633.931640625,3488.8583984375,-777.2445678710938,19319.853515625,4841.486328125,14328.162109375,5800.72412109375,2696.51416015625,8921.623046875,10127.2265625,-152.587890625,3852.84423828125,-1245.3397216796875,10717.7099609375,-133.514404296875,2504.189697265625,-672.3403930664062,2857.04931640625,2569.357666015625,19495.486328125,2680.619384765625,9380.9765625,57.220458984375,7529.2587890625,22435.1875,18570.423828125,13882.3193359375,-0.0,-49668.94921875,15915.2353515625,5628.267578125,0.0,5848.40771484375,0.0,0.0
11367.7978515625,9637.673828125,25802.453125,7630.189453125,24860.701171875,2104.44140625,3446.738037109375,3462.63232421875,6494.52197265625,3493.626953125,12488.365234375,-3275.07666015625,4969.43798828125,0.0,18399.556640625,1582.3045654296875,21037.259765625,14255.046875,6151.19921875,9239.5146484375,18824.736328125,25454.36328125,11905.8291015625,14809.767578125,16116.30078125,3987.153564453125,24288.49609375,-6179.8095703125,-0.0,230.47129821777344,9324.55078125,3999.868896484375,20304.521484375,13391.9716796875,8393.1279296875,20631.94921875,7390.18115234375,8633.13671875,3494.421630859375,-774.065673828125,19320.646484375,4841.486328125,14328.162109375,5796.75048828125,2691.745849609375,8920.8291015625,10124.8427734375,-150.20370483398438,3862.380859375,-1242.95556640625,10715.3251953125,-131.92494201660156,2501.010986328125,-662.8036499023438,2859.433349609375,2555.84716796875,19499.4609375,2682.208984375,9371.439453125,58.80991744995117,7534.82177734375,22432.8046875,18567.244140625,13877.55078125,-0.0,-49661.0,15914.4404296875,5629.857421875,0.0,5844.43408203125,0.0,0.0
11365.4140625,9632.9052734375,25793.7109375,7625.4208984375,24849.572265625,2091.7255859375,3429.25390625,3453.095703125,6477.8330078125,3485.6796875,12482.802734375,-3284.61328125,4995.6640625,0.0,18388.4296875,1574.357421875,21031.697265625,14240.7421875,6139.2783203125,9229.18359375,18816.7890625,25444.826171875,11893.11328125,14798.6416015625,16111.5322265625,3981.59033203125,24283.728515625,-6191.73046875,-0.0,211.39781188964844,9316.603515625,3992.71630859375,20298.95703125,13383.2294921875,8382.796875,20620.822265625,7377.4658203125,8622.009765625,3486.474365234375,-781.2182006835938,19313.494140625,4833.53955078125,14311.47265625,5782.4453125,2676.64599609375,8911.2919921875,10113.7158203125,-165.3035430908203,3878.275634765625,-1253.2869873046875,10697.841796875,-141.46168518066406,2493.063720703125,-674.724609375,2849.10205078125,2543.131591796875,19505.0234375,2668.698486328125,9357.134765625,50.067901611328125,7533.232421875,22421.677734375,18557.70703125,13872.7822265625,-0.0,-49664.97265625,15903.314453125,5630.65185546875,0.0,5840.46044921875,0.0,0.0
11374.15625,9636.87890625,25796.095703125,7624.6259765625,24847.984375,2086.957275390625,3422.896240234375,3451.50634765625,6462.73291015625,3485.6796875,12483.5966796875,-3275.871337890625,4996.45849609375,0.0,18381.27734375,1571.178466796875,21031.697265625,14233.5888671875,6137.68896484375,9222.0302734375,18819.173828125,25444.03125,11887.55078125,14795.462890625,16115.5068359375,3980.79541015625,24275.779296875,-6195.7041015625,-0.0,224.11346435546875,9318.1923828125,3994.30615234375,20302.931640625,13382.4345703125,8381.20703125,20617.642578125,7375.08154296875,8619.6259765625,3495.21630859375,-777.2445678710938,19315.876953125,4830.3603515625,14305.9091796875,5776.08740234375,2669.493408203125,8909.7021484375,10115.3056640625,-165.3035430908203,3871.123046875,-1255.671142578125,10689.89453125,-141.46168518066406,2508.16357421875,-682.671875,2855.4599609375,2557.436767578125,19498.666015625,2666.314453125,9348.392578125,50.067901611328125,7540.384765625,22418.498046875,18555.322265625,13870.3984375,-0.0,-49661.0,15900.9306640625,5637.01025390625,0.0,5847.61279296875,0.0,0.0
11380.513671875,9638.46875,25801.658203125,7630.189453125,24851.1640625,2086.957275390625,3421.306640625,3452.301025390625,6454.78564453125,3485.6796875,12489.955078125,-3268.71875,4999.6376953125,0.0,18377.3046875,1571.178466796875,21034.875,14236.767578125,6136.89404296875,9219.646484375,18823.146484375,25444.826171875,11886.755859375,14795.462890625,16123.453125,3980.0009765625,24264.654296875,-6190.14111328125,-0.0,231.26602172851562,9318.1923828125,3999.074462890625,20306.90625,13383.2294921875,8382.0029296875,20618.439453125,7374.28662109375,8619.6259765625,3503.95849609375,-771.6814575195312,19323.03125,4831.94970703125,14306.7041015625,5777.67724609375,2667.90380859375,8911.2919921875,10124.8427734375,-150.99842834472656,3870.328125,-1257.2606201171875,10686.71484375,-139.07749938964844,2512.931884765625,-680.2876586914062,2864.201904296875,2559.82080078125,19497.076171875,2671.877685546875,9344.4189453125,54.04154586791992,7545.1533203125,22420.087890625,18554.529296875,13872.7822265625,-0.0,-49653.84765625,15902.51953125,5641.7783203125,0.0,5847.61279296875,0.0,0.0
11369.3876953125,9626.5478515625,25798.478515625,7625.4208984375,24852.751953125,2082.18896484375,3422.101318359375,3449.916748046875,6455.580078125,3480.9111328125,12482.0068359375,-3276.666015625,4998.8427734375,0.0,18379.6875,1568.794189453125,21031.697265625,14233.5888671875,6134.51025390625,9219.646484375,18819.966796875,25439.26171875,11883.576171875,14793.078125,16124.248046875,3970.464111328125,24273.396484375,-6193.31982421875,-0.0,221.72927856445312,9315.013671875,3995.1005859375,20303.7265625,13380.05078125,8378.8232421875,20613.669921875,7373.49169921875,8618.037109375,3499.98486328125,-777.2445678710938,19324.62109375,4825.591796875,14309.8828125,5774.498046875,2667.90380859375,8909.7021484375,10120.07421875,-154.17735290527344,3869.533447265625,-1264.4132080078125,10689.099609375,-140.66696166992188,2501.8056640625,-692.2086181640625,2856.254638671875,2546.310546875,19497.076171875,2669.493408203125,9346.802734375,50.067901611328125,7539.59033203125,22418.498046875,18554.529296875,13871.193359375,-0.0,-49653.0546875,15902.51953125,5637.01025390625,0.0,5843.63916015625,0.0,0.0
11372.56640625,9623.3681640625,25804.837890625,7625.4208984375,24857.521484375,2083.7783203125,3423.69091796875,3454.685302734375,6457.96435546875,3484.090087890625,12484.3916015625,-3281.434326171875,4992.48486328125,0.0,18384.45703125,1573.5626220703125,21034.875,14236.767578125,6136.09912109375,9222.0302734375,18823.146484375,25444.826171875,11884.3720703125,14797.8466796875,16125.8369140625,3969.66943359375,24279.751953125,-6193.31982421875,-0.0,218.5503692626953,9317.3984375,3995.8955078125,20306.90625,13382.4345703125,8385.181640625,20616.849609375,7375.8759765625,8622.8056640625,3499.190185546875,-774.065673828125,19326.2109375,4827.18115234375,14313.0615234375,5777.67724609375,2668.698486328125,8913.67578125,10124.046875,-155.7667999267578,3871.123046875,-1265.2078857421875,10691.4833984375,-138.28277587890625,2504.984619140625,-691.4138793945312,2858.638671875,2541.5419921875,19497.076171875,2667.109130859375,9347.59765625,50.86262893676758,7541.974609375,22420.8828125,18559.296875,13871.9873046875,-0.0,-49655.4375,15901.7236328125,5637.8046875,0.0,5846.818359375,0.0,0.0
11376.5400390625,9615.4208984375,25808.015625,7632.57373046875,24855.13671875,2096.493896484375,3425.2802734375,3457.0693359375,6453.99072265625,3484.885009765625,12502.669921875,-3278.25537109375,4989.30615234375,0.0,18379.6875,1579.125732421875,21039.64453125,14247.099609375,6139.2783203125,9219.646484375,18827.119140625,25452.771484375,11884.3720703125,14801.8193359375,16129.8125,3985.563720703125,24275.779296875,-6184.578125,-0.0,228.0871124267578,9322.166015625,3999.074462890625,20311.673828125,13387.998046875,8388.3603515625,20623.20703125,7378.26025390625,8626.7783203125,3502.368896484375,-766.9130859375,19323.03125,4836.71826171875,14313.0615234375,5784.82958984375,2667.90380859375,8918.4443359375,10131.9951171875,-147.02479553222656,3869.533447265625,-1250.108154296875,10689.89453125,-133.514404296875,2513.7265625,-677.9035034179688,2864.201904296875,2554.257568359375,19491.513671875,2672.67236328125,9346.0078125,53.2468147277832,7543.56396484375,22425.65234375,18560.091796875,13864.0400390625,-0.0,-49657.02734375,15896.162109375,5646.546875,0.0,5846.0234375,0.0,0.0
11383.6923828125,9623.3681640625,25813.580078125,7641.3154296875,24861.494140625,2102.851806640625,3430.84326171875,3463.42724609375,6454.78564453125,3489.6533203125,12513.796875,-3268.71875,5002.02197265625,0.0,18384.45703125,1584.6888427734375,21049.181640625,14255.046875,6147.22607421875,9224.4150390625,18836.65625,25460.720703125,11892.318359375,14809.767578125,16132.1962890625,3992.71630859375,24287.701171875,-6174.24609375,-0.0,238.4185791015625,9331.703125,4004.63720703125,20318.826171875,13396.740234375,8397.1025390625,20632.744140625,7386.20751953125,8633.931640625,3509.521484375,-759.7605590820312,19329.388671875,4843.87060546875,14321.009765625,5791.98193359375,2672.67236328125,8923.212890625,10141.5322265625,-140.66696166992188,3878.275634765625,-1240.5714111328125,10697.046875,-127.15657043457031,2521.673828125,-663.598388671875,2881.68603515625,2566.178466796875,19496.283203125,2686.977294921875,9349.982421875,58.80991744995117,7549.126953125,22434.392578125,18566.44921875,13867.21875,-0.0,-49644.30859375,15899.33984375,5646.546875,0.0,5846.818359375,0.0,0.0
11379.71875,9636.0849609375,25810.400390625,7639.72607421875,24860.701171875,2090.13623046875,3430.048583984375,3457.0693359375,6453.99072265625,3487.26904296875,12509.8232421875,-3267.924072265625,5002.81689453125,0.0,18384.45703125,1575.94677734375,21045.20703125,14252.6630859375,6145.63623046875,9226.0048828125,18834.271484375,25457.541015625,11888.3447265625,14804.9990234375,16127.427734375,3979.2060546875,24289.2890625,-6188.55126953125,-0.0,230.47129821777344,9328.5244140625,4001.458740234375,20316.443359375,13394.35546875,8394.7177734375,20629.564453125,7384.6181640625,8628.3681640625,3506.342529296875,-759.7605590820312,19327.005859375,4834.333984375,14321.8037109375,5781.650390625,2670.2880859375,8918.4443359375,10139.9423828125,-147.81951904296875,3874.302001953125,-1258.85009765625,10697.046875,-139.07749938964844,2518.494873046875,-659.624755859375,2882.480712890625,2561.41015625,19494.69140625,2681.414306640625,9350.7763671875,52.45208740234375,7546.74267578125,22432.8046875,18564.06640625,13871.193359375,-0.0,-49644.30859375,15903.314453125,5640.1884765625,0.0,5846.0234375,0.0,0.0
11370.9765625,9638.46875,25808.015625,7635.75244140625,24859.109375,2080.599609375,3426.86962890625,3453.095703125,6450.81201171875,3486.474365234375,12507.4384765625,-3275.07666015625,4999.6376953125,0.0,18382.072265625,1571.178466796875,21041.234375,14248.6884765625,6143.251953125,9226.798828125,18831.095703125,25453.568359375,11885.9609375,14801.8193359375,16126.6328125,3975.232666015625,24279.751953125,-6195.7041015625,-0.0,217.75563049316406,9325.3447265625,3998.279541015625,20313.263671875,13391.1767578125,8391.5400390625,20625.591796875,7383.8232421875,8624.39453125,3502.368896484375,-773.2709350585938,19325.4140625,4830.3603515625,14318.625,5776.08740234375,2667.90380859375,8915.2646484375,10135.9677734375,-157.35626220703125,3871.123046875,-1269.181640625,10693.8681640625,-145.43533325195312,2513.7265625,-669.9561767578125,2878.5068359375,2553.462890625,19492.30859375,2673.467041015625,9349.982421875,50.067901611328125,7538.79541015625,22431.21484375,18561.681640625,13873.5771484375,-0.0,-49655.4375,15904.1083984375,5634.6259765625,0.0,5844.43408203125,0.0,0.0
11370.9765625,9645.62109375,25804.04296875,7639.72607421875,24856.7265625,2089.34130859375,3428.459228515625,3456.274658203125,6457.169921875,3492.832275390625,12499.4912109375,-3269.513427734375,4999.6376953125,0.0,18386.83984375,1573.5626220703125,21044.412109375,14251.0732421875,6146.43115234375,9232.361328125,18830.298828125,25455.951171875,11888.3447265625,14808.177734375,16121.0693359375,3983.1796875,24274.984375,-6189.34619140625,-0.0,227.29237365722656,9326.9345703125,4000.663818359375,20314.8515625,13395.150390625,8391.5400390625,20630.359375,7386.20751953125,8629.9580078125,3501.57421875,-773.2709350585938,19323.03125,4836.71826171875,14318.625,5783.23974609375,2670.2880859375,8919.2392578125,10127.2265625,-152.587890625,3867.1494140625,-1258.85009765625,10696.251953125,-141.46168518066406,2511.34228515625,-672.3403930664062,2863.4072265625,2563.79443359375,19494.69140625,2674.26171875,9354.7509765625,54.04154586791992,7539.59033203125,22435.1875,18564.06640625,13882.3193359375,-0.0,-49651.4609375,15904.9033203125,5641.7783203125,0.0,5848.40771484375,0.0,0.0
11365.4140625,9640.8525390625,25804.04296875,7642.1103515625,24861.494140625,2094.10986328125,3430.84326171875,3457.0693359375,6459.55419921875,3492.03759765625,12490.7490234375,-3274.28173828125,5007.5849609375,0.0,18390.814453125,1571.178466796875,21044.412109375,14256.63671875,6148.81494140625,9234.74609375,18831.095703125,25458.3359375,11890.728515625,14811.3564453125,16126.6328125,3991.921875,24280.548828125,-6188.55126953125,-0.0,232.85548400878906,9327.7294921875,4000.663818359375,20312.466796875,13397.5341796875,8392.333984375,20634.33203125,7388.591796875,8632.3427734375,3499.190185546875,-769.2973022460938,19323.03125,4842.28125,14322.5986328125,5785.6240234375,2674.26171875,8920.8291015625,10131.2001953125,-147.02479553222656,3871.917724609375,-1252.4923095703125,10700.2255859375,-140.66696166992188,2504.984619140625,-673.1351318359375,2869.76513671875,2575.71533203125,19497.87109375,2669.493408203125,9357.9296875,54.04154586791992,7537.2060546875,22439.162109375,18567.244140625,13882.3193359375,-0.0,-49661.796875,15904.9033203125,5641.7783203125,0.0,5850.7919921875,0.0,0.0
11359.0556640625,9628.931640625,25795.30078125,7633.3681640625,24852.751953125,2090.930908203125,3424.4853515625,3451.50634765625,6451.60693359375,3484.090087890625,12480.41796875,-3286.20263671875,4994.869140625,0.0,18385.251953125,1567.204833984375,21037.259765625,14247.099609375,6142.45751953125,9228.388671875,18823.146484375,25453.568359375,11884.3720703125,14803.4091796875,16111.5322265625,3986.358642578125,24276.57421875,-6195.7041015625,-0.0,228.8818359375,9320.5771484375,3992.71630859375,20302.931640625,13390.3818359375,8384.38671875,20627.1796875,7379.85009765625,8625.984375,3490.447998046875,-774.065673828125,19315.876953125,4837.51318359375,14316.2412109375,5780.06103515625,2667.109130859375,8915.2646484375,10123.2529296875,-152.587890625,3861.58642578125,-1257.2606201171875,10693.8681640625,-147.81951904296875,2497.83203125,-677.1087646484375,2857.04931640625,2570.15234375,19493.8984375,2661.5458984375,9353.1611328125,49.27317428588867,7530.0537109375,22431.21484375,18560.88671875,13869.603515625,-0.0,-49675.3046875,15903.314453125,5634.6259765625,0.0,5846.0234375,0.0,0.0
11375.7451171875,9641.6474609375,25807.22265625,7631.77880859375,24861.494140625,2099.673095703125,3433.2275390625,3462.63232421875,6457.96435546875,3495.21630859375,12497.107421875,-3273.487060546875,4993.27978515625,0.0,18390.814453125,1583.8941650390625,21046.796875,14254.251953125,6151.994140625,9233.951171875,18832.68359375,25461.515625,11893.11328125,14812.15234375,16120.275390625,3987.947998046875,24284.521484375,-6186.16748046875,-0.0,227.29237365722656,9330.9091796875,4004.63720703125,20314.05859375,13399.1240234375,8393.923828125,20635.12890625,7387.00244140625,8636.3154296875,3499.98486328125,-763.7341918945312,19327.798828125,4843.076171875,14326.572265625,5791.1875,2677.440673828125,8923.212890625,10130.4052734375,-147.81951904296875,3871.917724609375,-1253.2869873046875,10701.0205078125,-135.89859008789062,2508.16357421875,-669.1614990234375,2865.791259765625,2568.562744140625,19498.666015625,2679.0302734375,9358.7236328125,59.604644775390625,7543.56396484375,22441.544921875,18567.244140625,13871.193359375,-0.0,-49655.4375,15908.8759765625,5648.13623046875,0.0,5861.12353515625,0.0,0.0
11382.8974609375,9645.62109375,25815.962890625,7633.3681640625,24871.03125,2101.262451171875,3434.022216796875,3461.043212890625,6450.017578125,3492.832275390625,12512.20703125,-3267.924072265625,4993.27978515625,0.0,18389.224609375,1581.5098876953125,21051.564453125,14259.0205078125,6151.994140625,9227.59375,18836.65625,25463.103515625,11895.4970703125,14814.5361328125,16132.1962890625,3990.33203125,24291.673828125,-6183.783203125,-0.0,226.49765014648438,9334.0869140625,4010.200439453125,20321.2109375,13402.302734375,8398.6923828125,20637.51171875,7389.38671875,8636.3154296875,3502.368896484375,-760.5552978515625,19334.951171875,4845.46044921875,14331.3408203125,5792.7763671875,2675.85107421875,8922.41796875,10139.9423828125,-144.64060974121094,3877.480712890625,-1251.697509765625,10701.0205078125,-135.89859008789062,2520.879150390625,-665.9825439453125,2868.175537109375,2556.641845703125,19497.076171875,2678.2353515625,9351.5712890625,60.39937210083008,7551.51123046875,22441.544921875,18564.06640625,13870.3984375,-0.0,-49652.26171875,15903.314453125,5651.3154296875,0.0,5860.32861328125,0.0,0.0
11374.9501953125,9640.8525390625,25811.990234375,7636.546875,24872.62109375,2099.673095703125,3432.432861328125,3455.47998046875,6443.6591796875,3486.474365234375,12505.8486328125,-3267.129150390625,4995.6640625,0.0,18387.63671875,1571.97314453125,21046.796875,14255.8408203125,6148.0205078125,9219.646484375,18833.478515625,25459.130859375,11893.908203125,14808.97265625,16130.60546875,3987.153564453125,24292.46875,-6187.7568359375,-0.0,228.0871124267578,9332.498046875,4007.021484375,20318.826171875,13399.1240234375,8397.1025390625,20634.33203125,7384.6181640625,8630.7529296875,3498.395263671875,-774.8603515625,19332.56640625,4842.28125,14328.95703125,5788.80322265625,2671.082763671875,8914.470703125,10138.3525390625,-145.43533325195312,3872.71240234375,-1252.4923095703125,10698.6357421875,-145.43533325195312,2504.189697265625,-668.3667602539062,2863.4072265625,2544.720947265625,19494.69140625,2671.082763671875,9349.982421875,51.6573600769043,7545.1533203125,22436.77734375,18558.501953125,13864.8349609375,-0.0,-49656.23046875,15896.955078125,5642.57275390625,0.0,5853.17626953125,0.0,0.0
11367.00390625,9635.2890625,25804.04296875,7637.341796875,24862.2890625,2104.44140625,3433.2275390625,3458.658935546875,6453.1962890625,3490.447998046875,12492.3388671875,-3276.666015625,4995.6640625,0.0,18390.01953125,1574.357421875,21044.412109375,14252.6630859375,6148.81494140625,9226.798828125,18827.916015625,25459.923828125,11890.728515625,14812.15234375,16124.248046875,3989.53759765625,24286.111328125,-6186.16748046875,-0.0,235.2396697998047,9330.9091796875,4003.8427734375,20313.263671875,13399.1240234375,8392.333984375,20635.923828125,7383.8232421875,8631.546875,3499.190185546875,-769.2973022460938,19324.62109375,4849.43408203125,14325.7783203125,5791.1875,2675.85107421875,8918.4443359375,10125.63671875,-153.3826141357422,3869.533447265625,-1246.92919921875,10698.6357421875,-146.2300567626953,2484.321533203125,-667.572021484375,2857.04931640625,2550.2841796875,19495.486328125,2673.467041015625,9354.7509765625,54.04154586791992,7539.59033203125,22435.1875,18563.271484375,13873.5771484375,-0.0,-49660.20703125,15902.51953125,5640.9833984375,0.0,5855.560546875,0.0,0.0
11379.71875,9633.7001953125,25815.16796875,7644.49462890625,24865.46875,2114.772705078125,3440.380126953125,3467.40087890625,6465.1171875,3495.21630859375,12489.1591796875,-3273.487060546875,5005.20068359375,0.0,18393.197265625,1580.7152099609375,21053.15625,14259.8154296875,6156.7626953125,9235.541015625,18836.65625,25467.873046875,11899.4716796875,14818.5087890625,16138.5537109375,3998.279541015625,24293.263671875,-6179.0146484375,-0.0,223.31874084472656,9338.0615234375,4011.789794921875,20320.416015625,13406.2763671875,8397.896484375,20643.076171875,7391.77099609375,8637.1103515625,3519.05810546875,-748.6343383789062,19333.36328125,4862.9443359375,14332.9306640625,5799.92919921875,2684.59326171875,8925.59765625,10139.1474609375,-154.97207641601562,3887.017578125,-1238.1871337890625,10705.7890625,-141.46168518066406,2505.779296875,-664.3931274414062,2869.76513671875,2558.2314453125,19490.71875,2679.82470703125,9361.9033203125,65.96247100830078,7546.74267578125,22443.13671875,18571.21875,13881.5244140625,-0.0,-49654.64453125,15911.2607421875,5644.95703125,0.0,5857.9443359375,0.0,0.0
11378.9248046875,9632.1103515625,25818.34765625,7643.69970703125,24869.44140625,2113.97802734375,3447.53271484375,3466.606201171875,6473.064453125,3497.6005859375,12486.775390625,-3278.25537109375,5008.37939453125,0.0,18394.7890625,1577.5362548828125,21051.564453125,14260.609375,6158.35205078125,9239.5146484375,18839.041015625,25466.283203125,11904.2392578125,14819.3046875,16148.0908203125,3995.1005859375,24302.005859375,-6182.19384765625,-0.0,221.72927856445312,9338.0615234375,4010.200439453125,20321.2109375,13403.892578125,8400.28125,20642.28125,7394.94921875,8637.1103515625,3515.08447265625,-753.4027099609375,19337.3359375,4859.765625,14338.4931640625,5799.92919921875,2693.335205078125,8927.185546875,10140.736328125,-144.64060974121094,3887.812255859375,-1238.9818115234375,10713.736328125,-142.2564239501953,2508.16357421875,-665.1878662109375,2882.480712890625,2559.82080078125,19489.923828125,2677.440673828125,9365.8759765625,60.39937210083008,7546.74267578125,22445.51953125,18573.603515625,13882.3193359375,-0.0,-49652.26171875,15909.671875,5639.39404296875,0.0,5853.97119140625,0.0,0.0
11372.56640625,9632.1103515625,25811.1953125,7630.189453125,24862.2890625,2102.05712890625,3445.943115234375,3460.248291015625,6473.859375,3493.626953125,12492.3388671875,-3279.050048828125,5007.5849609375,0.0,18393.197265625,1571.97314453125,21042.029296875,14249.484375,6152.78857421875,9237.1298828125,18830.298828125,25454.36328125,11900.265625,14811.3564453125,16131.4013671875,3985.563720703125,24288.49609375,-6186.9619140625,-0.0,228.0871124267578,9330.11328125,4001.458740234375,20312.466796875,13392.765625,8393.1279296875,20633.5390625,7390.18115234375,8631.546875,3488.063720703125,-767.7078247070312,19329.388671875,4835.923828125,14332.9306640625,5794.3662109375,2691.745849609375,8921.623046875,10131.2001953125,-145.43533325195312,3872.71240234375,-1250.90283203125,10712.94140625,-146.2300567626953,2506.573974609375,-673.1351318359375,2870.5595703125,2555.052490234375,19497.87109375,2672.67236328125,9364.287109375,53.2468147277832,7537.2060546875,22440.751953125,18570.423828125,13878.345703125,-0.0,-49655.4375,15902.51953125,5640.9833984375,0.0,5854.765625,0.0,0.0
11369.3876953125,9632.9052734375,25807.22265625,7626.21533203125,24857.521484375,2097.288818359375,3432.432861328125,3454.685302734375,6468.2958984375,3488.063720703125,12500.2861328125,-3277.460693359375,5005.20068359375,0.0,18386.83984375,1567.99951171875,21039.64453125,14249.484375,6147.22607421875,9231.5673828125,18827.119140625,25450.388671875,11894.703125,14808.177734375,16123.453125,3977.61669921875,24274.984375,-6190.14111328125,-0.0,217.75563049316406,9325.3447265625,3997.484619140625,20310.87890625,13387.998046875,8388.3603515625,20630.359375,7383.8232421875,8626.7783203125,3488.8583984375,-773.2709350585938,19323.03125,4835.12890625,14324.1884765625,5789.59814453125,2681.414306640625,8915.2646484375,10128.021484375,-152.587890625,3870.328125,-1256.4659423828125,10693.0732421875,-148.61424255371094,2503.39501953125,-677.9035034179688,2857.843994140625,2547.10498046875,19508.203125,2665.519775390625,9356.33984375,48.47844314575195,7534.02734375,22433.599609375,18564.859375,13870.3984375,-0.0,-49661.796875,15896.955078125,5637.8046875,0.0,5846.818359375,0.0,0.0
11369.3876953125,9629.7265625,25805.630859375,7629.39453125,24863.083984375,2103.646484375,3431.637939453125,3456.274658203125,6470.68017578125,3488.8583984375,12505.8486328125,-3287.792236328125,4998.04833984375,0.0,18387.63671875,1569.5889892578125,21040.439453125,14253.45703125,6150.404296875,9232.361328125,18826.326171875,25454.36328125,11898.6767578125,14809.767578125,16122.66015625,3991.126953125,24281.34375,-6185.373046875,-0.0,212.9872589111328,9325.3447265625,3999.074462890625,20312.466796875,13390.3818359375,8391.5400390625,20635.12890625,7385.41259765625,8631.546875,3499.190185546875,-772.4761962890625,19323.826171875,4843.076171875,14327.3671875,5792.7763671875,2683.003662109375,8916.8544921875,10136.763671875,-150.99842834472656,3884.63330078125,-1248.5185546875,10692.279296875,-144.64060974121094,2501.8056640625,-682.671875,2858.638671875,2543.92626953125,19506.61328125,2663.93017578125,9358.7236328125,53.2468147277832,7533.232421875,22435.984375,18565.654296875,13869.603515625,-0.0,-49670.53515625,15904.1083984375,5637.8046875,0.0,5839.666015625,0.0,0.0
11364.619140625,9631.31640625,25805.630859375,7634.1630859375,24870.23828125,2108.414794921875,3440.380126953125,3461.837890625,6470.68017578125,3488.8583984375,12500.2861328125,-3293.355224609375,4990.8955078125,0.0,18389.224609375,1571.178466796875,21043.619140625,14255.046875,6153.58349609375,9229.9775390625,18832.68359375,25459.130859375,11902.6494140625,14812.15234375,16129.0166015625,3994.30615234375,24289.2890625,-6179.8095703125,-0.0,230.47129821777344,9330.11328125,4002.253173828125,20313.263671875,13395.150390625,8397.896484375,20639.896484375,7389.38671875,8636.3154296875,3499.98486328125,-767.7078247070312,19330.18359375,4845.46044921875,14335.314453125,5796.75048828125,2686.977294921875,8921.623046875,10134.37890625,-139.8722381591797,3883.838623046875,-1242.95556640625,10702.6103515625,-136.6933135986328,2494.653076171875,-681.0823974609375,2858.638671875,2554.257568359375,19501.05078125,2671.082763671875,9361.107421875,53.2468147277832,7534.02734375,22439.162109375,18568.0390625,13864.0400390625,-0.0,-49669.7421875,15905.69921875,5645.751953125,0.0,5839.666015625,0.0,0.0
11351.1083984375,9619.3955078125,25798.478515625,7627.01025390625,24867.05859375,2104.44140625,3440.380126953125,3461.837890625,6465.912109375,3486.474365234375,12473.265625,-3286.99755859375,4986.921875,0.0,18387.63671875,1577.5362548828125,21038.0546875,14252.6630859375,6151.994140625,9226.798828125,18829.50390625,25455.951171875,11900.265625,14810.5625,16114.7119140625,3982.38525390625,24293.263671875,-6178.22021484375,-0.0,216.96090698242188,9326.140625,3995.1005859375,20306.111328125,13390.3818359375,8393.923828125,20633.5390625,7388.591796875,8633.931640625,3492.03759765625,-772.4761962890625,19324.62109375,4838.3076171875,14335.314453125,5794.3662109375,2684.59326171875,8921.623046875,10120.869140625,-146.2300567626953,3859.996826171875,-1245.3397216796875,10702.6103515625,-133.514404296875,2479.55322265625,-702.5401000976562,2839.565185546875,2554.257568359375,19493.103515625,2675.85107421875,9357.9296875,54.836273193359375,7527.66943359375,22435.1875,18566.44921875,13858.4775390625,-0.0,-49661.0,15902.51953125,5654.49365234375,0.0,5839.666015625,0.0,0.0
11362.2353515625,9619.3955078125,25804.04296875,7628.599609375,24862.2890625,2108.414794921875,3443.558837890625,3464.221923828125,6474.65380859375,3491.24267578125,12488.365234375,-3285.407958984375,4982.9482421875,0.0,18392.404296875,1587.072998046875,21042.029296875,14255.046875,6154.37841796875,9233.951171875,18831.095703125,25458.3359375,11901.85546875,14814.5361328125,16117.8916015625,3986.358642578125,24298.826171875,-6174.24609375,-0.0,211.39781188964844,9328.5244140625,4000.663818359375,20312.466796875,13392.765625,8393.923828125,20637.51171875,7390.18115234375,8636.3154296875,3504.753173828125,-770.092041015625,19323.826171875,4843.87060546875,14334.51953125,5797.544921875,2686.977294921875,8925.59765625,10128.8154296875,-153.3826141357422,3852.84423828125,-1241.3660888671875,10707.3779296875,-129.54075622558594,2497.037109375,-704.9242553710938,2856.254638671875,2546.310546875,19489.923828125,2684.59326171875,9363.4921875,61.19409942626953,7531.64306640625,22439.162109375,18570.423828125,13865.6298828125,-0.0,-49657.8203125,15904.9033203125,5660.05712890625,0.0,5846.818359375,0.0,0.0
11365.4140625,9626.5478515625,25807.22265625,7627.80517578125,24857.521484375,2108.414794921875,3446.738037109375,3467.40087890625,6484.1904296875,3496.805908203125,12493.1337890625,-3288.5869140625,4980.56396484375,0.0,18398.76171875,1590.251953125,21043.619140625,14255.046875,6154.37841796875,9242.6943359375,18830.298828125,25459.130859375,11901.85546875,14814.5361328125,16113.123046875,3992.71630859375,24293.263671875,-6174.24609375,-0.0,220.93455505371094,9331.703125,4001.458740234375,20312.466796875,13394.35546875,8391.5400390625,20638.306640625,7391.77099609375,8634.7265625,3511.90576171875,-764.5289306640625,19322.236328125,4846.2548828125,14334.51953125,5795.95556640625,2692.54052734375,8927.9814453125,10128.8154296875,-156.56153869628906,3857.612548828125,-1238.9818115234375,10713.736328125,-128.74603271484375,2491.47412109375,-689.0296630859375,2857.04931640625,2568.562744140625,19496.283203125,2686.977294921875,9373.0283203125,62.78356170654297,7534.82177734375,22438.3671875,18573.603515625,13875.1669921875,-0.0,-49664.97265625,15913.64453125,5652.904296875,0.0,5849.20263671875,0.0,0.0
11368.591796875,9627.341796875,25804.837890625,7625.4208984375,24854.341796875,2106.03076171875,3440.380126953125,3465.0166015625,6489.75390625,3496.010986328125,12495.517578125,-3292.560546875,4977.38525390625,0.0,18401.94140625,1583.099365234375,21042.029296875,14250.2783203125,6151.994140625,9245.8720703125,18828.7109375,25457.541015625,11897.0869140625,14810.5625,16116.30078125,4000.663818359375,24278.1640625,-6178.22021484375,-0.0,220.1398162841797,9329.3193359375,3999.074462890625,20310.083984375,13391.1767578125,8389.9501953125,20635.12890625,7388.591796875,8631.546875,3490.447998046875,-766.9130859375,19323.03125,4840.69189453125,14329.7509765625,5791.98193359375,2692.54052734375,8924.8017578125,10133.583984375,-158.15098571777344,3867.1494140625,-1246.92919921875,10709.7626953125,-131.92494201660156,2498.626708984375,-680.2876586914062,2861.02294921875,2575.71533203125,19503.435546875,2678.2353515625,9377.796875,61.19409942626953,7534.02734375,22436.77734375,18573.603515625,13887.087890625,-0.0,-49675.3046875,15920.00390625,5635.42041015625,0.0,5852.38134765625,0.0,0.0
11370.181640625,9613.8310546875,25804.04296875,7624.6259765625,24852.751953125,2097.288818359375,3428.459228515625,3457.0693359375,6481.80615234375,3490.447998046875,12497.90234375,-3298.12353515625,4989.30615234375,0.0,18393.994140625,1570.3836669921875,21041.234375,14245.509765625,6142.45751953125,9238.7197265625,18827.119140625,25452.771484375,11889.9345703125,14806.587890625,16122.66015625,4001.458740234375,24283.728515625,-6188.55126953125,-0.0,212.19253540039062,9324.55078125,3998.279541015625,20309.2890625,13387.203125,8385.9755859375,20629.564453125,7380.64453125,8625.189453125,3490.447998046875,-775.6550903320312,19325.4140625,4836.71826171875,14320.2138671875,5783.23974609375,2683.003662109375,8919.2392578125,10135.173828125,-159.74044799804688,3885.42822265625,-1258.85009765625,10697.046875,-138.28277587890625,2508.9580078125,-682.671875,2865.791259765625,2575.71533203125,19509.79296875,2663.93017578125,9369.0556640625,57.220458984375,7532.43798828125,22430.419921875,18565.654296875,13883.908203125,-0.0,-49684.83984375,15906.4921875,5622.705078125,0.0,5852.38134765625,0.0,0.0
11374.9501953125,9615.4208984375,25805.630859375,7627.01025390625,24860.701171875,2095.69921875,3435.61181640625,3458.658935546875,6478.62744140625,3492.832275390625,12493.927734375,-3291.765869140625,5002.02197265625,0.0,18397.173828125,1571.178466796875,21043.619140625,14253.45703125,6146.43115234375,9237.1298828125,18831.888671875,25453.568359375,11892.318359375,14808.97265625,16124.248046875,3975.232666015625,24302.005859375,-6191.73046875,-0.0,213.78199768066406,9327.7294921875,4001.458740234375,20314.05859375,13389.587890625,8391.5400390625,20631.154296875,7383.8232421875,8629.9580078125,3500.779296875,-773.2709350585938,19328.59375,4834.333984375,14329.7509765625,5784.82958984375,2685.387939453125,8921.623046875,10135.173828125,-160.53517150878906,3888.60693359375,-1267.592041015625,10703.404296875,-137.48805236816406,2515.31591796875,-679.492919921875,2861.817626953125,2556.641845703125,19508.99609375,2663.93017578125,9366.671875,58.80991744995117,7535.6162109375,22432.8046875,18567.244140625,13883.1142578125,-0.0,-49680.07421875,15904.9033203125,5621.115234375,0.0,5855.560546875,0.0,0.0
11368.591796875,9619.3955078125,25802.453125,7629.39453125,24855.931640625,2097.288818359375,3430.84326171875,3458.658935546875,6469.88525390625,3492.03759765625,12485.1865234375,-3287.792236328125,4991.68994140625,0.0,18391.609375,1579.125732421875,21043.619140625,14251.0732421875,6147.22607421875,9232.361328125,18829.50390625,25454.36328125,11888.3447265625,14809.767578125,16119.48046875,3968.080078125,24288.49609375,-6186.16748046875,-0.0,212.9872589111328,9327.7294921875,3999.074462890625,20312.466796875,13390.3818359375,8388.3603515625,20633.5390625,7382.23388671875,8629.9580078125,3498.395263671875,-770.092041015625,19325.4140625,4835.12890625,14323.3935546875,5786.4189453125,2681.414306640625,8921.623046875,10128.8154296875,-160.53517150878906,3873.50732421875,-1269.181640625,10701.8154296875,-133.514404296875,2508.9580078125,-682.671875,2852.28076171875,2527.23681640625,19501.05078125,2667.90380859375,9361.9033203125,61.19409942626953,7530.84814453125,22432.0078125,18564.859375,13875.1669921875,-0.0,-49679.28125,15905.69921875,5625.08935546875,0.0,5853.17626953125,0.0,0.0
11366.2080078125,9624.1640625,25801.658203125,7625.4208984375,24855.931640625,2090.13623046875,3426.074951171875,3456.274658203125,6469.88525390625,3492.03759765625,12485.1865234375,-3290.970947265625,4999.6376953125,0.0,18391.609375,1576.7415771484375,21042.82421875,14247.099609375,6144.841796875,9229.9775390625,18827.916015625,25452.771484375,11885.166015625,14804.9990234375,16119.48046875,3974.437744140625,24273.396484375,-6186.9619140625,-0.0,212.9872589111328,9323.755859375,3998.279541015625,20311.673828125,13389.587890625,8386.771484375,20632.744140625,7379.05517578125,8626.7783203125,3497.6005859375,-771.6814575195312,19326.2109375,4833.53955078125,14319.419921875,5780.85546875,2677.440673828125,8918.4443359375,10116.1005859375,-166.09828186035156,3865.559814453125,-1266.79736328125,10697.841796875,-135.10386657714844,2505.779296875,-685.8507690429688,2851.486328125,2528.031494140625,19502.640625,2667.90380859375,9361.9033203125,61.19409942626953,7530.0537109375,22429.625,18564.06640625,13875.1669921875,-0.0,-49681.6640625,15903.314453125,5628.267578125,0.0,5853.17626953125,0.0,0.0
11374.15625,9632.1103515625,25810.400390625,7631.77880859375,24868.646484375,2090.930908203125,3435.61181640625,3461.043212890625,6473.859375,3494.421630859375,12497.107421875,-3286.99755859375,5003.611328125,0.0,18397.173828125,1577.5362548828125,21050.771484375,14255.046875,6149.60986328125,9236.3359375,18837.451171875,25458.3359375,11890.728515625,14810.5625,16134.5810546875,3986.358642578125,24287.701171875,-6186.16748046875,-0.0,220.93455505371094,9333.29296875,4006.22705078125,20319.62109375,13395.9453125,8394.7177734375,20636.716796875,7386.20751953125,8629.1630859375,3507.13720703125,-765.3236083984375,19337.3359375,4839.10205078125,14329.7509765625,5784.82958984375,2684.59326171875,8920.8291015625,10120.07421875,-161.3299102783203,3880.659912109375,-1261.2342529296875,10705.7890625,-134.3091278076172,2518.494873046875,-672.3403930664062,2854.6650390625,2544.720947265625,19507.408203125,2670.2880859375,9366.671875,65.96247100830078,7536.4111328125,22436.77734375,18568.0390625,13877.55078125,-0.0,-49677.6875,15905.69921875,5637.8046875,0.0,5857.9443359375,0.0,0.0
11361.439453125,9620.984375,25810.400390625,7623.03662109375,24871.03125,2085.367919921875,3430.84326171875,3451.50634765625,6465.1171875,3488.063720703125,12489.1591796875,-3295.739501953125,4993.27978515625,0.0,18392.404296875,1570.3836669921875,21046.796875,14255.046875,6143.251953125,9231.5673828125,18835.86328125,25454.36328125,11886.755859375,14804.2041015625,16143.322265625,3980.0009765625,24286.111328125,-6195.7041015625,-0.0,211.39781188964844,9330.11328125,3997.484619140625,20314.8515625,13387.998046875,8392.333984375,20631.94921875,7382.23388671875,8624.39453125,3500.779296875,-773.2709350585938,19340.515625,4835.12890625,14328.162109375,5777.67724609375,2678.2353515625,8915.2646484375,10129.611328125,-167.68772888183594,3882.2490234375,-1265.2078857421875,10703.404296875,-142.2564239501953,2502.600341796875,-679.492919921875,2848.307373046875,2542.336669921875,19498.666015625,2659.956787109375,9361.9033203125,57.220458984375,7526.87451171875,22431.21484375,18563.271484375,13870.3984375,-0.0,-49684.83984375,15897.7509765625,5631.44677734375,0.0,5851.5869140625,0.0,0.0
11347.134765625,9605.884765625,25808.015625,7612.705078125,24866.26171875,2080.599609375,3430.84326171875,3449.916748046875,6461.1435546875,3484.090087890625,12485.9814453125,-3297.328857421875,4993.27978515625,0.0,18394.7890625,1567.99951171875,21039.64453125,14249.484375,6140.0732421875,9225.208984375,18833.478515625,25450.388671875,11885.166015625,14801.025390625,16144.9111328125,3968.080078125,24290.083984375,-6197.2939453125,-0.0,203.4505157470703,9323.755859375,3991.126953125,20311.673828125,13382.4345703125,8389.1552734375,20627.974609375,7380.64453125,8621.2158203125,3493.626953125,-782.012939453125,19334.158203125,4826.38671875,14328.95703125,5772.90869140625,2674.26171875,8913.67578125,10138.3525390625,-182.78758239746094,3883.0439453125,-1263.618408203125,10704.2001953125,-145.43533325195312,2493.8583984375,-696.1822509765625,2868.175537109375,2536.773681640625,19493.8984375,2655.188232421875,9361.107421875,51.6573600769043,7517.337890625,22427.240234375,18560.88671875,13865.6298828125,-0.0,-49691.9921875,15894.5712890625,5625.08935546875,0.0,5846.818359375,0.0,0.0
11355.08203125,9613.037109375,25807.22265625,7623.03662109375,24867.05859375,2089.34130859375,3438.79052734375,3459.45361328125,6461.9384765625,3490.447998046875,12478.828125,-3286.99755859375,4998.8427734375,0.0,18403.529296875,1573.5626220703125,21044.412109375,14254.251953125,6148.81494140625,9230.7734375,18835.86328125,25457.541015625,11889.9345703125,14809.767578125,16129.8125,3972.053466796875,24302.005859375,-6187.7568359375,-0.0,214.57672119140625,9327.7294921875,3995.1005859375,20314.05859375,13389.587890625,8393.923828125,20634.33203125,7387.00244140625,8629.1630859375,3496.010986328125,-776.4498291015625,19328.59375,4832.74462890625,14337.69921875,5780.06103515625,2679.82470703125,8920.033203125,10126.431640625,-176.42974853515625,3888.60693359375,-1254.081787109375,10714.53125,-137.48805236816406,2493.8583984375,-690.619140625,2867.380859375,2543.131591796875,19502.640625,2667.90380859375,9367.4658203125,58.01518630981445,7520.51708984375,22434.392578125,18568.0390625,13868.80859375,-0.0,-49683.25390625,15900.9306640625,5631.44677734375,0.0,5850.7919921875,0.0,0.0
11359.0556640625,9621.779296875,25806.427734375,7629.39453125,24870.23828125,2090.930908203125,3441.1748046875,3461.837890625,6460.3486328125,3494.421630859375,12482.0068359375,-3288.5869140625,4994.07421875,0.0,18401.146484375,1577.5362548828125,21045.20703125,14255.046875,6152.78857421875,9233.1572265625,18837.451171875,25457.541015625,11891.5244140625,14812.15234375,16121.0693359375,3970.464111328125,24301.2109375,-6182.19384765625,-0.0,212.19253540039062,9330.9091796875,3999.074462890625,20316.443359375,13388.79296875,8396.3076171875,20636.716796875,7391.77099609375,8631.546875,3495.21630859375,-774.065673828125,19330.18359375,4831.1552734375,14338.4931640625,5782.4453125,2683.798583984375,8921.623046875,10121.6630859375,-158.9457244873047,3878.275634765625,-1256.4659423828125,10712.94140625,-135.10386657714844,2493.8583984375,-696.1822509765625,2854.6650390625,2535.18408203125,19509.79296875,2670.2880859375,9369.0556640625,62.78356170654297,7527.66943359375,22436.77734375,18568.833984375,13868.80859375,-0.0,-49681.6640625,15907.287109375,5633.0361328125,0.0,5851.5869140625,0.0,0.0
11363.029296875,9629.7265625,25808.015625,7631.77880859375,24867.05859375,2092.5205078125,3440.380126953125,3465.0166015625,6462.73291015625,3497.6005859375,12493.1337890625,-3287.792236328125,5000.4326171875,0.0,18397.966796875,1585.4835205078125,21047.591796875,14257.4306640625,6153.58349609375,9239.5146484375,18835.068359375,25459.923828125,11890.728515625,14813.7412109375,16110.73828125,3975.232666015625,24294.05859375,-6183.783203125,-0.0,211.39781188964844,9331.703125,4002.253173828125,20318.03125,13391.1767578125,8396.3076171875,20638.306640625,7394.15478515625,8633.931640625,3496.010986328125,-766.1183471679688,19328.59375,4833.53955078125,14336.109375,5785.6240234375,2683.798583984375,8927.185546875,10134.37890625,-155.7667999267578,3863.175537109375,-1258.85009765625,10704.2001953125,-134.3091278076172,2504.189697265625,-694.5927734375,2859.433349609375,2535.97900390625,19515.35546875,2671.877685546875,9368.2607421875,68.3466567993164,7534.82177734375,22441.544921875,18571.21875,13873.5771484375,-0.0,-49680.07421875,15914.4404296875,5643.36767578125,0.0,5857.1494140625,0.0,0.0
