11045.138671875,9343.6240234375,25768.279296875,7661.97802734375,24735.927734375,1997.94775390625,3379.980712890625,3348.986328125,6411.07568359375,3413.359375,12552.73828125,-3662.109375,4916.19091796875,0.0,18362.998046875,1458.326904296875,20895.00390625,14042.8544921875,6065.36865234375,9157.6572265625,18773.875,25310.515625,11959.076171875,14656.384765625,16065.439453125,3807.544677734375,24200.28125,-6388.8232421875,-0.0,-20.66294288635254,9223.6201171875,3747.93994140625,20257.630859375,13215.5419921875,8387.5654296875,20548.501953125,7335.3447265625,8544.921875,3481.705810546875,-1004.5369873046875,19276.9375,4731.01953125,14168.421875,5675.95166015625,2688.56689453125,8838.970703125,10000.0693359375,-400.543212890625,3866.354736328125,-1378.8541259765625,10688.3046875,-209.808349609375,2369.0859375,-1043.4786376953125,2844.333740234375,2322.99169921875,19412.041015625,2532.800048828125,9353.955078125,-124.77238464355469,7330.57666015625,22222.201171875,18463.134765625,13728.9365234375,-0.0,-49863.65625,15856.4248046875,5326.27099609375,0.0,5797.544921875,0.0,0.0
11045.9326171875,9357.9296875,25777.021484375,7665.9521484375,24744.669921875,2009.073974609375,3383.15966796875,3365.67578125,6432.533203125,3435.61181640625,12538.4326171875,-3643.83056640625,4922.548828125,0.0,18370.15234375,1480.579345703125,20901.361328125,14055.5693359375,6077.28955078125,9181.4990234375,18781.02734375,25320.84765625,11966.228515625,14668.3056640625,16068.6171875,3813.107666015625,24195.513671875,-6371.33935546875,-0.0,-3.9736428260803223,9229.9775390625,3751.118896484375,20264.783203125,13221.900390625,8397.1025390625,20558.833984375,7345.67626953125,8559.2265625,3451.50634765625,-1000.5632934570312,19284.8828125,4740.55615234375,14172.39453125,5691.05126953125,2698.103759765625,8857.25,10015.96484375,-389.4170227050781,3869.533447265625,-1366.9332275390625,10679.5625,-189.9401397705078,2333.3232421875,-1024.4051513671875,2832.41259765625,2341.2705078125,19431.91015625,2554.257568359375,9367.4658203125,-100.93053436279297,7352.8291015625,22233.328125,18478.234375,13765.494140625,-0.0,-49838.2265625,15882.650390625,5354.08642578125,0.0,5825.36083984375,0.0,0.0
11067.390625,9377.0029296875,25786.55859375,7685.02587890625,24748.64453125,2028.942138671875,3391.10693359375,3379.980712890625,6442.06982421875,3447.53271484375,12543.201171875,-3632.70458984375,4927.3173828125,0.0,18376.5078125,1496.473876953125,20914.873046875,14070.669921875,6089.21044921875,9191.8310546875,18793.7421875,25333.5625,11976.5595703125,14682.6103515625,16078.94921875,3836.155029296875,24199.486328125,-6354.64990234375,-0.0,21.457672119140625,9243.48828125,3765.424072265625,20275.912109375,13237.0,8406.638671875,20573.138671875,7356.0078125,8571.9423828125,3501.57421875,-988.642333984375,19294.419921875,4757.24560546875,14176.369140625,5706.1513671875,2707.640380859375,8869.1708984375,10033.4482421875,-372.72772216796875,3881.45458984375,-1345.4755859375,10685.1259765625,-175.63502502441406,2366.701904296875,-1004.5369873046875,2857.843994140625,2357.959716796875,19429.525390625,2571.74169921875,9375.4130859375,-87.4201431274414,7357.59716796875,22246.837890625,18489.361328125,13775.03125,-0.0,-49823.125,15881.8564453125,5355.67626953125,0.0,5836.48681640625,0.0,0.0
11087.2587890625,9380.9765625,25777.021484375,7676.283203125,24745.46484375,2024.1737060546875,3392.6962890625,3377.5966796875,6438.89111328125,3443.558837890625,12533.6650390625,-3639.85693359375,4919.3701171875,0.0,18375.71484375,1494.0897216796875,20908.513671875,14065.9013671875,6087.62109375,9187.0625,18788.97265625,25328.794921875,11973.380859375,14677.841796875,16085.306640625,3830.591796875,24208.2265625,-6356.2392578125,-0.0,16.689300537109375,9239.5146484375,3759.06640625,20267.962890625,13229.052734375,8405.0498046875,20571.55078125,7353.6240234375,8568.763671875,3535.74755859375,-971.9530639648438,19288.0625,4748.50341796875,14177.1630859375,5702.177734375,2708.43505859375,8865.9921875,10020.732421875,-375.1119079589844,3884.63330078125,-1349.44921875,10692.279296875,-180.4033966064453,2399.28564453125,-1002.9474487304688,2876.91748046875,2347.62841796875,19412.8359375,2572.536376953125,9374.6181640625,-92.18851470947266,7362.36572265625,22246.837890625,18486.9765625,13771.8515625,-0.0,-49829.484375,15880.2666015625,5351.7021484375,0.0,5829.33447265625,0.0,0.0
11107.921875,9388.923828125,25782.5859375,7683.43603515625,24758.1796875,2032.1209716796875,3405.411865234375,3386.33837890625,6446.04345703125,3449.916748046875,12547.9697265625,-3640.651611328125,4912.2177734375,0.0,18385.251953125,1504.4212646484375,20914.078125,14074.6435546875,6097.15771484375,9195.8046875,18796.125,25337.537109375,11984.5078125,14687.37890625,16092.458984375,3837.744384765625,24228.890625,-6349.0869140625,-0.0,22.25240135192871,9247.4619140625,3763.834716796875,20275.115234375,13235.41015625,8415.3818359375,20581.880859375,7367.13427734375,8577.505859375,3518.263671875,-961.62158203125,19295.21484375,4757.24560546875,14193.0576171875,5711.71435546875,2720.35595703125,8875.529296875,10022.322265625,-362.396240234375,3886.222900390625,-1339.912353515625,10707.3779296875,-170.07191467285156,2415.18017578125,-995.000244140625,2891.22265625,2350.012451171875,19423.9609375,2578.894287109375,9385.7451171875,-82.65177154541016,7386.20751953125,22257.169921875,18495.71875,13779.7998046875,-0.0,-49821.53515625,15886.625,5363.623046875,0.0,5825.36083984375,0.0,0.0
11104.7431640625,9384.1552734375,25771.458984375,7685.8203125,24753.412109375,2038.4788818359375,3406.206787109375,3384.749267578125,6443.6591796875,3449.916748046875,12536.84375,-3641.4462890625,4904.27001953125,0.0,18387.63671875,1498.858154296875,20911.693359375,14074.6435546875,6098.7470703125,9194.21484375,18793.7421875,25340.71484375,11982.91796875,14687.37890625,16072.591796875,3849.665283203125,24220.943359375,-6349.0869140625,-0.0,28.6102294921875,9245.078125,3759.06640625,20273.52734375,13234.615234375,8415.3818359375,20581.880859375,7367.13427734375,8577.505859375,3494.421630859375,-972.747802734375,19289.65234375,4759.6298828125,14190.673828125,5711.71435546875,2717.17724609375,8873.1455078125,9999.275390625,-356.0384216308594,3864.76513671875,-1326.402099609375,10710.556640625,-170.07191467285156,2408.027587890625,-1006.1264038085938,2860.228271484375,2357.959716796875,19429.525390625,2570.15234375,9384.94921875,-81.06231689453125,7392.5654296875,22258.7578125,18494.12890625,13775.03125,-0.0,-49825.5078125,15888.2138671875,5367.59716796875,0.0,5832.51318359375,0.0,0.0
11080.9013671875,9369.8505859375,25761.126953125,7676.283203125,24740.6953125,2029.73681640625,3388.72265625,3372.033447265625,6426.97021484375,3434.817138671875,12528.896484375,-3643.83056640625,4915.39599609375,0.0,18376.5078125,1481.3741455078125,20903.74609375,14065.1064453125,6085.23681640625,9178.3212890625,18786.587890625,25331.177734375,11970.9970703125,14677.841796875,16071.796875,3848.87060546875,24192.333984375,-6355.4443359375,-0.0,16.689300537109375,9235.541015625,3747.1455078125,20264.783203125,13225.873046875,8403.4609375,20573.138671875,7351.23974609375,8564.7900390625,3488.063720703125,-979.900390625,19284.08984375,4751.68212890625,14173.984375,5702.97265625,2698.8984375,8858.83984375,9975.43359375,-377.49609375,3871.123046875,-1322.4283447265625,10689.89453125,-183.58230590820312,2381.0068359375,-1022.815673828125,2857.843994140625,2350.80712890625,19431.11328125,2553.462890625,9370.64453125,-102.51998901367188,7369.51806640625,22245.248046875,18479.029296875,13753.5732421875,-0.0,-49838.2265625,15873.9091796875,5354.08642578125,0.0,5825.36083984375,0.0,0.0
11061.828125,9361.9033203125,25765.896484375,7669.92578125,24739.107421875,2020.994873046875,3380.775390625,3369.649169921875,6422.20166015625,3431.637939453125,12529.6904296875,-3643.83056640625,4925.72802734375,0.0,18372.53515625,1482.963623046875,20902.15625,14061.1337890625,6082.05810546875,9173.552734375,18785.794921875,25325.6171875,11965.43359375,14674.6630859375,16078.1533203125,3838.5390625,24188.359375,-6357.82861328125,-0.0,12.715657234191895,9233.1572265625,3743.96630859375,20263.1953125,13222.6943359375,8400.28125,20567.576171875,7344.0869140625,8562.4052734375,3492.832275390625,-979.1055908203125,19284.8828125,4748.50341796875,14166.037109375,5699.79345703125,2694.1298828125,8857.25,9987.3544921875,-396.569580078125,3881.45458984375,-1332.7598876953125,10678.7685546875,-185.96649169921875,2370.67529296875,-1026.789306640625,2867.380859375,2345.244140625,19433.498046875,2560.615478515625,9367.4658203125,-104.10944366455078,7346.47119140625,22242.865234375,18475.056640625,13749.599609375,-0.0,-49838.2265625,15873.9091796875,5356.470703125,0.0,5823.77099609375,0.0,0.0
11050.701171875,9352.3662109375,25764.306640625,7661.18359375,24736.72265625,2005.1002197265625,3374.41748046875,3359.31787109375,6411.07568359375,3422.101318359375,12529.6904296875,-3652.57275390625,4912.2177734375,0.0,18359.8203125,1475.0162353515625,20895.00390625,14053.185546875,6071.7265625,9164.810546875,18780.232421875,25316.873046875,11958.28125,14664.33203125,16078.1533203125,3821.05517578125,24188.359375,-6371.33935546875,-0.0,-0.7947285771369934,9226.798828125,3737.608642578125,20258.42578125,13213.9521484375,8394.7177734375,20558.0390625,7337.72900390625,8554.458984375,3476.142822265625,-984.668701171875,19280.91015625,4737.376953125,14162.8583984375,5687.078125,2686.1826171875,8846.9189453125,9995.30078125,-408.4905090332031,3872.71240234375,-1362.95947265625,10674.0,-194.70851135253906,2382.59619140625,-1030.7630615234375,2864.99658203125,2341.2705078125,19420.78125,2560.615478515625,9354.7509765625,-112.05673217773438,7336.9345703125,22234.916015625,18467.107421875,13738.47265625,-0.0,-49848.5546875,15862.783203125,5338.98681640625,0.0,5812.64501953125,0.0,0.0
11035.6015625,9338.0615234375,25751.58984375,7648.4677734375,24725.595703125,1985.2320556640625,3359.31787109375,3339.44970703125,6392.001953125,3397.46484375,12516.9755859375,-3667.67236328125,4896.32275390625,0.0,18351.873046875,1449.5849609375,20879.109375,14036.49609375,6052.65283203125,9140.173828125,18765.130859375,25301.775390625,11940.796875,14647.6435546875,16074.9755859375,3801.186767578125,24182.001953125,-6392.001953125,-0.0,-11.920928955078125,9210.904296875,3724.09814453125,20244.12109375,13200.4423828125,8379.6181640625,20542.939453125,7321.83447265625,8535.384765625,3456.274658203125,-1002.9474487304688,19267.400390625,4720.68798828125,14149.3486328125,5668.00439453125,2668.698486328125,8824.666015625,10004.837890625,-417.2325134277344,3862.380859375,-1387.59619140625,10663.6689453125,-216.1661834716797,2381.801513671875,-1037.91552734375,2855.4599609375,2326.170654296875,19407.271484375,2532.800048828125,9340.4453125,-136.6933135986328,7328.1923828125,22217.431640625,18448.03515625,13710.658203125,-0.0,-49870.80859375,15855.630859375,5302.42919921875,0.0,5781.650390625,0.0,0.0
11052.291015625,9349.982421875,25757.947265625,7660.38916015625,24733.54296875,1994.768798828125,3368.059814453125,3345.0126953125,6395.18115234375,3400.6435546875,12520.154296875,-3660.519775390625,4902.6806640625,0.0,18362.203125,1454.353271484375,20889.44140625,14043.6484375,6057.42138671875,9141.7626953125,18771.490234375,25311.3125,11946.3603515625,14652.4111328125,16075.76953125,3810.7236328125,24197.896484375,-6388.8232421875,-0.0,-5.563100337982178,9219.646484375,3735.224365234375,20251.2734375,13209.9794921875,8385.181640625,20549.296875,7326.60302734375,8538.5634765625,3482.500732421875,-995.000244140625,19271.373046875,4730.224609375,14157.294921875,5674.3623046875,2675.85107421875,8827.845703125,9999.275390625,-395.77484130859375,3872.71240234375,-1377.2646484375,10674.0,-210.6030731201172,2399.28564453125,-1028.3787841796875,2859.433349609375,2322.197021484375,19413.62890625,2540.747314453125,9347.59765625,-132.7196807861328,7347.265625,22223.791015625,18452.009765625,13709.8623046875,-0.0,-49858.88671875,15855.630859375,5306.40283203125,0.0,5778.4716796875,0.0,0.0
11045.9326171875,9365.8759765625,25765.896484375,7665.1572265625,24739.107421875,2001.92138671875,3372.828125,3349.781005859375,6399.15478515625,3410.97509765625,12545.5859375,-3641.4462890625,4908.24365234375,0.0,18363.794921875,1461.505859375,20897.388671875,14048.4169921875,6063.779296875,9148.12109375,18778.642578125,25319.2578125,11951.923828125,14657.974609375,16079.744140625,3815.491943359375,24206.638671875,-6382.46533203125,-0.0,0.0,9226.0048828125,3745.555908203125,20261.60546875,13217.92578125,8392.333984375,20554.06640625,7332.96044921875,8544.1279296875,3511.111083984375,-988.642333984375,19280.115234375,4738.96630859375,14163.6533203125,5679.92529296875,2680.619384765625,8833.408203125,10010.4013671875,-388.6222839355469,3881.45458984375,-1379.6488037109375,10679.5625,-205.83470153808594,2408.027587890625,-1019.6367797851562,2867.380859375,2325.375732421875,19419.193359375,2551.078857421875,9352.3662109375,-126.36184692382812,7363.955078125,22226.96875,18457.5703125,13713.8369140625,-0.0,-49837.4296875,15853.2470703125,5314.35009765625,0.0,5791.1875,0.0,0.0
11048.3173828125,9380.181640625,25778.611328125,7682.6416015625,24744.669921875,2019.4053955078125,3380.775390625,3365.67578125,6416.638671875,3433.2275390625,12564.6591796875,-3634.293701171875,4919.3701171875,0.0,18366.97265625,1481.3741455078125,20909.30859375,14059.5439453125,6075.7001953125,9169.578125,18790.564453125,25333.5625,11960.666015625,14672.279296875,16084.5126953125,3838.5390625,24210.611328125,-6364.98095703125,-0.0,22.25240135192871,9238.7197265625,3758.271484375,20272.732421875,13231.4365234375,8399.486328125,20568.37109375,7343.2919921875,8557.6376953125,3527.00537109375,-981.4898071289062,19288.859375,4758.8349609375,14170.8056640625,5695.81982421875,2690.15625,8849.3037109375,10024.70703125,-367.9593505859375,3884.63330078125,-1359.7806396484375,10682.7421875,-189.14540100097656,2415.974853515625,-1008.5106201171875,2861.02294921875,2342.065185546875,19436.677734375,2565.3837890625,9362.697265625,-108.87781524658203,7374.28662109375,22238.095703125,18471.08203125,13746.4208984375,-0.0,-49826.3046875,15868.345703125,5331.03955078125,0.0,5817.4130859375,0.0,0.0
11081.6953125,9379.38671875,25777.81640625,7680.25732421875,24746.259765625,2016.2265625,3385.5439453125,3371.23876953125,6422.99658203125,3441.1748046875,12563.0693359375,-3626.3466796875,4916.19091796875,0.0,18369.35546875,1490.910888671875,20910.8984375,14061.927734375,6079.673828125,9177.525390625,18791.357421875,25333.5625,11961.4599609375,14673.869140625,16082.12890625,3832.18115234375,24210.611328125,-6360.212890625,-0.0,38.94169998168945,9241.8984375,3758.271484375,20271.142578125,13232.2314453125,8396.3076171875,20569.166015625,7347.265625,8560.81640625,3540.515869140625,-973.5425415039062,19288.859375,4754.06640625,14172.39453125,5696.61474609375,2693.335205078125,8855.66015625,10028.6796875,-371.13824462890625,3893.37548828125,-1358.98583984375,10687.5107421875,-181.9928436279297,2421.5380859375,-1004.5369873046875,2861.02294921875,2353.986083984375,19433.498046875,2568.562744140625,9368.2607421875,-100.93053436279297,7369.51806640625,22239.685546875,18476.64453125,13762.314453125,-0.0,-49818.35546875,15876.29296875,5335.0126953125,0.0,5819.79736328125,0.0,0.0
11090.4375,9379.38671875,25792.91796875,7690.58837890625,24761.357421875,2028.1474609375,3395.08056640625,3383.954345703125,6434.12255859375,3455.47998046875,12563.0693359375,-3618.3994140625,4930.49609375,0.0,18381.27734375,1499.65283203125,20922.025390625,14073.0546875,6089.21044921875,9191.0361328125,18802.484375,25345.484375,11970.2021484375,14684.2001953125,16098.8173828125,3846.486328125,24212.201171875,-6346.70263671875,-0.0,26.226043701171875,9252.23046875,3766.218994140625,20285.447265625,13242.5625,8409.0234375,20582.67578125,7356.0078125,8572.7373046875,3536.542236328125,-961.62158203125,19302.3671875,4770.755859375,14184.3154296875,5708.53564453125,2703.666748046875,8869.9658203125,10035.83203125,-367.16461181640625,3898.9384765625,-1343.09130859375,10697.841796875,-170.07191467285156,2415.18017578125,-997.3843994140625,2881.68603515625,2360.343994140625,19435.087890625,2578.894287109375,9380.9765625,-86.62541961669922,7365.544921875,22252.400390625,18486.181640625,13774.2353515625,-0.0,-49808.0234375,15880.2666015625,5358.060546875,0.0,5838.076171875,0.0,0.0
11061.828125,9363.4921875,25788.1484375,7676.283203125,24755.001953125,2017.8157958984375,3389.517578125,3370.444091796875,6430.14892578125,3444.353759765625,12543.201171875,-3635.88330078125,4937.64892578125,0.0,18386.83984375,1478.989990234375,20911.693359375,14061.927734375,6080.46875,9183.0888671875,18794.537109375,25337.537109375,11959.076171875,14673.07421875,16097.2275390625,3834.5654296875,24208.2265625,-6359.41845703125,-0.0,2.384185791015625,9241.1044921875,3755.88720703125,20275.912109375,13232.2314453125,8401.87109375,20573.138671875,7347.265625,8562.4052734375,3520.647705078125,-970.3636474609375,19296.01171875,4759.6298828125,14177.1630859375,5698.9990234375,2696.51416015625,8857.25,10032.654296875,-377.49609375,3880.659912109375,-1355.8070068359375,10693.8681640625,-185.96649169921875,2366.701904296875,-1014.07373046875,2868.175537109375,2346.83349609375,19439.85546875,2565.3837890625,9385.7451171875,-100.13580322265625,7352.0341796875,22242.865234375,18477.439453125,13769.4677734375,-0.0,-49823.921875,15880.2666015625,5331.83447265625,0.0,5812.64501953125,0.0,0.0
11052.291015625,9353.955078125,25794.505859375,7666.74658203125,24743.080078125,2005.8948974609375,3381.570068359375,3364.086181640625,6421.4072265625,3438.79052734375,12551.1484375,-3639.85693359375,4941.6220703125,0.0,18379.6875,1476.605712890625,20903.74609375,14053.98046875,6072.52099609375,9177.525390625,18788.1796875,25325.6171875,11947.94921875,14665.9208984375,16102.791015625,3830.591796875,24204.25390625,-6368.16015625,-0.0,10.33147144317627,9231.5673828125,3744.76123046875,20270.34765625,13222.6943359375,8393.923828125,20562.013671875,7341.703125,8556.8427734375,3492.03759765625,-975.9266967773438,19294.419921875,4736.58251953125,14165.2421875,5691.05126953125,2686.977294921875,8851.6875,10046.958984375,-379.8802795410156,3885.42822265625,-1367.7279052734375,10689.099609375,-191.5295867919922,2349.2177734375,-1025.199951171875,2875.328125,2353.986083984375,19435.087890625,2561.41015625,9375.4130859375,-105.69890594482422,7351.23974609375,22234.12109375,18470.287109375,13759.9306640625,-0.0,-49827.09765625,15880.2666015625,5333.423828125,0.0,5807.87646484375,0.0,0.0
11056.263671875,9355.544921875,25784.173828125,7670.720703125,24739.900390625,2008.279052734375,3378.391357421875,3367.264892578125,6421.4072265625,3443.558837890625,12561.48046875,-3643.83056640625,4928.11181640625,0.0,18371.740234375,1478.989990234375,20904.541015625,14053.185546875,6074.1103515625,9179.115234375,18788.1796875,25326.41015625,11947.1552734375,14669.1005859375,16098.0224609375,3829.797119140625,24195.513671875,-6367.365234375,-0.0,7.152557373046875,9233.951171875,3747.1455078125,20271.142578125,13226.66796875,8392.333984375,20565.19140625,7341.703125,8557.6376953125,3507.13720703125,-979.1055908203125,19291.2421875,4740.55615234375,14162.0634765625,5694.23046875,2686.1826171875,8855.66015625,10023.1171875,-381.4697265625,3881.45458984375,-1370.112060546875,10685.9208984375,-189.9401397705078,2379.41748046875,-1030.7630615234375,2873.738525390625,2357.1650390625,19425.55078125,2559.82080078125,9367.4658203125,-102.51998901367188,7348.060546875,22233.328125,18472.671875,13759.9306640625,-0.0,-49834.25,15889.009765625,5341.37109375,0.0,5814.234375,0.0,0.0
11062.6220703125,9353.1611328125,25763.51171875,7668.33642578125,24731.955078125,2005.1002197265625,3375.21240234375,3360.9072265625,6415.04931640625,3438.79052734375,12545.5859375,-3652.57275390625,4918.5751953125,0.0,18366.97265625,1474.2215576171875,20897.388671875,14046.828125,6069.34228515625,9172.7568359375,18780.232421875,25321.642578125,11945.5654296875,14665.126953125,16075.76953125,3818.6708984375,24191.537109375,-6372.1337890625,-0.0,-1.5894571542739868,9226.798828125,3741.582275390625,20263.1953125,13218.720703125,8385.181640625,20559.62890625,7336.1396484375,8551.2802734375,3497.6005859375,-1009.3053588867188,19276.9375,4736.58251953125,14158.884765625,5688.66748046875,2681.414306640625,8850.8916015625,9982.5859375,-391.0064697265625,3867.1494140625,-1372.4962158203125,10680.3583984375,-193.9137725830078,2396.9013671875,-1034.736572265625,2868.97021484375,2352.396728515625,19423.166015625,2554.257568359375,9364.287109375,-106.4936294555664,7341.703125,22230.1484375,18467.90234375,13748.8046875,-0.0,-49845.37890625,15877.8818359375,5338.19189453125,0.0,5813.43994140625,0.0,0.0
11067.390625,9365.08203125,25773.84375,7675.48876953125,24743.080078125,2015.431640625,3385.5439453125,3368.8544921875,6426.17578125,3449.916748046875,12525.7177734375,-3648.598876953125,4930.49609375,0.0,18378.099609375,1481.3741455078125,20903.74609375,14057.1591796875,6079.673828125,9183.0888671875,18786.587890625,25328.001953125,11955.8974609375,14674.6630859375,16089.28125,3828.207763671875,24206.638671875,-6362.59716796875,-0.0,7.152557373046875,9233.1572265625,3750.32421875,20267.962890625,13225.873046875,8393.923828125,20568.37109375,7344.0869140625,8561.611328125,3491.24267578125,-995.000244140625,19284.08984375,4744.52978515625,14170.0107421875,5698.2041015625,2693.335205078125,8858.83984375,10002.4541015625,-387.0328369140625,3881.45458984375,-1358.98583984375,10691.4833984375,-184.3770294189453,2402.464599609375,-1018.8421020507812,2886.454345703125,2359.54931640625,19431.11328125,2561.41015625,9375.4130859375,-99.34107208251953,7357.59716796875,22239.685546875,18477.439453125,13762.314453125,-0.0,-49839.8125,15876.29296875,5344.5498046875,0.0,5822.9765625,0.0,0.0
11056.263671875,9373.0283203125,25786.55859375,7670.720703125,24757.384765625,2023.3790283203125,3398.259521484375,3379.980712890625,6437.3017578125,3462.63232421875,12489.955078125,-3639.85693359375,4939.23828125,0.0,18390.01953125,1495.67919921875,20913.283203125,14066.6962890625,6090.7998046875,9195.8046875,18796.125,25334.357421875,11967.818359375,14684.2001953125,16112.3271484375,3836.94970703125,24219.35546875,-6352.265625,-0.0,13.51038646697998,9243.48828125,3760.65576171875,20275.912109375,13232.2314453125,8408.228515625,20577.908203125,7358.39208984375,8571.1474609375,3504.753173828125,-968.774169921875,19299.984375,4751.68212890625,14182.7265625,5706.1513671875,2704.46142578125,8868.376953125,10023.9111328125,-384.6486511230469,3900.52783203125,-1347.06494140625,10704.2001953125,-173.25083923339844,2406.438232421875,-1006.1264038085938,2894.401611328125,2353.986083984375,19438.267578125,2574.920654296875,9388.12890625,-86.62541961669922,7366.33935546875,22250.017578125,18489.361328125,13778.2099609375,-0.0,-49825.5078125,15884.2412109375,5360.4443359375,0.0,5842.05029296875,0.0,0.0
11024.474609375,9349.982421875,25773.048828125,7649.2626953125,24743.875,1999.5372314453125,3383.954345703125,3360.9072265625,6420.6123046875,3444.353759765625,12524.9228515625,-3658.1357421875,4920.16455078125,0.0,18381.27734375,1479.78466796875,20895.00390625,14049.212890625,6072.52099609375,9179.91015625,18778.642578125,25316.873046875,11949.5390625,14661.9482421875,16100.40625,3816.286865234375,24208.2265625,-6371.33935546875,-0.0,-11.126200675964355,9223.6201171875,3741.582275390625,20259.22265625,13213.1572265625,8393.1279296875,20560.423828125,7344.88134765625,8552.869140625,3473.7587890625,-985.4635009765625,19284.8828125,4732.60888671875,14169.2158203125,5683.89892578125,2691.745849609375,8850.8916015625,10012.7861328125,-404.516845703125,3887.812255859375,-1366.138427734375,10693.0732421875,-190.73486328125,2383.39111328125,-1030.7630615234375,2880.096435546875,2324.5810546875,19431.11328125,2556.641845703125,9380.181640625,-103.3147201538086,7332.96044921875,22234.12109375,18473.466796875,13760.7255859375,-0.0,-49842.99609375,15877.8818359375,5340.576171875,0.0,5821.38671875,0.0,0.0
11050.701171875,9344.4189453125,25769.869140625,7646.083984375,24738.3125,1993.9739990234375,3378.391357421875,3354.54931640625,6416.638671875,3439.58544921875,12557.5068359375,-3668.46728515625,4920.95947265625,0.0,18382.072265625,1468.658447265625,20890.236328125,14041.2646484375,6065.36865234375,9175.9365234375,18773.875,25309.720703125,11943.1806640625,14654.7958984375,16086.896484375,3810.7236328125,24207.43359375,-6383.26025390625,-0.0,-19.073486328125,9217.2626953125,3736.813720703125,20253.658203125,13208.3896484375,8386.771484375,20552.4765625,7337.72900390625,8547.3056640625,3468.990234375,-994.2054443359375,19278.525390625,4726.2509765625,14162.8583984375,5676.74658203125,2686.977294921875,8842.9453125,10008.017578125,-406.1063232421875,3881.45458984375,-1376.469970703125,10689.89453125,-200.2716064453125,2396.106689453125,-1039.5050048828125,2884.070068359375,2309.4814453125,19431.11328125,2544.720947265625,9378.5927734375,-111.26200103759766,7322.62939453125,22226.96875,18467.107421875,13757.546875,-0.0,-49850.94140625,15877.8818359375,5331.03955078125,0.0,5818.2080078125,0.0,0.0
11075.337890625,9346.802734375,25759.5390625,7645.2890625,24730.36328125,1993.9739990234375,3376.8017578125,3351.37060546875,6413.4599609375,3432.432861328125,12563.8642578125,-3674.824951171875,4910.6279296875,0.0,18379.6875,1457.5322265625,20885.466796875,14034.9072265625,6064.57373046875,9172.7568359375,18769.10546875,25306.54296875,11938.4130859375,14651.6162109375,16063.8486328125,3809.928955078125,24208.2265625,-6387.23388671875,-0.0,-16.689300537109375,9213.2880859375,3734.4296875,20250.478515625,13205.2109375,8379.6181640625,20548.501953125,7332.96044921875,8544.1279296875,3476.142822265625,-996.5896606445312,19268.193359375,4727.04541015625,14158.884765625,5673.5673828125,2684.59326171875,8838.970703125,9999.275390625,-422.7956237792969,3869.533447265625,-1380.443603515625,10689.099609375,-205.83470153808594,2393.72265625,-1037.120849609375,2870.5595703125,2309.4814453125,19419.98828125,2532.800048828125,9374.6181640625,-120.79874420166016,7330.57666015625,22223.791015625,18463.134765625,13755.162109375,-0.0,-49858.88671875,15883.4453125,5313.55517578125,0.0,5803.9033203125,0.0,0.0
11064.2119140625,9349.982421875,25777.81640625,7650.05712890625,24742.28515625,2003.5107421875,3387.927978515625,3360.112548828125,6422.99658203125,3443.558837890625,12569.427734375,-3671.64599609375,4910.6279296875,0.0,18378.892578125,1468.658447265625,20891.82421875,14043.6484375,6074.1103515625,9183.0888671875,18777.84765625,25315.28515625,11947.94921875,14661.9482421875,16075.76953125,3819.465576171875,24220.943359375,-6375.31298828125,-0.0,-13.51038646697998,9222.0302734375,3737.608642578125,20260.015625,13211.568359375,8389.1552734375,20556.44921875,7344.88134765625,8553.6640625,3449.916748046875,-995.794921875,19279.322265625,4733.40380859375,14168.421875,5683.10400390625,2691.745849609375,8849.3037109375,10011.990234375,-437.89544677734375,3879.0703125,-1371.7015380859375,10698.6357421875,-195.50323486328125,2388.9541015625,-1039.5050048828125,2888.838623046875,2334.117919921875,19408.068359375,2542.336669921875,9377.0029296875,-109.67254638671875,7338.52392578125,22234.12109375,18473.466796875,13765.494140625,-0.0,-49856.50390625,15889.009765625,5329.4501953125,0.0,5813.43994140625,0.0,0.0
11036.396484375,9338.85546875,25758.744140625,7642.90478515625,24743.875,1993.1793212890625,3389.517578125,3353.754638671875,6420.6123046875,3436.406494140625,12543.99609375,-3679.59326171875,4921.75439453125,0.0,18380.484375,1457.5322265625,20883.87890625,14037.2919921875,6068.5478515625,9176.7314453125,18773.078125,25306.54296875,11944.7705078125,14654.7958984375,16078.94921875,3804.365966796875,24225.7109375,-6386.43896484375,-0.0,-29.404958724975586,9216.4677734375,3726.482421875,20249.685546875,13202.826171875,8386.771484375,20547.708984375,7342.49755859375,8547.3056640625,3462.63232421875,-1002.9474487304688,19277.73046875,4723.072265625,14170.0107421875,5675.1572265625,2689.361572265625,8843.7392578125,9961.9228515625,-442.663818359375,3881.45458984375,-1380.443603515625,10704.994140625,-205.03997802734375,2384.185791015625,-1053.81005859375,2878.5068359375,2328.554931640625,19419.193359375,2531.210693359375,9376.2080078125,-113.64618682861328,7325.80810546875,22230.1484375,18471.08203125,13760.7255859375,-0.0,-49866.8359375,15886.625,5320.7080078125,0.0,5807.87646484375,0.0,0.0
11023.6806640625,9326.9345703125,25746.02734375,7639.72607421875,24738.3125,1983.642578125,3376.8017578125,3341.833740234375,6403.9228515625,3418.92236328125,12538.4326171875,-3693.8984375,4915.39599609375,0.0,18370.947265625,1441.6376953125,20875.931640625,14030.93359375,6058.21630859375,9160.0419921875,18766.72265625,25297.80078125,11936.82421875,14645.2587890625,16071.0009765625,3792.44482421875,24216.970703125,-6399.94970703125,-0.0,-34.96805953979492,9209.3154296875,3716.15087890625,20244.916015625,13194.87890625,8378.8232421875,20538.171875,7330.57666015625,8536.974609375,3495.21630859375,-1016.4578857421875,19270.578125,4713.53515625,14163.6533203125,5664.8251953125,2675.85107421875,8830.2294921875,9943.64453125,-435.5112609863281,3868.73876953125,-1389.9803466796875,10688.3046875,-220.1398162841797,2379.41748046875,-1058.5784912109375,2852.28076171875,2311.07080078125,19419.98828125,2516.905517578125,9365.08203125,-131.13021850585938,7319.4501953125,22218.2265625,18459.162109375,13738.47265625,-0.0,-49881.93359375,15878.677734375,5293.6875,0.0,5778.4716796875,0.0,0.0
11037.1904296875,9322.166015625,25753.1796875,7639.72607421875,24733.54296875,1987.6163330078125,3369.649169921875,3343.423095703125,6403.1279296875,3422.896240234375,12546.3798828125,-3688.33544921875,4917.7802734375,0.0,18367.767578125,1447.2008056640625,20877.51953125,14034.1123046875,6056.626953125,9163.220703125,18765.130859375,25300.18359375,11936.0283203125,14646.84765625,16072.591796875,3797.21337890625,24209.818359375,-6392.001953125,-0.0,-27.02077293395996,9210.109375,3723.303466796875,20247.30078125,13198.05859375,8378.8232421875,20538.171875,7327.39794921875,8540.1533203125,3495.21630859375,-1023.6104736328125,19270.578125,4716.71435546875,14156.5009765625,5669.59375,2674.26171875,8831.0244140625,10000.0693359375,-417.2325134277344,3865.559814453125,-1382.032958984375,10674.0,-216.1661834716797,2366.701904296875,-1054.6048583984375,2865.791259765625,2311.07080078125,19423.166015625,2525.6474609375,9361.9033203125,-127.15657043457031,7323.423828125,22218.2265625,18458.3671875,13737.6787109375,-0.0,-49875.57421875,15877.8818359375,5300.83984375,0.0,5785.6240234375,0.0,0.0
11045.9326171875,9320.5771484375,25753.1796875,7630.98388671875,24722.41796875,1983.642578125,3369.649169921875,3343.423095703125,6404.7177734375,3424.4853515625,12526.51171875,-3685.156494140625,4908.24365234375,0.0,18366.97265625,1451.1744384765625,20875.931640625,14031.7275390625,6055.83203125,9164.015625,18760.36328125,25297.005859375,11930.4658203125,14646.0537109375,16056.6962890625,3796.41845703125,24198.689453125,-6394.38623046875,-0.0,-30.994415283203125,9206.9306640625,3724.892822265625,20242.533203125,13194.083984375,8373.2607421875,20536.580078125,7326.60302734375,8538.5634765625,3461.837890625,-1009.3053588867188,19263.42578125,4711.94580078125,14150.142578125,5669.59375,2676.64599609375,8832.6142578125,10022.322265625,-416.4377746582031,3856.023193359375,-1383.62255859375,10678.7685546875,-216.1661834716797,2372.264892578125,-1063.346923828125,2850.691650390625,2306.30224609375,19419.193359375,2528.826416015625,9364.287109375,-124.77238464355469,7290.84033203125,22215.84375,18458.3671875,13744.037109375,-0.0,-49871.60546875,15879.47265625,5300.83984375,0.0,5792.7763671875,0.0,0.0
11042.75390625,9329.3193359375,25759.5390625,7634.9580078125,24723.2109375,1987.6163330078125,3369.649169921875,3345.807373046875,6403.9228515625,3424.4853515625,12532.0751953125,-3682.7724609375,4909.83349609375,0.0,18369.35546875,1458.326904296875,20880.69921875,14033.3173828125,6057.42138671875,9161.6318359375,18765.130859375,25298.595703125,11930.4658203125,14648.4375,16063.0546875,3801.186767578125,24188.359375,-6392.796875,-0.0,-23.047128677368164,9209.3154296875,3727.277099609375,20248.890625,13198.8525390625,8374.0546875,20540.556640625,7327.39794921875,8540.1533203125,3466.606201171875,-1002.1527709960938,19265.015625,4714.330078125,14150.9375,5671.97802734375,2676.64599609375,8835.79296875,10023.1171875,-413.2588806152344,3864.76513671875,-1381.23828125,10679.5625,-216.96090698242188,2399.28564453125,-1061.7574462890625,2849.896728515625,2306.30224609375,19424.7578125,2535.97900390625,9362.697265625,-126.36184692382812,7289.2509765625,22219.0234375,18459.162109375,13738.47265625,-0.0,-49867.62890625,15877.0888671875,5297.66064453125,0.0,5795.95556640625,0.0,0.0
11030.0380859375,9337.265625,25764.306640625,7645.2890625,24724.005859375,1993.1793212890625,3365.67578125,3348.986328125,6399.15478515625,3423.69091796875,12552.73828125,-3676.41455078125,4923.34375,0.0,18370.947265625,1464.684814453125,20884.671875,14034.1123046875,6059.80517578125,9158.4521484375,18768.310546875,25304.158203125,11929.6708984375,14652.4111328125,16086.1015625,3787.676513671875,24186.76953125,-6387.23388671875,-0.0,-11.920928955078125,9214.083984375,3728.072021484375,20252.0703125,13204.4150390625,8375.64453125,20544.529296875,7328.1923828125,8541.7431640625,3484.885009765625,-997.3843994140625,19269.78515625,4721.48291015625,14143.7841796875,5676.74658203125,2673.467041015625,8837.3818359375,10027.0908203125,-401.33795166015625,3884.63330078125,-1371.7015380859375,10671.615234375,-214.57672119140625,2406.438232421875,-1049.041748046875,2864.201904296875,2311.07080078125,19435.087890625,2529.62109375,9359.5185546875,-122.38819885253906,7332.96044921875,22220.611328125,18458.3671875,13728.1416015625,-0.0,-49862.06640625,15873.11328125,5307.99267578125,0.0,5791.98193359375,0.0,0.0
11013.3486328125,9327.7294921875,25761.921875,7630.98388671875,24724.802734375,1982.847900390625,3360.112548828125,3339.44970703125,6388.8232421875,3413.359375,12528.1015625,-3685.156494140625,4913.01220703125,0.0,18359.025390625,1444.0218505859375,20873.546875,14024.5751953125,6050.2685546875,9149.7109375,18763.54296875,25297.005859375,11923.3134765625,14642.0791015625,16094.8427734375,3778.139892578125,24183.591796875,-6400.744140625,-0.0,-23.047128677368164,9207.7255859375,3716.15087890625,20244.12109375,13194.87890625,8370.08203125,20532.607421875,7319.4501953125,8531.4111328125,3480.11669921875,-1004.5369873046875,19268.990234375,4707.97216796875,14139.8115234375,5665.6201171875,2663.93017578125,8826.255859375,10011.990234375,-412.4641418457031,3877.480712890625,-1382.032958984375,10664.462890625,-229.6765594482422,2380.212158203125,-1056.1943359375,2857.04931640625,2306.30224609375,19421.578125,2514.521240234375,9349.982421875,-130.3354949951172,7340.908203125,22213.458984375,18448.830078125,13717.015625,-0.0,-49869.22265625,15865.16796875,5307.99267578125,0.0,5785.6240234375,0.0,0.0
11035.6015625,9330.11328125,25763.51171875,7632.57373046875,24734.337890625,1988.410888671875,3367.264892578125,3342.62841796875,6392.001953125,3419.717041015625,12520.94921875,-3678.798583984375,4920.16455078125,0.0,18363.794921875,1448.7901611328125,20881.494140625,14030.93359375,6059.0107421875,9154.4794921875,18770.6953125,25302.568359375,11932.849609375,14648.4375,16104.3798828125,3801.186767578125,24195.513671875,-6394.38623046875,-0.0,-30.19968605041504,9212.494140625,3720.91943359375,20250.478515625,13200.4423828125,8378.029296875,20540.556640625,7325.013671875,8537.76953125,3487.26904296875,-1000.5632934570312,19279.322265625,4711.1513671875,14151.732421875,5672.77294921875,2670.2880859375,8831.818359375,10012.7861328125,-412.4641418457031,3886.222900390625,-1378.8541259765625,10671.615234375,-223.31874084472656,2374.64892578125,-1050.6312255859375,2869.76513671875,2315.839111328125,19425.55078125,2526.4423828125,9355.544921875,-123.9776611328125,7344.88134765625,22219.0234375,18456.77734375,13726.5517578125,-0.0,-49862.86328125,15865.16796875,5315.14501953125,0.0,5800.72412109375,0.0,0.0
11072.953125,9346.0078125,25769.869140625,7650.85205078125,24736.72265625,2009.86865234375,3379.980712890625,3357.728271484375,6407.896484375,3435.61181640625,12555.9169921875,-3666.877685546875,4923.34375,0.0,18373.33203125,1467.8636474609375,20897.388671875,14043.6484375,6074.1103515625,9169.578125,18782.615234375,25320.052734375,11943.1806640625,14665.126953125,16082.12890625,3835.3603515625,24201.07421875,-6379.2861328125,-0.0,-21.457672119140625,9229.18359375,3735.224365234375,20262.400390625,13218.720703125,8387.5654296875,20559.62890625,7338.52392578125,8552.07421875,3496.805908203125,-984.668701171875,19280.115234375,4738.171875,14161.26953125,5689.46240234375,2686.977294921875,8846.1240234375,10012.7861328125,-391.0064697265625,3879.864990234375,-1362.95947265625,10684.3310546875,-208.21888732910156,2410.411865234375,-1033.94189453125,2880.096435546875,2336.501953125,19432.703125,2546.310546875,9369.0556640625,-108.87781524658203,7356.0078125,22234.12109375,18470.287109375,13747.21484375,-0.0,-49850.1484375,15876.29296875,5331.03955078125,0.0,5818.2080078125,0.0,0.0
11103.1533203125,9367.4658203125,25784.173828125,7677.873046875,24753.412109375,2036.8892822265625,3402.233154296875,3383.15966796875,6434.91748046875,3460.248291015625,12578.9638671875,-3639.062255859375,4932.88037109375,0.0,18390.01953125,1495.67919921875,20918.845703125,14068.2861328125,6096.36328125,9197.39453125,18801.689453125,25345.484375,11965.43359375,14692.1474609375,16084.5126953125,3868.73876953125,24219.35546875,-6355.4443359375,-0.0,11.920928955078125,9253.8193359375,3759.861083984375,20282.267578125,13243.357421875,8408.228515625,20585.85546875,7361.57080078125,8576.7109375,3517.46875,-963.2110595703125,19294.419921875,4765.9873046875,14179.546875,5714.0986328125,2710.8193359375,8869.1708984375,10006.427734375,-372.72772216796875,3891.785888671875,-1338.322998046875,10706.583984375,-181.9928436279297,2428.690673828125,-1011.6895141601562,2894.401611328125,2365.1123046875,19443.03515625,2569.357666015625,9390.513671875,-86.62541961669922,7371.107421875,22257.962890625,18494.923828125,13777.4150390625,-0.0,-49819.9453125,15889.009765625,5360.4443359375,0.0,5841.25537109375,0.0,0.0
11101.5634765625,9371.439453125,25782.5859375,7685.8203125,24753.412109375,2033.71044921875,3406.206787109375,3384.749267578125,6444.4541015625,3467.40087890625,12570.2216796875,-3634.293701171875,4930.49609375,0.0,18395.58203125,1498.0634765625,20919.640625,14069.080078125,6097.15771484375,9205.341796875,18800.89453125,25344.689453125,11965.43359375,14692.1474609375,16084.5126953125,3844.89697265625,24219.35546875,-6354.64990234375,-0.0,15.894571304321289,9253.025390625,3761.450439453125,20279.884765625,13243.357421875,8409.0234375,20585.060546875,7363.955078125,8580.6845703125,3527.80029296875,-963.2110595703125,19292.03515625,4761.21923828125,14181.931640625,5714.8935546875,2714.79296875,8873.1455078125,10017.5546875,-379.8802795410156,3894.170166015625,-1345.4755859375,10709.7626953125,-176.42974853515625,2423.12744140625,-1010.1000366210938,2888.043701171875,2362.72802734375,19443.830078125,2570.947021484375,9398.4599609375,-80.26758575439453,7361.57080078125,22257.962890625,18498.8984375,13790.9248046875,-0.0,-49817.5625,15892.982421875,5366.80224609375,0.0,5848.40771484375,0.0,0.0
11077.7216796875,9359.5185546875,25771.458984375,7671.51513671875,24743.080078125,2017.8157958984375,3391.901611328125,3368.8544921875,6430.94384765625,3452.301025390625,12558.30078125,-3653.3671875,4918.5751953125,0.0,18387.63671875,1476.605712890625,20904.541015625,14057.1591796875,6085.23681640625,9193.419921875,18787.384765625,25329.58984375,11953.5126953125,14674.6630859375,16077.3603515625,3817.876220703125,24208.2265625,-6373.7236328125,-0.0,-4.76837158203125,9237.1298828125,3743.96630859375,20263.990234375,13227.462890625,8394.7177734375,20570.755859375,7351.23974609375,8563.9951171875,3494.421630859375,-982.2845458984375,19279.322265625,4745.32470703125,14167.6259765625,5697.4091796875,2701.282470703125,8857.25,10023.9111328125,-396.569580078125,3884.63330078125,-1367.7279052734375,10697.841796875,-197.0926971435547,2413.590576171875,-1024.4051513671875,2875.328125,2338.88623046875,19432.703125,2550.2841796875,9387.333984375,-97.75161743164062,7337.72900390625,22243.658203125,18484.591796875,13775.8251953125,-0.0,-49842.19921875,15888.2138671875,5344.5498046875,0.0,5830.12890625,0.0,0.0
11070.5693359375,9356.33984375,25781.7890625,7651.64697265625,24747.052734375,2019.4053955078125,3391.10693359375,3367.264892578125,6423.79150390625,3444.353759765625,12555.9169921875,-3656.54638671875,4920.95947265625,0.0,18382.8671875,1474.2215576171875,20901.361328125,14057.1591796875,6082.85302734375,9183.0888671875,18789.767578125,25328.794921875,11954.3076171875,14673.869140625,16082.921875,3818.6708984375,24209.818359375,-6373.7236328125,-0.0,-7.9472856521606445,9237.92578125,3739.992919921875,20266.375,13225.873046875,8397.896484375,20573.138671875,7351.23974609375,8561.611328125,3463.42724609375,-980.6951293945312,19284.8828125,4747.708984375,14168.421875,5695.81982421875,2698.103759765625,8854.0712890625,10032.654296875,-408.4905090332031,3887.812255859375,-1367.7279052734375,10696.251953125,-200.2716064453125,2395.31201171875,-1026.789306640625,2872.149169921875,2322.99169921875,19432.703125,2551.87353515625,9380.181640625,-104.9041748046875,7337.72900390625,22245.248046875,18481.412109375,13760.7255859375,-0.0,-49839.8125,15879.47265625,5334.21826171875,0.0,5813.43994140625,0.0,0.0
11069.7744140625,9355.544921875,25784.96875,7655.62060546875,24748.64453125,2018.6107177734375,3390.312255859375,3365.67578125,6416.638671875,3437.995849609375,12549.5595703125,-3660.519775390625,4926.52294921875,0.0,18382.072265625,1475.0162353515625,20905.3359375,14057.9541015625,6082.85302734375,9175.1416015625,18790.564453125,25331.177734375,11954.3076171875,14674.6630859375,16086.896484375,3825.028564453125,24213.791015625,-6370.54443359375,-0.0,-0.7947285771369934,9238.7197265625,3745.555908203125,20273.52734375,13227.462890625,8399.486328125,20573.138671875,7350.44482421875,8563.201171875,3493.626953125,-971.1583251953125,19288.0625,4745.32470703125,14172.39453125,5695.81982421875,2696.51416015625,8851.6875,10030.26953125,-418.0272521972656,3887.017578125,-1362.95947265625,10695.45703125,-200.2716064453125,2373.0595703125,-1025.99462890625,2875.328125,2322.197021484375,19431.91015625,2552.668212890625,9377.796875,-108.87781524658203,7349.64990234375,22246.04296875,18479.029296875,13750.3935546875,-0.0,-49837.4296875,15874.7041015625,5327.06591796875,0.0,5799.92919921875,0.0,0.0
11026.064453125,9322.9609375,25771.458984375,7646.083984375,24739.107421875,2001.1265869140625,3380.775390625,3354.54931640625,6405.51220703125,3426.86962890625,12536.048828125,-3674.0302734375,4926.52294921875,0.0,18375.71484375,1463.0953369140625,20895.00390625,14045.23828125,6070.13720703125,9162.42578125,18777.84765625,25318.46484375,11943.1806640625,14662.7421875,16081.3330078125,3817.08154296875,24208.2265625,-6380.0810546875,-0.0,-15.09984302520752,9228.388671875,3729.6611328125,20263.1953125,13215.5419921875,8385.9755859375,20560.423828125,7338.52392578125,8551.2802734375,3540.515869140625,-988.642333984375,19277.73046875,4731.01953125,14163.6533203125,5684.69384765625,2684.59326171875,8841.35546875,10004.837890625,-411.6694030761719,3880.659912109375,-1370.9068603515625,10687.5107421875,-211.39781188964844,2377.033203125,-1045.068115234375,2872.149169921875,2315.04443359375,19423.166015625,2540.747314453125,9371.439453125,-113.64618682861328,7331.37109375,22234.12109375,18467.107421875,13736.0888671875,-0.0,-49851.734375,15862.783203125,5319.11865234375,0.0,5797.544921875,0.0,0.0
11025.26953125,9315.013671875,25780.99609375,7656.41552734375,24747.052734375,2005.1002197265625,3387.13330078125,3360.112548828125,6414.2548828125,3432.432861328125,12539.2275390625,-3665.288330078125,4924.138671875,0.0,18383.662109375,1465.4794921875,20901.361328125,14051.5966796875,6076.49462890625,9171.16796875,18785.0,25325.6171875,11949.5390625,14669.1005859375,16083.7177734375,3824.23388671875,24217.763671875,-6377.69677734375,-0.0,-8.74201488494873,9233.1572265625,3738.4033203125,20268.7578125,13222.6943359375,8391.5400390625,20566.78125,7344.88134765625,8556.048828125,3524.621337890625,-991.0265502929688,19284.08984375,4737.376953125,14171.6005859375,5689.46240234375,2690.15625,8847.7138671875,10018.3486328125,-392.5959167480469,3886.222900390625,-1365.34375,10695.45703125,-205.03997802734375,2404.053955078125,-1042.6839599609375,2866.5859375,2322.197021484375,19431.11328125,2542.336669921875,9379.38671875,-106.4936294555664,7332.166015625,22240.48046875,18473.466796875,13743.2412109375,-0.0,-49846.96484375,15873.9091796875,5321.5029296875,0.0,5800.72412109375,0.0,0.0
11053.8798828125,9337.265625,25788.1484375,7665.9521484375,24756.58984375,2015.431640625,3395.08056640625,3370.444091796875,6426.97021484375,3449.916748046875,12543.201171875,-3649.393798828125,4913.80712890625,0.0,18388.4296875,1475.81103515625,20912.48828125,14061.927734375,6086.03125,9187.857421875,18794.537109375,25335.947265625,11958.28125,14679.431640625,16096.43359375,3832.18115234375,24225.7109375,-6369.74951171875,-0.0,-3.9736428260803223,9243.48828125,3755.092529296875,20275.115234375,13233.025390625,8402.6650390625,20576.318359375,7355.21337890625,8567.9697265625,3506.342529296875,-977.5161743164062,19294.419921875,4746.119140625,14179.546875,5698.2041015625,2700.48779296875,8859.634765625,10039.806640625,-383.0591735839844,3894.170166015625,-1357.396484375,10701.8154296875,-194.70851135253906,2404.053955078125,-1032.3524169921875,2871.354248046875,2338.88623046875,19437.470703125,2552.668212890625,9383.361328125,-97.75161743164062,7342.49755859375,22250.017578125,18484.591796875,13766.2890625,-0.0,-49835.84375,15884.2412109375,5347.728515625,0.0,5830.92333984375,0.0,0.0
11052.291015625,9349.982421875,25792.91796875,7676.283203125,24759.76953125,2022.584228515625,3399.05419921875,3378.391357421875,6427.7646484375,3458.658935546875,12520.94921875,-3650.1884765625,4918.5751953125,0.0,18393.197265625,1487.73193359375,20917.2578125,14066.6962890625,6090.00537109375,9191.8310546875,18800.099609375,25342.306640625,11963.8447265625,14684.9951171875,16103.5859375,3840.128662109375,24231.275390625,-6364.1865234375,-0.0,0.0,9248.2568359375,3759.06640625,20279.08984375,13240.9736328125,8407.43359375,20584.265625,7360.7763671875,8573.5322265625,3492.832275390625,-977.5161743164062,19300.779296875,4753.271484375,14182.7265625,5702.97265625,2703.666748046875,8865.9921875,10042.9853515625,-375.1119079589844,3896.55419921875,-1347.8597412109375,10706.583984375,-186.76121520996094,2396.106689453125,-1030.7630615234375,2870.5595703125,2350.012451171875,19440.650390625,2559.82080078125,9385.7451171875,-85.8306884765625,7330.57666015625,22256.375,18487.771484375,13770.2626953125,-0.0,-49835.84375,15891.3935546875,5361.23876953125,0.0,5850.7919921875,0.0,0.0
11026.064453125,9330.9091796875,25775.431640625,7661.18359375,24743.875,2001.92138671875,3381.570068359375,3356.93359375,6400.744140625,3427.66455078125,12452.6025390625,-3671.64599609375,4906.654296875,0.0,18378.099609375,1463.89013671875,20898.9765625,14048.4169921875,6070.13720703125,9162.42578125,18784.205078125,25324.025390625,11943.1806640625,14661.9482421875,16093.25390625,3818.6708984375,24217.763671875,-6385.64453125,-0.0,-19.868215560913086,9230.7734375,3740.78759765625,20265.580078125,13224.2841796875,8391.5400390625,20563.6015625,7340.908203125,8552.07421875,3476.142822265625,-994.2054443359375,19285.6796875,4734.9931640625,14166.037109375,5682.3095703125,2683.798583984375,8841.35546875,10000.0693359375,-387.0328369140625,3881.45458984375,-1373.291015625,10689.89453125,-208.21888732910156,2377.033203125,-1050.6312255859375,2857.843994140625,2326.96533203125,19429.525390625,2539.95263671875,9365.8759765625,-113.64618682861328,7317.06640625,22238.890625,18465.51953125,13722.5791015625,-0.0,-49856.50390625,15881.8564453125,5329.4501953125,0.0,5812.64501953125,0.0,0.0
11037.9853515625,9327.7294921875,25769.076171875,7651.64697265625,24739.107421875,1987.6163330078125,3374.41748046875,3344.218017578125,6393.59130859375,3414.154052734375,12505.8486328125,-3674.824951171875,4913.80712890625,0.0,18367.767578125,1447.2008056640625,20894.208984375,14040.4697265625,6063.779296875,9152.0947265625,18779.435546875,25315.28515625,11936.82421875,14654.0,16105.1748046875,3803.571044921875,24199.486328125,-6396.7705078125,-0.0,-29.404958724975586,9224.4150390625,3734.4296875,20261.60546875,13217.1318359375,8385.181640625,20553.26953125,7332.96044921875,8543.33203125,3490.447998046875,-1002.9474487304688,19283.294921875,4723.072265625,14158.884765625,5671.18310546875,2675.85107421875,8831.0244140625,9967.486328125,-396.569580078125,3877.480712890625,-1395.54345703125,10678.7685546875,-219.3450927734375,2381.0068359375,-1060.16796875,2864.201904296875,2315.839111328125,19419.98828125,2530.415771484375,9359.5185546875,-128.74603271484375,7323.423828125,22228.55859375,18456.77734375,13719.3994140625,-0.0,-49859.68359375,15870.7294921875,5300.044921875,0.0,5776.08740234375,0.0,0.0
11056.263671875,9328.5244140625,25769.869140625,7658.0048828125,24737.515625,1989.20556640625,3373.622802734375,3346.602294921875,6399.94970703125,3414.94873046875,12535.2548828125,-3675.619873046875,4916.98583984375,0.0,18371.740234375,1444.816650390625,20893.416015625,14042.8544921875,6064.57373046875,9157.6572265625,18777.052734375,25312.900390625,11936.82421875,14654.0,16102.791015625,3802.7763671875,24193.12890625,-6395.18115234375,-0.0,-23.84185791015625,9226.0048828125,3729.6611328125,20260.015625,13217.92578125,8382.796875,20550.88671875,7332.96044921875,8543.33203125,3502.368896484375,-1018.8421020507812,19281.705078125,4724.6611328125,14158.08984375,5672.77294921875,2679.82470703125,8833.408203125,9977.8173828125,-398.1590270996094,3877.480712890625,-1398.7222900390625,10680.3583984375,-218.5503692626953,2379.41748046875,-1061.7574462890625,2864.99658203125,2315.839111328125,19420.78125,2533.5947265625,9364.287109375,-128.74603271484375,7325.013671875,22226.96875,18459.955078125,13732.1162109375,-0.0,-49859.68359375,15854.8359375,5289.71337890625,0.0,5760.98779296875,0.0,0.0
11068.1845703125,9346.0078125,25774.63671875,7677.078125,24747.052734375,2010.663330078125,3391.10693359375,3368.8544921875,6420.6123046875,3440.380126953125,12557.5068359375,-3655.75146484375,4916.19091796875,0.0,18386.044921875,1476.605712890625,20904.541015625,14057.9541015625,6082.05810546875,9180.705078125,18788.97265625,25329.58984375,11951.12890625,14672.279296875,16083.7177734375,3817.08154296875,24208.2265625,-6372.9287109375,-0.0,2.384185791015625,9237.92578125,3740.78759765625,20267.962890625,13231.4365234375,8394.7177734375,20569.166015625,7348.85546875,8561.611328125,3506.342529296875,-1035.5313720703125,19287.267578125,4745.32470703125,14171.6005859375,5694.23046875,2698.8984375,8854.8662109375,10001.6591796875,-395.77484130859375,3885.42822265625,-1374.0858154296875,10697.046875,-193.9137725830078,2373.0595703125,-1049.8365478515625,2862.612548828125,2333.3232421875,19430.318359375,2559.82080078125,9381.771484375,-100.13580322265625,7352.0341796875,22245.248046875,18481.412109375,13759.9306640625,-0.0,-49839.8125,15862.783203125,5328.6552734375,0.0,5804.69775390625,0.0,0.0
11079.3115234375,9369.0556640625,25787.353515625,7692.97265625,24766.126953125,2034.505126953125,3409.3857421875,3390.312255859375,6443.6591796875,3466.606201171875,12585.322265625,-3638.267578125,4939.23828125,0.0,18400.349609375,1506.0106201171875,20924.41015625,14075.4384765625,6101.92626953125,9203.751953125,18807.251953125,25350.251953125,11969.4072265625,14693.7373046875,16089.28125,3844.10205078125,24229.685546875,-6349.8818359375,-0.0,0.0,9256.2041015625,3763.039794921875,20287.037109375,13249.71484375,8412.9970703125,20589.828125,7369.51806640625,8583.068359375,3511.90576171875,-979.900390625,19301.572265625,4775.52392578125,14189.8798828125,5717.27734375,2717.9716796875,8876.3232421875,10023.9111328125,-395.77484130859375,3907.680419921875,-1349.44921875,10716.12109375,-171.661376953125,2391.33837890625,-1029.96826171875,2883.275390625,2351.601806640625,19444.623046875,2580.483642578125,9398.4599609375,-77.08867645263672,7375.08154296875,22265.115234375,18502.076171875,13788.541015625,-0.0,-49815.1796875,15892.982421875,5363.623046875,0.0,5849.20263671875,0.0,0.0
11065.005859375,9377.0029296875,25796.890625,7692.97265625,24772.486328125,2035.300048828125,3413.359375,3395.08056640625,6447.63330078125,3474.553466796875,12581.3486328125,-3635.088623046875,4942.4169921875,0.0,18401.146484375,1512.3685302734375,20925.998046875,14077.02734375,6105.89990234375,9212.494140625,18809.63671875,25351.046875,11973.380859375,14695.3271484375,16101.9951171875,3848.075927734375,24235.248046875,-6345.11328125,-0.0,8.74201488494873,9257.79296875,3765.424072265625,20291.009765625,13251.3046875,8416.17578125,20589.033203125,7372.697265625,8586.2470703125,3495.21630859375,-960.0321655273438,19308.724609375,4769.9609375,14193.8525390625,5718.86669921875,2721.945556640625,8881.091796875,10042.1904296875,-388.6222839355469,3918.01220703125,-1345.4755859375,10719.298828125,-166.09828186035156,2414.385498046875,-1010.1000366210938,2892.81201171875,2350.80712890625,19446.21484375,2586.046875,9401.638671875,-69.14138793945312,7363.955078125,22265.115234375,18505.25390625,13795.693359375,-0.0,-49808.8203125,15900.9306640625,5374.74951171875,0.0,5865.09716796875,0.0,0.0
11064.2119140625,9385.7451171875,25798.478515625,7685.8203125,24772.486328125,2034.505126953125,3415.74365234375,3395.08056640625,6447.63330078125,3472.964111328125,12581.3486328125,-3631.90966796875,4923.34375,0.0,18404.326171875,1506.805419921875,20925.998046875,14077.02734375,6108.2841796875,9212.494140625,18810.4296875,25347.8671875,11973.380859375,14693.7373046875,16101.9951171875,3854.433837890625,24233.66015625,-6345.90771484375,-0.0,25.43131446838379,9258.587890625,3765.424072265625,20290.216796875,13248.9208984375,8416.970703125,20587.443359375,7373.49169921875,8586.2470703125,3499.98486328125,-952.0848388671875,19310.31640625,4758.0400390625,14191.4677734375,5718.072265625,2723.534912109375,8880.2978515625,10043.7802734375,-367.16461181640625,3915.6279296875,-1341.5018310546875,10720.09375,-166.89300537109375,2432.6640625,-994.2054443359375,2886.454345703125,2356.3701171875,19444.623046875,2586.841552734375,9406.4072265625,-70.73084259033203,7369.51806640625,22265.115234375,18505.25390625,13793.3095703125,-0.0,-49807.23046875,15890.5986328125,5373.15966796875,0.0,5850.7919921875,0.0,0.0
11072.1591796875,9384.1552734375,25796.890625,7696.15185546875,24772.486328125,2038.4788818359375,3418.127685546875,3398.259521484375,6451.60693359375,3472.964111328125,12572.6064453125,-3625.552001953125,4917.7802734375,0.0,18408.298828125,1506.805419921875,20929.97265625,14081.0009765625,6111.462890625,9213.2880859375,18810.4296875,25352.63671875,11975.765625,14696.12109375,16100.40625,3863.175537109375,24236.04296875,-6342.72900390625,-0.0,28.6102294921875,9262.5615234375,3767.013671875,20291.8046875,13255.2783203125,8418.5595703125,20591.41796875,7377.4658203125,8588.6318359375,3522.237060546875,-950.4954223632812,19306.341796875,4768.37158203125,14194.6474609375,5722.8408203125,2727.508544921875,8880.2978515625,10031.064453125,-352.8594970703125,3906.091064453125,-1334.3492431640625,10723.2734375,-164.50881958007812,2438.227294921875,-1004.5369873046875,2878.5068359375,2363.522705078125,19445.419921875,2588.43115234375,9407.9970703125,-71.52557373046875,7373.49169921875,22267.5,18509.23046875,13798.873046875,-0.0,-49801.66796875,15894.5712890625,5371.57080078125,0.0,5844.43408203125,0.0,0.0
11096.0009765625,9400.0498046875,25816.759765625,7719.99365234375,24794.736328125,2062.32080078125,3437.201171875,3418.127685546875,6469.0908203125,3492.03759765625,12594.0634765625,-3612.04150390625,4935.2646484375,0.0,18419.423828125,1526.6737060546875,20950.63671875,14101.6640625,6130.53662109375,9229.18359375,18832.68359375,25373.30078125,11996.4287109375,14717.5791015625,16133.78515625,3888.60693359375,24255.91015625,-6321.271484375,-0.0,42.91534423828125,9284.01953125,3787.676513671875,20312.466796875,13276.736328125,8440.8125,20612.875,7394.15478515625,8608.5,3565.947265625,-941.75341796875,19328.59375,4792.21337890625,14216.8994140625,5745.0927734375,2742.6083984375,8900.166015625,10038.216796875,-326.6334533691406,3920.396240234375,-1312.096923828125,10739.962890625,-143.0511474609375,2430.280029296875,-994.2054443359375,2895.1962890625,2392.133056640625,19450.1875,2608.29931640625,9415.9443359375,-52.45208740234375,7384.6181640625,22288.95703125,18525.919921875,13812.3828125,-0.0,-49784.18359375,15904.9033203125,5389.0546875,0.0,5869.0703125,0.0,0.0
11081.6953125,9381.771484375,25800.86328125,7692.97265625,24770.1015625,2044.8367919921875,3420.511962890625,3397.46484375,6450.81201171875,3472.169189453125,12578.9638671875,-3628.730712890625,4917.7802734375,0.0,18405.9140625,1506.0106201171875,20932.35546875,14081.0009765625,6110.66796875,9207.7255859375,18812.814453125,25356.611328125,11978.1494140625,14699.2998046875,16115.5068359375,3864.76513671875,24247.96484375,-6341.93408203125,-0.0,19.868215560913086,9265.740234375,3770.1923828125,20294.189453125,13257.6630859375,8419.3544921875,20594.59765625,7374.28662109375,8590.2216796875,3530.979248046875,-975.9266967773438,19308.724609375,4774.7294921875,14197.826171875,5726.814453125,2725.124267578125,8880.2978515625,10046.958984375,-352.8594970703125,3916.42236328125,-1331.965087890625,10728.0419921875,-165.3035430908203,2403.25927734375,-1006.921142578125,2897.580322265625,2363.522705078125,19423.166015625,2588.43115234375,9403.228515625,-72.32030487060547,7359.1865234375,22271.474609375,18506.845703125,13786.9521484375,-0.0,-49800.87109375,15898.5458984375,5366.80224609375,0.0,5842.8447265625,0.0,0.0
11068.1845703125,9370.64453125,25788.94140625,7688.9990234375,24761.357421875,2037.6842041015625,3419.717041015625,3391.901611328125,6445.2490234375,3465.0166015625,12567.837890625,-3627.93603515625,4908.24365234375,0.0,18403.529296875,1500.4476318359375,20925.998046875,14075.4384765625,6105.89990234375,9202.1630859375,18804.07421875,25349.458984375,11974.17578125,14694.53125,16087.6904296875,3852.049560546875,24251.142578125,-6347.49755859375,-0.0,12.715657234191895,9256.9990234375,3765.424072265625,20283.064453125,13252.89453125,8410.61328125,20588.240234375,7371.107421875,8584.658203125,3516.674072265625,-975.9266967773438,19296.01171875,4766.7822265625,14190.673828125,5720.45654296875,2724.32958984375,8873.939453125,10049.3427734375,-364.7804260253906,3909.269775390625,-1339.11767578125,10731.220703125,-171.661376953125,2415.974853515625,-1006.921142578125,2883.275390625,2356.3701171875,19419.193359375,2580.483642578125,9404.0234375,-78.67813110351562,7356.0078125,22264.322265625,18502.076171875,13782.18359375,-0.0,-49806.43359375,15898.5458984375,5357.265625,0.0,5838.076171875,0.0,0.0
11064.2119140625,9349.982421875,25772.25390625,7675.48876953125,24751.02734375,2026.557861328125,3408.591064453125,3382.364990234375,6431.73828125,3457.0693359375,12545.5859375,-3642.2412109375,4908.24365234375,0.0,18390.814453125,1492.500244140625,20912.48828125,14062.72265625,6092.3896484375,9192.6259765625,18791.357421875,25337.537109375,11964.638671875,14681.021484375,16070.2080078125,3834.5654296875,24235.248046875,-6357.0341796875,-0.0,-3.9736428260803223,9245.8720703125,3753.503173828125,20271.142578125,13239.3837890625,8399.486328125,20577.908203125,7360.7763671875,8572.7373046875,3499.98486328125,-963.2110595703125,19282.5,4756.45068359375,14180.3427734375,5709.330078125,2713.203369140625,8863.6083984375,10019.9384765625,-380.67498779296875,3879.864990234375,-1348.6544189453125,10716.9150390625,-182.78758239746094,2412.7958984375,-1024.4051513671875,2858.638671875,2343.654541015625,19438.267578125,2569.357666015625,9388.923828125,-85.8306884765625,7348.060546875,22251.60546875,18491.744140625,13771.056640625,-0.0,-49817.5625,15883.4453125,5354.08642578125,0.0,5835.69189453125,0.0,0.0
11057.853515625,9346.802734375,25764.306640625,7665.1572265625,24747.84765625,2014.636962890625,3386.33837890625,3366.47021484375,6411.87060546875,3440.380126953125,12531.2802734375,-3662.904052734375,4919.3701171875,0.0,18373.33203125,1475.81103515625,20901.361328125,14052.390625,6078.87890625,9171.16796875,18782.615234375,25326.41015625,11952.7177734375,14666.716796875,16082.12890625,3824.23388671875,24221.73828125,-6372.9287109375,-0.0,-4.76837158203125,9236.3359375,3740.78759765625,20261.60546875,13228.2568359375,8391.5400390625,20565.986328125,7344.0869140625,8557.6376953125,3493.626953125,-968.774169921875,19281.705078125,4743.73486328125,14168.421875,5695.81982421875,2690.15625,8847.7138671875,9983.3798828125,-391.80120849609375,3877.480712890625,-1358.191162109375,10684.3310546875,-200.2716064453125,2390.543701171875,-1040.2998046875,2861.817626953125,2325.375732421875,19435.087890625,2548.694580078125,9364.287109375,-102.51998901367188,7335.3447265625,22237.30078125,18474.259765625,13744.037109375,-0.0,-49839.01953125,15860.3994140625,5338.98681640625,0.0,5826.1552734375,0.0,0.0
11073.7490234375,9363.4921875,25777.021484375,7671.51513671875,24756.58984375,2024.1737060546875,3395.875244140625,3375.21240234375,6424.5859375,3449.1220703125,12540.8173828125,-3654.162109375,4932.08544921875,0.0,18382.072265625,1482.963623046875,20910.8984375,14063.517578125,6088.41552734375,9183.0888671875,18794.537109375,25335.947265625,11963.0498046875,14677.0478515625,16105.1748046875,3832.97607421875,24226.5078125,-6362.59716796875,-0.0,11.126200675964355,9247.4619140625,3747.93994140625,20273.52734375,13236.205078125,8400.28125,20573.93359375,7353.6240234375,8565.5849609375,3509.521484375,-966.3899536132812,19293.626953125,4750.88720703125,14176.369140625,5707.74072265625,2700.48779296875,8856.4560546875,10004.837890625,-382.26446533203125,3896.55419921875,-1346.270263671875,10695.45703125,-191.5295867919922,2388.159423828125,-1037.120849609375,2878.5068359375,2335.70751953125,19444.623046875,2566.178466796875,9373.82421875,-96.16216278076172,7343.2919921875,22248.42578125,18483.796875,13755.162109375,-0.0,-49832.66015625,15881.8564453125,5338.19189453125,0.0,5826.1552734375,0.0,0.0
11063.416015625,9352.3662109375,25776.228515625,7656.41552734375,24745.46484375,2014.636962890625,3390.312255859375,3364.880859375,6417.43310546875,3434.022216796875,12540.8173828125,-3662.109375,4928.11181640625,0.0,18374.919921875,1467.0689697265625,20902.953125,14053.185546875,6081.26318359375,9173.552734375,18788.97265625,25325.6171875,11955.8974609375,14668.3056640625,16090.8701171875,3821.849853515625,24206.638671875,-6373.7236328125,-0.0,6.357828617095947,9239.5146484375,3739.197998046875,20267.16796875,13227.462890625,8393.1279296875,20563.6015625,7346.47119140625,8558.4326171875,3505.5478515625,-984.668701171875,19287.267578125,4738.96630859375,14168.421875,5696.61474609375,2695.719482421875,8844.53515625,10021.52734375,-394.1853942871094,3880.659912109375,-1358.98583984375,10695.45703125,-206.6294403076172,2385.775390625,-1052.220703125,2881.68603515625,2328.554931640625,19439.0625,2550.2841796875,9369.0556640625,-114.44091796875,7332.96044921875,22241.2734375,18475.8515625,13744.8310546875,-0.0,-49831.8671875,15881.0615234375,5312.7607421875,0.0,5781.650390625,0.0,0.0
11062.6220703125,9347.59765625,25779.40625,7654.82568359375,24745.46484375,2015.431640625,3387.13330078125,3365.67578125,6422.20166015625,3436.406494140625,12549.5595703125,-3661.314697265625,4938.44384765625,0.0,18378.099609375,1467.0689697265625,20906.12890625,14054.775390625,6081.26318359375,9177.525390625,18788.97265625,25325.6171875,11955.1015625,14668.3056640625,16083.7177734375,3824.23388671875,24195.513671875,-6376.90234375,-0.0,7.152557373046875,9238.7197265625,3742.376953125,20270.34765625,13229.052734375,8392.333984375,20563.6015625,7344.0869140625,8560.021484375,3522.237060546875,-987.84765625,19288.859375,4742.1455078125,14162.0634765625,5696.61474609375,2696.51416015625,8847.7138671875,10014.375,-386.23809814453125,3893.37548828125,-1365.34375,10686.71484375,-206.6294403076172,2398.490966796875,-1060.962646484375,2885.659423828125,2330.144287109375,19446.21484375,2547.10498046875,9372.234375,-111.26200103759766,7325.013671875,22242.068359375,18478.234375,13754.3681640625,-0.0,-49831.8671875,15876.29296875,5319.91357421875,0.0,5787.2138671875,0.0,0.0
11082.490234375,9357.9296875,25789.73828125,7665.1572265625,24755.001953125,2032.1209716796875,3397.46484375,3379.980712890625,6433.328125,3451.50634765625,12545.5859375,-3650.1884765625,4938.44384765625,0.0,18387.63671875,1482.1688232421875,20915.666015625,14068.2861328125,6092.3896484375,9190.2421875,18798.509765625,25337.537109375,11967.818359375,14683.40625,16097.2275390625,3842.512939453125,24210.611328125,-6359.41845703125,-0.0,0.0,9250.640625,3754.2978515625,20278.294921875,13238.5888671875,8404.2548828125,20577.111328125,7356.80224609375,8575.1220703125,3540.515869140625,-991.0265502929688,19293.626953125,4758.8349609375,14172.39453125,5713.30419921875,2708.43505859375,8862.8134765625,10011.1962890625,-367.9593505859375,3905.29638671875,-1350.243896484375,10695.45703125,-189.9401397705078,2406.438232421875,-1038.710205078125,2879.3017578125,2334.91259765625,19451.77734375,2565.3837890625,9381.771484375,-92.98324584960938,7341.703125,22254.78515625,18490.94921875,13767.0830078125,-0.0,-49818.35546875,15877.0888671875,5338.98681640625,0.0,5815.029296875,0.0,0.0
11071.3642578125,9352.3662109375,25788.1484375,7662.77294921875,24755.001953125,2033.71044921875,3396.670166015625,3380.775390625,6430.14892578125,3450.71142578125,12539.2275390625,-3662.109375,4929.701171875,0.0,18384.45703125,1485.3477783203125,20907.720703125,14067.490234375,6092.3896484375,9185.4736328125,18794.537109375,25334.357421875,11968.6123046875,14684.2001953125,16095.638671875,3844.10205078125,24214.5859375,-6354.64990234375,-0.0,-4.76837158203125,9244.283203125,3745.555908203125,20271.142578125,13231.4365234375,8402.6650390625,20576.318359375,7354.41845703125,8575.916015625,3511.90576171875,-1007.7158203125,19289.65234375,4754.861328125,14173.984375,5716.482421875,2706.845458984375,8862.8134765625,10015.96484375,-375.1119079589844,3901.322509765625,-1343.09130859375,10697.841796875,-189.14540100097656,2390.543701171875,-1027.5841064453125,2882.480712890625,2339.680908203125,19442.240234375,2567.76806640625,9378.5927734375,-93.7779769897461,7342.49755859375,22253.990234375,18489.361328125,13761.5205078125,-0.0,-49828.69140625,15877.8818359375,5341.37109375,0.0,5819.79736328125,0.0,0.0
11065.80078125,9356.33984375,25786.55859375,7664.3623046875,24757.384765625,2032.915771484375,3403.02783203125,3385.5439453125,6436.5068359375,3453.890625,12563.8642578125,-3652.57275390625,4936.0595703125,0.0,18388.4296875,1485.3477783203125,20907.720703125,14070.669921875,6097.9521484375,9189.4462890625,18797.716796875,25335.154296875,11973.380859375,14686.583984375,16097.2275390625,3833.770751953125,24220.1484375,-6352.265625,-0.0,0.0,9245.078125,3746.3505859375,20274.3203125,13231.4365234375,8405.0498046875,20578.703125,7359.1865234375,8579.890625,3499.190185546875,-988.642333984375,19292.83203125,4750.0927734375,14177.1630859375,5721.2509765625,2712.40869140625,8865.9921875,10041.396484375,-387.8275451660156,3899.7333984375,-1346.270263671875,10702.6103515625,-187.5559539794922,2392.927978515625,-1018.8421020507812,2895.1962890625,2346.038818359375,19442.240234375,2570.15234375,9382.5654296875,-92.18851470947266,7347.265625,22258.7578125,18493.333984375,13767.87890625,-0.0,-49823.921875,15892.982421875,5342.96044921875,0.0,5821.38671875,0.0,0.0
11062.6220703125,9353.955078125,25787.353515625,7653.236328125,24758.1796875,2026.557861328125,3403.02783203125,3381.570068359375,6434.91748046875,3452.301025390625,12580.5537109375,-3653.3671875,4939.23828125,0.0,18389.224609375,1481.3741455078125,20905.3359375,14068.2861328125,6096.36328125,9187.857421875,18796.125,25330.384765625,11973.380859375,14684.9951171875,16101.9951171875,3821.849853515625,24224.123046875,-6357.82861328125,-0.0,-0.7947285771369934,9243.48828125,3744.76123046875,20271.935546875,13225.078125,8405.8447265625,20573.93359375,7358.39208984375,8575.916015625,3510.316162109375,-980.6951293945312,19293.626953125,4742.9404296875,14179.546875,5714.8935546875,2711.614013671875,8862.0185546875,10059.673828125,-420.41143798828125,3903.706787109375,-1355.8070068359375,10704.2001953125,-193.11904907226562,2413.590576171875,-1040.2998046875,2900.759521484375,2335.70751953125,19443.03515625,2561.41015625,9381.771484375,-94.57270050048828,7344.88134765625,22258.7578125,18490.15625,13767.87890625,-0.0,-49831.07421875,15889.009765625,5338.98681640625,0.0,5821.38671875,0.0,0.0
11059.443359375,9355.544921875,25788.94140625,7655.62060546875,24763.7421875,2032.1209716796875,3408.591064453125,3386.33837890625,6448.427734375,3460.248291015625,12560.685546875,-3655.75146484375,4929.701171875,0.0,18393.197265625,1488.5267333984375,20910.10546875,14073.8486328125,6102.720703125,9198.9833984375,18800.89453125,25335.947265625,11977.35546875,14690.55859375,16099.611328125,3829.00244140625,24227.30078125,-6357.0341796875,-0.0,3.9736428260803223,9249.05078125,3744.76123046875,20273.52734375,13231.4365234375,8411.4072265625,20581.880859375,7364.75,8582.2744140625,3511.90576171875,-970.3636474609375,19297.599609375,4750.88720703125,14182.7265625,5719.66162109375,2719.561279296875,8868.376953125,10033.4482421875,-409.28521728515625,3902.912109375,-1354.217529296875,10710.556640625,-187.5559539794922,2409.6171875,-1034.736572265625,2882.480712890625,2336.501953125,19445.419921875,2563.79443359375,9393.6923828125,-89.80432891845703,7353.6240234375,22265.115234375,18498.1015625,13785.3623046875,-0.0,-49827.890625,15892.982421875,5342.96044921875,0.0,5826.1552734375,0.0,0.0
11068.1845703125,9369.0556640625,25803.248046875,7673.10498046875,24785.99609375,2048.015625,3433.2275390625,3410.97509765625,6476.24365234375,3488.8583984375,12515.3857421875,-3631.114990234375,4953.54296875,0.0,18416.24609375,1516.3421630859375,20929.97265625,14098.4853515625,6126.5625,9229.18359375,18822.3515625,25355.81640625,12000.4013671875,14714.400390625,16115.5068359375,3852.049560546875,24251.9375,-6336.37109375,-0.0,22.25240135192871,9270.5087890625,3763.039794921875,20292.6015625,13250.509765625,8433.6591796875,20603.337890625,7388.591796875,8608.5,3508.726806640625,-953.67431640625,19319.056640625,4771.55078125,14204.978515625,5741.119140625,2743.403076171875,8893.8076171875,10027.0908203125,-370.3435363769531,3927.548828125,-1336.7335205078125,10734.3984375,-161.3299102783203,2411.20654296875,-1010.1000366210938,2894.401611328125,2367.49658203125,19464.4921875,2593.994140625,9420.712890625,-58.01518630981445,7367.92919921875,22288.1640625,18522.740234375,13821.919921875,-0.0,-49798.48828125,15911.2607421875,5371.57080078125,0.0,5860.32861328125,0.0,0.0
11068.98046875,9363.4921875,25795.30078125,7659.59423828125,24778.046875,2034.505126953125,3423.69091796875,3395.875244140625,6459.55419921875,3471.37451171875,12505.0546875,-3637.472900390625,4951.1591796875,0.0,18409.09375,1498.858154296875,20921.23046875,14088.154296875,6113.05224609375,9212.494140625,18815.19921875,25347.07421875,11990.865234375,14700.8896484375,16118.6845703125,3840.128662109375,24243.197265625,-6350.67626953125,-0.0,10.33147144317627,9261.767578125,3756.68212890625,20287.83203125,13241.767578125,8426.5068359375,20593.0078125,7377.4658203125,8593.400390625,3509.521484375,-974.3372802734375,19311.109375,4758.0400390625,14197.826171875,5723.63525390625,2729.09814453125,8880.2978515625,10031.859375,-377.49609375,3922.780517578125,-1347.06494140625,10726.4521484375,-176.42974853515625,2408.027587890625,-1018.8421020507812,2895.990966796875,2357.1650390625,19458.134765625,2579.68896484375,9408.7919921875,-75.49921417236328,7360.7763671875,22277.037109375,18507.638671875,13800.4619140625,-0.0,-49813.5859375,15896.955078125,5349.31787109375,0.0,5838.87109375,0.0,0.0
11049.90625,9349.982421875,25784.96875,7651.64697265625,24761.357421875,2020.994873046875,3403.82275390625,3374.41748046875,6437.3017578125,3450.71142578125,12547.9697265625,-3659.72509765625,4933.67529296875,0.0,18390.01953125,1478.1951904296875,20904.541015625,14072.2587890625,6092.3896484375,9188.65234375,18798.509765625,25333.5625,11973.380859375,14684.2001953125,16114.7119140625,3810.7236328125,24221.73828125,-6368.955078125,-0.0,0.0,9246.6669921875,3741.582275390625,20273.52734375,13227.462890625,8410.61328125,20576.318359375,7357.59716796875,8572.7373046875,3501.57421875,-990.2318725585938,19296.01171875,4742.9404296875,14179.546875,5703.76708984375,2707.640380859375,8859.634765625,10018.3486328125,-386.23809814453125,3906.8857421875,-1360.5753173828125,10705.7890625,-196.29795837402344,2399.28564453125,-1038.710205078125,2891.22265625,2342.065185546875,19439.85546875,2560.615478515625,9387.333984375,-97.75161743164062,7341.703125,22258.7578125,18487.771484375,13771.8515625,-0.0,-49832.66015625,15888.2138671875,5330.24462890625,0.0,5812.64501953125,0.0,0.0
11006.9912109375,9335.6767578125,25777.021484375,7642.1103515625,24754.205078125,2009.86865234375,3392.6962890625,3364.086181640625,6426.17578125,3440.380126953125,12553.5322265625,-3675.619873046875,4919.3701171875,0.0,18382.8671875,1466.2742919921875,20895.798828125,14062.72265625,6082.05810546875,9178.3212890625,18790.564453125,25323.232421875,11963.0498046875,14673.869140625,16106.763671875,3783.702880859375,24220.1484375,-6377.69677734375,-0.0,-18.278757095336914,9235.541015625,3729.6611328125,20262.400390625,13219.515625,8399.486328125,20564.3984375,7348.85546875,8563.201171875,3489.6533203125,-1010.1000366210938,19287.267578125,4731.01953125,14171.6005859375,5694.23046875,2696.51416015625,8847.7138671875,10003.2490234375,-406.9010314941406,3906.091064453125,-1370.112060546875,10695.45703125,-205.83470153808594,2392.133056640625,-1056.1943359375,2886.454345703125,2338.88623046875,19435.8828125,2547.89990234375,9375.4130859375,-106.4936294555664,7309.91357421875,22249.22265625,18477.439453125,13759.1357421875,-0.0,-49843.7890625,15885.0341796875,5321.5029296875,0.0,5811.85009765625,0.0,0.0
11023.6806640625,9334.8818359375,25775.431640625,7639.72607421875,24746.259765625,2006.6898193359375,3388.72265625,3360.9072265625,6420.6123046875,3433.2275390625,12563.8642578125,-3681.182861328125,4920.95947265625,0.0,18382.072265625,1463.89013671875,20892.619140625,14056.365234375,6077.28955078125,9171.962890625,18785.794921875,25320.84765625,11955.1015625,14667.5107421875,16089.28125,3810.7236328125,24220.943359375,-6384.0546875,-0.0,-29.404958724975586,9231.5673828125,3725.687744140625,20257.630859375,13217.1318359375,8391.5400390625,20564.3984375,7343.2919921875,8557.6376953125,3476.9375,-1010.1000366210938,19280.91015625,4729.4296875,14167.6259765625,5688.66748046875,2692.54052734375,8842.9453125,10010.4013671875,-429.94818115234375,3895.759521484375,-1374.8804931640625,10694.6630859375,-209.808349609375,2386.570068359375,-1061.7574462890625,2879.3017578125,2319.01806640625,19438.267578125,2542.336669921875,9373.82421875,-112.05673217773438,7301.171875,22243.658203125,18471.876953125,13753.5732421875,-0.0,-49854.9140625,15884.2412109375,5304.8134765625,0.0,5803.1083984375,0.0,0.0
11064.2119140625,9342.0341796875,25774.63671875,7653.236328125,24751.02734375,2020.994873046875,3397.46484375,3372.033447265625,6425.380859375,3440.380126953125,12582.9384765625,-3670.056640625,4928.11181640625,0.0,18388.4296875,1482.963623046875,20903.74609375,14065.1064453125,6085.23681640625,9177.525390625,18791.357421875,25331.177734375,11960.666015625,14678.6376953125,16087.6904296875,3827.412841796875,24229.685546875,-6370.54443359375,-0.0,-17.48402976989746,9243.48828125,3739.197998046875,20267.962890625,13230.6416015625,8398.6923828125,20573.138671875,7349.64990234375,8564.7900390625,3503.16357421875,-981.4898071289062,19284.8828125,4745.32470703125,14172.39453125,5700.58837890625,2699.69287109375,8852.4814453125,10019.9384765625,-410.87469482421875,3893.37548828125,-1362.95947265625,10702.6103515625,-197.0926971435547,2402.464599609375,-1057.78369140625,2877.712158203125,2318.22314453125,19442.240234375,2557.436767578125,9384.1552734375,-100.93053436279297,7319.4501953125,22250.810546875,18477.439453125,13757.546875,-0.0,-49839.8125,15879.47265625,5326.27099609375,0.0,5814.234375,0.0,0.0
11076.1328125,9340.4453125,25780.201171875,7658.0048828125,24751.822265625,2020.994873046875,3395.875244140625,3373.622802734375,6427.7646484375,3440.380126953125,12575.78515625,-3666.0830078125,4928.90673828125,0.0,18386.044921875,1481.3741455078125,20909.30859375,14069.080078125,6086.826171875,9179.91015625,18795.33203125,25334.357421875,11960.666015625,14679.431640625,16090.07421875,3832.18115234375,24214.5859375,-6366.57080078125,-0.0,-11.126200675964355,9247.4619140625,3743.171630859375,20271.935546875,13234.615234375,8401.076171875,20573.138671875,7350.44482421875,8567.173828125,3509.521484375,-975.9266967773438,19287.267578125,4748.50341796875,14169.2158203125,5704.5615234375,2698.103759765625,8855.66015625,10027.0908203125,-394.1853942871094,3888.60693359375,-1357.396484375,10697.841796875,-195.50323486328125,2412.7958984375,-1056.1943359375,2876.122802734375,2324.5810546875,19437.470703125,2555.84716796875,9384.1552734375,-104.10944366455078,7333.75537109375,22251.60546875,18478.234375,13760.7255859375,-0.0,-49827.09765625,15887.4189453125,5323.88671875,0.0,5803.9033203125,0.0,0.0
11056.263671875,9324.55078125,25774.63671875,7651.64697265625,24743.080078125,2014.636962890625,3387.13330078125,3369.649169921875,6427.7646484375,3443.558837890625,12550.353515625,-3674.0302734375,4928.11181640625,0.0,18378.099609375,1476.605712890625,20900.568359375,14061.927734375,6081.26318359375,9182.2939453125,18788.1796875,25324.822265625,11951.923828125,14670.689453125,16083.7177734375,3831.386474609375,24197.896484375,-6369.74951171875,-0.0,-19.868215560913086,9237.92578125,3732.84033203125,20263.990234375,13223.4892578125,8394.7177734375,20565.986328125,7344.88134765625,8563.9951171875,3490.447998046875,-986.2581787109375,19280.115234375,4739.76123046875,14161.26953125,5700.58837890625,2692.54052734375,8853.2763671875,10022.322265625,-397.3642883300781,3882.2490234375,-1358.98583984375,10688.3046875,-198.68214416503906,2388.159423828125,-1065.7310791015625,2873.738525390625,2317.4287109375,19431.11328125,2548.694580078125,9371.439453125,-99.34107208251953,7336.1396484375,22246.04296875,18475.056640625,13772.646484375,-0.0,-49839.01953125,15891.3935546875,5331.83447265625,0.0,5813.43994140625,0.0,0.0
11052.291015625,9325.3447265625,25775.431640625,7661.97802734375,24748.64453125,2022.584228515625,3395.08056640625,3375.21240234375,6434.12255859375,3450.71142578125,12549.5595703125,-3670.056640625,4926.52294921875,0.0,18383.662109375,1480.579345703125,20903.74609375,14069.875,6086.826171875,9188.65234375,18792.947265625,25331.974609375,11960.666015625,14678.6376953125,16084.5126953125,3835.3603515625,24209.818359375,-6363.39208984375,-0.0,-13.51038646697998,9245.078125,3733.635009765625,20267.962890625,13230.6416015625,8401.076171875,20575.5234375,7353.6240234375,8569.55859375,3492.832275390625,-988.642333984375,19284.8828125,4746.9140625,14166.037109375,5706.1513671875,2698.8984375,8858.83984375,10017.5546875,-390.21173095703125,3890.196533203125,-1353.4227294921875,10696.251953125,-193.11904907226562,2385.775390625,-1054.6048583984375,2876.122802734375,2324.5810546875,19435.8828125,2555.052490234375,9377.796875,-87.4201431274414,7342.49755859375,22252.400390625,18481.412109375,13778.2099609375,-0.0,-49836.63671875,15895.3662109375,5348.5234375,0.0,5830.12890625,0.0,0.0
11057.853515625,9336.4716796875,25781.7890625,7658.0048828125,24754.205078125,2021.78955078125,3398.259521484375,3376.8017578125,6434.91748046875,3453.890625,12556.7119140625,-3663.698974609375,4926.52294921875,0.0,18387.63671875,1486.9371337890625,20905.3359375,14073.0546875,6089.21044921875,9190.2421875,18796.125,25336.7421875,11963.8447265625,14682.6103515625,16087.6904296875,3831.386474609375,24214.5859375,-6362.59716796875,-0.0,-6.357828617095947,9249.05078125,3736.813720703125,20271.142578125,13233.025390625,8405.0498046875,20578.703125,7356.0078125,8571.9423828125,3485.6796875,-981.4898071289062,19289.65234375,4747.708984375,14169.2158203125,5707.74072265625,2702.0771484375,8862.8134765625,10023.9111328125,-389.4170227050781,3893.37548828125,-1359.7806396484375,10699.431640625,-188.35067749023438,2399.28564453125,-1042.6839599609375,2877.712158203125,2331.733642578125,19439.85546875,2563.79443359375,9382.5654296875,-81.85704803466797,7344.0869140625,22257.169921875,18486.181640625,13775.8251953125,-0.0,-49826.3046875,15895.3662109375,5357.265625,0.0,5834.8974609375,0.0,0.0
11064.2119140625,9344.4189453125,25781.7890625,7640.5205078125,24759.76953125,2023.3790283203125,3401.4384765625,3376.8017578125,6434.91748046875,3449.1220703125,12564.6591796875,-3658.1357421875,4928.90673828125,0.0,18390.814453125,1481.3741455078125,20908.513671875,14074.6435546875,6089.21044921875,9188.65234375,18800.89453125,25337.537109375,11965.43359375,14683.40625,16094.8427734375,3833.770751953125,24219.35546875,-6363.39208984375,-0.0,-2.384185791015625,9251.435546875,3739.197998046875,20275.115234375,13230.6416015625,8409.8173828125,20580.291015625,7357.59716796875,8572.7373046875,3491.24267578125,-978.3109130859375,19293.626953125,4748.50341796875,14172.39453125,5708.53564453125,2703.666748046875,8862.0185546875,10022.322265625,-406.9010314941406,3898.143798828125,-1358.98583984375,10702.6103515625,-191.5295867919922,2407.23291015625,-1033.94189453125,2878.5068359375,2333.3232421875,19439.85546875,2561.41015625,9384.94921875,-89.00960540771484,7345.67626953125,22259.5546875,18486.9765625,13772.646484375,-0.0,-49822.33203125,15889.009765625,5335.8076171875,0.0,5805.4921875,0.0,0.0
11074.54296875,9345.2138671875,25782.5859375,7639.72607421875,24762.94921875,2026.557861328125,3403.82275390625,3383.954345703125,6439.68603515625,3457.0693359375,12568.6328125,-3656.54638671875,4936.85400390625,0.0,18393.197265625,1490.910888671875,20910.10546875,14078.6171875,6093.97900390625,9193.419921875,18804.07421875,25338.33203125,11967.0224609375,14684.9951171875,16097.2275390625,3833.770751953125,24224.123046875,-6356.2392578125,-0.0,-5.563100337982178,9253.025390625,3739.992919921875,20275.912109375,13229.052734375,8411.4072265625,20583.470703125,7360.7763671875,8576.7109375,3512.700439453125,-983.0792846679688,19299.189453125,4749.2978515625,14177.1630859375,5712.50927734375,2708.43505859375,8869.9658203125,10022.322265625,-423.59033203125,3908.475341796875,-1351.03857421875,10706.583984375,-185.96649169921875,2414.385498046875,-1029.96826171875,2880.89111328125,2331.733642578125,19443.830078125,2564.58935546875,9388.923828125,-81.06231689453125,7339.31884765625,22261.9375,18490.15625,13779.7998046875,-0.0,-49823.921875,15882.650390625,5347.728515625,0.0,5823.77099609375,0.0,0.0
11071.3642578125,9349.1865234375,25785.765625,7651.64697265625,24766.126953125,2030.5316162109375,3408.591064453125,3388.72265625,6444.4541015625,3463.42724609375,12559.0966796875,-3657.341064453125,4943.2119140625,0.0,18397.173828125,1498.0634765625,20911.693359375,14081.0009765625,6100.33642578125,9198.9833984375,18804.869140625,25341.51171875,11970.2021484375,14688.96875,16096.43359375,3835.3603515625,24230.48046875,-6351.470703125,-0.0,-5.563100337982178,9255.4091796875,3742.376953125,20279.08984375,13234.615234375,8412.9970703125,20585.060546875,7365.544921875,8582.2744140625,3513.4951171875,-982.2845458984375,19298.39453125,4752.47705078125,14182.7265625,5716.482421875,2711.614013671875,8873.1455078125,10021.52734375,-402.9273986816406,3915.6279296875,-1343.885986328125,10711.3525390625,-179.60865783691406,2394.51708984375,-1032.3524169921875,2887.2490234375,2331.733642578125,19446.21484375,2566.973388671875,9394.486328125,-73.90975952148438,7330.57666015625,22263.52734375,18494.923828125,13784.5673828125,-0.0,-49823.921875,15885.0341796875,5354.88134765625,0.0,5834.1025390625,0.0,0.0
11057.853515625,9349.1865234375,25784.96875,7658.0048828125,24760.564453125,2028.1474609375,3406.206787109375,3387.13330078125,6446.04345703125,3461.043212890625,12561.48046875,-3658.1357421875,4935.2646484375,0.0,18393.994140625,1490.1160888671875,20907.720703125,14076.232421875,6097.15771484375,9201.3671875,18801.689453125,25338.33203125,11966.228515625,14685.7900390625,16084.5126953125,3831.386474609375,24224.916015625,-6357.0341796875,-0.0,-4.76837158203125,9250.640625,3739.992919921875,20275.115234375,13232.2314453125,8409.0234375,20581.880859375,7361.57080078125,8581.4794921875,3502.368896484375,-987.0529174804688,19293.626953125,4751.68212890625,14176.369140625,5713.30419921875,2707.640380859375,8869.9658203125,10025.5009765625,-379.8802795410156,3903.706787109375,-1349.44921875,10709.7626953125,-183.58230590820312,2375.443603515625,-1041.094482421875,2889.63330078125,2330.144287109375,19438.267578125,2555.84716796875,9392.8974609375,-78.67813110351562,7335.3447265625,22260.34765625,18494.12890625,13787.74609375,-0.0,-49829.484375,15889.009765625,5339.78125,0.0,5824.56591796875,0.0,0.0
11049.90625,9344.4189453125,25784.173828125,7661.97802734375,24762.154296875,2030.5316162109375,3410.180419921875,3391.901611328125,6451.60693359375,3470.579833984375,12543.99609375,-3652.57275390625,4924.93310546875,0.0,18399.556640625,1497.2686767578125,20909.30859375,14077.02734375,6098.7470703125,9210.109375,18800.099609375,25339.126953125,11967.818359375,14690.55859375,16082.12890625,3829.00244140625,24228.890625,-6351.470703125,-0.0,-7.152557373046875,9249.8466796875,3740.78759765625,20273.52734375,13231.4365234375,8411.4072265625,20585.060546875,7366.33935546875,8583.86328125,3498.395263671875,-988.642333984375,19292.83203125,4754.06640625,14179.546875,5718.072265625,2713.998046875,8877.1181640625,10020.732421875,-379.0855407714844,3901.322509765625,-1346.270263671875,10715.3251953125,-178.0192108154297,2357.1650390625,-1044.2734375,2889.63330078125,2338.091552734375,19439.0625,2560.615478515625,9400.0498046875,-67.55193328857422,7344.0869140625,22264.322265625,18500.486328125,13800.4619140625,-0.0,-49829.484375,15902.51953125,5350.90771484375,0.0,5844.43408203125,0.0,0.0
11039.57421875,9333.29296875,25784.96875,7659.59423828125,24771.689453125,2029.73681640625,3414.154052734375,3392.6962890625,6452.40185546875,3472.169189453125,12530.486328125,-3664.49365234375,4914.6015625,0.0,18402.734375,1502.037109375,20909.30859375,14078.6171875,6101.13134765625,9210.109375,18801.689453125,25339.921875,11970.2021484375,14692.1474609375,16094.0498046875,3829.00244140625,24240.017578125,-6351.470703125,-0.0,-39.73643112182617,9252.23046875,3736.813720703125,20273.52734375,13230.6416015625,8414.5859375,20586.6484375,7370.31298828125,8585.453125,3479.32177734375,-1002.1527709960938,19296.8046875,4757.24560546875,14187.4951171875,5717.27734375,2715.587646484375,8880.2978515625,9999.275390625,-389.4170227050781,3903.706787109375,-1347.8597412109375,10717.7099609375,-175.63502502441406,2371.47021484375,-1053.81005859375,2866.5859375,2331.733642578125,19441.447265625,2568.562744140625,9403.228515625,-65.1677474975586,7337.72900390625,22267.5,18502.87109375,13800.4619140625,-0.0,-49833.45703125,15908.0830078125,5355.67626953125,0.0,5848.40771484375,0.0,0.0
11045.9326171875,9332.498046875,25781.7890625,7644.49462890625,24771.689453125,2021.78955078125,3410.97509765625,3389.517578125,6446.83837890625,3466.606201171875,12522.5380859375,-3662.109375,4915.39599609375,0.0,18397.966796875,1502.037109375,20905.3359375,14074.6435546875,6098.7470703125,9203.751953125,18799.3046875,25335.947265625,11967.0224609375,14685.7900390625,16090.07421875,3824.23388671875,24236.04296875,-6354.64990234375,-0.0,-20.66294288635254,9248.2568359375,3733.635009765625,20270.34765625,13225.078125,8414.5859375,20581.087890625,7370.31298828125,8583.068359375,3485.6796875,-996.5896606445312,19292.83203125,4741.3505859375,14188.2900390625,5710.125,2713.203369140625,8877.1181640625,10008.017578125,-393.3906555175781,3883.838623046875,-1358.98583984375,10714.53125,-176.42974853515625,2394.51708984375,-1049.8365478515625,2849.896728515625,2331.733642578125,19432.703125,2572.536376953125,9400.0498046875,-71.52557373046875,7336.9345703125,22265.115234375,18500.486328125,13790.130859375,-0.0,-49828.69140625,15901.7236328125,5356.470703125,0.0,5837.28173828125,0.0,0.0
11071.3642578125,9349.982421875,25794.505859375,7660.38916015625,24766.126953125,2029.73681640625,3415.74365234375,3395.875244140625,6454.78564453125,3472.964111328125,12549.5595703125,-3647.009521484375,4930.49609375,0.0,18402.734375,1508.3948974609375,20915.666015625,14083.3857421875,6105.89990234375,9211.69921875,18807.251953125,25343.099609375,11970.2021484375,14694.53125,16108.3544921875,3836.155029296875,24244.78515625,-6349.0869140625,-0.0,1.5894571542739868,9256.2041015625,3745.555908203125,20281.47265625,13236.205078125,8420.1494140625,20589.033203125,7377.4658203125,8591.015625,3515.08447265625,-976.721435546875,19300.779296875,4747.708984375,14187.4951171875,5716.482421875,2719.561279296875,8882.681640625,10043.7802734375,-379.0855407714844,3902.117431640625,-1352.6280517578125,10722.4775390625,-169.27719116210938,2401.669677734375,-1037.91552734375,2885.659423828125,2346.038818359375,19436.677734375,2580.483642578125,9405.61328125,-68.3466567993164,7344.88134765625,22272.267578125,18510.0234375,13799.6669921875,-0.0,-49812.79296875,15901.7236328125,5354.08642578125,0.0,5828.53955078125,0.0,0.0
11076.1328125,9355.544921875,25805.630859375,7674.69384765625,24777.25390625,2043.2471923828125,3430.048583984375,3406.206787109375,6459.55419921875,3483.29541015625,12567.04296875,-3636.677978515625,4928.90673828125,0.0,18410.68359375,1515.54736328125,20924.41015625,14095.306640625,6117.82080078125,9219.646484375,18815.994140625,25355.021484375,11981.328125,14707.248046875,16122.66015625,3847.28125,24267.83203125,-6339.5498046875,-0.0,15.894571304321289,9265.740234375,3755.092529296875,20290.216796875,13245.7421875,8429.6865234375,20599.365234375,7388.591796875,8601.34765625,3531.77392578125,-973.5425415039062,19311.109375,4762.013671875,14201.0048828125,5728.40380859375,2728.30322265625,8892.21875,10054.111328125,-371.13824462890625,3922.780517578125,-1337.5281982421875,10738.373046875,-158.15098571777344,2382.59619140625,-1026.789306640625,2902.348876953125,2353.19140625,19439.85546875,2586.841552734375,9409.5869140625,-57.220458984375,7345.67626953125,22281.8046875,18519.560546875,13804.435546875,-0.0,-49807.23046875,15893.7783203125,5366.00732421875,0.0,5846.0234375,0.0,0.0
11061.828125,9346.0078125,25804.837890625,7685.02587890625,24782.0234375,2051.1943359375,3437.995849609375,3407.796142578125,6457.169921875,3478.527099609375,12563.8642578125,-3645.420166015625,4931.291015625,0.0,18413.06640625,1512.3685302734375,20922.818359375,14098.4853515625,6121.0,9216.4677734375,18816.7890625,25355.81640625,11985.3017578125,14708.8369140625,16121.0693359375,3856.023193359375,24267.83203125,-6337.166015625,-0.0,23.047128677368164,9267.330078125,3750.32421875,20288.625,13247.3310546875,8432.0703125,20602.544921875,7390.97607421875,8601.34765625,3504.753173828125,-976.721435546875,19311.109375,4768.37158203125,14208.1572265625,5733.171875,2729.892822265625,8892.21875,10035.0380859375,-374.3171691894531,3912.448974609375,-1327.19677734375,10746.3193359375,-159.74044799804688,2383.39111328125,-1026.789306640625,2895.1962890625,2353.986083984375,19441.447265625,2581.278564453125,9411.970703125,-61.19409942626953,7336.1396484375,22284.984375,18518.765625,13794.8994140625,-0.0,-49818.35546875,15892.1875,5359.6494140625,0.0,5839.666015625,0.0,0.0
11044.3427734375,9323.755859375,25788.1484375,7677.078125,24759.76953125,2035.300048828125,3412.564453125,3392.6962890625,6443.6591796875,3464.221923828125,12543.201171875,-3668.46728515625,4932.88037109375,0.0,18402.734375,1496.473876953125,20906.12890625,14080.20703125,6103.515625,9205.341796875,18799.3046875,25340.71484375,11965.43359375,14692.9423828125,16101.2021484375,3840.92333984375,24228.095703125,-6350.67626953125,-0.0,-18.278757095336914,9252.23046875,3730.4560546875,20274.3203125,13234.615234375,8414.5859375,20587.443359375,7373.49169921875,8586.2470703125,3488.063720703125,-990.2318725585938,19294.419921875,4758.8349609375,14181.931640625,5717.27734375,2711.614013671875,8877.9130859375,10001.6591796875,-394.1853942871094,3907.680419921875,-1339.912353515625,10723.2734375,-174.8402862548828,2381.801513671875,-1046.6575927734375,2877.712158203125,2337.296630859375,19451.77734375,2568.562744140625,9398.4599609375,-79.47286224365234,7319.4501953125,22269.08984375,18502.076171875,13786.9521484375,-0.0,-49837.4296875,15892.982421875,5338.98681640625,0.0,5818.2080078125,0.0,0.0
11035.6015625,9318.98828125,25765.896484375,7642.1103515625,24735.1328125,2001.1265869140625,3376.8017578125,3370.444091796875,6419.8173828125,3443.558837890625,12529.6904296875,-3673.235595703125,4928.90673828125,0.0,18380.484375,1481.3741455078125,20884.671875,14056.365234375,6076.49462890625,9185.4736328125,18777.052734375,25314.490234375,11937.6181640625,14666.716796875,16078.1533203125,3807.544677734375,24192.333984375,-6375.31298828125,-0.0,-43.7100715637207,9229.18359375,3714.5615234375,20254.453125,13209.9794921875,8389.1552734375,20558.833984375,7344.88134765625,8563.9951171875,3496.010986328125,-1021.2262573242188,19273.7578125,4724.6611328125,14147.7587890625,5691.84619140625,2683.003662109375,8858.044921875,9999.275390625,-426.7692565917969,3890.196533203125,-1374.8804931640625,10678.7685546875,-193.9137725830078,2388.9541015625,-1068.9100341796875,2872.149169921875,2323.786376953125,19453.3671875,2560.615478515625,9373.82421875,-95.367431640625,7306.734375,22243.658203125,18479.82421875,13774.2353515625,-0.0,-49846.171875,15877.8818359375,5327.8603515625,0.0,5805.4921875,0.0,0.0
11052.291015625,9349.982421875,25783.380859375,7667.54150390625,24751.822265625,2024.9683837890625,3397.46484375,3393.490966796875,6438.0966796875,3465.8115234375,12545.5859375,-3647.80419921875,4932.08544921875,0.0,18393.197265625,1501.2423095703125,20909.30859375,14079.4111328125,6098.7470703125,9204.546875,18796.125,25337.537109375,11959.8701171875,14688.173828125,16084.5126953125,3833.770751953125,24207.43359375,-6353.85498046875,-0.0,-2.384185791015625,9251.435546875,3741.582275390625,20274.3203125,13234.615234375,8409.8173828125,20579.49609375,7367.13427734375,8586.2470703125,3519.852783203125,-987.0529174804688,19285.6796875,4750.88720703125,14167.6259765625,5715.68798828125,2702.8720703125,8878.7080078125,10035.0380859375,-399.74847412109375,3895.759521484375,-1353.4227294921875,10695.45703125,-174.8402862548828,2415.18017578125,-1038.710205078125,2877.712158203125,2346.83349609375,19455.751953125,2578.099609375,9389.7177734375,-70.73084259033203,7335.3447265625,22265.115234375,18501.28125,13795.693359375,-0.0,-49815.1796875,15889.802734375,5354.88134765625,0.0,5834.8974609375,0.0,0.0
11061.0322265625,9367.4658203125,25809.607421875,7684.23095703125,24770.89453125,2048.015625,3419.717041015625,3413.359375,6458.75927734375,3484.885009765625,12559.890625,-3624.757080078125,4935.2646484375,0.0,18407.50390625,1524.2894287109375,20926.794921875,14097.6904296875,6119.41015625,9223.6201171875,18816.7890625,25358.99609375,11979.7392578125,14710.4267578125,16100.40625,3854.433837890625,24229.685546875,-6334.78173828125,-0.0,19.868215560913086,9268.919921875,3756.68212890625,20293.39453125,13251.3046875,8431.275390625,20598.5703125,7388.591796875,8605.3212890625,3519.05810546875,-961.62158203125,19304.751953125,4769.9609375,14187.4951171875,5737.9404296875,2723.534912109375,8900.166015625,10040.6005859375,-384.6486511230469,3908.475341796875,-1327.991455078125,10720.09375,-154.97207641601562,2419.948486328125,-1017.2525634765625,2886.454345703125,2363.522705078125,19459.724609375,2593.199462890625,9408.7919921875,-50.067901611328125,7359.1865234375,22287.369140625,18522.740234375,13814.7666015625,-0.0,-49790.54296875,15907.287109375,5366.00732421875,0.0,5851.5869140625,0.0,0.0
11056.263671875,9368.2607421875,25800.86328125,7677.873046875,24770.89453125,2042.4525146484375,3415.74365234375,3407.796142578125,6453.1962890625,3481.705810546875,12568.6328125,-3637.472900390625,4932.88037109375,0.0,18405.119140625,1514.752685546875,20925.998046875,14096.1005859375,6116.2314453125,9219.646484375,18814.40625,25354.2265625,11976.5595703125,14703.2734375,16106.763671875,3849.665283203125,24232.865234375,-6341.93408203125,-0.0,11.126200675964355,9266.5361328125,3750.32421875,20288.625,13247.3310546875,8427.302734375,20596.185546875,7386.20751953125,8600.552734375,3511.90576171875,-965.59521484375,19304.751953125,4763.60302734375,14186.7001953125,5730.78759765625,2719.561279296875,8893.8076171875,10022.322265625,-379.8802795410156,3912.448974609375,-1334.3492431640625,10718.5048828125,-164.50881958007812,2401.669677734375,-1025.99462890625,2889.63330078125,2347.62841796875,19452.572265625,2583.662841796875,9406.4072265625,-60.39937210083008,7349.64990234375,22283.396484375,18516.3828125,13813.177734375,-0.0,-49804.05078125,15908.8759765625,5362.82861328125,0.0,5850.7919921875,0.0,0.0
11066.595703125,9371.439453125,25800.86328125,7684.23095703125,24774.869140625,2047.220947265625,3420.511962890625,3408.591064453125,6452.40185546875,3479.32177734375,12580.5537109375,-3631.114990234375,4933.67529296875,0.0,18408.298828125,1511.57373046875,20931.5625,14100.869140625,6120.205078125,9220.4404296875,18818.37890625,25358.19921875,11981.328125,14706.4521484375,16113.916015625,3852.84423828125,24239.220703125,-6340.3447265625,-0.0,16.689300537109375,9272.0986328125,3755.88720703125,20293.39453125,13256.0732421875,8430.48046875,20602.544921875,7389.38671875,8602.142578125,3515.08447265625,-961.62158203125,19309.521484375,4767.57666015625,14192.263671875,5733.171875,2720.35595703125,8892.21875,10039.01171875,-361.60150146484375,3919.6015625,-1331.17041015625,10721.68359375,-168.4824676513672,2419.948486328125,-1025.199951171875,2901.55419921875,2347.62841796875,19452.572265625,2582.0732421875,9407.203125,-65.1677474975586,7348.060546875,22285.779296875,18519.560546875,13812.3828125,-0.0,-49801.66796875,15905.69921875,5361.23876953125,0.0,5844.43408203125,0.0,0.0
11041.1640625,9359.5185546875,25788.94140625,7667.54150390625,24767.716796875,2036.8892822265625,3416.538330078125,3400.6435546875,6448.427734375,3472.964111328125,12553.5322265625,-3636.677978515625,4927.3173828125,0.0,18404.326171875,1507.6002197265625,20918.845703125,14089.7431640625,6113.84716796875,9216.4677734375,18807.251953125,25348.6640625,11974.17578125,14699.2998046875,16099.611328125,3838.5390625,24234.453125,-6345.11328125,-0.0,8.74201488494873,9261.767578125,3741.582275390625,20281.47265625,13245.7421875,8424.123046875,20593.80078125,7383.0283203125,8596.5791015625,3503.95849609375,-976.721435546875,19299.984375,4755.65576171875,14185.111328125,5726.814453125,2715.587646484375,8886.6552734375,10027.8857421875,-371.13824462890625,3910.064697265625,-1341.5018310546875,10719.298828125,-174.04556274414062,2415.18017578125,-1037.120849609375,2884.070068359375,2337.296630859375,19449.392578125,2579.68896484375,9405.61328125,-69.93611907958984,7340.908203125,22277.83203125,18514.791015625,13809.2041015625,-0.0,-49805.640625,15905.69921875,5356.470703125,0.0,5836.48681640625,0.0,0.0
11036.396484375,9350.7763671875,25780.99609375,7659.59423828125,24764.537109375,2028.942138671875,3410.97509765625,3394.285888671875,6440.48046875,3468.990234375,12495.517578125,-3645.420166015625,4928.90673828125,0.0,18400.349609375,1503.62646484375,20910.10546875,14085.76953125,6106.69482421875,9209.3154296875,18801.689453125,25341.51171875,11968.6123046875,14695.3271484375,16094.0498046875,3830.591796875,24233.66015625,-6353.06005859375,-0.0,-2.384185791015625,9254.615234375,3733.635009765625,20273.52734375,13237.0,8419.3544921875,20585.060546875,7378.26025390625,8590.2216796875,3503.95849609375,-984.668701171875,19294.419921875,4750.0927734375,14181.13671875,5718.86669921875,2710.8193359375,8881.88671875,10013.580078125,-378.2908020019531,3909.269775390625,-1349.44921875,10716.12109375,-178.81393432617188,2406.438232421875,-1037.91552734375,2877.712158203125,2324.5810546875,19447.802734375,2574.1259765625,9398.4599609375,-72.32030487060547,7339.31884765625,22272.267578125,18507.638671875,13799.6669921875,-0.0,-49811.203125,15902.51953125,5357.265625,0.0,5837.28173828125,0.0,0.0
11051.4951171875,9349.982421875,25777.021484375,7659.59423828125,24758.974609375,2028.942138671875,3404.6171875,3389.517578125,6434.12255859375,3465.0166015625,12496.3125,-3648.598876953125,4924.93310546875,0.0,18395.58203125,1494.0897216796875,20907.720703125,14084.9755859375,6101.92626953125,9202.95703125,18797.716796875,25340.71484375,11963.0498046875,14691.3525390625,16094.8427734375,3835.3603515625,24224.916015625,-6359.41845703125,-0.0,0.0,9252.23046875,3729.6611328125,20271.935546875,13237.0,8415.3818359375,20583.470703125,7375.08154296875,8587.04296875,3507.931884765625,-979.1055908203125,19287.267578125,4750.88720703125,14174.779296875,5716.482421875,2706.05078125,8877.1181640625,10009.6064453125,-379.8802795410156,3901.322509765625,-1351.8333740234375,10710.556640625,-185.17176818847656,2398.490966796875,-1032.3524169921875,2877.712158203125,2336.501953125,19443.830078125,2566.178466796875,9392.1025390625,-77.8833999633789,7343.2919921875,22269.884765625,18500.486328125,13790.9248046875,-0.0,-49821.53515625,15898.5458984375,5350.90771484375,0.0,5834.1025390625,0.0,0.0
11040.3701171875,9341.240234375,25773.048828125,7652.44140625,24747.84765625,2023.3790283203125,3395.08056640625,3379.980712890625,6422.20166015625,3454.685302734375,12531.2802734375,-3654.956787109375,4913.80712890625,0.0,18392.404296875,1481.3741455078125,20899.7734375,14076.232421875,6093.97900390625,9191.0361328125,18790.564453125,25334.357421875,11955.8974609375,14684.2001953125,16093.25390625,3831.386474609375,24212.99609375,-6371.33935546875,-0.0,-1.5894571542739868,9245.8720703125,3720.91943359375,20264.783203125,13229.8466796875,8408.228515625,20576.318359375,7367.13427734375,8577.505859375,3492.03759765625,-983.8739624023438,19276.142578125,4745.32470703125,14165.2421875,5706.94580078125,2697.308837890625,8868.376953125,10004.0439453125,-390.21173095703125,3887.017578125,-1362.164794921875,10704.2001953125,-195.50323486328125,2381.801513671875,-1033.94189453125,2864.201904296875,2337.296630859375,19434.29296875,2551.078857421875,9388.12890625,-88.21487426757812,7335.3447265625,22262.732421875,18490.94921875,13779.00390625,-0.0,-49831.8671875,15890.5986328125,5337.39697265625,0.0,5819.00244140625,0.0,0.0
11045.9326171875,9349.1865234375,25785.765625,7656.41552734375,24758.974609375,2028.1474609375,3404.6171875,3387.13330078125,6427.7646484375,3458.658935546875,12555.1220703125,-3650.983154296875,4916.19091796875,0.0,18401.146484375,1483.75830078125,20908.513671875,14084.1796875,6099.5419921875,9196.5986328125,18801.689453125,25340.71484375,11967.0224609375,14688.96875,16101.9951171875,3832.97607421875,24227.30078125,-6363.39208984375,-0.0,3.1789143085479736,9253.8193359375,3729.6611328125,20274.3203125,13237.0,8417.765625,20583.470703125,7373.49169921875,8582.2744140625,3495.21630859375,-986.2581787109375,19289.65234375,4750.88720703125,14175.57421875,5712.50927734375,2704.46142578125,8873.1455078125,10018.3486328125,-389.4170227050781,3900.52783203125,-1354.217529296875,10713.736328125,-189.9401397705078,2390.543701171875,-1030.7630615234375,2873.738525390625,2345.244140625,19433.498046875,2554.257568359375,9396.076171875,-87.4201431274414,7336.9345703125,22268.294921875,18496.513671875,13782.978515625,-0.0,-49835.84375,15895.3662109375,5342.16552734375,0.0,5822.9765625,0.0,0.0
11061.0322265625,9365.08203125,25808.810546875,7677.078125,24780.431640625,2047.220947265625,3424.4853515625,3404.6171875,6445.2490234375,3477.732421875,12589.294921875,-3638.267578125,4930.49609375,0.0,18415.451171875,1506.0106201171875,20927.587890625,14102.458984375,6116.2314453125,9214.8779296875,18819.966796875,25356.611328125,11986.0966796875,14707.248046875,16117.095703125,3855.228515625,24247.169921875,-6345.11328125,-0.0,11.920928955078125,9272.892578125,3750.32421875,20293.39453125,13253.6884765625,8436.0439453125,20600.953125,7390.97607421875,8598.16796875,3525.416015625,-975.9266967773438,19311.109375,4769.9609375,14193.8525390625,5730.78759765625,2723.534912109375,8889.0390625,10046.1640625,-370.3435363769531,3924.369873046875,-1337.5281982421875,10731.220703125,-170.8666534423828,2416.769775390625,-1022.0209350585938,2883.275390625,2358.75439453125,19445.419921875,2573.3310546875,9407.9970703125,-65.1677474975586,7350.44482421875,22285.779296875,18513.998046875,13802.0517578125,-0.0,-49815.1796875,15906.4921875,5366.00732421875,0.0,5857.9443359375,0.0,0.0
11072.1591796875,9372.234375,25812.78515625,7683.43603515625,24784.40625,2057.55224609375,3430.84326171875,3415.74365234375,6456.375,3492.03759765625,12586.9111328125,-3623.167724609375,4941.6220703125,0.0,18418.630859375,1521.9052734375,20933.947265625,14108.021484375,6127.357421875,9226.0048828125,18825.53125,25364.556640625,11993.2490234375,14716.7841796875,16111.5322265625,3859.2021484375,24254.322265625,-6333.1923828125,-0.0,16.689300537109375,9280.0458984375,3758.271484375,20301.341796875,13261.6357421875,8440.8125,20608.90234375,7400.5126953125,8607.705078125,3524.621337890625,-965.59521484375,19314.2890625,4780.29248046875,14201.0048828125,5741.119140625,2733.866455078125,8900.166015625,10050.1376953125,-357.62786865234375,3929.13818359375,-1335.14404296875,10736.783203125,-158.15098571777344,2404.053955078125,-1021.2262573242188,2880.89111328125,2366.701904296875,19454.16015625,2590.815185546875,9414.35546875,-51.6573600769043,7359.9814453125,22295.31640625,18523.53515625,13816.3564453125,-0.0,-49796.10546875,15907.287109375,5381.107421875,0.0,5877.81298828125,0.0,0.0
11079.3115234375,9371.439453125,25797.685546875,7685.8203125,24768.51171875,2057.55224609375,3420.511962890625,3410.180419921875,6450.81201171875,3479.32177734375,12563.8642578125,-3620.783447265625,4941.6220703125,0.0,18405.9140625,1513.9580078125,20929.97265625,14104.048828125,6120.205078125,9215.6728515625,18816.7890625,25362.173828125,11985.3017578125,14712.810546875,16095.638671875,3852.84423828125,24234.453125,-6333.1923828125,-0.0,19.073486328125,9275.27734375,3756.68212890625,20292.6015625,13260.046875,8432.865234375,20604.9296875,7390.18115234375,8604.5263671875,3523.82666015625,-975.9266967773438,19298.39453125,4777.11328125,14187.4951171875,5739.5302734375,2724.32958984375,8891.4228515625,10019.9384765625,-365.5751647949219,3908.475341796875,-1333.5545654296875,10722.4775390625,-162.1246337890625,2382.59619140625,-1027.5841064453125,2894.401611328125,2355.57568359375,19461.3125,2591.60986328125,9404.818359375,-64.37301635742188,7363.16064453125,22288.95703125,18517.17578125,13803.6416015625,-0.0,-49793.71875,15904.1083984375,5362.82861328125,0.0,5844.43408203125,0.0,0.0
11061.828125,9361.9033203125,25796.890625,7677.078125,24763.7421875,2052.783935546875,3414.154052734375,3402.233154296875,6446.83837890625,3466.606201171875,12558.30078125,-3626.3466796875,4929.701171875,0.0,18402.734375,1504.4212646484375,20922.818359375,14097.6904296875,6113.05224609375,9209.3154296875,18810.4296875,25353.431640625,11978.943359375,14704.86328125,16098.8173828125,3821.05517578125,24227.30078125,-6341.13916015625,-0.0,12.715657234191895,9268.919921875,3750.32421875,20287.037109375,13252.89453125,8425.712890625,20596.98046875,7382.23388671875,8596.5791015625,3522.237060546875,-987.84765625,19296.8046875,4769.9609375,14181.13671875,5733.966796875,2717.9716796875,8883.4765625,10010.4013671875,-387.0328369140625,3906.8857421875,-1339.11767578125,10716.12109375,-170.8666534423828,2381.801513671875,-1029.1734619140625,2892.017333984375,2353.19140625,19455.751953125,2584.45751953125,9400.0498046875,-76.2939453125,7359.1865234375,22281.01171875,18511.61328125,13798.873046875,-0.0,-49800.078125,15904.1083984375,5353.2919921875,0.0,5822.181640625,0.0,0.0
11052.291015625,9353.1611328125,25792.12109375,7668.33642578125,24759.76953125,2044.0418701171875,3410.180419921875,3399.848876953125,6443.6591796875,3467.40087890625,12562.275390625,-3628.730712890625,4911.4228515625,0.0,18399.556640625,1502.831787109375,20919.640625,14093.716796875,6109.87353515625,9206.9306640625,18808.046875,25348.6640625,11974.970703125,14700.8896484375,16089.28125,3838.5390625,24228.095703125,-6345.11328125,-0.0,14.30511474609375,9264.9462890625,3745.555908203125,20283.064453125,13247.3310546875,8423.328125,20592.212890625,7378.26025390625,8593.400390625,3510.316162109375,-975.1319580078125,19294.419921875,4761.21923828125,14178.7529296875,5730.78759765625,2716.38232421875,8882.681640625,10015.96484375,-390.21173095703125,3902.912109375,-1340.7071533203125,10716.12109375,-171.661376953125,2391.33837890625,-1025.99462890625,2879.3017578125,2363.522705078125,19443.830078125,2582.0732421875,9397.666015625,-73.11502838134766,7348.060546875,22277.037109375,18507.638671875,13800.4619140625,-0.0,-49800.078125,15895.3662109375,5355.67626953125,0.0,5833.3076171875,0.0,0.0
11076.9267578125,9361.9033203125,25802.453125,7683.43603515625,24772.486328125,2053.57861328125,3419.717041015625,3408.591064453125,6451.60693359375,3475.34814453125,12569.427734375,-3623.96240234375,4925.72802734375,0.0,18408.298828125,1513.1632080078125,20928.3828125,14102.458984375,6118.61572265625,9213.2880859375,18817.583984375,25359.7890625,11983.7119140625,14708.8369140625,16096.43359375,3879.0703125,24246.375,-6336.37109375,-0.0,23.047128677368164,9273.6884765625,3753.503173828125,20291.8046875,13258.45703125,8432.865234375,20601.75,7387.00244140625,8601.34765625,3516.674072265625,-963.2110595703125,19302.3671875,4776.31884765625,14189.083984375,5739.5302734375,2726.7138671875,8890.62890625,10034.2431640625,-365.5751647949219,3917.21728515625,-1331.17041015625,10726.4521484375,-160.53517150878906,2400.080322265625,-1014.868408203125,2879.3017578125,2372.264892578125,19454.95703125,2588.43115234375,9406.4072265625,-58.01518630981445,7344.88134765625,22284.984375,18513.998046875,13809.998046875,-0.0,-49797.6953125,15904.9033203125,5366.80224609375,0.0,5841.25537109375,0.0,0.0
11065.80078125,9365.08203125,25803.248046875,7682.6416015625,24774.07421875,2051.1943359375,3420.511962890625,3404.6171875,6449.22265625,3471.37451171875,12561.48046875,-3623.167724609375,4932.08544921875,0.0,18406.708984375,1508.3948974609375,20929.177734375,14098.4853515625,6115.4365234375,9208.51953125,18816.7890625,25358.19921875,11982.91796875,14705.658203125,16104.3798828125,3861.58642578125,24249.552734375,-6336.37109375,-0.0,22.25240135192871,9272.892578125,3752.70849609375,20294.189453125,13256.8671875,8432.0703125,20598.5703125,7388.591796875,8597.3740234375,3517.46875,-964.0057983398438,19303.95703125,4775.52392578125,14189.083984375,5735.55615234375,2725.124267578125,8887.4501953125,10035.83203125,-360.8067932128906,3920.396240234375,-1329.5809326171875,10724.8623046875,-164.50881958007812,2404.848876953125,-1017.2525634765625,2880.096435546875,2365.906982421875,19451.77734375,2587.63623046875,9404.0234375,-65.1677474975586,7350.44482421875,22281.8046875,18510.818359375,13802.845703125,-0.0,-49801.66796875,15905.69921875,5368.3916015625,0.0,5836.48681640625,0.0,0.0
11044.3427734375,9364.287109375,25801.658203125,7678.66748046875,24770.89453125,2049.605224609375,3414.94873046875,3400.6435546875,6446.83837890625,3468.990234375,12555.1220703125,-3632.70458984375,4939.23828125,0.0,18402.734375,1503.62646484375,20924.41015625,14092.1279296875,6110.66796875,9207.7255859375,18813.609375,25353.431640625,11977.35546875,14700.8896484375,16113.916015625,3851.254638671875,24231.275390625,-6338.75537109375,-0.0,15.894571304321289,9266.5361328125,3747.1455078125,20291.009765625,13252.0986328125,8427.302734375,20592.212890625,7383.0283203125,8592.60546875,3511.90576171875,-969.5689086914062,19306.341796875,4768.37158203125,14182.7265625,5729.9931640625,2723.534912109375,8881.091796875,10029.4755859375,-366.369873046875,3914.0380859375,-1338.322998046875,10719.298828125,-168.4824676513672,2396.106689453125,-1022.815673828125,2883.275390625,2353.19140625,19444.623046875,2585.251953125,9400.8447265625,-72.32030487060547,7348.85546875,22277.83203125,18508.43359375,13801.2568359375,-0.0,-49808.8203125,15900.9306640625,5362.03369140625,0.0,5835.69189453125,0.0,0.0
11039.57421875,9354.7509765625,25787.353515625,7665.1572265625,24758.974609375,2037.6842041015625,3403.82275390625,3391.901611328125,6436.5068359375,3457.0693359375,12545.5859375,-3644.62548828125,4931.291015625,0.0,18395.58203125,1494.0897216796875,20912.48828125,14080.20703125,6099.5419921875,9196.5986328125,18800.89453125,25339.921875,11967.0224609375,14688.173828125,16103.5859375,3838.5390625,24218.55859375,-6348.2919921875,-0.0,6.357828617095947,9253.025390625,3736.01904296875,20279.08984375,13240.177734375,8413.7919921875,20579.49609375,7372.697265625,8582.2744140625,3506.342529296875,-982.2845458984375,19296.01171875,4754.06640625,14171.6005859375,5718.072265625,2712.40869140625,8869.9658203125,10010.4013671875,-379.8802795410156,3903.706787109375,-1356.6016845703125,10709.7626953125,-177.22447204589844,2386.570068359375,-1031.5577392578125,2877.712158203125,2341.2705078125,19438.267578125,2574.920654296875,9391.3076171875,-81.06231689453125,7340.11328125,22266.70703125,18498.8984375,13789.3359375,-0.0,-49822.33203125,15889.009765625,5345.3447265625,0.0,5825.36083984375,0.0,0.0
11057.0595703125,9353.955078125,25783.380859375,7661.18359375,24755.796875,2033.71044921875,3403.02783203125,3389.517578125,6434.12255859375,3457.864013671875,12546.3798828125,-3632.70458984375,4925.72802734375,0.0,18397.173828125,1492.500244140625,20910.8984375,14077.02734375,6099.5419921875,9195.009765625,18798.509765625,25339.126953125,11964.638671875,14684.9951171875,16094.8427734375,3839.333740234375,24223.328125,-6350.67626953125,-0.0,10.33147144317627,9249.8466796875,3736.01904296875,20275.912109375,13238.5888671875,8410.61328125,20578.703125,7371.90234375,8583.068359375,3506.342529296875,-985.4635009765625,19291.2421875,4753.271484375,14170.0107421875,5715.68798828125,2709.229736328125,8871.5556640625,10010.4013671875,-391.80120849609375,3898.9384765625,-1355.0123291015625,10708.9677734375,-178.81393432617188,2393.72265625,-1034.736572265625,2870.5595703125,2342.065185546875,19440.650390625,2570.15234375,9389.7177734375,-81.85704803466797,7343.2919921875,22265.115234375,18497.30859375,13787.74609375,-0.0,-49809.6171875,15889.009765625,5346.93408203125,0.0,5824.56591796875,0.0,0.0
11072.1591796875,9358.7236328125,25784.173828125,7672.31005859375,24758.1796875,2036.0947265625,3403.82275390625,3387.927978515625,6432.533203125,3459.45361328125,12546.3798828125,-3632.70458984375,4925.72802734375,0.0,18393.994140625,1491.70556640625,20914.078125,14077.822265625,6098.7470703125,9194.21484375,18799.3046875,25343.099609375,11963.8447265625,14688.173828125,16096.43359375,3848.075927734375,24223.328125,-6350.67626953125,-0.0,3.9736428260803223,9254.615234375,3738.4033203125,20276.705078125,13243.357421875,8412.2021484375,20581.880859375,7370.31298828125,8584.658203125,3503.16357421875,-981.4898071289062,19289.65234375,4762.80810546875,14170.8056640625,5718.072265625,2705.256103515625,8872.349609375,10014.375,-381.4697265625,3902.117431640625,-1348.6544189453125,10708.1728515625,-177.22447204589844,2373.0595703125,-1033.94189453125,2874.533447265625,2343.654541015625,19442.240234375,2569.357666015625,9384.94921875,-80.26758575439453,7344.0869140625,22265.91015625,18498.1015625,13786.15625,-0.0,-49805.640625,15898.5458984375,5350.90771484375,0.0,5827.7451171875,0.0,0.0
11061.0322265625,9353.955078125,25780.99609375,7669.92578125,24749.4375,2028.942138671875,3395.08056640625,3381.570068359375,6422.99658203125,3449.916748046875,12539.2275390625,-3632.70458984375,4914.6015625,0.0,18384.45703125,1487.73193359375,20909.30859375,14071.46484375,6090.7998046875,9183.0888671875,18792.947265625,25336.7421875,11953.5126953125,14680.2265625,16090.8701171875,3840.92333984375,24214.5859375,-6359.41845703125,-0.0,0.0,9248.2568359375,3733.635009765625,20271.142578125,13237.0,8405.0498046875,20574.728515625,7363.16064453125,8575.916015625,3496.010986328125,-986.2581787109375,19283.294921875,4754.06640625,14161.26953125,5708.53564453125,2694.1298828125,8866.787109375,10002.4541015625,-381.4697265625,3893.37548828125,-1349.44921875,10698.6357421875,-182.78758239746094,2363.522705078125,-1036.3260498046875,2860.228271484375,2339.680908203125,19434.29296875,2562.205078125,9375.4130859375,-85.8306884765625,7334.55029296875,22258.7578125,18490.15625,13774.2353515625,-0.0,-49812.79296875,15901.7236328125,5349.31787109375,0.0,5822.9765625,0.0,0.0
11049.111328125,9349.1865234375,25778.611328125,7669.130859375,24748.64453125,2029.73681640625,3397.46484375,3384.749267578125,6430.94384765625,3455.47998046875,12535.2548828125,-3637.472900390625,4918.5751953125,0.0,18389.224609375,1492.500244140625,20908.513671875,14073.0546875,6093.97900390625,9190.2421875,18792.947265625,25337.537109375,11954.3076171875,14682.6103515625,16078.1533203125,3838.5390625,24220.1484375,-6355.4443359375,-0.0,6.357828617095947,9248.2568359375,3732.04541015625,20271.142578125,13236.205078125,8404.2548828125,20574.728515625,7365.544921875,8575.916015625,3492.832275390625,-986.2581787109375,19280.91015625,4754.861328125,14162.8583984375,5709.330078125,2700.48779296875,8869.1708984375,10027.8857421875,-379.8802795410156,3895.759521484375,-1347.8597412109375,10701.8154296875,-178.0192108154297,2377.827880859375,-1040.2998046875,2862.612548828125,2342.065185546875,19436.677734375,2566.973388671875,9384.94921875,-81.85704803466797,7331.37109375,22260.34765625,18493.333984375,13786.15625,-0.0,-49813.5859375,15905.69921875,5352.4970703125,0.0,5832.51318359375,0.0,0.0
11059.443359375,9357.9296875,25796.095703125,7677.078125,24770.1015625,2045.63134765625,3418.92236328125,3403.02783203125,6452.40185546875,3479.32177734375,12552.73828125,-3626.3466796875,4937.64892578125,0.0,18406.708984375,1513.1632080078125,20923.615234375,14090.5380859375,6112.25732421875,9214.8779296875,18810.4296875,25354.2265625,11975.765625,14696.916015625,16097.2275390625,3848.87060546875,24243.197265625,-6337.9609375,-0.0,16.689300537109375,9262.5615234375,3744.76123046875,20287.037109375,13250.509765625,8422.5341796875,20592.212890625,7383.8232421875,8594.1953125,3506.342529296875,-962.4163208007812,19299.984375,4766.7822265625,14184.3154296875,5726.814453125,2723.534912109375,8889.0390625,10046.1640625,-370.3435363769531,3921.985595703125,-1333.5545654296875,10724.0673828125,-157.35626220703125,2396.9013671875,-1030.7630615234375,2895.1962890625,2362.72802734375,19447.0078125,2590.815185546875,9404.0234375,-59.604644775390625,7348.85546875,22278.626953125,18512.408203125,13813.177734375,-0.0,-49796.8984375,15899.33984375,5371.57080078125,0.0,5858.7392578125,0.0,0.0
