10983.1494140625,9530.384765625,25823.1171875,7743.04052734375,24709.701171875,2099.673095703125,3372.828125,3453.890625,6451.60693359375,3446.738037109375,12518.5654296875,-3698.666748046875,5043.34765625,0.0,18332.80078125,1546.5418701171875,20894.208984375,14115.9697265625,6083.6474609375,9146.53125,18769.10546875,25304.953125,12005.96484375,14717.5791015625,16077.3603515625,3815.491943359375,24185.1796875,-6318.88720703125,-0.0,282.9233703613281,9218.8515625,3933.906494140625,20309.2890625,13223.4892578125,8449.5546875,20534.197265625,7333.75537109375,8571.9423828125,3622.372802734375,-917.1168212890625,19245.1484375,4805.7236328125,14096.896484375,5712.50927734375,2715.587646484375,8947.0546875,9997.685546875,-298.0232238769531,3890.196533203125,-1286.66552734375,10707.3779296875,-115.23564910888672,2461.2744140625,-882.9434814453125,2879.3017578125,2146.561767578125,19405.68359375,2455.71142578125,9361.107421875,-21.457672119140625,7307.529296875,22254.78515625,18479.029296875,13563.6328125,-0.0,-49742.0625,15861.1923828125,5265.87158203125,0.0,5804.69775390625,0.0,0.0
10977.5859375,9507.3388671875,25814.375,7726.35107421875,24700.9609375,2089.34130859375,3363.29150390625,3444.353759765625,6438.89111328125,3438.79052734375,12567.04296875,-3707.408935546875,5025.06884765625,0.0,18322.46875,1537.005126953125,20886.263671875,14108.021484375,6073.31591796875,9136.994140625,18762.74609375,25296.2109375,11995.6328125,14709.6318359375,16075.76953125,3789.265869140625,24170.875,-6329.21826171875,-0.0,268.6182556152344,9210.904296875,3925.164794921875,20302.13671875,13216.3359375,8440.8125,20523.8671875,7325.013671875,8563.201171875,3639.85693359375,-936.1903076171875,19239.583984375,4793.802734375,14086.564453125,5703.76708984375,2705.256103515625,8935.9287109375,9987.3544921875,-307.5599670410156,3877.480712890625,-1290.6392822265625,10697.046875,-123.9776611328125,2476.374267578125,-894.0697021484375,2868.97021484375,2132.2568359375,19392.171875,2444.585205078125,9348.392578125,-30.19968605041504,7297.19775390625,22245.248046875,18467.107421875,13550.1220703125,-0.0,-49757.1640625,15862.783203125,5254.74560546875,0.0,5796.75048828125,0.0,0.0
10990.3017578125,9493.033203125,25811.1953125,7707.27783203125,24696.984375,2079.010009765625,3360.9072265625,3441.1748046875,6434.91748046875,3438.79052734375,12593.26953125,-3709.79296875,5019.505859375,0.0,18316.111328125,1529.8525390625,20882.287109375,14102.458984375,6071.7265625,9133.8154296875,18758.7734375,25290.6484375,11995.6328125,14704.86328125,16063.0546875,3766.218994140625,24166.107421875,-6337.9609375,-0.0,264.6446228027344,9207.7255859375,3922.780517578125,20298.95703125,13213.1572265625,8438.427734375,20519.09765625,7323.423828125,8559.2265625,3673.235595703125,-934.600830078125,19234.81640625,4781.08740234375,14082.5908203125,5698.2041015625,2702.8720703125,8934.3388671875,9996.890625,-316.3019714355469,3871.917724609375,-1306.5338134765625,10694.6630859375,-123.18293762207031,2484.321533203125,-909.9642333984375,2864.99658203125,2131.462158203125,19388.19921875,2447.76416015625,9344.4189453125,-30.19968605041504,7308.32421875,22242.865234375,18466.314453125,13543.7646484375,-0.0,-49753.1875,15858.80859375,5259.513671875,0.0,5806.287109375,0.0,0.0
11009.3759765625,9513.6953125,25816.759765625,7712.8408203125,24703.34375,2080.599609375,3368.8544921875,3446.738037109375,6439.68603515625,3441.9697265625,12608.369140625,-3701.051025390625,5021.89013671875,0.0,18320.87890625,1540.978759765625,20891.03125,14110.40625,6078.08447265625,9136.994140625,18765.92578125,25297.005859375,12003.5810546875,14711.220703125,16059.080078125,3772.57666015625,24175.64453125,-6336.37109375,-0.0,277.36029052734375,9217.2626953125,3931.5224609375,20307.69921875,13217.92578125,8446.3759765625,20524.66015625,7328.1923828125,8565.5849609375,3696.28271484375,-935.3955688476562,19241.173828125,4789.0341796875,14090.5380859375,5700.58837890625,2710.024658203125,8940.6962890625,10005.6337890625,-315.50726318359375,3879.0703125,-1303.3548583984375,10701.0205078125,-116.0303726196289,2483.52685546875,-905.1958618164062,2875.328125,2137.820068359375,19391.37890625,2460.479736328125,9349.1865234375,-27.02077293395996,7327.39794921875,22250.017578125,18471.876953125,13542.9697265625,-0.0,-49743.65234375,15848.478515625,5271.4345703125,0.0,5812.64501953125,0.0,0.0
11037.1904296875,9531.974609375,25826.294921875,7727.14599609375,24719.23828125,2096.493896484375,3381.570068359375,3451.50634765625,6450.017578125,3445.1484375,12609.958984375,-3701.845947265625,5040.1689453125,0.0,18335.18359375,1540.18408203125,20902.953125,14121.5322265625,6085.23681640625,9146.53125,18777.84765625,25309.720703125,12016.296875,14722.34765625,16073.384765625,3801.186767578125,24196.306640625,-6326.833984375,-0.0,274.1813659667969,9230.7734375,3939.4697265625,20317.236328125,13230.6416015625,8459.8857421875,20536.580078125,7340.11328125,8573.5322265625,3702.640625,-911.5537109375,19253.095703125,4808.90283203125,14104.8427734375,5707.74072265625,2721.150634765625,8945.46484375,9992.123046875,-297.2284851074219,3900.52783203125,-1288.255126953125,10714.53125,-114.44091796875,2466.837646484375,-895.6591186523438,2885.659423828125,2142.58837890625,19404.09375,2465.248046875,9361.107421875,-27.02077293395996,7333.75537109375,22259.5546875,18480.619140625,13556.48046875,-0.0,-49744.4453125,15850.0673828125,5259.513671875,0.0,5799.92919921875,0.0,0.0
11049.90625,9550.25390625,25844.57421875,7743.04052734375,24729.5703125,2108.414794921875,3395.875244140625,3466.606201171875,6468.2958984375,3462.63232421875,12620.2900390625,-3692.30908203125,5048.91064453125,0.0,18347.8984375,1553.6943359375,20914.873046875,14139.0166015625,6100.33642578125,9164.810546875,18789.767578125,25326.41015625,12030.6015625,14735.8583984375,16072.591796875,3811.518310546875,24213.791015625,-6312.529296875,-0.0,290.075927734375,9242.6943359375,3949.006591796875,20329.15625,13244.9462890625,8474.986328125,20552.4765625,7356.0078125,8588.6318359375,3689.925048828125,-882.9434814453125,19264.220703125,4820.82373046875,14115.9697265625,5722.0458984375,2735.455810546875,8960.564453125,9998.48046875,-271.79718017578125,3905.29638671875,-1276.3341064453125,10728.0419921875,-101.72525787353516,2470.0166015625,-879.7645263671875,2903.938232421875,2151.330322265625,19411.24609375,2467.63232421875,9374.6181640625,-11.920928955078125,7345.67626953125,22274.65234375,18497.30859375,13579.5283203125,-0.0,-49732.5234375,15861.1923828125,5274.61376953125,0.0,5822.9765625,0.0,0.0
11024.474609375,9552.6376953125,25857.291015625,7745.4248046875,24729.5703125,2094.10986328125,3389.517578125,3465.8115234375,6464.32275390625,3461.837890625,12618.701171875,-3681.182861328125,5059.2421875,0.0,18343.130859375,1558.4627685546875,20910.8984375,14135.837890625,6098.7470703125,9162.42578125,18790.564453125,25320.052734375,12028.2177734375,14732.6787109375,16080.5380859375,3798.802734375,24199.486328125,-6315.7080078125,-0.0,302.7915954589844,9241.8984375,3942.6484375,20329.953125,13240.9736328125,8474.986328125,20544.529296875,7352.8291015625,8586.2470703125,3639.062255859375,-890.0960083007812,19266.60546875,4802.544921875,14113.5859375,5717.27734375,2733.071533203125,8960.564453125,10019.1435546875,-274.1813659667969,3898.9384765625,-1283.4866943359375,10724.0673828125,-100.13580322265625,2475.57958984375,-874.2014770507812,2903.1435546875,2164.046142578125,19404.09375,2466.837646484375,9370.64453125,-8.74201488494873,7343.2919921875,22272.267578125,18495.71875,13574.759765625,-0.0,-49722.1953125,15860.3994140625,5278.58740234375,0.0,5827.7451171875,0.0,0.0
11010.96484375,9539.126953125,25839.009765625,7745.4248046875,24724.802734375,2090.13623046875,3380.775390625,3453.890625,6450.81201171875,3447.53271484375,12613.9326171875,-3693.103759765625,5067.98388671875,0.0,18332.00390625,1539.3892822265625,20904.541015625,14127.890625,6087.62109375,9146.53125,18784.205078125,25314.490234375,12021.064453125,14723.1416015625,16074.1806640625,3798.008056640625,24189.94921875,-6327.62890625,-0.0,291.6654052734375,9234.74609375,3941.05908203125,20323.595703125,13235.41015625,8467.833984375,20538.96484375,7344.88134765625,8576.7109375,3647.80419921875,-896.453857421875,19257.068359375,4800.16064453125,14108.021484375,5709.330078125,2721.945556640625,8947.849609375,10015.96484375,-282.128662109375,3887.812255859375,-1291.4339599609375,10713.736328125,-114.44091796875,2497.83203125,-882.1487426757812,2902.348876953125,2149.740966796875,19392.966796875,2452.532470703125,9359.5185546875,-21.457672119140625,7332.96044921875,22264.322265625,18483.796875,13554.0966796875,-0.0,-49737.29296875,15852.451171875,5258.71875,0.0,5802.3134765625,0.0,0.0
11006.1962890625,9521.6435546875,25818.34765625,7731.91455078125,24708.11328125,2085.367919921875,3370.444091796875,3442.76416015625,6434.12255859375,3432.432861328125,12597.2431640625,-3708.20361328125,5048.91064453125,0.0,18320.083984375,1521.9052734375,20895.798828125,14116.763671875,6076.49462890625,9129.841796875,18769.10546875,25304.158203125,12009.9384765625,14712.810546875,16065.439453125,3790.060791015625,24191.537109375,-6337.166015625,-0.0,275.77081298828125,9222.0302734375,3933.906494140625,20312.466796875,13223.4892578125,8455.912109375,20530.224609375,7331.37109375,8565.5849609375,3670.056640625,-895.6591186523438,19242.763671875,4793.802734375,14094.51171875,5701.38330078125,2709.229736328125,8935.9287109375,10005.6337890625,-293.2548522949219,3882.2490234375,-1296.9970703125,10706.583984375,-127.95130920410156,2501.010986328125,-901.2222290039062,2897.580322265625,2136.23046875,19386.609375,2435.04833984375,9346.0078125,-36.55751419067383,7313.0927734375,22252.400390625,18468.69921875,13531.84375,-0.0,-49759.546875,15842.9150390625,5242.82470703125,0.0,5783.23974609375,0.0,0.0
10995.0703125,9504.9541015625,25812.78515625,7719.19873046875,24703.34375,2079.010009765625,3368.059814453125,3437.201171875,6427.7646484375,3420.511962890625,12585.322265625,-3715.356201171875,5037.78466796875,0.0,18317.69921875,1511.57373046875,20887.8515625,14112.7900390625,6071.7265625,9121.1005859375,18761.158203125,25297.005859375,12006.759765625,14708.0419921875,16059.080078125,3784.49755859375,24185.9765625,-6344.318359375,-0.0,266.23406982421875,9215.6728515625,3922.780517578125,20306.111328125,13217.1318359375,8450.3486328125,20526.25,7327.39794921875,8560.81640625,3676.41455078125,-911.5537109375,19234.81640625,4791.41845703125,14091.33203125,5696.61474609375,2703.666748046875,8928.775390625,10008.017578125,-313.91778564453125,3874.302001953125,-1299.3812255859375,10704.994140625,-137.48805236816406,2477.963623046875,-921.8851928710938,2881.68603515625,2128.283203125,19389.787109375,2428.690673828125,9342.0341796875,-46.88898849487305,7294.8134765625,22250.017578125,18461.546875,13518.3330078125,-0.0,-49765.90234375,15841.326171875,5230.10888671875,0.0,5763.3720703125,0.0,0.0
10996.6591796875,9502.5703125,25812.78515625,7716.02001953125,24702.548828125,2076.625732421875,3365.67578125,3438.79052734375,6429.35400390625,3420.511962890625,12590.884765625,-3710.587646484375,5044.14208984375,0.0,18319.2890625,1513.1632080078125,20888.646484375,14112.7900390625,6070.93212890625,9122.689453125,18761.158203125,25297.80078125,12006.759765625,14708.0419921875,16060.6708984375,3767.013671875,24171.671875,-6343.5234375,-0.0,263.05517578125,9216.4677734375,3918.806640625,20306.111328125,13217.92578125,8449.5546875,20527.83984375,7326.60302734375,8563.201171875,3685.951171875,-927.4482421875,19236.40625,4792.21337890625,14088.154296875,5695.81982421875,2703.666748046875,8927.185546875,9994.5068359375,-329.8123779296875,3883.0439453125,-1307.32861328125,10699.431640625,-135.89859008789062,2460.479736328125,-919.5009765625,2869.76513671875,2124.3095703125,19399.32421875,2439.816650390625,9343.6240234375,-49.27317428588867,7294.01904296875,22250.017578125,18463.134765625,13524.69140625,-0.0,-49757.1640625,15841.326171875,5234.08251953125,0.0,5760.98779296875,0.0,0.0
11020.5009765625,9512.9013671875,25822.3203125,7726.35107421875,24705.728515625,2081.394287109375,3364.086181640625,3442.76416015625,6438.89111328125,3428.459228515625,12604.3955078125,-3703.435302734375,5058.447265625,0.0,18325.646484375,1519.5211181640625,20894.208984375,14116.763671875,6074.9052734375,9133.021484375,18767.515625,25300.18359375,12008.349609375,14712.015625,16073.384765625,3751.118896484375,24166.107421875,-6338.75537109375,-0.0,267.82354736328125,9219.646484375,3924.369873046875,20310.87890625,13222.6943359375,8454.3232421875,20529.427734375,7329.7822265625,8570.353515625,3705.024658203125,-924.2693481445312,19241.96875,4789.8291015625,14082.5908203125,5699.79345703125,2707.640380859375,8933.5439453125,9996.890625,-311.5335998535156,3900.52783203125,-1310.5074462890625,10696.251953125,-128.74603271484375,2470.81103515625,-905.9906005859375,2884.070068359375,2140.998779296875,19412.8359375,2447.76416015625,9352.3662109375,-42.91534423828125,7310.70849609375,22254.78515625,18468.69921875,13542.9697265625,-0.0,-49750.8046875,15844.5029296875,5242.02978515625,0.0,5768.9345703125,0.0,0.0
11045.138671875,9539.921875,25831.857421875,7754.96142578125,24724.802734375,2107.6201171875,3390.312255859375,3471.37451171875,6472.26953125,3465.8115234375,12613.9326171875,-3684.36181640625,5060.83154296875,0.0,18348.693359375,1548.13134765625,20909.30859375,14135.837890625,6101.13134765625,9167.9892578125,18784.205078125,25320.84765625,12029.806640625,14738.2421875,16086.1015625,3807.544677734375,24186.76953125,-6316.5029296875,-0.0,286.89703369140625,9237.92578125,3946.622314453125,20324.388671875,13241.767578125,8473.396484375,20552.4765625,7356.80224609375,8594.990234375,3648.598876953125,-894.0697021484375,19257.86328125,4812.08203125,14105.6376953125,5728.40380859375,2734.6611328125,8962.94921875,10006.427734375,-271.00244140625,3906.8857421875,-1283.4866943359375,10721.68359375,-100.93053436279297,2493.063720703125,-884.532958984375,2902.348876953125,2168.814453125,19419.193359375,2465.248046875,9384.94921875,-8.74201488494873,7342.49755859375,22280.216796875,18498.8984375,13586.6806640625,-0.0,-49732.5234375,15863.5771484375,5280.9716796875,0.0,5817.4130859375,0.0,0.0
11021.296875,9542.3056640625,25823.912109375,7755.75634765625,24721.623046875,2117.95166015625,3393.490966796875,3480.9111328125,6477.8330078125,3475.34814453125,12594.0634765625,-3682.7724609375,5054.4736328125,0.0,18349.48828125,1558.4627685546875,20907.720703125,14139.8115234375,6106.69482421875,9176.7314453125,18783.41015625,25324.822265625,12032.19140625,14744.599609375,16073.384765625,3823.439453125,24190.744140625,-6307.7607421875,-0.0,295.6390380859375,9239.5146484375,3942.6484375,20322.00390625,13241.767578125,8474.986328125,20558.0390625,7361.57080078125,8599.7578125,3623.96240234375,-900.427490234375,19253.888671875,4820.82373046875,14108.8173828125,5736.35107421875,2738.634765625,8970.896484375,9995.30078125,-267.02880859375,3898.9384765625,-1266.002685546875,10724.0673828125,-92.98324584960938,2484.321533203125,-883.7382202148438,2890.427734375,2177.556396484375,19416.80859375,2466.042724609375,9384.1552734375,3.1789143085479736,7333.75537109375,22284.189453125,18504.4609375,13600.1904296875,-0.0,-49727.7578125,15864.3720703125,5292.09765625,0.0,5833.3076171875,0.0,0.0
11000.6328125,9531.1806640625,25816.759765625,7730.3251953125,24711.291015625,2110.00439453125,3380.775390625,3470.579833984375,6461.9384765625,3457.0693359375,12585.322265625,-3694.693359375,5039.3740234375,0.0,18335.18359375,1544.1575927734375,20898.18359375,14131.86328125,6097.15771484375,9160.8359375,18773.078125,25314.490234375,12023.44921875,14735.0625,16057.4912109375,3815.491943359375,24179.6171875,-6315.7080078125,-0.0,279.7444763183594,9229.9775390625,3932.317138671875,20313.263671875,13231.4365234375,8465.44921875,20548.501953125,7350.44482421875,8588.6318359375,3647.009521484375,-913.9378662109375,19243.55859375,4812.08203125,14097.6904296875,5727.609375,2726.7138671875,8960.564453125,9993.712890625,-287.6917419433594,3887.017578125,-1268.3868408203125,10712.146484375,-105.69890594482422,2488.29541015625,-894.0697021484375,2865.791259765625,2160.072265625,19404.888671875,2451.737548828125,9365.8759765625,-9.5367431640625,7321.03955078125,22273.064453125,18490.15625,13577.9384765625,-0.0,-49741.26953125,15855.630859375,5256.3349609375,0.0,5795.95556640625,0.0,0.0
11022.0908203125,9552.6376953125,25841.39453125,7757.345703125,24736.72265625,2126.69384765625,3400.6435546875,3488.063720703125,6481.80615234375,3476.9375,12603.6005859375,-3678.798583984375,5064.0107421875,0.0,18353.462890625,1560.846923828125,20917.2578125,14151.732421875,6116.2314453125,9178.3212890625,18796.919921875,25331.974609375,12046.49609375,14754.1357421875,16088.4853515625,3825.823486328125,24202.666015625,-6297.4296875,-0.0,313.91778564453125,9250.640625,3952.18505859375,20334.720703125,13252.0986328125,8486.9072265625,20566.78125,7371.107421875,8608.5,3667.67236328125,-886.9171142578125,19268.193359375,4829.5654296875,14118.353515625,5747.47705078125,2745.787353515625,8978.84375,10006.427734375,-264.6446228027344,3914.8330078125,-1255.671142578125,10732.8095703125,-88.21487426757812,2504.984619140625,-866.254150390625,2891.22265625,2166.43017578125,19420.78125,2475.57958984375,9384.94921875,3.9736428260803223,7343.2919921875,22295.31640625,18510.0234375,13599.3955078125,-0.0,-49721.40234375,15866.7568359375,5273.81884765625,0.0,5811.85009765625,0.0,0.0
11006.9912109375,9538.3330078125,25839.8046875,7754.96142578125,24731.955078125,2116.3623046875,3395.08056640625,3480.11669921875,6475.44873046875,3470.579833984375,12607.57421875,-3676.41455078125,5064.8056640625,0.0,18348.693359375,1555.283935546875,20911.693359375,14142.990234375,6108.2841796875,9171.16796875,18790.564453125,25324.822265625,12040.138671875,14746.9833984375,16096.43359375,3810.7236328125,24201.07421875,-6305.37646484375,-0.0,307.5599670410156,9243.48828125,3945.827392578125,20329.953125,13245.7421875,8478.1650390625,20559.62890625,7363.16064453125,8601.34765625,3661.314697265625,-912.3484497070312,19263.42578125,4819.234375,14111.99609375,5738.7353515625,2741.01904296875,8970.1015625,10015.169921875,-274.9761047363281,3915.6279296875,-1273.949951171875,10728.0419921875,-95.367431640625,2492.268798828125,-884.532958984375,2899.964599609375,2160.866943359375,19416.80859375,2474.784912109375,9379.38671875,-6.357828617095947,7328.1923828125,22288.95703125,18503.666015625,13591.44921875,-0.0,-49723.78515625,15859.603515625,5267.46142578125,0.0,5805.4921875,0.0,0.0
10977.5859375,9531.974609375,25834.2421875,7741.451171875,24722.41796875,2114.772705078125,3387.927978515625,3475.34814453125,6467.5009765625,3465.0166015625,12597.2431640625,-3689.130126953125,5052.884765625,0.0,18343.130859375,1552.10498046875,20909.30859375,14137.427734375,6098.7470703125,9166.400390625,18785.0,25321.642578125,12032.9853515625,14740.6259765625,16080.5380859375,3812.31298828125,24189.94921875,-6309.3505859375,-0.0,276.5655517578125,9238.7197265625,3944.23828125,20325.18359375,13237.7939453125,8471.01171875,20553.26953125,7354.41845703125,8594.990234375,3678.00390625,-913.1431884765625,19253.888671875,4817.64453125,14101.6640625,5733.966796875,2733.866455078125,8965.3330078125,10023.1171875,-283.7181091308594,3897.34912109375,-1277.1287841796875,10720.888671875,-100.93053436279297,2477.1689453125,-897.2485961914062,2880.096435546875,2157.688232421875,19410.451171875,2469.221923828125,9373.0283203125,-10.33147144317627,7319.4501953125,22282.599609375,18495.71875,13580.322265625,-0.0,-49731.73046875,15859.603515625,5264.2822265625,0.0,5807.87646484375,0.0,0.0
10973.6123046875,9534.359375,25836.626953125,7741.451171875,24719.23828125,2113.183349609375,3384.749267578125,3475.34814453125,6464.32275390625,3462.63232421875,12597.2431640625,-3693.8984375,5051.294921875,0.0,18338.361328125,1549.720703125,20909.30859375,14134.248046875,6097.9521484375,9164.810546875,18784.205078125,25318.46484375,12031.3955078125,14739.0361328125,16078.94921875,3812.31298828125,24185.9765625,-6308.5556640625,-0.0,286.89703369140625,9239.5146484375,3941.85400390625,20327.568359375,13238.5888671875,8470.2177734375,20550.88671875,7353.6240234375,8594.1953125,3674.0302734375,-896.453857421875,19255.48046875,4817.64453125,14098.4853515625,5732.37744140625,2731.482177734375,8962.94921875,10022.322265625,-286.102294921875,3890.9912109375,-1276.3341064453125,10716.9150390625,-103.3147201538086,2460.479736328125,-893.2749633789062,2880.89111328125,2156.8935546875,19404.09375,2465.248046875,9369.8505859375,-7.9472856521606445,7320.2451171875,22280.216796875,18494.923828125,13577.9384765625,-0.0,-49738.8828125,15861.98828125,5262.69287109375,0.0,5810.2607421875,0.0,0.0
10978.380859375,9523.232421875,25827.884765625,7731.11962890625,24712.880859375,2096.493896484375,3374.41748046875,3460.248291015625,6455.580078125,3450.71142578125,12594.859375,-3702.640625,5039.3740234375,0.0,18330.416015625,1535.4156494140625,20897.388671875,14123.9169921875,6085.23681640625,9155.2734375,18773.078125,25308.1328125,12021.064453125,14727.115234375,16081.3330078125,3791.650146484375,24179.6171875,-6325.2451171875,-0.0,284.5128479003906,9226.0048828125,3927.548828125,20315.646484375,13228.2568359375,8460.6806640625,20538.171875,7340.908203125,8578.30078125,3646.21484375,-909.1694946289062,19249.12109375,4806.5185546875,14088.9482421875,5718.072265625,2719.561279296875,8950.2333984375,10011.1962890625,-308.3547058105469,3889.401611328125,-1289.844482421875,10708.9677734375,-117.61983489990234,2445.3798828125,-902.0169677734375,2890.427734375,2141.79345703125,19395.3515625,2447.76416015625,9359.5185546875,-21.457672119140625,7310.70849609375,22267.5,18481.412109375,13569.9912109375,-0.0,-49750.01171875,15866.7568359375,5245.208984375,0.0,5795.16064453125,0.0,0.0
11001.427734375,9522.4384765625,25824.705078125,7732.70947265625,24711.291015625,2102.851806640625,3375.21240234375,3462.63232421875,6455.580078125,3452.301025390625,12586.1171875,-3709.79296875,5039.3740234375,0.0,18331.208984375,1537.005126953125,20900.568359375,14131.86328125,6086.826171875,9155.2734375,18773.875,25313.6953125,12019.474609375,14729.5,16071.796875,3793.239501953125,24183.591796875,-6320.4765625,-0.0,264.6446228027344,9229.18359375,3928.34326171875,20317.236328125,13231.4365234375,8460.6806640625,20542.939453125,7343.2919921875,8583.86328125,3647.80419921875,-904.401123046875,19243.55859375,4819.234375,14088.9482421875,5721.2509765625,2719.561279296875,8952.6171875,10003.2490234375,-301.9968566894531,3883.838623046875,-1285.870849609375,10708.1728515625,-114.44091796875,2456.506103515625,-902.0169677734375,2876.91748046875,2134.640869140625,19397.736328125,2450.94287109375,9359.5185546875,-18.278757095336914,7310.70849609375,22267.5,18484.591796875,13569.9912109375,-0.0,-49748.421875,15863.5771484375,5248.3876953125,0.0,5795.95556640625,0.0,0.0
11022.0908203125,9523.232421875,25822.3203125,7738.27197265625,24712.0859375,2109.209716796875,3383.15966796875,3473.7587890625,6464.32275390625,3466.606201171875,12580.5537109375,-3704.22998046875,5040.9638671875,0.0,18336.7734375,1554.4891357421875,20907.720703125,14137.427734375,6096.36328125,9165.6044921875,18778.642578125,25319.2578125,12023.44921875,14737.447265625,16067.8232421875,3800.39208984375,24185.1796875,-6308.5556640625,-0.0,285.30755615234375,9235.541015625,3934.701416015625,20322.798828125,13238.5888671875,8465.44921875,20550.88671875,7350.44482421875,8595.7841796875,3650.983154296875,-891.6854858398438,19245.1484375,4818.439453125,14092.921875,5731.58251953125,2725.9189453125,8962.94921875,9993.712890625,-277.36029052734375,3881.45458984375,-1277.1287841796875,10713.736328125,-100.13580322265625,2477.963623046875,-896.453857421875,2872.149169921875,2145.76708984375,19399.32421875,2465.248046875,9367.4658203125,-3.9736428260803223,7321.83447265625,22275.447265625,18494.923828125,13575.5537109375,-0.0,-49746.828125,15858.80859375,5275.408203125,0.0,5826.9501953125,0.0,0.0
11052.291015625,9544.6904296875,25842.189453125,7753.3720703125,24735.1328125,2125.899169921875,3403.02783203125,3496.805908203125,6491.34326171875,3492.03759765625,12618.701171875,-3670.8515625,5060.83154296875,0.0,18352.666015625,1578.3310546875,20928.3828125,14154.1162109375,6118.61572265625,9193.419921875,18800.89453125,25339.126953125,12044.1123046875,14757.3154296875,16098.8173828125,3823.439453125,24197.1015625,-6289.48193359375,-0.0,313.91778564453125,9256.9990234375,3957.74853515625,20343.462890625,13257.6630859375,8486.111328125,20573.138671875,7372.697265625,8614.857421875,3668.46728515625,-869.43310546875,19268.990234375,4826.38671875,14111.99609375,5751.451171875,2746.58203125,8984.40625,10026.2958984375,-255.90261840820312,3902.117431640625,-1255.671142578125,10732.0146484375,-77.8833999633789,2509.7529296875,-878.1751098632812,2895.990966796875,2178.35107421875,19415.220703125,2488.29541015625,9389.7177734375,17.48402976989746,7352.8291015625,22296.90625,18517.970703125,13608.9326171875,-0.0,-49721.40234375,15870.7294921875,5297.66064453125,0.0,5850.7919921875,0.0,0.0
11046.7275390625,9555.0224609375,25851.7265625,7762.9091796875,24741.4921875,2129.87255859375,3406.206787109375,3497.6005859375,6493.72705078125,3488.063720703125,12631.416015625,-3657.341064453125,5069.57373046875,0.0,18356.642578125,1576.7415771484375,20933.947265625,14158.08984375,6122.5888671875,9194.21484375,18804.869140625,25346.279296875,12046.49609375,14760.494140625,16104.3798828125,3830.591796875,24198.689453125,-6287.09814453125,-0.0,304.38104248046875,9263.3564453125,3960.927490234375,20346.640625,13264.01953125,8490.8798828125,20577.908203125,7375.08154296875,8617.2421875,3676.41455078125,-871.0225219726562,19277.73046875,4837.51318359375,14115.9697265625,5751.451171875,2750.5556640625,8985.2021484375,10021.52734375,-263.05517578125,3906.8857421875,-1257.2606201171875,10735.98828125,-77.8833999633789,2497.83203125,-861.4857788085938,2910.296142578125,2192.65625,19421.578125,2490.679443359375,9392.8974609375,16.689300537109375,7357.59716796875,22300.87890625,18517.970703125,13612.90625,-0.0,-49712.65625,15872.3203125,5284.94482421875,0.0,5830.12890625,0.0,0.0
11049.111328125,9565.353515625,25859.673828125,7776.4189453125,24750.232421875,2137.820068359375,3413.359375,3503.16357421875,6496.90625,3493.626953125,12636.9794921875,-3655.75146484375,5076.7265625,0.0,18362.998046875,1582.3045654296875,20944.27734375,14166.83203125,6129.74169921875,9198.1884765625,18813.609375,25355.81640625,12054.443359375,14767.646484375,16112.3271484375,3844.10205078125,24210.611328125,-6278.35595703125,-0.0,311.5335998535156,9271.3037109375,3971.258544921875,20355.3828125,13274.3525390625,8498.828125,20585.85546875,7380.64453125,8622.8056640625,3687.540771484375,-865.45947265625,19284.8828125,4847.8447265625,14124.7109375,5756.21923828125,2756.11865234375,8990.7646484375,10020.732421875,-255.10787963867188,3914.0380859375,-1255.671142578125,10744.73046875,-69.93611907958984,2508.9580078125,-847.1806640625,2930.164306640625,2193.450927734375,19428.73046875,2499.42138671875,9396.87109375,22.25240135192871,7361.57080078125,22308.03125,18524.328125,13615.291015625,-0.0,-49708.68359375,15876.29296875,5299.25,0.0,5833.3076171875,0.0,0.0
11034.01171875,9555.81640625,25850.138671875,7759.72998046875,24743.080078125,2126.69384765625,3403.82275390625,3492.832275390625,6482.60107421875,3482.500732421875,12574.990234375,-3664.49365234375,5065.60009765625,0.0,18354.2578125,1574.357421875,20933.150390625,14156.5009765625,6117.82080078125,9187.0625,18804.07421875,25345.484375,12042.5224609375,14756.5205078125,16105.970703125,3828.207763671875,24204.25390625,-6287.09814453125,-0.0,304.38104248046875,9260.9716796875,3956.95361328125,20344.2578125,13260.841796875,8488.49609375,20574.728515625,7368.7236328125,8611.6787109375,3664.49365234375,-883.7382202148438,19277.73046875,4835.12890625,14115.9697265625,5748.27197265625,2744.19775390625,8979.6376953125,10011.1962890625,-260.6709899902344,3910.064697265625,-1264.4132080078125,10735.1943359375,-77.8833999633789,2477.1689453125,-864.6647338867188,2915.064453125,2175.967041015625,19422.373046875,2490.679443359375,9386.5390625,12.715657234191895,7351.23974609375,22296.90625,18512.408203125,13598.6015625,-0.0,-49713.453125,15877.0888671875,5289.71337890625,0.0,5829.33447265625,0.0,0.0
11018.1171875,9534.359375,25840.6015625,7748.60400390625,24734.337890625,2114.772705078125,3396.670166015625,3481.705810546875,6473.064453125,3472.964111328125,12564.6591796875,-3674.0302734375,5052.08984375,0.0,18345.513671875,1567.99951171875,20922.025390625,14146.1689453125,6105.89990234375,9175.1416015625,18793.7421875,25333.5625,12029.806640625,14746.189453125,16090.07421875,3817.08154296875,24197.896484375,-6298.22412109375,-0.0,296.43377685546875,9249.05078125,3945.827392578125,20332.3359375,13247.3310546875,8477.3701171875,20564.3984375,7357.59716796875,8602.142578125,3685.156494140625,-910.7589721679688,19265.810546875,4822.4130859375,14107.2275390625,5737.14599609375,2733.866455078125,8968.5126953125,10026.2958984375,-265.4393615722656,3902.912109375,-1274.74462890625,10726.4521484375,-87.4201431274414,2448.558837890625,-876.5856323242188,2899.964599609375,2156.0986328125,19411.24609375,2481.142822265625,9378.5927734375,0.7947285771369934,7344.88134765625,22288.1640625,18502.076171875,13586.6806640625,-0.0,-49722.1953125,15873.9091796875,5275.408203125,0.0,5820.59228515625,0.0,0.0
11006.9912109375,9522.4384765625,25841.39453125,7748.60400390625,24731.16015625,2109.209716796875,3394.285888671875,3480.9111328125,6471.47509765625,3474.553466796875,12613.1376953125,-3681.9775390625,5050.50048828125,0.0,18345.513671875,1568.794189453125,20916.462890625,14141.400390625,6103.515625,9175.1416015625,18790.564453125,25330.384765625,12025.0390625,14743.8046875,16087.6904296875,3813.902587890625,24198.689453125,-6302.9921875,-0.0,296.43377685546875,9243.48828125,3941.85400390625,20329.15625,13244.15234375,8472.6015625,20561.21875,7356.0078125,8599.7578125,3673.235595703125,-892.480224609375,19266.60546875,4818.439453125,14105.6376953125,5733.966796875,2730.6875,8969.306640625,10031.064453125,-260.6709899902344,3905.29638671875,-1278.7183837890625,10724.8623046875,-89.00960540771484,2450.94287109375,-872.6119995117188,2902.348876953125,2152.919677734375,19409.65625,2476.374267578125,9377.0029296875,5.563100337982178,7344.0869140625,22282.599609375,18500.486328125,13588.26953125,-0.0,-49729.34765625,15858.0146484375,5281.7666015625,0.0,5827.7451171875,0.0,0.0
11010.169921875,9525.6162109375,25839.009765625,7738.27197265625,24727.185546875,2104.44140625,3390.312255859375,3476.142822265625,6468.2958984375,3471.37451171875,12609.1640625,-3691.51416015625,5056.85791015625,0.0,18342.3359375,1559.257568359375,20912.48828125,14136.6318359375,6101.13134765625,9174.3466796875,18785.794921875,25326.41015625,12019.474609375,14739.0361328125,16078.94921875,3808.33935546875,24197.1015625,-6307.7607421875,-0.0,294.0495910644531,9239.5146484375,3937.085693359375,20327.568359375,13240.9736328125,8467.833984375,20558.833984375,7352.8291015625,8595.7841796875,3634.293701171875,-886.1223754882812,19258.658203125,4814.4658203125,14100.869140625,5728.40380859375,2729.09814453125,8967.716796875,10021.52734375,-262.26043701171875,3902.117431640625,-1286.66552734375,10723.2734375,-96.16216278076172,2479.55322265625,-879.7645263671875,2885.659423828125,2159.277587890625,19412.041015625,2468.427001953125,9375.4130859375,3.9736428260803223,7339.31884765625,22278.626953125,18496.513671875,13583.5009765625,-0.0,-49738.8828125,15851.65625,5276.998046875,0.0,5823.77099609375,0.0,0.0
11035.6015625,9561.3798828125,25851.7265625,7762.9091796875,24743.080078125,2123.514892578125,3405.411865234375,3496.010986328125,6483.39599609375,3490.447998046875,12631.416015625,-3670.056640625,5078.31591796875,0.0,18355.845703125,1579.125732421875,20930.767578125,14153.3212890625,6118.61572265625,9189.4462890625,18801.689453125,25346.279296875,12034.5751953125,14756.5205078125,16090.8701171875,3830.591796875,24207.43359375,-6285.5087890625,-0.0,315.50726318359375,9258.587890625,3957.74853515625,20345.052734375,13260.046875,8482.9326171875,20577.908203125,7368.7236328125,8610.884765625,3687.540771484375,-867.8436279296875,19272.962890625,4834.333984375,14115.9697265625,5746.6826171875,2744.19775390625,8985.2021484375,10036.6279296875,-241.5974884033203,3914.0380859375,-1264.4132080078125,10737.578125,-78.67813110351562,2530.415771484375,-857.5121459960938,2907.912109375,2179.145751953125,19422.373046875,2489.884521484375,9389.7177734375,22.25240135192871,7348.85546875,22296.109375,18515.5859375,13597.8056640625,-0.0,-49715.8359375,15866.7568359375,5289.71337890625,0.0,5834.1025390625,0.0,0.0
11026.859375,9570.916015625,25857.291015625,7773.24072265625,24751.02734375,2133.051513671875,3413.359375,3506.342529296875,6490.548828125,3499.98486328125,12640.953125,-3659.72509765625,5083.083984375,0.0,18365.3828125,1591.046630859375,20937.125,14161.26953125,6127.357421875,9198.9833984375,18808.841796875,25354.2265625,12040.9326171875,14766.8525390625,16106.763671875,3842.512939453125,24214.5859375,-6277.56103515625,-0.0,321.0703430175781,9263.3564453125,3964.90087890625,20349.025390625,13266.404296875,8488.49609375,20585.85546875,7378.26025390625,8619.6259765625,3704.22998046875,-860.6910400390625,19282.5,4843.076171875,14124.7109375,5756.21923828125,2752.14501953125,8995.533203125,10031.859375,-243.18695068359375,3924.369873046875,-1253.2869873046875,10746.3193359375,-68.3466567993164,2529.62109375,-858.306884765625,2923.806396484375,2188.6826171875,19428.73046875,2499.42138671875,9396.87109375,30.19968605041504,7343.2919921875,22306.44140625,18524.328125,13605.75390625,-0.0,-49706.30078125,15876.29296875,5300.044921875,0.0,5849.20263671875,0.0,0.0
10997.455078125,9564.55859375,25849.341796875,7765.29296875,24739.900390625,2126.69384765625,3409.3857421875,3502.368896484375,6485.7802734375,3491.24267578125,12633.80078125,-3658.930419921875,5060.037109375,0.0,18357.435546875,1590.251953125,20929.177734375,14154.1162109375,6121.0,9193.419921875,18797.716796875,25346.279296875,12031.3955078125,14762.083984375,16086.896484375,3832.97607421875,24212.99609375,-6280.740234375,-0.0,314.7125244140625,9254.615234375,3956.95361328125,20340.28515625,13256.0732421875,8478.958984375,20580.291015625,7373.49169921875,8614.0634765625,3689.925048828125,-871.8172607421875,19270.578125,4837.51318359375,14119.9423828125,5752.24560546875,2746.58203125,8990.7646484375,10008.017578125,-259.0815124511719,3910.064697265625,-1254.87646484375,10741.5517578125,-72.32030487060547,2501.010986328125,-867.8436279296875,2903.1435546875,2183.9140625,19410.451171875,2496.242431640625,9392.1025390625,24.636587142944336,7336.9345703125,22300.0859375,18520.35546875,13599.3955078125,-0.0,-49709.48046875,15877.8818359375,5300.044921875,0.0,5853.17626953125,0.0,0.0
11008.580078125,9551.0478515625,25838.216796875,7759.72998046875,24735.927734375,2120.3359375,3409.3857421875,3496.010986328125,6481.80615234375,3488.063720703125,12617.9052734375,-3666.0830078125,5048.91064453125,0.0,18354.2578125,1585.4835205078125,20920.435546875,14146.1689453125,6117.82080078125,9190.2421875,18792.947265625,25339.921875,12026.6279296875,14756.5205078125,16082.12890625,3821.05517578125,24216.17578125,-6287.09814453125,-0.0,309.94415283203125,9245.8720703125,3947.416748046875,20331.541015625,13250.509765625,8471.806640625,20573.93359375,7368.7236328125,8610.0888671875,3672.440673828125,-892.480224609375,19264.220703125,4831.94970703125,14117.55859375,5746.6826171875,2744.992431640625,8984.40625,10000.865234375,-268.6182556152344,3902.912109375,-1258.0552978515625,10743.935546875,-76.2939453125,2478.758544921875,-867.0488891601562,2902.348876953125,2173.582763671875,19392.966796875,2493.063720703125,9389.7177734375,21.457672119140625,7341.703125,22293.7265625,18516.3828125,13593.8330078125,-0.0,-49715.04296875,15871.5244140625,5304.8134765625,0.0,5857.1494140625,0.0,0.0
11011.759765625,9541.51171875,25831.064453125,7754.96142578125,24730.36328125,2113.183349609375,3403.02783203125,3481.705810546875,6466.70654296875,3470.579833984375,12598.83203125,-3684.36181640625,5048.1162109375,0.0,18349.48828125,1562.4364013671875,20910.10546875,14135.04296875,6106.69482421875,9172.7568359375,18785.0,25330.384765625,12018.6806640625,14744.599609375,16086.896484375,3813.902587890625,24211.40625,-6300.6083984375,-0.0,291.6654052734375,9237.92578125,3931.5224609375,20323.595703125,13241.767578125,8463.859375,20564.3984375,7359.1865234375,8598.9638671875,3654.162109375,-926.653564453125,19257.86328125,4827.18115234375,14112.7900390625,5733.966796875,2733.866455078125,8969.306640625,10023.9111328125,-279.7444763183594,3899.7333984375,-1269.181640625,10744.73046875,-92.18851470947266,2466.837646484375,-880.5592651367188,2896.78564453125,2164.8408203125,19404.09375,2480.347900390625,9379.38671875,2.384185791015625,7336.1396484375,22283.396484375,18502.076171875,13569.1953125,-0.0,-49730.140625,15858.0146484375,5281.7666015625,0.0,5824.56591796875,0.0,0.0
10999.8388671875,9528.7958984375,25820.732421875,7747.0146484375,24717.650390625,2103.646484375,3382.364990234375,3466.606201171875,6447.63330078125,3449.1220703125,12587.70703125,-3701.051025390625,5042.552734375,0.0,18336.7734375,1538.5946044921875,20898.9765625,14123.1220703125,6091.5947265625,9152.8896484375,18773.875,25317.66796875,12003.5810546875,14732.6787109375,16075.76953125,3807.544677734375,24193.12890625,-6316.5029296875,-0.0,270.2077331542969,9227.59375,3918.806640625,20310.87890625,13229.8466796875,8451.9384765625,20554.861328125,7344.0869140625,8585.453125,3648.598876953125,-927.4482421875,19245.1484375,4818.439453125,14096.896484375,5720.45654296875,2714.79296875,8951.8232421875,10015.96484375,-281.33392333984375,3894.96484375,-1283.4866943359375,10719.298828125,-109.67254638671875,2464.453369140625,-896.453857421875,2887.2490234375,2152.125,19412.041015625,2446.96923828125,9364.287109375,-19.073486328125,7324.21875,22270.6796875,18483.796875,13545.353515625,-0.0,-49743.65234375,15856.4248046875,5252.361328125,0.0,5795.16064453125,0.0,0.0
11005.4013671875,9501.7744140625,25802.453125,7714.43017578125,24702.548828125,2079.8046875,3360.9072265625,3449.916748046875,6430.14892578125,3429.25390625,12582.9384765625,-3714.5615234375,5034.60546875,0.0,18322.46875,1524.2894287109375,20881.494140625,14107.2275390625,6075.7001953125,9134.6103515625,18755.59375,25298.595703125,11984.5078125,14715.1943359375,16052.72265625,3779.729248046875,24174.84765625,-6330.80810546875,-0.0,263.05517578125,9210.904296875,3906.091064453125,20294.189453125,13209.9794921875,8436.0439453125,20537.376953125,7326.60302734375,8568.763671875,3653.3671875,-914.7326049804688,19227.662109375,4788.23974609375,14076.232421875,5702.97265625,2696.51416015625,8935.9287109375,9984.9697265625,-296.43377685546875,3885.42822265625,-1303.3548583984375,10693.0732421875,-123.9776611328125,2454.121826171875,-917.1168212890625,2882.480712890625,2133.84619140625,19405.68359375,2435.84326171875,9349.982421875,-38.14697265625,7309.91357421875,22255.578125,18467.90234375,13527.8701171875,-0.0,-49756.3671875,15859.603515625,5224.5458984375,0.0,5757.013671875,0.0,0.0
11006.1962890625,9493.828125,25794.505859375,7708.07275390625,24699.369140625,2071.857421875,3363.29150390625,3446.738037109375,6428.5595703125,3428.459228515625,12586.1171875,-3718.53515625,5033.01611328125,0.0,18326.44140625,1525.0841064453125,20878.314453125,14104.048828125,6074.1103515625,9132.2255859375,18750.033203125,25293.826171875,11983.7119140625,14712.015625,16032.8544921875,3771.781982421875,24185.1796875,-6337.9609375,-0.0,259.0815124511719,9208.51953125,3902.912109375,20288.625,13203.62109375,8433.6591796875,20533.404296875,7326.60302734375,8565.5849609375,3650.1884765625,-913.1431884765625,19219.716796875,4778.703125,14077.822265625,5698.2041015625,2697.308837890625,8935.9287109375,9979.4072265625,-307.5599670410156,3883.838623046875,-1316.070556640625,10700.2255859375,-121.59347534179688,2452.532470703125,-916.3220825195312,2872.149169921875,2125.104248046875,19404.888671875,2441.40625,9353.1611328125,-31.789142608642578,7297.99267578125,22253.990234375,18468.69921875,13524.69140625,-0.0,-49760.33984375,15855.630859375,5229.314453125,0.0,5756.21923828125,0.0,0.0
10996.6591796875,9508.927734375,25814.375,7738.27197265625,24721.623046875,2098.08349609375,3387.927978515625,3470.579833984375,6454.78564453125,3455.47998046875,12597.2431640625,-3702.640625,5046.5263671875,0.0,18344.720703125,1548.926025390625,20897.388671875,14125.5068359375,6098.7470703125,9160.8359375,18772.283203125,25316.080078125,12005.96484375,14735.8583984375,16055.107421875,3795.623779296875,24205.84375,-6315.7080078125,-0.0,272.5919189453125,9229.18359375,3918.01220703125,20309.2890625,13226.66796875,8454.3232421875,20556.44921875,7350.44482421875,8589.4267578125,3647.80419921875,-905.1958618164062,19241.96875,4804.13427734375,14102.458984375,5719.66162109375,2721.150634765625,8962.94921875,9993.712890625,-298.8179626464844,3894.96484375,-1300.970703125,10723.2734375,-95.367431640625,2472.400634765625,-892.480224609375,2890.427734375,2147.356689453125,19413.62890625,2465.248046875,9373.82421875,-7.152557373046875,7295.6083984375,22277.037109375,18494.12890625,13555.685546875,-0.0,-49742.859375,15861.1923828125,5260.30859375,0.0,5792.7763671875,0.0,0.0
10995.865234375,9521.6435546875,25839.8046875,7753.3720703125,24736.72265625,2116.3623046875,3399.05419921875,3484.090087890625,6470.68017578125,3472.964111328125,12602.01171875,-3683.567138671875,5062.42138671875,0.0,18347.8984375,1563.2310791015625,20911.693359375,14141.400390625,6111.462890625,9179.91015625,18789.767578125,25331.974609375,12018.6806640625,14750.95703125,16078.1533203125,3813.107666015625,24201.07421875,-6299.01904296875,-0.0,285.30755615234375,9244.283203125,3932.317138671875,20327.568359375,13243.357421875,8468.6279296875,20572.34375,7361.57080078125,8605.3212890625,3666.0830078125,-895.6591186523438,19260.248046875,4822.4130859375,14113.5859375,5736.35107421875,2733.071533203125,8976.4599609375,9998.48046875,-286.89703369140625,3898.143798828125,-1277.923583984375,10729.630859375,-78.67813110351562,2483.52685546875,-886.9171142578125,2895.1962890625,2163.251220703125,19416.013671875,2480.347900390625,9379.38671875,4.76837158203125,7307.529296875,22290.548828125,18508.43359375,13584.2958984375,-0.0,-49733.3203125,15862.783203125,5274.61376953125,0.0,5811.0556640625,0.0,0.0
10992.6865234375,9519.259765625,25830.26953125,7750.193359375,24731.955078125,2111.593994140625,3395.08056640625,3481.705810546875,6469.88525390625,3470.579833984375,12588.5009765625,-3685.156494140625,5061.62646484375,0.0,18345.513671875,1557.6680908203125,20908.513671875,14136.6318359375,6106.69482421875,9177.525390625,18786.587890625,25331.177734375,12013.912109375,14745.39453125,16082.12890625,3814.697265625,24197.1015625,-6303.787109375,-0.0,286.89703369140625,9241.8984375,3929.93310546875,20322.00390625,13240.177734375,8464.654296875,20567.576171875,7356.80224609375,8600.552734375,3640.651611328125,-902.0169677734375,19255.48046875,4819.234375,14108.021484375,5732.37744140625,2731.482177734375,8970.1015625,10001.6591796875,-291.6654052734375,3892.580810546875,-1270.77099609375,10727.24609375,-83.44650268554688,2470.0166015625,-905.9906005859375,2895.990966796875,2157.688232421875,19412.8359375,2466.837646484375,9379.38671875,0.7947285771369934,7318.6552734375,22286.57421875,18506.05078125,13579.5283203125,-0.0,-49732.5234375,15860.3994140625,5272.2294921875,0.0,5810.2607421875,0.0,0.0
11013.3486328125,9534.359375,25833.44921875,7761.31982421875,24732.748046875,2125.104248046875,3403.02783203125,3494.421630859375,6480.216796875,3484.090087890625,12591.6796875,-3682.7724609375,5064.8056640625,0.0,18353.462890625,1569.5889892578125,20921.23046875,14144.580078125,6117.82080078125,9189.4462890625,18794.537109375,25343.89453125,12021.859375,14757.3154296875,16093.25390625,3833.770751953125,24201.869140625,-6286.30322265625,-0.0,286.89703369140625,9253.8193359375,3941.85400390625,20330.748046875,13252.89453125,8473.396484375,20581.087890625,7366.33935546875,8610.884765625,3658.1357421875,-894.0697021484375,19261.041015625,4838.3076171875,14112.7900390625,5747.47705078125,2741.01904296875,8982.8173828125,9996.890625,-286.102294921875,3909.269775390625,-1248.5185546875,10737.578125,-70.73084259033203,2466.837646484375,-896.453857421875,2901.55419921875,2174.37744140625,19419.193359375,2473.990234375,9390.513671875,15.09984302520752,7335.3447265625,22296.109375,18513.998046875,13589.859375,-0.0,-49725.37109375,15869.140625,5289.71337890625,0.0,5830.92333984375,0.0,0.0
11030.0380859375,9545.4853515625,25851.7265625,7756.55126953125,24745.46484375,2137.820068359375,3411.769775390625,3504.753173828125,6495.31689453125,3499.190185546875,12609.958984375,-3670.8515625,5070.3681640625,0.0,18362.998046875,1581.5098876953125,20931.5625,14153.3212890625,6129.74169921875,9203.751953125,18805.662109375,25354.2265625,12035.3701171875,14768.44140625,16102.791015625,3843.3076171875,24209.818359375,-6278.35595703125,-0.0,298.0232238769531,9264.9462890625,3953.77490234375,20341.873046875,13260.046875,8482.9326171875,20592.212890625,7376.6708984375,8622.009765625,3672.440673828125,-871.0225219726562,19275.34765625,4847.0498046875,14123.9169921875,5758.603515625,2754.529296875,8995.533203125,10008.017578125,-283.7181091308594,3919.6015625,-1239.776611328125,10747.115234375,-61.19409942626953,2477.963623046875,-869.43310546875,2895.1962890625,2182.32470703125,19427.935546875,2489.884521484375,9400.8447265625,29.404958724975586,7344.88134765625,22307.23828125,18524.328125,13610.5224609375,-0.0,-49719.015625,15873.11328125,5304.8134765625,0.0,5853.97119140625,0.0,0.0
11028.44921875,9564.55859375,25874.7734375,7756.55126953125,24765.333984375,2146.561767578125,3426.074951171875,3516.674072265625,6507.23779296875,3511.90576171875,12630.6220703125,-3658.930419921875,5079.9052734375,0.0,18372.53515625,1595.020263671875,20945.8671875,14167.6259765625,6138.4833984375,9214.8779296875,18822.3515625,25365.353515625,12049.6748046875,14778.7734375,16129.0166015625,3855.228515625,24225.7109375,-6273.587890625,-0.0,317.0967102050781,9279.2509765625,3968.87451171875,20360.947265625,13272.7626953125,8497.23828125,20604.1328125,7388.591796875,8634.7265625,3677.209228515625,-844.0017700195312,19297.599609375,4855.79150390625,14138.2216796875,5768.14013671875,2766.4501953125,9005.8642578125,10035.0380859375,-247.955322265625,3935.495849609375,-1241.3660888671875,10758.240234375,-54.04154586791992,2499.42138671875,-842.4122924804688,2909.501220703125,2187.887939453125,19435.087890625,2504.984619140625,9407.9970703125,42.1206169128418,7344.88134765625,22319.951171875,18536.25,13626.416015625,-0.0,-49710.2734375,15881.0615234375,5321.5029296875,0.0,5874.6337890625,0.0,0.0
11015.732421875,9556.611328125,25865.236328125,7744.63037109375,24754.205078125,2137.025146484375,3418.92236328125,3503.16357421875,6492.9326171875,3495.21630859375,12637.7744140625,-3662.904052734375,5074.34228515625,0.0,18362.998046875,1579.92041015625,20937.919921875,14159.6796875,6129.74169921875,9197.39453125,18814.40625,25355.81640625,12040.9326171875,14769.236328125,16116.30078125,3857.612548828125,24223.328125,-6284.7138671875,-0.0,309.94415283203125,9268.919921875,3961.721923828125,20354.58984375,13263.2255859375,8489.291015625,20593.80078125,7379.05517578125,8623.599609375,3701.051025390625,-859.1016235351562,19287.267578125,4846.2548828125,14130.2744140625,5757.80859375,2756.11865234375,8992.3544921875,10046.958984375,-249.54476928710938,3925.164794921875,-1262.029052734375,10750.2939453125,-68.3466567993164,2516.905517578125,-855.1279907226562,2918.243408203125,2175.967041015625,19420.78125,2493.8583984375,9397.666015625,24.636587142944336,7322.62939453125,22308.826171875,18524.328125,13605.75390625,-0.0,-49710.2734375,15876.29296875,5294.48193359375,0.0,5843.63916015625,0.0,0.0
11010.169921875,9546.2802734375,25846.958984375,7744.63037109375,24746.259765625,2137.025146484375,3414.154052734375,3498.395263671875,6484.9853515625,3485.6796875,12612.3427734375,-3674.824951171875,5060.037109375,0.0,18359.025390625,1572.767822265625,20930.767578125,14155.705078125,6125.76806640625,9190.2421875,18806.45703125,25351.84375,12035.3701171875,14766.056640625,16096.43359375,3823.439453125,24228.095703125,-6283.9189453125,-0.0,296.43377685546875,9262.5615234375,3955.3642578125,20341.873046875,13260.046875,8480.548828125,20589.828125,7372.697265625,8618.037109375,3697.8720703125,-868.6383666992188,19273.7578125,4842.28125,14127.890625,5756.21923828125,2752.14501953125,8985.99609375,10016.7587890625,-255.90261840820312,3911.654052734375,-1262.82373046875,10747.9091796875,-74.7044906616211,2510.547607421875,-866.254150390625,2905.52783203125,2164.046142578125,19409.65625,2490.679443359375,9394.486328125,15.894571304321289,7326.60302734375,22304.05859375,18517.17578125,13593.0380859375,-0.0,-49708.68359375,15877.0888671875,5286.53466796875,0.0,5825.36083984375,0.0,0.0
11024.474609375,9554.2265625,25841.39453125,7754.1669921875,24752.6171875,2133.051513671875,3420.511962890625,3504.753173828125,6491.34326171875,3492.832275390625,12600.421875,-3670.056640625,5057.65283203125,0.0,18365.3828125,1585.4835205078125,20932.35546875,14159.6796875,6129.74169921875,9196.5986328125,18808.046875,25352.63671875,12039.34375,14768.44140625,16086.1015625,3801.186767578125,24234.453125,-6277.56103515625,-0.0,309.94415283203125,9263.3564453125,3958.543212890625,20342.66796875,13262.4306640625,8483.7275390625,20592.212890625,7378.26025390625,8625.189453125,3685.951171875,-863.0752563476562,19273.7578125,4835.923828125,14136.6318359375,5760.98779296875,2757.708251953125,8993.943359375,10003.2490234375,-258.28680419921875,3908.475341796875,-1261.2342529296875,10756.65234375,-67.55193328857422,2508.9580078125,-868.6383666992188,2900.759521484375,2186.29833984375,19419.193359375,2502.600341796875,9400.8447265625,27.815500259399414,7356.0078125,22308.03125,18524.328125,13600.1904296875,-0.0,-49700.73828125,15873.9091796875,5303.22412109375,0.0,5842.8447265625,0.0,0.0
11018.912109375,9545.4853515625,25835.037109375,7745.4248046875,24742.28515625,2117.156982421875,3410.180419921875,3491.24267578125,6480.216796875,3481.705810546875,12608.369140625,-3674.0302734375,5072.75244140625,0.0,18356.642578125,1570.3836669921875,20920.435546875,14143.7841796875,6117.82080078125,9184.677734375,18795.33203125,25341.51171875,12029.01171875,14754.1357421875,16086.1015625,3813.902587890625,24211.40625,-6294.25048828125,-0.0,305.97052001953125,9253.025390625,3943.443359375,20332.3359375,13252.89453125,8471.806640625,20579.49609375,7366.33935546875,8610.884765625,3662.904052734375,-876.5856323242188,19264.220703125,4830.3603515625,14123.9169921875,5745.8876953125,2744.19775390625,8982.8173828125,10031.064453125,-284.5128479003906,3902.117431640625,-1273.949951171875,10744.73046875,-81.85704803466797,2502.600341796875,-886.9171142578125,2898.375244140625,2179.9404296875,19423.9609375,2488.29541015625,9390.513671875,15.09984302520752,7345.67626953125,22294.521484375,18513.998046875,13587.474609375,-0.0,-49716.6328125,15865.16796875,5290.50830078125,0.0,5832.51318359375,0.0,0.0
10996.6591796875,9538.3330078125,25828.6796875,7731.11962890625,24725.595703125,2111.593994140625,3388.72265625,3479.32177734375,6473.859375,3469.784912109375,12597.2431640625,-3692.30908203125,5075.931640625,0.0,18349.48828125,1556.07861328125,20910.8984375,14127.890625,6103.515625,9175.9365234375,18784.205078125,25334.357421875,12010.7333984375,14742.21484375,16082.921875,3821.05517578125,24190.744140625,-6307.7607421875,-0.0,277.36029052734375,9242.6943359375,3933.906494140625,20321.2109375,13241.767578125,8455.912109375,20569.958984375,7350.44482421875,8598.16796875,3650.1884765625,-885.32763671875,19254.68359375,4833.53955078125,14100.0751953125,5733.171875,2729.09814453125,8970.1015625,10036.6279296875,-305.97052001953125,3909.269775390625,-1277.923583984375,10724.0673828125,-95.367431640625,2477.1689453125,-891.6854858398438,2892.017333984375,2164.046142578125,19423.9609375,2473.990234375,9382.5654296875,0.7947285771369934,7321.03955078125,22280.216796875,18502.87109375,13582.7060546875,-0.0,-49734.1171875,15867.5517578125,5279.38232421875,0.0,5815.82421875,0.0,0.0
10969.638671875,9520.8486328125,25819.9375,7735.88818359375,24717.650390625,2106.82568359375,3380.775390625,3473.7587890625,6465.912109375,3466.606201171875,12564.6591796875,-3697.077392578125,5057.65283203125,0.0,18348.693359375,1552.899658203125,20904.541015625,14119.9423828125,6096.36328125,9171.962890625,18777.052734375,25328.794921875,12000.4013671875,14736.65234375,16078.1533203125,3817.08154296875,24187.564453125,-6314.11865234375,-0.0,255.90261840820312,9236.3359375,3929.13818359375,20315.646484375,13236.205078125,8448.759765625,20562.806640625,7343.2919921875,8593.400390625,3654.956787109375,-896.453857421875,19245.943359375,4826.38671875,14092.1279296875,5727.609375,2724.32958984375,8966.9228515625,10021.52734375,-301.2021484375,3898.143798828125,-1285.870849609375,10719.298828125,-100.93053436279297,2457.30078125,-890.8907470703125,2881.68603515625,2158.48291015625,19417.603515625,2470.0166015625,9380.181640625,-0.7947285771369934,7305.93994140625,22273.064453125,18496.513671875,13581.1162109375,-0.0,-49738.08984375,15866.7568359375,5274.61376953125,0.0,5815.82421875,0.0,0.0
10958.5126953125,9508.1328125,25811.1953125,7723.96728515625,24711.291015625,2092.5205078125,3376.007080078125,3467.40087890625,6456.375,3463.42724609375,12519.359375,-3697.077392578125,5039.3740234375,0.0,18343.92578125,1548.926025390625,20892.619140625,14110.40625,6089.21044921875,9163.220703125,18767.515625,25314.490234375,11990.865234375,14727.91015625,16072.591796875,3801.981689453125,24184.384765625,-6322.06591796875,-0.0,259.8762512207031,9222.8251953125,3921.190673828125,20306.111328125,13221.900390625,8440.8125,20551.681640625,7335.3447265625,8585.453125,3652.57275390625,-892.480224609375,19237.99609375,4796.98193359375,14087.359375,5719.66162109375,2717.17724609375,8961.3603515625,9991.328125,-283.7181091308594,3887.017578125,-1299.3812255859375,10715.3251953125,-108.08309173583984,2431.86962890625,-898.0433349609375,2881.68603515625,2140.2041015625,19411.24609375,2465.248046875,9374.6181640625,-4.76837158203125,7296.4033203125,22265.91015625,18490.15625,13564.427734375,-0.0,-49730.9375,15864.3720703125,5269.05078125,0.0,5818.2080078125,0.0,0.0
10975.201171875,9505.7490234375,25819.142578125,7717.609375,24708.11328125,2091.7255859375,3372.033447265625,3466.606201171875,6446.83837890625,3459.45361328125,12564.6591796875,-3701.845947265625,5033.01611328125,0.0,18335.978515625,1546.5418701171875,20892.619140625,14110.40625,6086.03125,9156.86328125,18766.72265625,25311.3125,11987.6865234375,14725.525390625,16073.384765625,3797.21337890625,24180.412109375,-6323.65576171875,-0.0,262.26043701171875,9220.4404296875,3917.21728515625,20306.111328125,13221.1044921875,8439.2236328125,20550.091796875,7332.166015625,8583.86328125,3644.62548828125,-902.0169677734375,19239.583984375,4795.392578125,14084.1796875,5718.86669921875,2709.229736328125,8958.9755859375,9986.5595703125,-278.1549987792969,3883.838623046875,-1298.5865478515625,10708.9677734375,-108.87781524658203,2432.6640625,-905.1958618164062,2876.91748046875,2133.84619140625,19404.888671875,2464.453369140625,9364.287109375,-6.357828617095947,7296.4033203125,22261.9375,18485.388671875,13554.890625,-0.0,-49732.5234375,15861.1923828125,5266.66650390625,0.0,5819.00244140625,0.0,0.0
10988.7119140625,9504.1591796875,25814.375,7708.07275390625,24704.93359375,2081.394287109375,3366.47021484375,3456.274658203125,6439.68603515625,3447.53271484375,12603.6005859375,-3708.20361328125,5032.22119140625,0.0,18332.80078125,1536.21044921875,20888.646484375,14107.2275390625,6079.673828125,9148.9150390625,18761.953125,25306.54296875,11980.533203125,14718.373046875,16066.232421875,3785.29248046875,24177.232421875,-6333.98681640625,-0.0,263.05517578125,9213.2880859375,3910.064697265625,20300.546875,13216.3359375,8434.455078125,20546.1171875,7325.80810546875,8574.326171875,3640.651611328125,-922.679931640625,19234.021484375,4790.6240234375,14080.20703125,5707.74072265625,2702.0771484375,8949.439453125,9991.328125,-286.102294921875,3879.864990234375,-1308.91796875,10704.994140625,-120.79874420166016,2441.40625,-911.5537109375,2860.228271484375,2129.077880859375,19399.32421875,2448.558837890625,9358.7236328125,-18.278757095336914,7305.1455078125,22255.578125,18478.234375,13546.943359375,-0.0,-49749.21484375,15863.5771484375,5251.56640625,0.0,5798.33984375,0.0,0.0
10988.7119140625,9497.0068359375,25807.22265625,7709.662109375,24702.548828125,2070.267822265625,3361.701904296875,3445.1484375,6432.533203125,3438.79052734375,12595.6533203125,-3716.945556640625,5033.81103515625,0.0,18329.62109375,1525.87890625,20881.494140625,14100.0751953125,6070.13720703125,9143.3525390625,18757.185546875,25297.80078125,11973.380859375,14709.6318359375,16064.6435546875,3773.371337890625,24174.0546875,-6345.11328125,-0.0,258.28680419921875,9207.7255859375,3904.501708984375,20291.8046875,13209.9794921875,8429.6865234375,20538.171875,7318.6552734375,8565.5849609375,3630.3203125,-920.2957153320312,19230.841796875,4782.6767578125,14076.232421875,5692.640625,2696.51416015625,8939.90234375,9995.30078125,-294.84429931640625,3877.480712890625,-1316.8653564453125,10701.8154296875,-132.7196807861328,2457.30078125,-914.7326049804688,2859.433349609375,2129.077880859375,19398.53125,2439.816650390625,9356.33984375,-30.994415283203125,7312.2978515625,22247.6328125,18468.69921875,13545.353515625,-0.0,-49757.95703125,15858.0146484375,5242.02978515625,0.0,5779.2666015625,0.0,0.0
10996.6591796875,9504.9541015625,25817.552734375,7715.22509765625,24716.05859375,2086.16259765625,3372.033447265625,3458.658935546875,6444.4541015625,3452.301025390625,12600.421875,-3704.22998046875,5045.73193359375,0.0,18339.15625,1543.3629150390625,20891.82421875,14111.99609375,6082.85302734375,9156.0673828125,18769.10546875,25312.10546875,11985.3017578125,14722.34765625,16079.744140625,3790.060791015625,24187.564453125,-6327.62890625,-0.0,278.1549987792969,9222.0302734375,3912.448974609375,20302.931640625,13221.900390625,8441.607421875,20550.091796875,7330.57666015625,8577.505859375,3623.167724609375,-905.1958618164062,19245.1484375,4797.77685546875,14088.9482421875,5709.330078125,2708.43505859375,8953.412109375,10004.0439453125,-283.7181091308594,3889.401611328125,-1296.2022705078125,10712.146484375,-118.41455841064453,2465.248046875,-902.0169677734375,2887.2490234375,2148.946044921875,19405.68359375,2454.121826171875,9366.671875,-16.689300537109375,7320.2451171875,22260.34765625,18481.412109375,13558.8642578125,-0.0,-49746.03515625,15864.3720703125,5255.54052734375,0.0,5806.287109375,0.0,0.0
10994.275390625,9516.080078125,25821.52734375,7731.91455078125,24722.41796875,2101.262451171875,3379.980712890625,3471.37451171875,6453.1962890625,3465.8115234375,12596.4482421875,-3689.130126953125,5044.93701171875,0.0,18347.10546875,1563.2310791015625,20902.15625,14119.9423828125,6093.97900390625,9168.7841796875,18777.052734375,25326.41015625,11992.4541015625,14735.0625,16076.564453125,3805.955078125,24193.12890625,-6311.73486328125,-0.0,279.7444763183594,9233.1572265625,3923.574951171875,20310.083984375,13235.41015625,8451.14453125,20563.6015625,7340.11328125,8589.4267578125,3630.3203125,-902.0169677734375,19249.12109375,4816.05517578125,14096.1005859375,5724.43017578125,2718.766357421875,8967.716796875,9986.5595703125,-271.00244140625,3890.9912109375,-1279.5130615234375,10719.298828125,-100.93053436279297,2461.2744140625,-887.7118530273438,2884.86474609375,2156.0986328125,19408.068359375,2467.63232421875,9376.2080078125,0.0,7321.03955078125,22270.6796875,18492.541015625,13567.6064453125,-0.0,-49732.5234375,15869.935546875,5273.02392578125,0.0,5824.56591796875,0.0,0.0
10998.2490234375,9518.4638671875,25827.884765625,7731.91455078125,24727.185546875,2104.44140625,3386.33837890625,3476.142822265625,6463.52783203125,3470.579833984375,12600.421875,-3691.51416015625,5047.3212890625,0.0,18354.2578125,1558.4627685546875,20907.720703125,14128.6845703125,6100.33642578125,9177.525390625,18781.8203125,25329.58984375,11996.4287109375,14739.0361328125,16080.5380859375,3807.544677734375,24197.896484375,-6313.32421875,-0.0,268.6182556152344,9237.1298828125,3930.7275390625,20318.03125,13240.177734375,8456.70703125,20568.37109375,7345.67626953125,8594.1953125,3652.57275390625,-890.8907470703125,19253.888671875,4817.64453125,14101.6640625,5727.609375,2725.124267578125,8970.896484375,9995.30078125,-269.4129943847656,3897.34912109375,-1279.5130615234375,10726.4521484375,-100.93053436279297,2481.9375,-891.6854858398438,2884.070068359375,2152.919677734375,19414.42578125,2469.221923828125,9384.94921875,2.384185791015625,7321.03955078125,22275.447265625,18498.1015625,13581.1162109375,-0.0,-49726.16796875,15877.8818359375,5269.05078125,0.0,5809.4658203125,0.0,0.0
11012.5537109375,9531.974609375,25833.44921875,7737.4775390625,24733.54296875,2113.183349609375,3395.08056640625,3488.8583984375,6474.65380859375,3490.447998046875,12612.3427734375,-3676.41455078125,5052.08984375,0.0,18359.025390625,1574.357421875,20917.2578125,14138.2216796875,6111.462890625,9190.2421875,18790.564453125,25337.537109375,12004.375,14747.779296875,16081.3330078125,3816.286865234375,24201.869140625,-6304.58203125,-0.0,293.2548522949219,9245.8720703125,3943.443359375,20327.568359375,13248.1259765625,8464.654296875,20576.318359375,7354.41845703125,8605.3212890625,3669.261962890625,-878.1751098632812,19259.453125,4825.591796875,14110.40625,5735.55615234375,2732.27685546875,8984.40625,10018.3486328125,-257.4920654296875,3900.52783203125,-1272.3604736328125,10733.6044921875,-88.21487426757812,2501.8056640625,-877.38037109375,2895.1962890625,2159.277587890625,19419.193359375,2485.1162109375,9393.6923828125,23.84185791015625,7326.60302734375,22284.984375,18510.818359375,13598.6015625,-0.0,-49711.86328125,15880.2666015625,5299.25,0.0,5848.40771484375,0.0,0.0
11003.8115234375,9547.07421875,25831.064453125,7739.86181640625,24728.775390625,2108.414794921875,3390.312255859375,3484.885009765625,6468.2958984375,3482.500732421875,12621.0849609375,-3681.182861328125,5056.06298828125,0.0,18355.05078125,1575.152099609375,20916.462890625,14134.248046875,6107.4892578125,9183.8837890625,18788.1796875,25334.357421875,12000.4013671875,14744.599609375,16070.2080078125,3812.31298828125,24199.486328125,-6308.5556640625,-0.0,306.7652282714844,9245.078125,3948.211669921875,20326.7734375,13248.1259765625,8460.6806640625,20573.138671875,7351.23974609375,8602.142578125,3670.8515625,-874.2014770507812,19254.68359375,4824.0029296875,14107.2275390625,5730.78759765625,2727.508544921875,8980.43359375,10029.4755859375,-251.13424682617188,3895.759521484375,-1281.1025390625,10730.42578125,-90.59906005859375,2501.8056640625,-869.43310546875,2900.759521484375,2156.8935546875,19419.193359375,2482.732177734375,9387.333984375,15.894571304321289,7332.166015625,22281.01171875,18506.845703125,13589.859375,-0.0,-49717.42578125,15875.498046875,5287.3291015625,0.0,5834.8974609375,0.0,0.0
11001.427734375,9543.8955078125,25826.294921875,7727.94091796875,24720.826171875,2103.646484375,3381.570068359375,3477.732421875,6453.99072265625,3470.579833984375,12619.4951171875,-3686.745849609375,5051.294921875,0.0,18345.513671875,1571.97314453125,20908.513671875,14123.9169921875,6097.9521484375,9169.578125,18779.435546875,25326.41015625,11991.66015625,14737.447265625,16061.4638671875,3807.544677734375,24193.921875,-6310.93994140625,-0.0,295.6390380859375,9236.3359375,3937.880126953125,20317.236328125,13239.3837890625,8450.3486328125,20565.19140625,7341.703125,8594.990234375,3658.1357421875,-894.0697021484375,19245.943359375,4816.85009765625,14097.6904296875,5726.01953125,2717.9716796875,8970.1015625,10027.8857421875,-263.8498840332031,3889.401611328125,-1281.1025390625,10721.68359375,-96.9568862915039,2467.63232421875,-880.5592651367188,2890.427734375,2154.50927734375,19412.041015625,2477.963623046875,9373.0283203125,5.563100337982178,7328.1923828125,22273.859375,18496.513671875,13572.375,-0.0,-49724.578125,15866.7568359375,5284.150390625,0.0,5822.9765625,0.0,0.0
10998.2490234375,9512.1064453125,25818.34765625,7708.07275390625,24707.31640625,2089.34130859375,3365.67578125,3460.248291015625,6430.14892578125,3452.301025390625,12608.369140625,-3697.8720703125,5036.1953125,0.0,18329.62109375,1553.6943359375,20890.236328125,14106.4326171875,6079.673828125,9148.12109375,18763.54296875,25308.1328125,11974.970703125,14719.1689453125,16061.4638671875,3797.21337890625,24178.02734375,-6325.2451171875,-0.0,263.8498840332031,9218.8515625,3917.21728515625,20300.546875,13221.900390625,8432.0703125,20544.529296875,7325.013671875,8578.30078125,3628.730712890625,-923.474609375,19235.611328125,4800.16064453125,14081.0009765625,5710.919921875,2699.69287109375,8950.2333984375,10015.169921875,-290.87066650390625,3877.480712890625,-1291.4339599609375,10704.2001953125,-112.8514633178711,2437.4326171875,-905.9906005859375,2876.122802734375,2132.2568359375,19399.32421875,2462.864013671875,9353.1611328125,-7.9472856521606445,7311.5029296875,22254.78515625,18479.029296875,13539.791015625,-0.0,-49741.26953125,15855.630859375,5279.38232421875,0.0,5818.2080078125,0.0,0.0
10992.6865234375,9505.7490234375,25829.47265625,7713.6357421875,24715.265625,2090.930908203125,3370.444091796875,3461.043212890625,6432.533203125,3453.890625,12606.7802734375,-3693.8984375,5041.75830078125,0.0,18329.62109375,1545.7471923828125,20895.00390625,14112.7900390625,6082.05810546875,9151.2998046875,18769.8984375,25312.900390625,11982.123046875,14721.552734375,16071.0009765625,3799.597412109375,24182.001953125,-6325.2451171875,-0.0,266.23406982421875,9224.4150390625,3921.985595703125,20306.111328125,13227.462890625,8439.2236328125,20548.501953125,7328.9873046875,8579.0947265625,3625.552001953125,-905.1958618164062,19245.1484375,4804.13427734375,14086.564453125,5713.30419921875,2702.8720703125,8950.2333984375,10016.7587890625,-286.102294921875,3885.42822265625,-1288.255126953125,10708.1728515625,-112.05673217773438,2441.40625,-890.8907470703125,2882.480712890625,2140.998779296875,19402.50390625,2460.479736328125,9355.544921875,-7.9472856521606445,7317.06640625,22257.962890625,18480.619140625,13539.791015625,-0.0,-49740.4765625,15856.4248046875,5259.513671875,0.0,5807.08154296875,0.0,0.0
10996.6591796875,9514.4912109375,25836.626953125,7722.3779296875,24724.005859375,2095.69921875,3379.18603515625,3469.784912109375,6445.2490234375,3463.42724609375,12590.0908203125,-3698.666748046875,5043.34765625,0.0,18339.953125,1552.899658203125,20902.15625,14120.73828125,6092.3896484375,9163.220703125,18778.642578125,25320.052734375,11991.66015625,14726.3212890625,16076.564453125,3805.955078125,24189.94921875,-6318.88720703125,-0.0,278.1549987792969,9229.9775390625,3930.7275390625,20314.05859375,13233.8212890625,8447.96484375,20554.06640625,7338.52392578125,8587.04296875,3651.778076171875,-902.0169677734375,19253.888671875,4810.4921875,14097.6904296875,5719.66162109375,2715.587646484375,8961.3603515625,10013.580078125,-280.5391845703125,3891.785888671875,-1284.2813720703125,10717.7099609375,-102.51998901367188,2454.916748046875,-894.0697021484375,2884.070068359375,2148.946044921875,19407.271484375,2466.837646484375,9366.671875,2.384185791015625,7328.1923828125,22265.91015625,18490.94921875,13558.8642578125,-0.0,-49737.29296875,15865.9609375,5269.845703125,0.0,5813.43994140625,0.0,0.0
11012.5537109375,9527.2060546875,25842.189453125,7729.5302734375,24733.54296875,2101.262451171875,3389.517578125,3475.34814453125,6457.96435546875,3467.40087890625,12587.70703125,-3690.7197265625,5052.08984375,0.0,18348.693359375,1556.873291015625,20910.8984375,14127.095703125,6098.7470703125,9170.373046875,18788.1796875,25324.822265625,11998.017578125,14732.6787109375,16087.6904296875,3803.571044921875,24201.07421875,-6314.11865234375,-0.0,281.33392333984375,9237.92578125,3939.4697265625,20323.595703125,13241.767578125,8454.3232421875,20558.833984375,7345.67626953125,8594.1953125,3645.420166015625,-893.2749633789062,19263.42578125,4812.87646484375,14107.2275390625,5722.8408203125,2725.124267578125,8966.9228515625,10015.96484375,-278.1549987792969,3903.706787109375,-1284.2813720703125,10727.24609375,-97.75161743164062,2472.400634765625,-894.0697021484375,2895.990966796875,2151.330322265625,19415.220703125,2475.57958984375,9377.796875,3.1789143085479736,7335.3447265625,22272.267578125,18498.8984375,13569.1953125,-0.0,-49726.96484375,15870.7294921875,5273.02392578125,0.0,5804.69775390625,0.0,0.0
11013.3486328125,9511.3115234375,25832.65234375,7725.556640625,24726.390625,2098.878173828125,3390.312255859375,3476.9375,6461.1435546875,3471.37451171875,12582.9384765625,-3684.36181640625,5053.67919921875,0.0,18351.078125,1561.6417236328125,20906.12890625,14123.9169921875,6097.15771484375,9176.7314453125,18783.41015625,25320.84765625,11996.4287109375,14731.08984375,16082.12890625,3790.85546875,24202.666015625,-6314.11865234375,-0.0,286.89703369140625,9233.1572265625,3931.5224609375,20319.62109375,13237.7939453125,8451.9384765625,20557.24609375,7344.0869140625,8594.1953125,3631.90966796875,-898.0433349609375,19253.888671875,4805.7236328125,14103.2529296875,5723.63525390625,2726.7138671875,8970.1015625,10011.990234375,-282.9233703613281,3902.912109375,-1286.66552734375,10729.630859375,-96.16216278076172,2485.9111328125,-897.2485961914062,2889.63330078125,2150.53564453125,19418.3984375,2468.427001953125,9379.38671875,8.74201488494873,7323.423828125,22269.884765625,18500.486328125,13577.9384765625,-0.0,-49721.40234375,15861.98828125,5286.53466796875,0.0,5820.59228515625,0.0,0.0
10999.8388671875,9508.927734375,25818.34765625,7717.609375,24720.033203125,2098.08349609375,3388.72265625,3479.32177734375,6467.5009765625,3479.32177734375,12578.9638671875,-3681.9775390625,5045.73193359375,0.0,18351.873046875,1567.204833984375,20902.953125,14121.5322265625,6097.9521484375,9183.0888671875,18777.052734375,25319.2578125,11995.6328125,14731.8837890625,16072.591796875,3796.41845703125,24197.1015625,-6312.529296875,-0.0,305.17578125,9230.7734375,3930.7275390625,20315.646484375,13235.41015625,8447.96484375,20557.24609375,7343.2919921875,8595.7841796875,3641.4462890625,-902.0169677734375,19245.1484375,4804.92919921875,14101.6640625,5725.22509765625,2729.892822265625,8975.6650390625,10000.865234375,-288.4864807128906,3896.55419921875,-1283.4866943359375,10728.0419921875,-92.98324584960938,2489.08984375,-900.427490234375,2877.712158203125,2158.48291015625,19414.42578125,2472.400634765625,9383.361328125,19.868215560913086,7319.4501953125,22269.08984375,18504.4609375,13591.44921875,-0.0,-49718.21875,15870.7294921875,5304.8134765625,0.0,5841.25537109375,0.0,0.0
10999.8388671875,9541.51171875,25831.857421875,7742.24609375,24731.955078125,2116.3623046875,3400.6435546875,3489.6533203125,6482.60107421875,3488.063720703125,12590.0908203125,-3690.7197265625,5052.08984375,0.0,18361.41015625,1572.767822265625,20920.435546875,14136.6318359375,6110.66796875,9196.5986328125,18791.357421875,25339.126953125,12010.7333984375,14745.39453125,16075.76953125,3826.6181640625,24202.666015625,-6302.9921875,-0.0,287.6917419433594,9246.6669921875,3947.416748046875,20329.15625,13253.6884765625,8460.6806640625,20572.34375,7354.41845703125,8607.705078125,3657.341064453125,-890.8907470703125,19257.068359375,4840.69189453125,14111.99609375,5738.7353515625,2742.6083984375,8985.99609375,10011.1962890625,-260.6709899902344,3902.912109375,-1269.976318359375,10738.373046875,-85.8306884765625,2495.44775390625,-878.9698486328125,2888.043701171875,2175.172119140625,19420.78125,2481.9375,9396.076171875,26.226043701171875,7334.55029296875,22283.396484375,18515.5859375,13607.3427734375,-0.0,-49714.25,15887.4189453125,5293.6875,0.0,5837.28173828125,0.0,0.0
11002.22265625,9548.6640625,25839.009765625,7745.4248046875,24741.4921875,2131.462158203125,3409.3857421875,3501.57421875,6493.72705078125,3501.57421875,12599.6279296875,-3681.182861328125,5060.037109375,0.0,18366.177734375,1591.046630859375,20925.998046875,14143.7841796875,6122.5888671875,9208.51953125,18799.3046875,25347.07421875,12020.2705078125,14754.931640625,16091.6650390625,3842.512939453125,24209.0234375,-6283.9189453125,-0.0,277.36029052734375,9255.4091796875,3952.18505859375,20335.515625,13260.841796875,8469.421875,20581.880859375,7363.955078125,8618.037109375,3678.00390625,-903.6064453125,19265.015625,4851.81787109375,14119.1484375,5753.04052734375,2752.14501953125,8999.5068359375,10015.96484375,-251.13424682617188,3907.680419921875,-1251.697509765625,10743.935546875,-71.52557373046875,2496.242431640625,-874.9962158203125,2897.580322265625,2178.35107421875,19424.7578125,2499.42138671875,9402.4345703125,40.531158447265625,7333.75537109375,22292.931640625,18525.919921875,13620.05859375,-0.0,-49704.7109375,15890.5986328125,5320.7080078125,0.0,5868.27587890625,0.0,0.0
11003.017578125,9547.8701171875,25837.421875,7726.35107421875,24739.107421875,2120.3359375,3407.00146484375,3499.190185546875,6486.57470703125,3496.805908203125,12605.984375,-3658.1357421875,5062.42138671875,0.0,18361.41015625,1592.6361083984375,20919.640625,14139.0166015625,6118.61572265625,9200.5732421875,18792.947265625,25334.357421875,12017.0908203125,14751.751953125,16094.0498046875,3832.18115234375,24207.43359375,-6285.5087890625,-0.0,296.43377685546875,9247.4619140625,3943.443359375,20329.953125,13250.509765625,8464.654296875,20575.5234375,7356.80224609375,8614.0634765625,3680.38818359375,-898.8380126953125,19264.220703125,4820.82373046875,14115.173828125,5750.65625,2747.376708984375,8996.3271484375,10009.6064453125,-259.0815124511719,3905.29638671875,-1254.081787109375,10740.7568359375,-70.73084259033203,2500.21630859375,-874.2014770507812,2897.580322265625,2184.708740234375,19421.578125,2503.39501953125,9394.486328125,36.55751419067383,7329.7822265625,22288.1640625,18519.560546875,13608.1376953125,-0.0,-49699.14453125,15884.2412109375,5320.7080078125,0.0,5865.09716796875,0.0,0.0
10998.2490234375,9534.359375,25827.08984375,7716.814453125,24725.595703125,2109.209716796875,3393.490966796875,3485.6796875,6477.8330078125,3479.32177734375,12590.0908203125,-3675.619873046875,5059.2421875,0.0,18354.2578125,1572.767822265625,20906.12890625,14127.890625,6105.89990234375,9185.4736328125,18777.84765625,25320.052734375,12008.349609375,14739.8310546875,16074.1806640625,3818.6708984375,24197.896484375,-6301.40283203125,-0.0,284.5128479003906,9235.541015625,3925.164794921875,20316.443359375,13237.7939453125,8451.14453125,20562.013671875,7346.47119140625,8600.552734375,3654.162109375,-892.480224609375,19250.7109375,4811.287109375,14103.2529296875,5738.7353515625,2737.04541015625,8979.6376953125,9992.9169921875,-278.9497375488281,3894.170166015625,-1266.79736328125,10731.220703125,-87.4201431274414,2485.9111328125,-886.9171142578125,2884.86474609375,2160.866943359375,19412.041015625,2487.50048828125,9388.12890625,15.894571304321289,7325.013671875,22276.244140625,18506.05078125,13595.421875,-0.0,-49714.25,15886.625,5288.9189453125,0.0,5822.181640625,0.0,0.0
10999.8388671875,9515.28515625,25816.759765625,7712.04638671875,24717.650390625,2102.05712890625,3386.33837890625,3478.527099609375,6471.47509765625,3472.169189453125,12576.580078125,-3694.693359375,5053.67919921875,0.0,18347.8984375,1563.2310791015625,20895.798828125,14119.1484375,6097.9521484375,9176.7314453125,18769.10546875,25313.6953125,11998.8125,14732.6787109375,16061.4638671875,3809.13427734375,24190.744140625,-6310.93994140625,-0.0,278.9497375488281,9226.798828125,3912.448974609375,20304.521484375,13231.4365234375,8442.40234375,20555.654296875,7338.52392578125,8593.400390625,3628.730712890625,-896.453857421875,19241.173828125,4809.69775390625,14096.896484375,5732.37744140625,2731.482177734375,8970.896484375,9984.17578125,-299.6126708984375,3887.017578125,-1278.7183837890625,10724.0673828125,-93.7779769897461,2466.837646484375,-900.427490234375,2876.91748046875,2146.561767578125,19406.4765625,2478.758544921875,9381.771484375,11.126200675964355,7312.2978515625,22269.884765625,18498.1015625,13585.884765625,-0.0,-49723.78515625,15888.2138671875,5283.35546875,0.0,5822.9765625,0.0,0.0
10988.7119140625,9507.3388671875,25814.375,7711.251953125,24718.443359375,2102.851806640625,3389.517578125,3481.705810546875,6470.68017578125,3471.37451171875,12578.9638671875,-3698.666748046875,5048.91064453125,0.0,18350.283203125,1568.794189453125,20894.208984375,14120.73828125,6098.7470703125,9175.9365234375,18770.6953125,25316.080078125,11999.607421875,14735.0625,16066.232421875,3801.981689453125,24192.333984375,-6307.7607421875,-0.0,267.82354736328125,9225.208984375,3906.8857421875,20304.521484375,13228.2568359375,8443.1962890625,20556.44921875,7336.9345703125,8594.990234375,3627.141357421875,-900.427490234375,19241.173828125,4808.90283203125,14096.896484375,5733.171875,2732.27685546875,8974.0751953125,9974.638671875,-303.5863342285156,3889.401611328125,-1281.897216796875,10726.4521484375,-89.00960540771484,2458.095458984375,-909.9642333984375,2876.122802734375,2138.61474609375,19409.65625,2481.142822265625,9383.361328125,18.278757095336914,7297.19775390625,22269.884765625,18499.693359375,13578.732421875,-0.0,-49724.578125,15881.8564453125,5287.3291015625,0.0,5827.7451171875,0.0,0.0
10979.9697265625,9504.9541015625,25819.9375,7716.814453125,24721.623046875,2110.00439453125,3389.517578125,3480.11669921875,6469.88525390625,3472.964111328125,12594.859375,-3701.051025390625,5046.5263671875,0.0,18349.48828125,1566.4100341796875,20897.388671875,14121.5322265625,6099.5419921875,9177.525390625,18773.875,25320.052734375,12001.197265625,14737.447265625,16071.796875,3808.33935546875,24193.921875,-6305.37646484375,-0.0,267.02880859375,9227.59375,3905.29638671875,20309.2890625,13230.6416015625,8446.3759765625,20562.013671875,7339.31884765625,8598.16796875,3631.90966796875,-901.2222290039062,19244.3515625,4814.4658203125,14100.0751953125,5733.966796875,2730.6875,8972.4853515625,9984.9697265625,-298.0232238769531,3892.580810546875,-1276.3341064453125,10726.4521484375,-93.7779769897461,2464.453369140625,-904.401123046875,2883.275390625,2137.025146484375,19412.041015625,2477.963623046875,9383.361328125,12.715657234191895,7301.171875,22273.064453125,18499.693359375,13577.1435546875,-0.0,-49730.140625,15876.29296875,5281.7666015625,0.0,5821.38671875,0.0,0.0
10992.6865234375,9511.3115234375,25818.34765625,7726.35107421875,24719.23828125,2105.236083984375,3384.749267578125,3476.142822265625,6465.912109375,3469.784912109375,12592.474609375,-3695.488037109375,5045.73193359375,0.0,18347.8984375,1563.2310791015625,20897.388671875,14117.55859375,6096.36328125,9175.1416015625,18770.6953125,25318.46484375,11995.6328125,14734.2685546875,16068.6171875,3805.16064453125,24194.716796875,-6310.14501953125,-0.0,266.23406982421875,9225.208984375,3905.29638671875,20308.494140625,13229.052734375,8443.9912109375,20560.423828125,7336.9345703125,8596.5791015625,3642.2412109375,-922.679931640625,19243.55859375,4811.287109375,14098.4853515625,5729.1982421875,2725.9189453125,8970.896484375,9988.9443359375,-305.17578125,3893.37548828125,-1283.4866943359375,10724.0673828125,-100.13580322265625,2466.837646484375,-885.32763671875,2888.043701171875,2140.2041015625,19413.62890625,2473.1953125,9380.181640625,5.563100337982178,7306.734375,22270.6796875,18498.1015625,13577.1435546875,-0.0,-49730.9375,15870.7294921875,5279.38232421875,0.0,5818.2080078125,0.0,0.0
10997.455078125,9521.6435546875,25820.732421875,7727.14599609375,24724.005859375,2105.236083984375,3390.312255859375,3482.500732421875,6473.064453125,3480.11669921875,12594.0634765625,-3683.567138671875,5045.73193359375,0.0,18354.2578125,1571.97314453125,20903.74609375,14122.3271484375,6102.720703125,9184.677734375,18774.66796875,25324.025390625,12001.197265625,14740.6259765625,16069.412109375,3806.75,24197.1015625,-6304.58203125,-0.0,279.7444763183594,9229.18359375,3914.0380859375,20314.8515625,13236.205078125,8447.96484375,20565.19140625,7343.2919921875,8602.142578125,3664.49365234375,-927.4482421875,19247.53125,4814.4658203125,14103.2529296875,5732.37744140625,2732.27685546875,8978.84375,9997.685546875,-294.0495910644531,3894.170166015625,-1279.5130615234375,10730.42578125,-92.18851470947266,2466.837646484375,-870.227783203125,2887.2490234375,2148.1513671875,19416.80859375,2479.55322265625,9386.5390625,14.30511474609375,7322.62939453125,22276.244140625,18505.25390625,13585.884765625,-0.0,-49717.42578125,15874.7041015625,5287.3291015625,0.0,5830.12890625,0.0,0.0
10988.7119140625,9504.1591796875,25814.375,7704.09912109375,24720.826171875,2106.03076171875,3388.72265625,3480.11669921875,6469.0908203125,3474.553466796875,12585.322265625,-3694.693359375,5042.552734375,0.0,18352.666015625,1567.204833984375,20895.798828125,14119.1484375,6101.13134765625,9180.705078125,18771.490234375,25318.46484375,11996.4287109375,14739.0361328125,16063.8486328125,3810.7236328125,24193.921875,-6305.37646484375,-0.0,275.77081298828125,9224.4150390625,3898.9384765625,20307.69921875,13229.052734375,8443.9912109375,20563.6015625,7340.11328125,8598.9638671875,3650.983154296875,-913.1431884765625,19242.763671875,4812.08203125,14099.2802734375,5732.37744140625,2729.892822265625,8971.69140625,10004.0439453125,-300.40740966796875,3888.60693359375,-1274.74462890625,10728.0419921875,-94.57270050048828,2460.479736328125,-917.9114990234375,2874.533447265625,2156.0986328125,19412.8359375,2477.1689453125,9383.361328125,8.74201488494873,7321.03955078125,22273.064453125,18501.28125,13581.912109375,-0.0,-49726.96484375,15876.29296875,5277.79248046875,0.0,5824.56591796875,0.0,0.0
10988.7119140625,9511.3115234375,25818.34765625,7699.33056640625,24720.033203125,2104.44140625,3387.13330078125,3477.732421875,6465.912109375,3468.195556640625,12586.1171875,-3693.103759765625,5043.34765625,0.0,18351.078125,1567.99951171875,20892.619140625,14119.1484375,6099.5419921875,9176.7314453125,18771.490234375,25313.6953125,11994.8388671875,14737.447265625,16063.0546875,3807.544677734375,24193.12890625,-6306.96630859375,-0.0,274.1813659667969,9222.0302734375,3896.55419921875,20306.111328125,13223.4892578125,8443.9912109375,20561.21875,7340.11328125,8595.7841796875,3639.062255859375,-897.2485961914062,19242.763671875,4807.3134765625,14097.6904296875,5729.9931640625,2725.124267578125,8969.306640625,10009.6064453125,-294.84429931640625,3886.222900390625,-1279.5130615234375,10725.6572265625,-96.9568862915039,2461.2744140625,-912.3484497070312,2873.738525390625,2152.125,19410.451171875,2478.758544921875,9384.1552734375,6.357828617095947,7323.423828125,22271.474609375,18500.486328125,13577.9384765625,-0.0,-49726.16796875,15879.47265625,5270.64013671875,0.0,5821.38671875,0.0,0.0
10982.3544921875,9525.6162109375,25817.552734375,7700.919921875,24719.23828125,2096.493896484375,3379.18603515625,3467.40087890625,6454.78564453125,3459.45361328125,12584.52734375,-3689.130126953125,5042.552734375,0.0,18345.513671875,1561.6417236328125,20890.236328125,14116.763671875,6091.5947265625,9167.1943359375,18769.10546875,25310.515625,11988.48046875,14730.2939453125,16068.6171875,3797.21337890625,24189.94921875,-6314.11865234375,-0.0,276.5655517578125,9220.4404296875,3897.34912109375,20305.314453125,13219.515625,8440.8125,20554.06640625,7333.75537109375,8588.6318359375,3640.651611328125,-894.0697021484375,19242.763671875,4800.16064453125,14095.306640625,5721.2509765625,2717.9716796875,8962.94921875,10003.2490234375,-289.2812194824219,3886.222900390625,-1289.844482421875,10720.888671875,-104.9041748046875,2446.96923828125,-896.453857421875,2879.3017578125,2144.177734375,19408.861328125,2474.784912109375,9377.796875,-3.1789143085479736,7324.21875,22265.91015625,18490.94921875,13565.22265625,-0.0,-49720.60546875,15871.5244140625,5269.05078125,0.0,5811.0556640625,0.0,0.0
10995.0703125,9528.0009765625,25815.962890625,7710.45703125,24727.98046875,2099.673095703125,3381.570068359375,3471.37451171875,6457.169921875,3464.221923828125,12571.8115234375,-3682.7724609375,5047.3212890625,0.0,18348.693359375,1564.02587890625,20899.7734375,14122.3271484375,6096.36328125,9172.7568359375,18778.642578125,25320.052734375,11991.66015625,14735.0625,16083.7177734375,3798.008056640625,24193.921875,-6310.93994140625,-0.0,298.0232238769531,9226.798828125,3900.52783203125,20311.673828125,13229.052734375,8447.96484375,20561.21875,7337.72900390625,8593.400390625,3658.1357421875,-898.0433349609375,19252.30078125,4807.3134765625,14100.869140625,5726.01953125,2718.766357421875,8966.9228515625,10000.0693359375,-281.33392333984375,3893.37548828125,-1292.228759765625,10724.8623046875,-100.93053436279297,2458.89013671875,-887.7118530273438,2890.427734375,2151.330322265625,19411.24609375,2476.374267578125,9379.38671875,0.0,7327.39794921875,22271.474609375,18494.12890625,13570.78515625,-0.0,-49714.25,15869.935546875,5280.1767578125,0.0,5819.00244140625,0.0,0.0
10984.73828125,9518.4638671875,25819.9375,7714.43017578125,24727.98046875,2106.82568359375,3381.570068359375,3471.37451171875,6458.75927734375,3465.0166015625,12512.20703125,-3694.693359375,5041.75830078125,0.0,18348.693359375,1562.4364013671875,20902.15625,14123.9169921875,6095.568359375,9175.9365234375,18779.435546875,25324.025390625,11990.0703125,14737.447265625,16079.744140625,3799.597412109375,24193.12890625,-6310.14501953125,-0.0,259.0815124511719,9229.9775390625,3898.9384765625,20314.05859375,13229.8466796875,8447.96484375,20565.986328125,7336.9345703125,8592.60546875,3643.035888671875,-907.580078125,19250.7109375,4820.82373046875,14101.6640625,5726.814453125,2719.561279296875,8963.744140625,10015.169921875,-279.7444763183594,3893.37548828125,-1289.844482421875,10723.2734375,-100.13580322265625,2458.095458984375,-903.6064453125,2878.5068359375,2148.1513671875,19411.24609375,2470.81103515625,9380.181640625,0.0,7317.86083984375,22272.267578125,18494.923828125,13577.9384765625,-0.0,-49725.37109375,15878.677734375,5278.58740234375,0.0,5819.79736328125,0.0,0.0
10976.791015625,9512.1064453125,25819.9375,7700.919921875,24720.033203125,2097.288818359375,3373.622802734375,3461.043212890625,6444.4541015625,3451.50634765625,12547.9697265625,-3700.25634765625,5035.400390625,0.0,18339.15625,1550.5155029296875,20893.416015625,14113.5859375,6085.23681640625,9158.4521484375,18771.490234375,25313.6953125,11980.533203125,14727.91015625,16074.1806640625,3776.55029296875,24185.1796875,-6314.11865234375,-0.0,254.31314086914062,9222.8251953125,3894.170166015625,20307.69921875,13219.515625,8440.017578125,20557.24609375,7327.39794921875,8581.4794921875,3631.90966796875,-907.580078125,19245.943359375,4802.544921875,14092.921875,5719.66162109375,2708.43505859375,8953.412109375,10006.427734375,-290.075927734375,3891.785888671875,-1291.4339599609375,10714.53125,-109.67254638671875,2448.558837890625,-909.1694946289062,2864.201904296875,2149.740966796875,19405.68359375,2460.479736328125,9368.2607421875,-11.126200675964355,7305.93994140625,22264.322265625,18481.412109375,13557.2744140625,-0.0,-49735.70703125,15873.9091796875,5271.4345703125,0.0,5807.87646484375,0.0,0.0
10993.48046875,9521.6435546875,25828.6796875,7710.45703125,24726.390625,2098.878173828125,3378.391357421875,3466.606201171875,6451.60693359375,3457.864013671875,12596.4482421875,-3686.745849609375,5039.3740234375,0.0,18343.130859375,1556.07861328125,20899.7734375,14120.73828125,6091.5947265625,9165.6044921875,18777.84765625,25318.46484375,11986.8916015625,14732.6787109375,16080.5380859375,3810.7236328125,24191.537109375,-6308.5556640625,-0.0,274.1813659667969,9229.9775390625,3900.52783203125,20314.05859375,13228.2568359375,8446.3759765625,20562.806640625,7333.75537109375,8588.6318359375,3657.341064453125,-903.6064453125,19253.095703125,4799.3662109375,14098.4853515625,5723.63525390625,2712.40869140625,8959.7705078125,9992.9169921875,-277.36029052734375,3891.785888671875,-1280.3077392578125,10720.09375,-104.9041748046875,2466.837646484375,-890.8907470703125,2870.5595703125,2153.71435546875,19408.861328125,2473.1953125,9373.0283203125,-3.1789143085479736,7313.88720703125,22271.474609375,18487.771484375,13567.6064453125,-0.0,-49722.1953125,15874.7041015625,5275.408203125,0.0,5818.2080078125,0.0,0.0
10987.91796875,9520.0537109375,25831.064453125,7718.404296875,24726.390625,2099.673095703125,3384.749267578125,3472.169189453125,6463.52783203125,3472.169189453125,12605.984375,-3689.130126953125,5034.60546875,0.0,18352.666015625,1561.6417236328125,20905.3359375,14124.7109375,6097.15771484375,9182.2939453125,18781.8203125,25326.41015625,11989.2763671875,14736.65234375,16079.744140625,3808.33935546875,24196.306640625,-6310.93994140625,-0.0,268.6182556152344,9234.74609375,3902.912109375,20319.62109375,13234.615234375,8450.3486328125,20565.19140625,7339.31884765625,8592.60546875,3646.21484375,-900.427490234375,19253.888671875,4808.10791015625,14100.869140625,5722.8408203125,2721.150634765625,8967.716796875,10011.990234375,-272.5919189453125,3890.196533203125,-1283.4866943359375,10726.4521484375,-99.34107208251953,2469.221923828125,-895.6591186523438,2886.454345703125,2146.561767578125,19412.041015625,2478.758544921875,9385.7451171875,4.76837158203125,7317.06640625,22274.65234375,18496.513671875,13590.6533203125,-0.0,-49713.453125,15883.4453125,5277.79248046875,0.0,5827.7451171875,0.0,0.0
10989.5068359375,9528.7958984375,25832.65234375,7730.3251953125,24727.98046875,2105.236083984375,3389.517578125,3476.9375,6462.73291015625,3472.964111328125,12610.7529296875,-3680.38818359375,5037.78466796875,0.0,18354.2578125,1567.99951171875,20913.283203125,14129.4794921875,6101.92626953125,9183.0888671875,18785.794921875,25332.76953125,11991.66015625,14741.4208984375,16070.2080078125,3813.902587890625,24205.048828125,-6306.96630859375,-0.0,284.5128479003906,9240.3095703125,3912.448974609375,20325.18359375,13244.15234375,8454.3232421875,20571.55078125,7342.49755859375,8596.5791015625,3652.57275390625,-890.8907470703125,19253.095703125,4817.64453125,14106.4326171875,5725.22509765625,2723.534912109375,8971.69140625,10031.064453125,-259.8762512207031,3894.96484375,-1288.255126953125,10730.42578125,-95.367431640625,2461.2744140625,-882.9434814453125,2888.838623046875,2161.661865234375,19414.42578125,2484.321533203125,9385.7451171875,11.126200675964355,7326.60302734375,22280.216796875,18501.28125,13586.6806640625,-0.0,-49707.09765625,15878.677734375,5284.94482421875,0.0,5826.9501953125,0.0,0.0
10979.9697265625,9518.4638671875,25816.759765625,7717.609375,24717.650390625,2099.673095703125,3381.570068359375,3468.195556640625,6452.40185546875,3462.63232421875,12601.216796875,-3689.130126953125,5040.9638671875,0.0,18348.693359375,1561.6417236328125,20902.15625,14120.73828125,6092.3896484375,9171.16796875,18773.875,25321.642578125,11982.91796875,14731.08984375,16051.927734375,3807.544677734375,24203.458984375,-6314.9130859375,-0.0,271.00244140625,9228.388671875,3900.52783203125,20311.673828125,13233.025390625,8440.8125,20562.013671875,7332.166015625,8587.8369140625,3639.85693359375,-901.2222290039062,19238.791015625,4807.3134765625,14097.6904296875,5716.482421875,2713.998046875,8962.94921875,10013.580078125,-283.7181091308594,3888.60693359375,-1294.6129150390625,10724.0673828125,-103.3147201538086,2456.506103515625,-894.8643798828125,2864.99658203125,2157.688232421875,19412.041015625,2477.1689453125,9376.2080078125,2.384185791015625,7313.0927734375,22269.884765625,18492.541015625,13573.9638671875,-0.0,-49716.6328125,15877.0888671875,5284.150390625,0.0,5822.181640625,0.0,0.0
10969.638671875,9507.3388671875,25815.962890625,7696.94677734375,24710.49609375,2094.904541015625,3376.8017578125,3459.45361328125,6443.6591796875,3453.890625,12594.859375,-3699.461669921875,5036.98974609375,0.0,18342.3359375,1552.899658203125,20894.208984375,14113.5859375,6086.826171875,9160.8359375,18767.515625,25315.28515625,11978.1494140625,14723.1416015625,16055.107421875,3796.41845703125,24192.333984375,-6320.4765625,-0.0,264.6446228027344,9223.6201171875,3895.759521484375,20306.111328125,13225.873046875,8433.6591796875,20554.861328125,7325.80810546875,8581.4794921875,3627.93603515625,-905.9906005859375,19236.40625,4804.13427734375,14090.5380859375,5709.330078125,2706.845458984375,8954.20703125,10017.5546875,-314.7125244140625,3880.659912109375,-1300.176025390625,10716.12109375,-110.46727752685547,2448.558837890625,-900.427490234375,2862.612548828125,2148.1513671875,19403.298828125,2467.63232421875,9368.2607421875,-6.357828617095947,7306.734375,22261.9375,18483.00390625,13559.6591796875,-0.0,-49725.37109375,15869.935546875,5268.255859375,0.0,5809.4658203125,0.0,0.0
10974.4072265625,9526.412109375,25838.216796875,7719.99365234375,24724.005859375,2113.97802734375,3386.33837890625,3473.7587890625,6453.99072265625,3465.8115234375,12602.8056640625,-3681.9775390625,5055.2685546875,0.0,18350.283203125,1566.4100341796875,20912.48828125,14129.4794921875,6099.5419921875,9171.962890625,18784.205078125,25333.5625,11991.66015625,14738.2421875,16075.76953125,3817.08154296875,24185.9765625,-6302.19775390625,-0.0,282.9233703613281,9239.5146484375,3912.448974609375,20322.798828125,13244.15234375,8447.96484375,20571.55078125,7336.9345703125,8594.990234375,3635.088623046875,-885.32763671875,19255.48046875,4825.591796875,14099.2802734375,5729.1982421875,2718.766357421875,8966.1279296875,10036.6279296875,-285.30755615234375,3890.196533203125,-1277.923583984375,10722.4775390625,-92.98324584960938,2464.453369140625,-874.2014770507812,2883.275390625,2170.40380859375,19413.62890625,2481.9375,9378.5927734375,5.563100337982178,7323.423828125,22275.447265625,18494.12890625,13570.78515625,-0.0,-49712.65625,15870.7294921875,5279.38232421875,0.0,5822.181640625,0.0,0.0
11001.427734375,9544.6904296875,25851.7265625,7743.83544921875,24739.900390625,2137.025146484375,3400.6435546875,3492.832275390625,6470.68017578125,3483.29541015625,12611.548828125,-3674.824951171875,5060.83154296875,0.0,18359.025390625,1589.4571533203125,20927.587890625,14146.1689453125,6113.84716796875,9188.65234375,18798.509765625,25351.84375,12009.1435546875,14755.7255859375,16090.07421875,3849.665283203125,24199.486328125,-6279.150390625,-0.0,292.4601135253906,9256.2041015625,3926.75390625,20340.28515625,13261.6357421875,8463.0654296875,20589.828125,7353.6240234375,8613.2685546875,3673.235595703125,-875.7908935546875,19270.578125,4849.43408203125,14113.5859375,5752.24560546875,2737.04541015625,8983.6123046875,10040.6005859375,-253.5184326171875,3904.501708984375,-1246.1343994140625,10735.98828125,-72.32030487060547,2487.50048828125,-869.43310546875,2895.990966796875,2193.450927734375,19422.373046875,2502.600341796875,9389.7177734375,23.84185791015625,7331.37109375,22290.548828125,18510.818359375,13588.26953125,-0.0,-49699.9453125,15875.498046875,5298.45556640625,0.0,5838.87109375,0.0,0.0
11000.6328125,9528.0009765625,25832.65234375,7723.96728515625,24726.390625,2111.593994140625,3390.312255859375,3480.11669921875,6463.52783203125,3472.964111328125,12591.6796875,-3681.9775390625,5047.3212890625,0.0,18350.283203125,1574.357421875,20910.10546875,14129.4794921875,6103.515625,9180.705078125,18783.41015625,25331.974609375,11996.4287109375,14739.0361328125,16074.1806640625,3821.05517578125,24190.744140625,-6294.25048828125,-0.0,287.6917419433594,9240.3095703125,3908.475341796875,20324.388671875,13243.357421875,8448.759765625,20569.958984375,7339.31884765625,8598.9638671875,3692.30908203125,-895.6591186523438,19256.2734375,4819.234375,14103.2529296875,5734.76171875,2729.09814453125,8971.69140625,10014.375,-266.23406982421875,3892.580810546875,-1269.181640625,10727.24609375,-84.2412338256836,2474.784912109375,-893.2749633789062,2884.86474609375,2167.224853515625,19415.220703125,2488.29541015625,9380.9765625,14.30511474609375,7313.88720703125,22277.037109375,18502.076171875,13585.0908203125,-0.0,-49711.86328125,15877.8818359375,5293.6875,0.0,5831.71826171875,0.0,0.0
11002.22265625,9528.0009765625,25829.47265625,7720.78857421875,24727.185546875,2105.236083984375,3391.10693359375,3479.32177734375,6463.52783203125,3473.7587890625,12592.474609375,-3682.7724609375,5047.3212890625,0.0,18348.693359375,1568.794189453125,20908.513671875,14126.30078125,6101.92626953125,9179.91015625,18783.41015625,25328.794921875,11997.22265625,14735.8583984375,16073.384765625,3814.697265625,24192.333984375,-6299.81396484375,-0.0,287.6917419433594,9238.7197265625,3903.706787109375,20321.2109375,13242.5625,8449.5546875,20568.37109375,7339.31884765625,8598.16796875,3662.109375,-887.7118530273438,19255.48046875,4816.85009765625,14105.6376953125,5731.58251953125,2729.09814453125,8973.28125,10016.7587890625,-269.4129943847656,3892.580810546875,-1278.7183837890625,10726.4521484375,-86.62541961669922,2463.65869140625,-884.532958984375,2888.043701171875,2157.688232421875,19414.42578125,2485.1162109375,9380.9765625,14.30511474609375,7321.83447265625,22276.244140625,18503.666015625,13581.912109375,-0.0,-49715.8359375,15873.11328125,5293.6875,0.0,5834.8974609375,0.0,0.0
10993.48046875,9526.412109375,25824.705078125,7711.251953125,24724.005859375,2102.851806640625,3387.927978515625,3474.553466796875,6461.1435546875,3468.990234375,12585.322265625,-3689.925048828125,5044.14208984375,0.0,18347.8984375,1562.4364013671875,20902.953125,14123.1220703125,6099.5419921875,9176.7314453125,18777.052734375,25324.025390625,11993.2490234375,14733.4736328125,16067.0283203125,3805.955078125,24189.154296875,-6304.58203125,-0.0,279.7444763183594,9232.361328125,3902.912109375,20316.443359375,13237.0,8446.3759765625,20564.3984375,7336.9345703125,8594.1953125,3643.035888671875,-890.0960083007812,19249.916015625,4813.6708984375,14102.458984375,5729.1982421875,2726.7138671875,8968.5126953125,10019.9384765625,-287.6917419433594,3888.60693359375,-1283.4866943359375,10723.2734375,-91.39379119873047,2456.506103515625,-876.5856323242188,2884.86474609375,2149.740966796875,19411.24609375,2478.758544921875,9377.796875,8.74201488494873,7326.60302734375,22272.267578125,18499.693359375,13577.1435546875,-0.0,-49719.80859375,15869.140625,5281.7666015625,0.0,5824.56591796875,0.0,0.0
10984.73828125,9528.0009765625,25831.064453125,7724.76171875,24732.748046875,2116.3623046875,3400.6435546875,3488.063720703125,6474.65380859375,3483.29541015625,12591.6796875,-3672.440673828125,5049.70556640625,0.0,18358.23046875,1575.94677734375,20908.513671875,14134.248046875,6112.25732421875,9189.4462890625,18786.587890625,25330.384765625,12005.169921875,14744.599609375,16075.76953125,3816.286865234375,24199.486328125,-6292.6611328125,-0.0,293.2548522949219,9241.1044921875,3910.859619140625,20322.00390625,13244.9462890625,8455.1171875,20573.138671875,7348.060546875,8604.5263671875,3658.1357421875,-885.32763671875,19259.453125,4821.61865234375,14113.5859375,5741.9140625,2741.01904296875,8981.2275390625,10023.1171875,-285.30755615234375,3898.9384765625,-1269.181640625,10735.1943359375,-77.8833999633789,2470.0166015625,-876.5856323242188,2887.2490234375,2160.072265625,19418.3984375,2491.47412109375,9389.7177734375,23.84185791015625,7332.96044921875,22282.599609375,18510.818359375,13597.01171875,-0.0,-49700.73828125,15880.2666015625,5298.45556640625,0.0,5843.63916015625,0.0,0.0
10995.865234375,9549.458984375,25847.75390625,7751.78271484375,24751.02734375,2142.58837890625,3418.92236328125,3511.90576171875,6491.34326171875,3502.368896484375,12606.7802734375,-3655.75146484375,5064.0107421875,0.0,18367.767578125,1598.993896484375,20929.97265625,14154.1162109375,6132.9208984375,9207.7255859375,18805.662109375,25353.431640625,12029.01171875,14766.056640625,16094.0498046875,3847.28125,24214.5859375,-6268.8193359375,-0.0,317.8914489746094,9260.9716796875,3932.317138671875,20341.078125,13266.404296875,8474.986328125,20594.59765625,7367.13427734375,8625.984375,3674.824951171875,-869.43310546875,19278.525390625,4851.0234375,14131.0693359375,5766.55078125,2761.681884765625,9001.095703125,10010.4013671875,-251.928955078125,3916.42236328125,-1244.544921875,10751.087890625,-57.220458984375,2490.679443359375,-861.4857788085938,2901.55419921875,2187.887939453125,19429.525390625,2516.110595703125,9403.228515625,47.6837158203125,7352.0341796875,22302.46875,18529.892578125,13612.111328125,-0.0,-49679.28125,15885.0341796875,5323.88671875,0.0,5867.4814453125,0.0,0.0
11013.3486328125,9542.3056640625,25843.779296875,7735.09375,24743.080078125,2136.23046875,3411.769775390625,3502.368896484375,6488.958984375,3491.24267578125,12605.1904296875,-3670.8515625,5057.65283203125,0.0,18361.41015625,1584.6888427734375,20925.998046875,14146.1689453125,6124.17822265625,9199.7783203125,18799.3046875,25346.279296875,12024.2431640625,14758.1103515625,16082.921875,3853.638916015625,24209.0234375,-6277.56103515625,-0.0,305.17578125,9254.615234375,3927.548828125,20335.515625,13260.046875,8467.0380859375,20588.240234375,7358.39208984375,8618.037109375,3660.519775390625,-878.9698486328125,19268.193359375,4845.46044921875,14123.9169921875,5759.39794921875,2757.708251953125,8990.7646484375,10001.6591796875,-246.36587524414062,3910.064697265625,-1254.081787109375,10743.935546875,-68.3466567993164,2490.679443359375,-871.0225219726562,2892.81201171875,2179.9404296875,19424.7578125,2505.779296875,9396.076171875,34.1733283996582,7340.11328125,22293.7265625,18521.150390625,13604.958984375,-0.0,-49694.37890625,15882.650390625,5304.0185546875,0.0,5848.40771484375,0.0,0.0
11007.7861328125,9529.5908203125,25838.216796875,7716.814453125,24732.748046875,2122.719970703125,3399.05419921875,3489.6533203125,6481.80615234375,3483.29541015625,12592.474609375,-3683.567138671875,5044.93701171875,0.0,18352.666015625,1575.94677734375,20911.693359375,14132.6591796875,6113.05224609375,9191.0361328125,18788.97265625,25333.5625,12013.912109375,14745.39453125,16080.5380859375,3839.333740234375,24197.1015625,-6292.6611328125,-0.0,294.84429931640625,9242.6943359375,3910.859619140625,20323.595703125,13244.9462890625,8455.1171875,20575.5234375,7347.265625,8608.5,3637.472900390625,-891.6854858398438,19262.6328125,4831.94970703125,14112.7900390625,5745.8876953125,2747.376708984375,8982.0224609375,10011.1962890625,-259.0815124511719,3898.143798828125,-1272.3604736328125,10732.0146484375,-78.67813110351562,2483.52685546875,-878.9698486328125,2880.89111328125,2164.046142578125,19411.24609375,2493.063720703125,9386.5390625,23.84185791015625,7321.83447265625,22281.01171875,18510.0234375,13597.8056640625,-0.0,-49711.06640625,15885.830078125,5298.45556640625,0.0,5848.40771484375,0.0,0.0
10999.0439453125,9516.875,25824.705078125,7716.814453125,24722.41796875,2111.593994140625,3387.927978515625,3479.32177734375,6468.2958984375,3472.169189453125,12580.5537109375,-3697.077392578125,5040.1689453125,0.0,18342.3359375,1567.99951171875,20901.361328125,14123.9169921875,6101.92626953125,9177.525390625,18777.84765625,25323.232421875,12001.9912109375,14735.8583984375,16077.3603515625,3820.26025390625,24185.9765625,-6302.9921875,-0.0,276.5655517578125,9233.951171875,3899.7333984375,20314.05859375,13239.3837890625,8443.9912109375,20564.3984375,7335.3447265625,8598.9638671875,3630.3203125,-901.2222290039062,19252.30078125,4824.79736328125,14099.2802734375,5734.76171875,2733.866455078125,8971.69140625,9988.9443359375,-268.6182556152344,3889.401611328125,-1281.1025390625,10719.298828125,-86.62541961669922,2484.321533203125,-887.7118530273438,2870.5595703125,2156.8935546875,19400.119140625,2487.50048828125,9374.6181640625,15.09984302520752,7310.70849609375,22270.6796875,18498.1015625,13584.2958984375,-0.0,-49721.40234375,15881.8564453125,5294.48193359375,0.0,5844.43408203125,0.0,0.0
10977.5859375,9502.5703125,25803.248046875,7701.71484375,24706.521484375,2094.10986328125,3372.828125,3461.837890625,6455.580078125,3454.685302734375,12561.48046875,-3704.22998046875,5028.248046875,0.0,18331.208984375,1545.7471923828125,20886.263671875,14108.021484375,6086.03125,9160.8359375,18761.953125,25308.1328125,11985.3017578125,14717.5791015625,16051.1337890625,3795.623779296875,24172.46484375,-6321.271484375,-0.0,258.28680419921875,9219.646484375,3887.017578125,20298.95703125,13223.4892578125,8428.8916015625,20547.708984375,7320.2451171875,8582.2744140625,3622.372802734375,-913.9378662109375,19233.2265625,4805.7236328125,14084.1796875,5716.482421875,2718.766357421875,8954.20703125,9973.84375,-295.6390380859375,3873.50732421875,-1291.4339599609375,10706.583984375,-108.08309173583984,2468.427001953125,-903.6064453125,2853.07568359375,2144.97265625,19392.171875,2464.453369140625,9361.107421875,-4.76837158203125,7295.6083984375,22255.578125,18483.796875,13565.22265625,-0.0,-49730.140625,15870.7294921875,5264.2822265625,0.0,5811.0556640625,0.0,0.0
10970.43359375,9489.0595703125,25797.685546875,7692.17822265625,24700.9609375,2084.572998046875,3368.059814453125,3452.301025390625,6450.017578125,3449.916748046875,12562.275390625,-3719.329833984375,5025.06884765625,0.0,18330.416015625,1536.21044921875,20878.314453125,14100.0751953125,6077.28955078125,9153.68359375,18755.59375,25300.98046875,11977.35546875,14708.0419921875,16046.3662109375,3784.49755859375,24170.875,-6327.62890625,-0.0,251.928955078125,9208.51953125,3877.480712890625,20291.009765625,13213.9521484375,8422.5341796875,20540.556640625,7312.2978515625,8574.326171875,3609.6572265625,-928.2429809570312,19226.07421875,4795.392578125,14079.4111328125,5709.330078125,2713.203369140625,8947.849609375,9979.4072265625,-305.17578125,3871.917724609375,-1293.818115234375,10702.6103515625,-119.20928955078125,2445.3798828125,-916.3220825195312,2856.254638671875,2125.899169921875,19392.966796875,2446.96923828125,9358.7236328125,-10.33147144317627,7279.7138671875,22247.6328125,18476.64453125,13560.4541015625,-0.0,-49750.01171875,15869.935546875,5259.513671875,0.0,5811.85009765625,0.0,0.0
10991.0966796875,9500.185546875,25815.16796875,7686.615234375,24712.0859375,2096.493896484375,3375.21240234375,3458.658935546875,6453.99072265625,3448.327392578125,12584.52734375,-3699.461669921875,5033.81103515625,0.0,18337.568359375,1539.3892822265625,20890.236328125,14111.201171875,6083.6474609375,9156.0673828125,18768.310546875,25311.3125,11986.8916015625,14716.7841796875,16059.080078125,3796.41845703125,24181.20703125,-6320.4765625,-0.0,256.69732666015625,9220.4404296875,3890.9912109375,20303.7265625,13222.6943359375,8432.0703125,20550.091796875,7319.4501953125,8580.6845703125,3618.3994140625,-911.5537109375,19237.19921875,4805.7236328125,14088.9482421875,5718.86669921875,2716.38232421875,8950.2333984375,10004.0439453125,-307.5599670410156,3883.0439453125,-1280.3077392578125,10710.556640625,-114.44091796875,2454.916748046875,-908.374755859375,2880.89111328125,2128.283203125,19404.888671875,2454.916748046875,9365.8759765625,-8.74201488494873,7287.6611328125,22257.169921875,18480.619140625,13555.685546875,-0.0,-49734.91015625,15871.5244140625,5253.95068359375,0.0,5807.87646484375,0.0,0.0
11006.9912109375,9513.6953125,25828.6796875,7712.8408203125,24716.853515625,2102.851806640625,3378.391357421875,3463.42724609375,6457.169921875,3453.890625,12586.9111328125,-3687.540771484375,5038.57958984375,0.0,18341.541015625,1546.5418701171875,20902.15625,14117.55859375,6090.00537109375,9159.2470703125,18774.66796875,25324.025390625,11991.66015625,14724.7314453125,16059.080078125,3809.13427734375,24185.1796875,-6317.29736328125,-0.0,278.1549987792969,9231.5673828125,3900.52783203125,20313.263671875,13238.5888671875,8436.8388671875,20558.0390625,7325.013671875,8586.2470703125,3624.757080078125,-894.8643798828125,19245.1484375,4820.02880859375,14093.716796875,5723.63525390625,2721.150634765625,8956.591796875,10017.5546875,-294.0495910644531,3883.0439453125,-1281.897216796875,10713.736328125,-109.67254638671875,2466.837646484375,-885.32763671875,2879.3017578125,2149.740966796875,19408.861328125,2468.427001953125,9368.2607421875,-4.76837158203125,7306.734375,22262.732421875,18486.181640625,13561.2490234375,-0.0,-49721.40234375,15869.140625,5260.30859375,0.0,5809.4658203125,0.0,0.0
11000.6328125,9511.3115234375,25822.3203125,7706.4833984375,24714.470703125,2095.69921875,3374.41748046875,3459.45361328125,6456.375,3453.095703125,12583.732421875,-3695.488037109375,5039.3740234375,0.0,18338.361328125,1542.5682373046875,20898.9765625,14113.5859375,6086.03125,9158.4521484375,18770.6953125,25318.46484375,11986.8916015625,14721.552734375,16060.6708984375,3801.981689453125,24182.001953125,-6318.88720703125,-0.0,278.1549987792969,9227.59375,3894.96484375,20310.083984375,13235.41015625,8432.0703125,20553.26953125,7321.03955078125,8583.068359375,3641.4462890625,-899.6327514648438,19243.55859375,4814.4658203125,14091.33203125,5719.66162109375,2718.766357421875,8955.7958984375,10001.6591796875,-289.2812194824219,3880.659912109375,-1291.4339599609375,10712.146484375,-115.23564910888672,2458.89013671875,-882.1487426757812,2865.791259765625,2135.435791015625,19402.50390625,2470.81103515625,9366.671875,-6.357828617095947,7309.91357421875,22255.578125,18483.796875,13562.04296875,-0.0,-49722.98828125,15871.5244140625,5260.30859375,0.0,5811.0556640625,0.0,0.0
10999.0439453125,9530.384765625,25837.421875,7722.3779296875,24733.54296875,2112.388671875,3396.670166015625,3482.500732421875,6481.80615234375,3478.527099609375,12607.57421875,-3674.824951171875,5054.4736328125,0.0,18355.05078125,1567.204833984375,20916.462890625,14131.86328125,6105.10498046875,9186.267578125,18790.564453125,25335.947265625,12005.96484375,14741.4208984375,16089.28125,3813.902587890625,24200.28125,-6301.40283203125,-0.0,305.17578125,9245.078125,3909.269775390625,20326.7734375,13252.0986328125,8454.3232421875,20571.55078125,7343.2919921875,8602.9365234375,3643.035888671875,-887.7118530273438,19262.6328125,4830.3603515625,14111.201171875,5739.5302734375,2741.01904296875,8977.25390625,10000.865234375,-271.00244140625,3905.29638671875,-1275.5394287109375,10732.8095703125,-93.7779769897461,2450.1484375,-880.5592651367188,2871.354248046875,2159.277587890625,19414.42578125,2485.1162109375,9389.7177734375,17.48402976989746,7329.7822265625,22275.447265625,18504.4609375,13598.6015625,-0.0,-49699.14453125,15885.0341796875,5295.27685546875,0.0,5842.8447265625,0.0,0.0
10975.9970703125,9531.1806640625,25843.779296875,7734.298828125,24742.28515625,2124.3095703125,3407.796142578125,3492.03759765625,6492.1376953125,3488.8583984375,12617.9052734375,-3662.904052734375,5067.189453125,0.0,18364.587890625,1578.3310546875,20924.41015625,14142.1953125,6114.6416015625,9197.39453125,18798.509765625,25347.07421875,12014.70703125,14749.3681640625,16090.07421875,3820.26025390625,24211.40625,-6293.45556640625,-0.0,300.40740966796875,9255.4091796875,3917.21728515625,20334.720703125,13261.6357421875,8462.26953125,20582.67578125,7350.44482421875,8611.6787109375,3639.062255859375,-878.9698486328125,19270.578125,4843.87060546875,14119.1484375,5746.6826171875,2749.760986328125,8985.2021484375,9996.0966796875,-269.4129943847656,3914.0380859375,-1267.592041015625,10742.3466796875,-83.44650268554688,2448.558837890625,-888.506591796875,2883.275390625,2171.198486328125,19424.7578125,2493.8583984375,9400.8447265625,22.25240135192871,7334.55029296875,22285.779296875,18513.203125,13612.90625,-0.0,-49691.19921875,15884.2412109375,5296.86572265625,0.0,5846.0234375,0.0,0.0
10954.5390625,9529.5908203125,25832.65234375,7731.11962890625,24735.1328125,2125.899169921875,3399.05419921875,3489.6533203125,6484.9853515625,3484.090087890625,12593.26953125,-3670.056640625,5048.1162109375,0.0,18359.025390625,1578.3310546875,20922.025390625,14138.2216796875,6110.66796875,9191.0361328125,18792.15234375,25347.07421875,12005.96484375,14747.779296875,16080.5380859375,3831.386474609375,24204.25390625,-6291.0712890625,-0.0,280.5391845703125,9250.640625,3914.0380859375,20329.953125,13259.251953125,8457.5009765625,20581.087890625,7344.0869140625,8608.5,3681.182861328125,-891.6854858398438,19262.6328125,4845.46044921875,14113.5859375,5745.8876953125,2742.6083984375,8980.43359375,9988.1484375,-267.02880859375,3903.706787109375,-1261.2342529296875,10735.98828125,-84.2412338256836,2451.737548828125,-888.506591796875,2888.043701171875,2160.866943359375,19419.193359375,2498.626708984375,9392.1025390625,23.047128677368164,7328.9873046875,22281.8046875,18510.818359375,13604.958984375,-0.0,-49695.17578125,15885.0341796875,5288.9189453125,0.0,5837.28173828125,0.0,0.0
10958.5126953125,9522.4384765625,25815.16796875,7714.43017578125,24719.23828125,2113.183349609375,3385.5439453125,3477.732421875,6472.26953125,3477.732421875,12556.7119140625,-3684.36181640625,5033.01611328125,0.0,18347.8984375,1570.3836669921875,20905.3359375,14121.5322265625,6096.36328125,9181.4990234375,18777.052734375,25329.58984375,11990.0703125,14732.6787109375,16068.6171875,3832.18115234375,24189.94921875,-6300.6083984375,-0.0,280.5391845703125,9233.951171875,3897.34912109375,20314.05859375,13243.357421875,8439.2236328125,20562.806640625,7332.96044921875,8594.990234375,3658.1357421875,-907.580078125,19247.53125,4821.61865234375,14099.2802734375,5732.37744140625,2729.09814453125,8970.1015625,9981.791015625,-267.02880859375,3888.60693359375,-1267.592041015625,10724.0673828125,-92.98324584960938,2442.200927734375,-883.7382202148438,2882.480712890625,2150.53564453125,19409.65625,2488.29541015625,9380.9765625,17.48402976989746,7321.83447265625,22267.5,18499.693359375,13598.6015625,-0.0,-49717.42578125,15873.9091796875,5285.73974609375,0.0,5847.61279296875,0.0,0.0
10989.5068359375,9523.232421875,25822.3203125,7712.04638671875,24718.443359375,2098.08349609375,3385.5439453125,3469.784912109375,6465.1171875,3469.784912109375,12567.837890625,-3689.130126953125,5036.98974609375,0.0,18346.310546875,1560.846923828125,20903.74609375,14116.763671875,6090.7998046875,9171.962890625,18773.875,25323.232421875,11986.0966796875,14724.7314453125,16071.796875,3815.491943359375,24190.744140625,-6310.14501953125,-0.0,284.5128479003906,9230.7734375,3898.9384765625,20314.8515625,13240.9736328125,8436.8388671875,20556.44921875,7331.37109375,8587.8369140625,3631.90966796875,-909.1694946289062,19245.1484375,4812.08203125,14097.6904296875,5724.43017578125,2726.7138671875,8963.744140625,10008.017578125,-278.1549987792969,3892.580810546875,-1284.2813720703125,10723.2734375,-100.93053436279297,2463.65869140625,-883.7382202148438,2880.89111328125,2153.71435546875,19411.24609375,2482.732177734375,9377.0029296875,7.152557373046875,7327.39794921875,22262.732421875,18491.744140625,13585.884765625,-0.0,-49719.015625,15869.140625,5274.61376953125,0.0,5833.3076171875,0.0,0.0
11001.427734375,9533.564453125,25829.47265625,7714.43017578125,24727.185546875,2097.288818359375,3389.517578125,3472.169189453125,6465.912109375,3468.195556640625,12588.5009765625,-3677.209228515625,5045.73193359375,0.0,18351.873046875,1560.05224609375,20910.8984375,14121.5322265625,6096.36328125,9171.962890625,18781.02734375,25328.001953125,11990.865234375,14729.5,16081.3330078125,3811.518310546875,24197.896484375,-6307.7607421875,-0.0,290.075927734375,9235.541015625,3906.091064453125,20322.00390625,13244.15234375,8444.7861328125,20561.21875,7336.1396484375,8591.015625,3635.88330078125,-898.8380126953125,19253.095703125,4815.26025390625,14104.048828125,5726.814453125,2728.30322265625,8966.1279296875,10029.4755859375,-285.30755615234375,3899.7333984375,-1287.4603271484375,10728.8359375,-99.34107208251953,2486.705810546875,-878.1751098632812,2884.86474609375,2160.072265625,19416.80859375,2485.1162109375,9380.181640625,6.357828617095947,7326.60302734375,22268.294921875,18495.71875,13580.322265625,-0.0,-49711.06640625,15869.140625,5275.408203125,0.0,5818.2080078125,0.0,0.0
10969.638671875,9497.0068359375,25794.505859375,7681.0517578125,24694.6015625,2067.8837890625,3360.112548828125,3437.995849609375,6434.12255859375,3430.84326171875,12524.1279296875,-3716.945556640625,5024.2744140625,0.0,18326.44140625,1521.9052734375,20878.314453125,14089.7431640625,6065.36865234375,9137.7900390625,18748.44140625,25296.2109375,11959.076171875,14696.916015625,16036.8291015625,3774.960693359375,24170.875,-6341.13916015625,-0.0,251.13424682617188,9202.1630859375,3867.944091796875,20288.625,13211.568359375,8410.61328125,20531.8125,7303.55615234375,8560.021484375,3610.451904296875,-928.2429809570312,19218.126953125,4781.08740234375,14073.0546875,5692.640625,2694.924560546875,8931.9541015625,9987.3544921875,-315.50726318359375,3864.76513671875,-1316.070556640625,10700.2255859375,-135.10386657714844,2456.506103515625,-921.0904541015625,2856.254638671875,2120.3359375,19396.939453125,2446.174560546875,9348.392578125,-28.6102294921875,7281.30322265625,22238.095703125,18463.9296875,13541.380859375,-0.0,-49749.21484375,15860.3994140625,5238.05615234375,0.0,5776.88232421875,0.0,0.0
10968.048828125,9477.9326171875,25788.94140625,7673.10498046875,24690.62890625,2059.141845703125,3353.754638671875,3431.637939453125,6427.7646484375,3425.2802734375,12501.8759765625,-3722.5087890625,5022.6845703125,0.0,18320.083984375,1514.752685546875,20870.3671875,14083.3857421875,6058.21630859375,9132.2255859375,18742.87890625,25288.263671875,11951.923828125,14691.3525390625,16035.23828125,3763.834716796875,24166.90234375,-6350.67626953125,-0.0,247.16058349609375,9195.009765625,3856.023193359375,20282.267578125,13202.03125,8405.0498046875,20523.0703125,7297.19775390625,8552.869140625,3613.631103515625,-930.627197265625,19214.94921875,4774.7294921875,14069.080078125,5686.283203125,2690.15625,8924.0078125,9986.5595703125,-317.8914489746094,3861.58642578125,-1325.6072998046875,10694.6630859375,-143.8458709716797,2449.353515625,-936.9849853515625,2856.254638671875,2113.97802734375,19392.966796875,2432.6640625,9344.4189453125,-35.762786865234375,7281.30322265625,22230.943359375,18459.162109375,13537.4072265625,-0.0,-49756.3671875,15854.0400390625,5230.90380859375,0.0,5776.08740234375,0.0,0.0
10987.1220703125,9516.080078125,25829.47265625,7704.8935546875,24723.2109375,2093.315185546875,3382.364990234375,3466.606201171875,6458.75927734375,3462.63232421875,12593.26953125,-3689.925048828125,5046.5263671875,0.0,18345.513671875,1551.3101806640625,20900.568359375,14114.3798828125,6090.7998046875,9168.7841796875,18775.462890625,25319.2578125,11981.328125,14725.525390625,16076.564453125,3799.597412109375,24193.921875,-6317.29736328125,-0.0,281.33392333984375,9227.59375,3887.812255859375,20314.8515625,13231.4365234375,8436.8388671875,20555.654296875,7328.1923828125,8584.658203125,3639.85693359375,-902.0169677734375,19249.916015625,4808.90283203125,14099.2802734375,5719.66162109375,2721.150634765625,8958.1806640625,10031.064453125,-278.9497375488281,3894.170166015625,-1292.228759765625,10721.68359375,-108.87781524658203,2478.758544921875,-894.0697021484375,2888.043701171875,2152.125,19411.24609375,2467.63232421875,9373.0283203125,0.7947285771369934,7321.83447265625,22262.732421875,18490.94921875,13575.5537109375,-0.0,-49722.1953125,15861.98828125,5272.2294921875,0.0,5820.59228515625,0.0,0.0
