10933.08203125,9644.03125,26492.27734375,7990.201171875,25122.166015625,2471.60595703125,3813.902587890625,3817.08154296875,6892.68115234375,3763.039794921875,13014.4755859375,-3809.13427734375,5222.16162109375,0.0,18770.6953125,1668.13525390625,21272.501953125,14508.5654296875,6514.390625,9539.921875,19165.673828125,25699.93359375,12520.154296875,15244.484375,16509.69140625,4179.4775390625,24568.23828125,-6092.3896484375,-0.0,201.86106872558594,9531.974609375,4403.59130859375,20751.953125,13492.9013671875,9025.7333984375,21015.802734375,7777.2138671875,9018.580078125,3971.258544921875,-710.4873657226562,19675.095703125,5039.3740234375,14457.703125,6066.9580078125,3116.925537109375,9396.87109375,10228.951171875,-262.26043701171875,4295.5078125,-1019.6367797851562,11181.8310546875,112.05673217773438,2501.010986328125,-1237.3924560546875,3080.3681640625,2476.374267578125,19787.15234375,2781.550048828125,9916.623046875,208.21888732910156,7481.5751953125,22699.037109375,18874.009765625,13580.322265625,-0.0,-49378.87109375,16268.0947265625,5466.14306640625,0.0,6279.150390625,0.0,0.0
10947.38671875,9631.31640625,26477.97265625,7976.69140625,25116.6015625,2466.837646484375,3816.286865234375,3817.876220703125,6899.83349609375,3767.013671875,13004.939453125,-3812.31298828125,5222.9560546875,0.0,18776.2578125,1669.724853515625,21265.34765625,14504.591796875,6516.7744140625,9544.6904296875,19160.11328125,25694.37109375,12517.76953125,15241.3056640625,16487.439453125,4178.6826171875,24572.21484375,-6090.7998046875,-0.0,201.0663299560547,9526.412109375,4394.84912109375,20741.62109375,13484.16015625,9022.5537109375,21012.625,7778.80322265625,9017.78515625,3960.132568359375,-711.2821044921875,19661.583984375,5033.01611328125,14459.2919921875,6066.9580078125,3119.3095703125,9398.4599609375,10223.388671875,-267.82354736328125,4292.3291015625,-1014.07373046875,11184.2158203125,113.64618682861328,2473.990234375,-1252.4923095703125,3077.98388671875,2478.758544921875,19787.15234375,2781.550048828125,9923.775390625,211.39781188964844,7480.7802734375,22697.44921875,18877.1875,13592.2431640625,-0.0,-49386.0234375,16276.041015625,5468.52734375,0.0,6284.7138671875,0.0,0.0
10940.234375,9615.4208984375,26468.435546875,7963.97509765625,25106.271484375,2458.095458984375,3809.13427734375,3811.518310546875,6895.0654296875,3759.06640625,13000.96484375,-3818.6708984375,5210.24072265625,0.0,18772.283203125,1660.1881103515625,21253.427734375,14495.0556640625,6512.00634765625,9540.716796875,19148.19140625,25686.421875,12512.20703125,15231.7685546875,16481.876953125,4172.3251953125,24563.470703125,-6098.7470703125,-0.0,192.32432556152344,9517.669921875,4382.92822265625,20732.083984375,13474.6240234375,9014.6064453125,21004.677734375,7771.65087890625,9011.427734375,3937.085693359375,-722.4083251953125,19652.84375,5025.86376953125,14453.728515625,6059.0107421875,3115.336181640625,9392.8974609375,10223.388671875,-271.79718017578125,4283.5869140625,-1018.04736328125,11177.0625,105.69890594482422,2439.816650390625,-1266.79736328125,3059.705078125,2465.248046875,19779.205078125,2775.98681640625,9920.5966796875,201.86106872558594,7479.19091796875,22690.296875,18870.830078125,13589.064453125,-0.0,-49394.76953125,16274.4521484375,5451.04345703125,0.0,6271.20361328125,0.0,0.0
10937.849609375,9639.2626953125,26483.53515625,7982.25390625,25122.166015625,2471.60595703125,3824.23388671875,3825.823486328125,6906.19140625,3776.55029296875,12999.375,-3805.955078125,5217.3935546875,0.0,18777.84765625,1681.645751953125,21266.9375,14511.744140625,6524.7216796875,9552.6376953125,19164.880859375,25699.93359375,12525.7177734375,15246.8681640625,16507.306640625,4177.88818359375,24575.392578125,-6087.62109375,-0.0,216.96090698242188,9531.1806640625,4391.67041015625,20742.416015625,13489.7236328125,9030.5009765625,21018.982421875,7785.9560546875,9027.322265625,3933.111572265625,-706.5137329101562,19672.712890625,5037.78466796875,14468.8291015625,6072.52099609375,3127.257080078125,9410.380859375,10228.951171875,-255.10787963867188,4303.45556640625,-1013.2789306640625,11188.984375,120.79874420166016,2445.3798828125,-1245.3397216796875,3067.65234375,2476.374267578125,19783.974609375,2796.64990234375,9929.33984375,219.3450927734375,7492.701171875,22704.6015625,18883.546875,13603.3701171875,-0.0,-49382.05078125,16276.041015625,5468.52734375,0.0,6300.6083984375,0.0,0.0
10966.4599609375,9653.568359375,26497.044921875,7991.791015625,25131.703125,2479.55322265625,3827.412841796875,3830.591796875,6906.19140625,3778.9345703125,12967.5869140625,-3805.955078125,5219.77734375,0.0,18781.02734375,1687.208740234375,21277.26953125,14518.8974609375,6529.490234375,9555.0224609375,19174.41796875,25708.67578125,12532.0751953125,15254.0205078125,16520.818359375,4189.0146484375,24582.544921875,-6081.26318359375,-0.0,223.31874084472656,9539.126953125,4402.001953125,20751.953125,13496.0810546875,9036.8583984375,21026.134765625,7791.51904296875,9030.5009765625,3960.927490234375,-700.1558837890625,19683.837890625,5046.5263671875,14472.8017578125,6076.49462890625,3129.641357421875,9412.765625,10221.798828125,-259.0815124511719,4311.40283203125,-1007.7158203125,11190.5732421875,123.18293762207031,2455.71142578125,-1234.2135009765625,3076.394287109375,2492.268798828125,19789.537109375,2799.828857421875,9931.7236328125,222.5240020751953,7497.46923828125,22712.548828125,18886.724609375,13604.1640625,-0.0,-49378.078125,16271.2724609375,5473.2958984375,0.0,6297.4296875,0.0,0.0
10963.2802734375,9649.5947265625,26512.146484375,8006.89013671875,25138.060546875,2485.1162109375,3831.386474609375,3830.591796875,6908.57568359375,3769.397705078125,12963.6123046875,-3806.75,5230.10888671875,0.0,18787.384765625,1673.698486328125,21286.806640625,14529.228515625,6531.8740234375,9551.8427734375,19183.158203125,25718.212890625,12537.638671875,15260.37890625,16524.791015625,4208.087890625,24587.3125,-6080.46875,-0.0,196.29795837402344,9547.8701171875,4410.74365234375,20763.875,13508.796875,9044.0107421875,21034.08203125,7794.6982421875,9033.6796875,4010.995361328125,-701.745361328125,19690.990234375,5067.189453125,14477.5703125,6080.46875,3133.61474609375,9408.7919921875,10217.0302734375,-251.13424682617188,4315.37646484375,-995.000244140625,11196.13671875,117.61983489990234,2451.737548828125,-1235.802978515625,3099.44140625,2486.705810546875,19795.89453125,2792.67626953125,9936.4921875,209.808349609375,7486.34326171875,22718.90625,18889.904296875,13598.6015625,-0.0,-49375.6953125,16272.86328125,5450.24853515625,0.0,6247.36181640625,0.0,0.0
10965.6650390625,9651.18359375,26518.50390625,8017.22216796875,25142.03515625,2494.653076171875,3835.3603515625,3841.718017578125,6914.93359375,3778.139892578125,13030.3701171875,-3790.060791015625,5227.724609375,0.0,18789.767578125,1688.79833984375,21297.13671875,14538.7646484375,6539.82177734375,9560.5849609375,19191.107421875,25728.544921875,12545.5859375,15269.916015625,16531.943359375,4219.2138671875,24590.4921875,-6063.779296875,-0.0,222.5240020751953,9558.201171875,4425.048828125,20771.02734375,13518.3330078125,9051.1640625,21045.20703125,7801.0556640625,9044.806640625,3965.69580078125,-700.9506225585938,19697.34765625,5070.3681640625,14483.1337890625,6093.97900390625,3139.97265625,9420.712890625,10236.1044921875,-235.2396697998047,4318.55517578125,-977.5161743164062,11202.494140625,129.54075622558594,2447.76416015625,-1242.1607666015625,3098.64697265625,2500.21630859375,19797.484375,2808.57080078125,9939.6708984375,220.1398162841797,7480.7802734375,22727.6484375,18897.8515625,13610.5224609375,-0.0,-49364.56640625,16279.220703125,5463.7587890625,0.0,6267.2294921875,0.0,0.0
10956.923828125,9640.0576171875,26502.609375,8001.32763671875,25134.8828125,2480.347900390625,3825.823486328125,3832.97607421875,6904.60205078125,3769.397705078125,13029.5751953125,-3813.107666015625,5212.625,0.0,18783.41015625,1682.4404296875,21286.806640625,14527.638671875,6530.28466796875,9551.0478515625,19178.390625,25715.828125,12533.6650390625,15258.7890625,16515.255859375,4206.49853515625,24586.51953125,-6075.7001953125,-0.0,220.93455505371094,9546.2802734375,4415.51220703125,20761.490234375,13505.6181640625,9041.626953125,21032.4921875,7793.1083984375,9034.474609375,3945.03271484375,-708.8978881835938,19685.42578125,5049.70556640625,14474.3916015625,6082.85302734375,3128.846435546875,9411.970703125,10233.7197265625,-248.75006103515625,4317.76025390625,-994.2054443359375,11193.751953125,120.00402069091797,2427.895751953125,-1276.3341064453125,3094.673095703125,2489.08984375,19787.15234375,2799.828857421875,9932.517578125,212.19253540039062,7470.44873046875,22717.318359375,18888.314453125,13600.9853515625,-0.0,-49380.4609375,16287.1689453125,5464.5537109375,0.0,6272.79296875,0.0,0.0
10956.923828125,9651.18359375,26506.58203125,8017.22216796875,25139.650390625,2485.1162109375,3829.00244140625,3835.3603515625,6905.39697265625,3772.57666015625,13022.4228515625,-3807.544677734375,5202.29345703125,0.0,18786.587890625,1690.3876953125,21293.1640625,14530.0224609375,6533.4638671875,9553.4326171875,19180.775390625,25723.775390625,12536.048828125,15264.3515625,16504.12890625,4206.49853515625,24593.671875,-6071.7265625,-0.0,227.29237365722656,9555.0224609375,4420.2802734375,20767.052734375,13513.5654296875,9044.0107421875,21037.259765625,7795.49267578125,9038.4482421875,3983.1796875,-698.56640625,19684.6328125,5060.83154296875,14478.3662109375,6086.03125,3130.43603515625,9413.5595703125,10255.97265625,-246.36587524414062,4306.63427734375,-998.973876953125,11197.7265625,123.18293762207031,2457.30078125,-1261.2342529296875,3083.546875,2495.44775390625,19782.384765625,2806.186767578125,9935.6962890625,215.37144470214844,7479.98583984375,22718.90625,18888.314453125,13604.958984375,-0.0,-49370.92578125,16287.1689453125,5472.50146484375,0.0,6279.150390625,0.0,0.0
10952.1552734375,9672.6416015625,26514.529296875,8035.50048828125,25149.98046875,2497.83203125,3840.92333984375,3847.28125,6916.52294921875,3786.0869140625,13024.806640625,-3792.44482421875,5208.65087890625,0.0,18799.3046875,1702.30859375,21307.46875,14542.7392578125,6545.384765625,9563.763671875,19193.490234375,25736.490234375,12544.791015625,15275.478515625,16508.1015625,4215.240234375,24610.361328125,-6058.21630859375,-0.0,232.0607452392578,9567.7373046875,4433.79052734375,20778.974609375,13526.2802734375,9053.5478515625,21049.9765625,7805.029296875,9050.369140625,4012.584716796875,-701.745361328125,19694.169921875,5073.54736328125,14490.287109375,6099.5419921875,3143.151611328125,9425.48046875,10264.7138671875,-240.80276489257812,4295.5078125,-985.4635009765625,11211.236328125,133.514404296875,2489.884521484375,-1229.445068359375,3064.473388671875,2518.494873046875,19791.126953125,2819.697021484375,9947.6171875,233.65020751953125,7499.05908203125,22730.03125,18900.236328125,13616.0849609375,-0.0,-49358.20703125,16288.7578125,5491.57470703125,0.0,6296.634765625,0.0,0.0
10971.228515625,9695.689453125,26523.271484375,8046.626953125,25152.365234375,2511.34228515625,3848.075927734375,3858.4072265625,6927.64892578125,3798.008056640625,13044.6748046875,-3774.166015625,5243.61962890625,0.0,18808.046875,1714.2296142578125,21314.62109375,14552.275390625,6551.74267578125,9576.4794921875,19203.8203125,25749.20703125,12550.353515625,15285.8095703125,16526.380859375,4223.982421875,24620.69140625,-6043.1162109375,-0.0,257.4920654296875,9575.6845703125,4444.9169921875,20790.099609375,13535.8173828125,9058.31640625,21061.896484375,7812.18212890625,9060.7001953125,3995.1005859375,-677.1087646484375,19706.091796875,5087.8525390625,14493.4658203125,6112.25732421875,3150.30419921875,9435.017578125,10250.4091796875,-227.29237365722656,4318.55517578125,-967.9794311523438,11222.3623046875,144.64060974121094,2503.39501953125,-1196.0665283203125,3089.90478515625,2535.97900390625,19801.458984375,2835.591552734375,9957.154296875,245.57113647460938,7534.82177734375,22739.568359375,18912.951171875,13628.005859375,-0.0,-49343.90234375,16293.525390625,5508.26416015625,0.0,6313.32421875,0.0,0.0
10995.0703125,9690.9208984375,26504.197265625,8032.32177734375,25130.11328125,2503.39501953125,3831.386474609375,3847.28125,6917.31787109375,3784.49755859375,13036.7275390625,-3770.9873046875,5256.3349609375,0.0,18792.947265625,1704.69287109375,21304.2890625,14537.970703125,6538.232421875,9565.353515625,19189.515625,25739.669921875,12533.6650390625,15273.888671875,16516.05078125,4215.240234375,24596.056640625,-6053.44775390625,-0.0,269.4129943847656,9563.763671875,4432.99609375,20775.794921875,13527.8701171875,9044.0107421875,21052.361328125,7797.876953125,9047.9853515625,3971.258544921875,-681.8771362304688,19688.60546875,5083.083984375,14472.8017578125,6101.92626953125,3138.383056640625,9423.8916015625,10234.515625,-242.39222717285156,4320.939453125,-977.5161743164062,11204.87890625,134.3091278076172,2474.784912109375,-1184.1456298828125,3084.341796875,2530.415771484375,19797.484375,2830.028564453125,9942.849609375,228.8818359375,7545.1533203125,22727.6484375,18897.8515625,13620.05859375,-0.0,-49343.90234375,16291.1416015625,5479.65380859375,0.0,6285.5087890625,0.0,0.0
10991.0966796875,9665.4892578125,26493.8671875,8014.83837890625,25123.75390625,2490.679443359375,3813.902587890625,3836.94970703125,6902.2177734375,3775.755615234375,13028.78125,-3772.57666015625,5250.77197265625,0.0,18777.84765625,1699.1297607421875,21297.13671875,14525.25390625,6527.90087890625,9554.2265625,19182.36328125,25730.1328125,12521.744140625,15264.3515625,16513.666015625,4200.935546875,24569.03515625,-6062.984375,-0.0,253.5184326171875,9555.81640625,4424.25390625,20766.2578125,13516.744140625,9035.26953125,21040.439453125,7785.9560546875,9037.654296875,3975.232666015625,-686.6455078125,19680.658203125,5066.39501953125,14460.0869140625,6093.97900390625,3122.48876953125,9414.35546875,10231.3359375,-237.6238555908203,4313.787109375,-991.0265502929688,11184.2158203125,127.15657043457031,2483.52685546875,-1192.8876953125,3085.93115234375,2522.468505859375,19801.458984375,2830.028564453125,9926.955078125,224.90818786621094,7532.43798828125,22717.318359375,18884.33984375,13606.5478515625,-0.0,-49348.671875,16276.8359375,5484.42236328125,0.0,6293.45556640625,0.0,0.0
10983.1494140625,9663.10546875,26499.4296875,8016.42724609375,25130.11328125,2493.8583984375,3817.876220703125,3839.333740234375,6903.80712890625,3775.755615234375,13016.8603515625,-3771.781982421875,5234.876953125,0.0,18779.435546875,1695.9508056640625,21298.7265625,14526.84375,6531.07958984375,9553.4326171875,19186.337890625,25730.927734375,12523.333984375,15265.94140625,16520.818359375,4206.49853515625,24573.802734375,-6059.80517578125,-0.0,240.80276489257812,9558.201171875,4424.25390625,20770.23046875,13519.9228515625,9038.4482421875,21041.234375,7789.134765625,9038.4482421875,3981.59033203125,-669.9561767578125,19686.22265625,5068.77880859375,14465.6494140625,6094.77392578125,3124.872802734375,9415.1494140625,10232.92578125,-222.5240020751953,4317.76025390625,-983.0792846679688,11186.599609375,129.54075622558594,2488.29541015625,-1196.861328125,3088.315185546875,2523.26318359375,19795.099609375,2830.028564453125,9930.9287109375,223.31874084472656,7504.6220703125,22717.318359375,18887.51953125,13606.5478515625,-0.0,-49340.7265625,16276.041015625,5486.01171875,0.0,6293.45556640625,0.0,0.0
10984.73828125,9677.41015625,26515.326171875,8028.34814453125,25139.650390625,2501.010986328125,3829.00244140625,3845.691650390625,6907.78125,3778.9345703125,13004.1435546875,-3759.861083984375,5230.90380859375,0.0,18788.1796875,1699.9244384765625,21305.87890625,14537.1748046875,6538.232421875,9558.201171875,19195.080078125,25738.080078125,12531.2802734375,15271.5048828125,16531.1484375,4215.240234375,24586.51953125,-6057.42138671875,-0.0,249.54476928710938,9566.1474609375,4434.58544921875,20778.1796875,13528.6650390625,9048.779296875,21048.38671875,7796.28759765625,9045.6005859375,3958.543212890625,-664.3931274414062,19695.759765625,5077.52099609375,14475.1865234375,6099.5419921875,3132.025390625,9421.5078125,10267.0986328125,-216.1661834716797,4324.9130859375,-974.3372802734375,11196.9306640625,131.92494201660156,2477.963623046875,-1197.656005859375,3086.725830078125,2535.18408203125,19798.279296875,2818.90234375,9938.8759765625,224.11346435546875,7505.4169921875,22723.673828125,18893.083984375,13608.1376953125,-0.0,-49325.625,16277.6318359375,5478.85888671875,0.0,6282.32958984375,0.0,0.0
10950.5654296875,9676.615234375,26516.9140625,8025.9638671875,25138.85546875,2493.063720703125,3824.23388671875,3840.128662109375,6903.80712890625,3778.9345703125,13000.96484375,-3767.013671875,5222.16162109375,0.0,18787.384765625,1698.3350830078125,21298.7265625,14532.4072265625,6533.4638671875,9558.201171875,19188.72265625,25732.517578125,12528.1015625,15265.1474609375,16531.1484375,4214.44580078125,24584.927734375,-6063.779296875,-0.0,237.6238555908203,9560.5849609375,4423.45947265625,20771.02734375,13522.3076171875,9043.216796875,21042.82421875,7792.31396484375,9040.83203125,3942.6484375,-693.0033569335938,19695.759765625,5071.1630859375,14472.0078125,6092.3896484375,3128.0517578125,9416.7392578125,10281.4033203125,-230.47129821777344,4317.76025390625,-983.0792846679688,11196.13671875,127.95130920410156,2449.353515625,-1217.524169921875,3075.599609375,2529.62109375,19798.279296875,2815.723388671875,9936.4921875,223.31874084472656,7506.2119140625,22718.90625,18888.314453125,13610.5224609375,-0.0,-49339.1328125,16276.8359375,5478.06396484375,0.0,6286.30322265625,0.0,0.0
10920.365234375,9680.5888671875,26515.326171875,8023.57958984375,25135.67578125,2493.063720703125,3819.465576171875,3835.3603515625,6897.44970703125,3775.755615234375,13002.5546875,-3776.55029296875,5222.9560546875,0.0,18779.435546875,1699.1297607421875,21294.751953125,14525.25390625,6527.90087890625,9551.8427734375,19185.54296875,25729.337890625,12523.333984375,15260.37890625,16535.91796875,4218.41943359375,24581.75,-6063.779296875,-0.0,233.65020751953125,9557.40625,4413.9228515625,20767.84765625,13518.3330078125,9038.4482421875,21039.64453125,7786.7509765625,9037.654296875,3964.90087890625,-699.3611450195312,19695.759765625,5069.57373046875,14468.8291015625,6089.21044921875,3120.899169921875,9415.9443359375,10263.125,-237.6238555908203,4311.40283203125,-983.8739624023438,11191.3681640625,127.15657043457031,2426.306396484375,-1234.2135009765625,3085.93115234375,2525.6474609375,19793.509765625,2816.51806640625,9926.16015625,225.7029266357422,7502.23779296875,22714.93359375,18883.546875,13602.57421875,-0.0,-49353.4375,16268.888671875,5484.42236328125,0.0,6287.892578125,0.0,0.0
10920.365234375,9672.6416015625,26499.4296875,8002.1220703125,25122.166015625,2482.732177734375,3809.928955078125,3827.412841796875,6878.3759765625,3762.2451171875,13002.5546875,-3786.881591796875,5210.24072265625,0.0,18769.10546875,1687.208740234375,21286.01171875,14514.9228515625,6515.97998046875,9532.76953125,19175.2109375,25716.623046875,12510.6171875,15250.046875,16511.28125,4210.47216796875,24578.572265625,-6074.9052734375,-0.0,228.0871124267578,9546.2802734375,4407.564453125,20759.10546875,13505.6181640625,9027.322265625,21027.72265625,7775.62451171875,9025.7333984375,3983.974365234375,-687.4402465820312,19677.48046875,5061.62646484375,14458.4970703125,6077.28955078125,3108.978271484375,9404.0234375,10229.7470703125,-255.90261840820312,4296.302734375,-994.2054443359375,11182.6259765625,117.61983489990234,2430.280029296875,-1250.108154296875,3072.4208984375,2514.521240234375,19769.66796875,2808.57080078125,9913.4443359375,218.5503692626953,7512.5693359375,22703.806640625,18870.830078125,13579.5283203125,-0.0,-49359.796875,16261.736328125,5475.6796875,0.0,6277.56103515625,0.0,0.0
10943.4130859375,9657.5419921875,26495.45703125,7998.14892578125,25122.9609375,2477.963623046875,3811.518310546875,3821.05517578125,6871.2236328125,3755.88720703125,13004.939453125,-3790.060791015625,5206.26708984375,0.0,18769.8984375,1676.8773193359375,21283.626953125,14510.94921875,6511.21142578125,9525.6162109375,19172.033203125,25713.443359375,12508.2333984375,15246.8681640625,16508.1015625,4198.55126953125,24585.724609375,-6080.46875,-0.0,228.0871124267578,9543.8955078125,4409.94873046875,20756.720703125,13503.234375,9027.322265625,21022.955078125,7774.03515625,9020.1689453125,3981.59033203125,-688.2349853515625,19675.095703125,5052.884765625,14460.0869140625,6073.31591796875,3104.2099609375,9395.2822265625,10214.646484375,-258.28680419921875,4293.91845703125,-999.7686157226562,11187.39453125,107.28836059570312,2446.174560546875,-1238.9818115234375,3070.831298828125,2509.7529296875,19755.36328125,2799.0341796875,9910.265625,205.83470153808594,7514.95361328125,22699.83203125,18865.267578125,13569.1953125,-0.0,-49365.359375,16267.2998046875,5468.52734375,0.0,6275.9716796875,0.0,0.0
10972.0234375,9661.515625,26497.044921875,8008.47998046875,25131.703125,2482.732177734375,3821.05517578125,3821.849853515625,6877.5810546875,3756.68212890625,13016.064453125,-3779.729248046875,5204.677734375,0.0,18774.66796875,1678.466796875,21292.3671875,14516.5126953125,6517.56884765625,9528.0009765625,19178.390625,25719.0078125,12516.1806640625,15251.63671875,16513.666015625,4181.06689453125,24598.439453125,-6082.05810546875,-0.0,235.2396697998047,9548.6640625,4421.0751953125,20761.490234375,13511.1806640625,9033.6796875,21029.314453125,7780.39306640625,9024.9375,3985.563720703125,-684.2613525390625,19679.865234375,5056.85791015625,14471.212890625,6078.87890625,3110.56787109375,9396.076171875,10212.26171875,-238.4185791015625,4299.48193359375,-995.794921875,11198.5205078125,109.67254638671875,2475.57958984375,-1217.524169921875,3074.804931640625,2522.468505859375,19769.66796875,2798.239501953125,9916.623046875,204.24525451660156,7507.80126953125,22706.189453125,18869.2421875,13572.375,-0.0,-49355.03125,16273.6572265625,5466.93798828125,0.0,6271.20361328125,0.0,0.0
10970.43359375,9656.7470703125,26501.814453125,8012.4541015625,25134.0859375,2481.142822265625,3811.518310546875,3821.05517578125,6871.2236328125,3752.70849609375,13011.2958984375,-3783.702880859375,5199.1142578125,0.0,18768.310546875,1683.235107421875,21290.779296875,14516.5126953125,6515.18505859375,9524.02734375,19179.978515625,25720.595703125,12513.0009765625,15249.251953125,16512.076171875,4208.8828125,24595.259765625,-6081.26318359375,-0.0,230.47129821777344,9547.8701171875,4413.1279296875,20762.28515625,13511.1806640625,9032.8857421875,21028.51953125,7775.62451171875,9024.1435546875,3972.053466796875,-686.6455078125,19684.6328125,5056.85791015625,14468.8291015625,6076.49462890625,3103.415283203125,9395.2822265625,10227.3623046875,-236.82911682128906,4295.5078125,-994.2054443359375,11181.037109375,109.67254638671875,2492.268798828125,-1211.961181640625,3076.394287109375,2520.08447265625,19787.947265625,2805.39208984375,9907.8818359375,205.03997802734375,7497.46923828125,22704.6015625,18865.267578125,13566.8115234375,-0.0,-49357.4140625,16261.736328125,5470.1171875,0.0,6270.40869140625,0.0,0.0
10985.5341796875,9669.462890625,26514.529296875,8027.5537109375,25143.623046875,2498.626708984375,3825.823486328125,3840.128662109375,6895.8603515625,3774.960693359375,13016.064453125,-3771.781982421875,5231.69873046875,0.0,18785.794921875,1702.30859375,21302.69921875,14533.2021484375,6530.28466796875,9546.2802734375,19192.6953125,25737.28515625,12528.1015625,15265.94140625,16514.458984375,4227.9560546875,24600.029296875,-6059.0107421875,-0.0,248.75006103515625,9564.55859375,4425.048828125,20775.0,13527.076171875,9045.6005859375,21046.00390625,7790.72412109375,9040.83203125,3976.027099609375,-677.9035034179688,19697.34765625,5075.13671875,14478.3662109375,6094.77392578125,3120.899169921875,9415.1494140625,10257.5615234375,-233.65020751953125,4305.04443359375,-974.3372802734375,11194.546875,126.36184692382812,2508.9580078125,-1193.682373046875,3085.136474609375,2524.852783203125,19809.404296875,2823.670654296875,9926.16015625,228.0871124267578,7514.15869140625,22719.701171875,18883.546875,13597.8056640625,-0.0,-49345.4921875,16265.7109375,5493.1640625,0.0,6294.25048828125,0.0,0.0
10996.6591796875,9698.0732421875,26530.423828125,8043.4482421875,25157.1328125,2524.852783203125,3842.512939453125,3867.1494140625,6922.880859375,3802.7763671875,13035.93359375,-3743.171630859375,5257.92431640625,0.0,18803.27734375,1728.53466796875,21324.158203125,14554.66015625,6554.126953125,9577.2744140625,19211.76953125,25759.5390625,12546.3798828125,15291.373046875,16536.712890625,4255.771484375,24605.591796875,-6028.0166015625,-0.0,272.5919189453125,9586.0166015625,4449.685546875,20796.45703125,13548.533203125,9064.6748046875,21070.638671875,7809.7978515625,9064.6748046875,3990.33203125,-658.8300170898438,19712.447265625,5099.7734375,14488.697265625,6122.5888671875,3143.9462890625,9441.3759765625,10277.4306640625,-216.1661834716797,4339.21826171875,-944.9323120117188,11209.6474609375,153.3826141357422,2509.7529296875,-1180.9666748046875,3108.18359375,2554.257568359375,19822.916015625,2851.486328125,9951.591796875,252.72369384765625,7546.74267578125,22741.953125,18908.9765625,13638.3369140625,-0.0,-49313.70703125,16281.6044921875,5511.44287109375,0.0,6315.7080078125,0.0,0.0
10955.333984375,9682.1787109375,26514.529296875,8018.81103515625,25131.703125,2512.931884765625,3818.6708984375,3850.4599609375,6897.44970703125,3785.29248046875,13031.9599609375,-3762.2451171875,5234.876953125,0.0,18786.587890625,1715.0242919921875,21303.49609375,14537.1748046875,6536.642578125,9556.611328125,19190.310546875,25742.849609375,12524.9228515625,15275.478515625,16516.84375,4239.08251953125,24571.41796875,-6041.52685546875,-0.0,252.72369384765625,9566.943359375,4430.6123046875,20776.58984375,13530.25390625,9044.0107421875,21053.94921875,7789.134765625,9048.779296875,3982.38525390625,-676.3140258789062,19688.60546875,5086.26318359375,14461.6767578125,6108.2841796875,3123.283447265625,9423.8916015625,10241.66796875,-233.65020751953125,4316.17138671875,-957.64794921875,11185.8056640625,141.46168518066406,2472.400634765625,-1213.550537109375,3093.87841796875,2545.515869140625,19796.689453125,2841.15478515625,9934.90234375,236.03439331054688,7523.6953125,22724.470703125,18889.904296875,13611.31640625,-0.0,-49328.8046875,16275.248046875,5491.57470703125,0.0,6297.4296875,0.0,0.0
10942.6181640625,9681.3837890625,26512.94140625,8025.16943359375,25135.67578125,2512.931884765625,3821.05517578125,3850.4599609375,6897.44970703125,3784.49755859375,13027.9853515625,-3769.397705078125,5214.21435546875,0.0,18786.587890625,1716.61376953125,21301.904296875,14536.380859375,6537.4375,9555.81640625,19190.310546875,25742.849609375,12526.51171875,15275.478515625,16522.408203125,4233.51904296875,24573.802734375,-6048.67919921875,-0.0,256.69732666015625,9566.1474609375,4425.048828125,20773.41015625,13531.048828125,9043.216796875,21054.744140625,7792.31396484375,9048.779296875,3972.848388671875,-674.724609375,19690.990234375,5089.44189453125,14466.4453125,6108.2841796875,3124.078125,9424.6865234375,10232.92578125,-234.44493103027344,4316.9658203125,-962.4163208007812,11190.5732421875,140.66696166992188,2458.89013671875,-1205.603271484375,3086.725830078125,2528.031494140625,19783.974609375,2834.002197265625,9933.3125,241.5974884033203,7510.97998046875,22725.263671875,18889.109375,13610.5224609375,-0.0,-49337.546875,16280.8095703125,5493.958984375,0.0,6295.83984375,0.0,0.0
10979.17578125,9705.2255859375,26551.087890625,8060.1376953125,25172.234375,2545.515869140625,3859.2021484375,3883.0439453125,6934.8017578125,3821.05517578125,13020.8330078125,-3745.555908203125,5245.208984375,0.0,18819.173828125,1743.634521484375,21335.283203125,14568.169921875,6570.81591796875,9593.1689453125,19223.689453125,25774.63671875,12562.275390625,15308.857421875,16556.58203125,4270.07666015625,24620.69140625,-6018.47998046875,-0.0,274.9761047363281,9599.5263671875,4457.63232421875,20806.7890625,13563.6328125,9076.595703125,21088.123046875,7827.28173828125,9082.953125,3992.71630859375,-634.1934204101562,19725.95703125,5125.20458984375,14505.38671875,6140.86767578125,3160.6357421875,9458.859375,10298.0927734375,-196.29795837402344,4355.11279296875,-929.0377197265625,11228.720703125,170.8666534423828,2493.8583984375,-1178.58251953125,3105.79931640625,2550.2841796875,19811.7890625,2860.228271484375,9968.28125,271.00244140625,7538.79541015625,22759.4375,18924.078125,13649.4638671875,-0.0,-49312.90625,16302.2666015625,5532.10595703125,0.0,6336.37109375,0.0,0.0
10989.5068359375,9716.3515625,26562.21484375,8079.21142578125,25184.94921875,2558.2314453125,3874.302001953125,3899.7333984375,6955.46484375,3840.128662109375,13039.90625,-3724.892822265625,5262.69287109375,0.0,18828.7109375,1759.529052734375,21349.587890625,14581.6806640625,6586.71044921875,9613.8310546875,19237.99609375,25787.353515625,12577.3740234375,15323.9560546875,16562.939453125,4282.79248046875,24633.408203125,-5999.40625,-0.0,297.2284851074219,9613.8310546875,4474.32177734375,20821.09375,13576.3486328125,9090.900390625,21100.044921875,7841.5869140625,9099.642578125,3996.690185546875,-604.7884521484375,19737.0859375,5132.35693359375,14519.69140625,6157.55712890625,3176.530029296875,9476.34375,10312.3984375,-164.50881958007812,4360.67578125,-911.5537109375,11242.23046875,186.76121520996094,2497.037109375,-1169.8404541015625,3107.388671875,2580.483642578125,19830.068359375,2877.712158203125,9981.791015625,286.102294921875,7561.0478515625,22772.947265625,18941.560546875,13676.484375,-0.0,-49293.8359375,16311.8037109375,5558.33203125,0.0,6356.2392578125,0.0,0.0
10971.228515625,9694.8935546875,26532.015625,8041.064453125,25154.748046875,2519.289794921875,3840.128662109375,3863.175537109375,6920.49658203125,3799.597412109375,13027.19140625,-3748.734619140625,5253.15625,0.0,18792.947265625,1725.355712890625,21318.59375,14550.685546875,6551.74267578125,9576.4794921875,19205.412109375,25753.1796875,12543.99609375,15288.9892578125,16540.685546875,4262.12939453125,24593.671875,-6033.57958984375,-0.0,282.9233703613281,9579.658203125,4445.71142578125,20790.099609375,13545.353515625,9059.111328125,21065.076171875,7808.20849609375,9065.46875,3957.74853515625,-647.7037963867188,19706.091796875,5092.62109375,14484.72265625,6120.205078125,3143.151611328125,9441.3759765625,10256.767578125,-185.17176818847656,4329.681640625,-955.2637939453125,11204.0830078125,149.4089813232422,2457.30078125,-1184.1456298828125,3097.057373046875,2560.615478515625,19811.7890625,2844.333740234375,9948.4130859375,248.75006103515625,7537.2060546875,22741.16015625,18907.388671875,13635.953125,-0.0,-49319.265625,16290.345703125,5520.18505859375,0.0,6317.29736328125,0.0,0.0
10966.4599609375,9679.7939453125,26528.0390625,8021.1953125,25145.212890625,2504.189697265625,3824.23388671875,3844.10205078125,6901.4228515625,3777.344970703125,13022.4228515625,-3768.60302734375,5238.85107421875,0.0,18783.41015625,1703.1033935546875,21303.49609375,14533.99609375,6534.25830078125,9555.81640625,19192.6953125,25738.875,12528.896484375,15272.2998046875,16539.09765625,4249.4140625,24582.544921875,-6055.037109375,-0.0,259.8762512207031,9564.55859375,4430.6123046875,20776.58984375,13527.8701171875,9044.806640625,21049.9765625,7793.9033203125,9047.1904296875,3950.595947265625,-678.6982421875,19698.142578125,5080.69970703125,14473.59765625,6102.720703125,3125.66748046875,9421.5078125,10250.4091796875,-218.5503692626953,4320.939453125,-978.3109130859375,11192.9580078125,128.74603271484375,2458.89013671875,-1200.0401611328125,3087.5205078125,2530.415771484375,19795.099609375,2820.49169921875,9932.517578125,226.49765014648438,7512.5693359375,22726.05859375,18888.314453125,13610.5224609375,-0.0,-49339.9296875,16275.248046875,5493.958984375,0.0,6291.8662109375,0.0,0.0
10945.0029296875,9685.357421875,26535.193359375,8025.16943359375,25153.955078125,2511.34228515625,3833.770751953125,3853.638916015625,6907.78125,3786.881591796875,13037.5224609375,-3764.62939453125,5240.4404296875,0.0,18791.357421875,1709.461181640625,21310.6484375,14542.7392578125,6543.00048828125,9561.3798828125,19202.232421875,25746.02734375,12536.84375,15279.4521484375,16547.837890625,4237.4931640625,24594.46484375,-6045.50048828125,-0.0,245.57113647460938,9573.30078125,4439.35400390625,20786.919921875,13535.8173828125,9055.1376953125,21058.716796875,7799.466796875,9053.5478515625,3954.5693359375,-663.598388671875,19707.6796875,5090.23681640625,14483.1337890625,6110.66796875,3132.025390625,9428.66015625,10268.6884765625,-228.8818359375,4330.47607421875,-965.59521484375,11202.494140625,136.6933135986328,2475.57958984375,-1204.0137939453125,3099.44140625,2532.800048828125,19801.458984375,2828.43896484375,9936.4921875,236.82911682128906,7505.4169921875,22732.416015625,18894.671875,13615.291015625,-0.0,-49337.546875,16276.041015625,5503.49560546875,0.0,6307.7607421875,0.0,0.0
10954.5390625,9682.1787109375,26527.24609375,8031.52734375,25153.955078125,2507.368896484375,3836.155029296875,3854.433837890625,6911.75439453125,3790.060791015625,13038.3173828125,-3760.65576171875,5232.4931640625,0.0,18796.919921875,1708.66650390625,21317.005859375,14546.7119140625,6545.384765625,9564.55859375,19203.8203125,25746.02734375,12537.638671875,15281.041015625,16532.740234375,4225.572265625,24596.849609375,-6043.9111328125,-0.0,245.57113647460938,9574.890625,4443.32763671875,20789.3046875,13542.17578125,9056.7275390625,21058.716796875,7804.23486328125,9055.1376953125,3993.51123046875,-662.0089111328125,19706.884765625,5086.26318359375,14484.72265625,6109.87353515625,3138.383056640625,9431.044921875,10259.1513671875,-224.90818786621094,4328.09228515625,-964.0057983398438,11207.2626953125,137.48805236816406,2491.47412109375,-1204.80859375,3098.64697265625,2535.97900390625,19804.63671875,2833.207275390625,9942.849609375,236.82911682128906,7510.97998046875,22733.2109375,18897.8515625,13620.05859375,-0.0,-49335.95703125,16289.552734375,5494.75341796875,0.0,6302.9921875,0.0,0.0
10985.5341796875,9676.615234375,26524.06640625,8045.037109375,25148.392578125,2512.13720703125,3836.155029296875,3856.81787109375,6914.138671875,3795.623779296875,13031.9599609375,-3748.734619140625,5226.13525390625,0.0,18795.33203125,1718.9979248046875,21321.7734375,14548.3017578125,6548.5634765625,9567.7373046875,19203.02734375,25753.1796875,12537.638671875,15285.0146484375,16512.87109375,4232.724609375,24595.259765625,-6042.32177734375,-0.0,261.4656982421875,9578.068359375,4448.095703125,20792.484375,13549.328125,9055.931640625,21061.896484375,7806.619140625,9059.111328125,4031.658203125,-658.8300170898438,19698.9375,5091.826171875,14483.9287109375,6113.05224609375,3140.767333984375,9435.8125,10256.767578125,-216.1661834716797,4316.9658203125,-966.3899536132812,11206.4677734375,147.02479553222656,2510.547607421875,-1192.8876953125,3103.415283203125,2529.62109375,19802.251953125,2844.333740234375,9942.849609375,243.98167419433594,7519.72216796875,22736.390625,18901.82421875,13620.853515625,-0.0,-49318.47265625,16291.9365234375,5501.90576171875,0.0,6318.88720703125,0.0,0.0
11006.9912109375,9679.7939453125,26527.24609375,8056.16357421875,25153.955078125,2515.31591796875,3840.128662109375,3859.996826171875,6916.52294921875,3796.41845703125,13049.443359375,-3740.78759765625,5239.6455078125,0.0,18794.537109375,1726.9453125,21328.130859375,14553.0703125,6552.53759765625,9570.916015625,19210.1796875,25761.126953125,12541.611328125,15291.373046875,16531.1484375,4243.0556640625,24597.64453125,-6036.75830078125,-0.0,274.9761047363281,9586.0166015625,4459.22216796875,20797.251953125,13555.685546875,9063.8798828125,21068.25390625,7811.3876953125,9065.46875,4037.221435546875,-659.624755859375,19706.884765625,5098.978515625,14488.697265625,6117.02587890625,3143.151611328125,9437.4013671875,10259.1513671875,-208.21888732910156,4325.7080078125,-967.9794311523438,11209.6474609375,151.7931671142578,2519.289794921875,-1186.52978515625,3119.3095703125,2547.10498046875,19800.662109375,2851.486328125,9946.8232421875,243.98167419433594,7516.54296875,22743.54296875,18906.59375,13621.6474609375,-0.0,-49311.3203125,16292.73046875,5488.3955078125,0.0,6297.4296875,0.0,0.0
10996.6591796875,9692.509765625,26524.861328125,8058.5478515625,25163.4921875,2519.289794921875,3850.4599609375,3866.354736328125,6922.08642578125,3803.571044921875,13039.90625,-3735.224365234375,5249.18212890625,0.0,18805.662109375,1726.1505126953125,21327.337890625,14557.0439453125,6558.89501953125,9579.658203125,19211.76953125,25759.5390625,12546.3798828125,15295.3466796875,16540.685546875,4247.02978515625,24613.5390625,-6032.78515625,-0.0,278.1549987792969,9586.0166015625,4461.6064453125,20795.6640625,13554.0966796875,9067.05859375,21072.228515625,7818.53955078125,9069.4423828125,4013.379638671875,-654.0616455078125,19712.447265625,5098.18408203125,14499.8232421875,6120.205078125,3151.098876953125,9442.169921875,10233.7197265625,-190.73486328125,4339.21826171875,-962.4163208007812,11219.18359375,154.97207641601562,2479.55322265625,-1188.9139404296875,3119.3095703125,2552.668212890625,19813.37890625,2852.28076171875,9957.94921875,251.13424682617188,7517.337890625,22745.927734375,18912.951171875,13631.9794921875,-0.0,-49308.9375,16302.2666015625,5502.70068359375,0.0,6306.17138671875,0.0,0.0
10969.638671875,9682.1787109375,26518.50390625,8048.216796875,25152.365234375,2506.573974609375,3842.512939453125,3857.612548828125,6917.31787109375,3801.186767578125,13016.8603515625,-3749.529541015625,5220.57177734375,0.0,18800.89453125,1713.434814453125,21312.236328125,14545.91796875,6549.3583984375,9576.4794921875,19199.84765625,25746.822265625,12536.048828125,15284.220703125,16521.611328125,4239.87744140625,24604.001953125,-6043.1162109375,-0.0,271.00244140625,9572.505859375,4437.7646484375,20784.537109375,13538.9970703125,9054.3427734375,21060.30859375,7809.00341796875,9059.90625,3966.490234375,-656.44580078125,19697.34765625,5085.46826171875,14491.0810546875,6107.4892578125,3143.9462890625,9434.2236328125,10239.283203125,-193.9137725830078,4309.0185546875,-971.9530639648438,11212.03125,143.8458709716797,2463.65869140625,-1202.4244384765625,3078.778564453125,2538.36328125,19803.046875,2836.386474609375,9952.3857421875,249.54476928710938,7513.3642578125,22734.80078125,18905.00390625,13638.3369140625,-0.0,-49320.859375,16291.9365234375,5515.41650390625,0.0,6324.4501953125,0.0,0.0
10979.17578125,9688.537109375,26524.861328125,8052.18994140625,25149.98046875,2512.931884765625,3841.718017578125,3859.2021484375,6919.7021484375,3801.186767578125,13033.548828125,-3746.3505859375,5215.00927734375,0.0,18800.099609375,1718.2032470703125,21317.005859375,14546.7119140625,6551.74267578125,9577.2744140625,19203.8203125,25750.794921875,12536.048828125,15285.0146484375,16522.408203125,4246.23486328125,24598.439453125,-6039.142578125,-0.0,277.36029052734375,9575.6845703125,4438.55908203125,20790.099609375,13541.380859375,9053.5478515625,21062.693359375,7811.3876953125,9061.49609375,3972.848388671875,-672.3403930664062,19699.732421875,5091.03173828125,14488.697265625,6113.05224609375,3144.740966796875,9435.017578125,10258.357421875,-189.14540100097656,4301.8662109375,-964.0057983398438,11210.44140625,146.2300567626953,2491.47412109375,-1193.682373046875,3081.95751953125,2542.336669921875,19800.662109375,2834.002197265625,9950.796875,249.54476928710938,7524.490234375,22737.98046875,18906.59375,13639.1328125,-0.0,-49315.29296875,16292.73046875,5519.39013671875,0.0,6319.681640625,0.0,0.0
10995.0703125,9702.841796875,26530.423828125,8047.42138671875,25154.748046875,2521.673828125,3845.691650390625,3858.4072265625,6922.08642578125,3790.85546875,13047.05859375,-3739.992919921875,5234.08251953125,0.0,18801.689453125,1714.2296142578125,21322.568359375,14549.8916015625,6553.33203125,9574.095703125,19210.974609375,25756.359375,12538.4326171875,15288.9892578125,16541.48046875,4254.18212890625,24608.76953125,-6031.990234375,-0.0,280.5391845703125,9581.248046875,4448.095703125,20796.45703125,13547.73828125,9060.7001953125,21067.4609375,7812.97705078125,9063.8798828125,3987.947998046875,-660.41943359375,19709.26953125,5098.18408203125,14491.0810546875,6117.82080078125,3146.33056640625,9434.2236328125,10232.92578125,-185.17176818847656,4332.0654296875,-948.9059448242188,11213.6201171875,147.02479553222656,2504.189697265625,-1183.3509521484375,3093.87841796875,2555.052490234375,19803.046875,2837.18115234375,9952.3857421875,241.5974884033203,7547.537109375,22741.953125,18908.9765625,13632.7744140625,-0.0,-49314.5,16297.4990234375,5495.54833984375,0.0,6291.8662109375,0.0,0.0
10994.275390625,9709.994140625,26524.861328125,8038.68017578125,25165.876953125,2524.05810546875,3849.665283203125,3857.612548828125,6923.67578125,3789.265869140625,13027.9853515625,-3747.1455078125,5256.3349609375,0.0,18805.662109375,1713.434814453125,21322.568359375,14553.0703125,6554.92138671875,9574.890625,19213.357421875,25756.359375,12543.99609375,15288.9892578125,16557.375,4251.79833984375,24619.1015625,-6034.3740234375,-0.0,275.77081298828125,9583.6328125,4445.71142578125,20796.45703125,13548.533203125,9064.6748046875,21067.4609375,7815.36083984375,9062.2900390625,4003.0478515625,-650.0880126953125,19715.626953125,5098.978515625,14497.439453125,6118.61572265625,3149.509521484375,9435.017578125,10244.0517578125,-184.3770294189453,4345.57568359375,-944.1375732421875,11218.388671875,147.81951904296875,2496.242431640625,-1178.58251953125,3096.2626953125,2551.87353515625,19807.01953125,2840.35986328125,9953.9755859375,238.4185791015625,7565.021484375,22741.16015625,18908.9765625,13631.1845703125,-0.0,-49323.2421875,16295.1142578125,5491.57470703125,0.0,6287.09814453125,0.0,0.0
10979.17578125,9698.0732421875,26518.50390625,8024.375,25145.212890625,2501.010986328125,3831.386474609375,3839.333740234375,6906.19140625,3777.344970703125,13005.7333984375,-3767.80810546875,5237.26123046875,0.0,18794.537109375,1699.1297607421875,21305.083984375,14533.99609375,6537.4375,9556.611328125,19194.28515625,25738.875,12525.7177734375,15269.1201171875,16549.4296875,4227.16162109375,24591.287109375,-6056.626953125,-0.0,263.8498840332031,9566.943359375,4426.63818359375,20778.974609375,13531.84375,9044.0107421875,21048.38671875,7794.6982421875,9047.9853515625,3987.153564453125,-650.8826904296875,19697.34765625,5079.11083984375,14477.5703125,6100.33642578125,3132.820068359375,9417.5341796875,10234.515625,-205.03997802734375,4324.9130859375,-971.1583251953125,11203.2890625,133.514404296875,2458.89013671875,-1189.708740234375,3076.394287109375,2543.92626953125,19800.662109375,2827.644287109375,9941.2607421875,226.49765014648438,7534.82177734375,22724.470703125,18891.4921875,13616.0849609375,-0.0,-49342.31640625,16276.8359375,5486.01171875,0.0,6288.68701171875,0.0,0.0
10968.8447265625,9686.947265625,26513.734375,8020.40087890625,25130.11328125,2492.268798828125,3821.849853515625,3834.5654296875,6899.03857421875,3770.9873046875,12992.22265625,-3766.218994140625,5229.314453125,0.0,18790.564453125,1696.7454833984375,21297.931640625,14523.6650390625,6527.90087890625,9547.8701171875,19183.158203125,25730.927734375,12513.0009765625,15261.9677734375,16542.27734375,4216.82958984375,24577.775390625,-6063.779296875,-0.0,259.8762512207031,9555.0224609375,4420.2802734375,20771.02734375,13522.3076171875,9033.6796875,21041.234375,7785.9560546875,9042.421875,3977.61669921875,-654.0616455078125,19687.017578125,5071.1630859375,14464.060546875,6089.21044921875,3125.66748046875,9410.380859375,10241.66796875,-214.57672119140625,4316.17138671875,-987.0529174804688,11195.341796875,128.74603271484375,2438.227294921875,-1198.45068359375,3075.599609375,2534.389404296875,19799.8671875,2829.23388671875,9938.0810546875,223.31874084472656,7512.5693359375,22714.138671875,18881.95703125,13608.9326171875,-0.0,-49337.546875,16277.6318359375,5489.1904296875,0.0,6282.32958984375,0.0,0.0
10958.5126953125,9671.84765625,26508.966796875,8014.83837890625,25126.93359375,2489.08984375,3820.26025390625,3834.5654296875,6897.44970703125,3769.397705078125,13009.70703125,-3758.271484375,5227.724609375,0.0,18782.615234375,1697.540283203125,21296.34375,14522.0751953125,6525.5166015625,9546.2802734375,19181.5703125,25728.544921875,12512.20703125,15261.1728515625,16529.560546875,4212.8564453125,24580.16015625,-6063.779296875,-0.0,254.31314086914062,9553.4326171875,4419.4853515625,20769.4375,13519.1279296875,9032.08984375,21039.64453125,7785.16162109375,9040.83203125,3958.543212890625,-666.7772827148438,19684.6328125,5070.3681640625,14462.470703125,6088.41552734375,3121.69384765625,9410.380859375,10263.919921875,-220.1398162841797,4316.17138671875,-995.794921875,11190.5732421875,127.95130920410156,2435.04833984375,-1215.934814453125,3089.90478515625,2533.5947265625,19795.099609375,2829.23388671875,9928.5439453125,219.3450927734375,7507.80126953125,22712.548828125,18881.162109375,13607.3427734375,-0.0,-49331.98046875,16283.193359375,5482.83251953125,0.0,6279.9453125,0.0,0.0
10964.076171875,9673.4365234375,26508.966796875,8021.99072265625,25127.728515625,2497.037109375,3825.823486328125,3840.128662109375,6899.03857421875,3772.57666015625,13032.75390625,-3761.450439453125,5223.7509765625,0.0,18795.33203125,1699.9244384765625,21300.31640625,14528.43359375,6532.6689453125,9549.458984375,19183.955078125,25734.10546875,12517.76953125,15267.53125,16518.43359375,4223.982421875,24588.107421875,-6057.42138671875,-0.0,256.69732666015625,9557.40625,4422.66455078125,20772.615234375,13526.2802734375,9035.26953125,21046.00390625,7790.72412109375,9044.806640625,3971.258544921875,-675.519287109375,19681.453125,5077.52099609375,14465.6494140625,6093.97900390625,3125.66748046875,9415.1494140625,10275.8408203125,-209.808349609375,4315.37646484375,-984.668701171875,11201.69921875,131.92494201660156,2449.353515625,-1211.961181640625,3092.2890625,2539.95263671875,19799.07421875,2837.18115234375,9938.8759765625,224.11346435546875,7522.90087890625,22719.701171875,18885.931640625,13604.958984375,-0.0,-49339.1328125,16286.373046875,5480.4482421875,0.0,6285.5087890625,0.0,0.0
10958.5126953125,9673.4365234375,26508.966796875,8018.81103515625,25127.728515625,2501.010986328125,3828.207763671875,3842.512939453125,6897.44970703125,3774.166015625,13034.34375,-3764.62939453125,5226.93017578125,0.0,18798.509765625,1703.1033935546875,21297.931640625,14532.4072265625,6533.4638671875,9549.458984375,19183.955078125,25735.697265625,12516.9755859375,15269.916015625,16514.458984375,4223.982421875,24594.46484375,-6055.83203125,-0.0,265.4393615722656,9558.201171875,4418.69091796875,20771.822265625,13526.2802734375,9036.064453125,21046.796875,7790.72412109375,9044.806640625,3981.59033203125,-679.492919921875,19680.658203125,5079.11083984375,14467.2392578125,6094.77392578125,3128.846435546875,9418.328125,10264.7138671875,-220.93455505371094,4313.787109375,-981.4898071289062,11204.0830078125,132.7196807861328,2484.321533203125,-1207.1927490234375,3089.110107421875,2535.97900390625,19798.279296875,2830.8232421875,9938.0810546875,227.29237365722656,7538.79541015625,22720.49609375,18888.314453125,13599.3955078125,-0.0,-49340.7265625,16279.220703125,5481.2431640625,0.0,6289.48193359375,0.0,0.0
10935.4658203125,9665.4892578125,26503.404296875,8014.83837890625,25122.9609375,2498.626708984375,3817.876220703125,3837.744384765625,6890.296875,3770.9873046875,13037.5224609375,-3773.371337890625,5222.16162109375,0.0,18779.435546875,1703.1033935546875,21292.3671875,14525.25390625,6526.3115234375,9544.6904296875,19177.595703125,25730.1328125,12509.0283203125,15263.5576171875,16512.87109375,4216.82958984375,24583.33984375,-6061.39501953125,-0.0,243.98167419433594,9552.6376953125,4409.154296875,20766.2578125,13521.51171875,9029.7060546875,21042.029296875,7783.57177734375,9039.2431640625,3978.4111328125,-681.8771362304688,19675.890625,5081.49462890625,14459.2919921875,6090.00537109375,3120.1044921875,9413.5595703125,10258.357421875,-243.98167419433594,4306.63427734375,-986.2581787109375,11191.3681640625,127.95130920410156,2507.368896484375,-1210.37158203125,3091.494384765625,2520.08447265625,19785.5625,2820.49169921875,9923.775390625,226.49765014648438,7530.0537109375,22713.341796875,18882.751953125,13594.626953125,-0.0,-49343.90234375,16270.4794921875,5482.83251953125,0.0,6289.48193359375,0.0,0.0
10934.6708984375,9642.44140625,26487.5078125,7998.14892578125,25107.861328125,2482.732177734375,3804.365966796875,3824.23388671875,6878.3759765625,3756.68212890625,13017.654296875,-3789.265869140625,5211.830078125,0.0,18766.72265625,1681.645751953125,21275.677734375,14508.5654296875,6510.41650390625,9531.1806640625,19162.49609375,25714.23828125,12494.7236328125,15247.662109375,16493.001953125,4200.935546875,24572.21484375,-6078.87890625,-0.0,218.5503692626953,9536.7431640625,4390.0810546875,20748.7734375,13503.234375,9015.4013671875,21026.134765625,7769.2666015625,9024.1435546875,3945.827392578125,-696.1822509765625,19659.201171875,5063.2158203125,14446.576171875,6075.7001953125,3104.2099609375,9396.87109375,10239.283203125,-261.4656982421875,4282.79248046875,-998.973876953125,11177.0625,110.46727752685547,2493.063720703125,-1231.03466796875,3088.315185546875,2495.44775390625,19777.6171875,2799.0341796875,9913.4443359375,202.65579223632812,7511.7744140625,22699.037109375,18868.447265625,13585.0908203125,-0.0,-49355.03125,16257.7626953125,5458.99072265625,0.0,6268.0244140625,0.0,0.0
10979.9697265625,9672.6416015625,26504.197265625,8013.24853515625,25131.703125,2508.16357421875,3830.591796875,3851.254638671875,6901.4228515625,3780.52392578125,13038.3173828125,-3759.861083984375,5207.0615234375,0.0,18789.767578125,1715.0242919921875,21296.34375,14530.818359375,6535.84814453125,9555.0224609375,19182.36328125,25732.517578125,12520.154296875,15271.5048828125,16500.154296875,4232.724609375,24604.796875,-6045.50048828125,-0.0,257.4920654296875,9555.81640625,4412.3330078125,20767.84765625,13520.7177734375,9038.4482421875,21046.796875,7793.1083984375,9048.779296875,3960.132568359375,-672.3403930664062,19680.658203125,5071.9580078125,14474.3916015625,6104.310546875,3129.641357421875,9421.5078125,10253.5888671875,-221.72927856445312,4297.09765625,-964.0057983398438,11203.2890625,139.8722381591797,2497.83203125,-1211.961181640625,3088.315185546875,2538.36328125,19792.71484375,2836.386474609375,9937.2861328125,232.0607452392578,7538.79541015625,22722.87890625,18893.876953125,13606.5478515625,-0.0,-49328.8046875,16275.248046875,5485.216796875,0.0,6289.48193359375,0.0,0.0
11007.7861328125,9713.1728515625,26531.21875,8043.4482421875,25165.876953125,2537.568359375,3863.970458984375,3878.275634765625,6935.5966796875,3809.928955078125,13055.8017578125,-3730.4560546875,5222.9560546875,0.0,18818.37890625,1734.8924560546875,21324.953125,14561.8125,6566.8427734375,9587.60546875,19211.76953125,25760.33203125,12551.1484375,15300.1142578125,16531.1484375,4254.9765625,24631.818359375,-6016.89013671875,-0.0,287.6917419433594,9585.2216796875,4442.533203125,20795.6640625,13547.73828125,9068.6484375,21076.998046875,7826.4873046875,9076.595703125,3994.30615234375,-647.7037963867188,19710.859375,5099.7734375,14507.7705078125,6133.71533203125,3163.019775390625,9451.70703125,10255.177734375,-182.78758239746094,4323.32373046875,-939.3692016601562,11238.2578125,166.09828186035156,2501.010986328125,-1183.3509521484375,3105.79931640625,2581.278564453125,19814.171875,2868.97021484375,9972.2548828125,264.6446228027344,7548.33203125,22753.873046875,18923.283203125,13645.4892578125,-0.0,-49297.015625,16302.2666015625,5504.2900390625,0.0,6306.17138671875,0.0,0.0
10987.91796875,9702.841796875,26520.09375,8033.1162109375,25155.544921875,2516.110595703125,3851.254638671875,3859.996826171875,6926.0595703125,3798.008056640625,13036.7275390625,-3747.1455078125,5246.7978515625,0.0,18813.609375,1714.2296142578125,21312.236328125,14550.685546875,6554.126953125,9576.4794921875,19202.232421875,25748.412109375,12539.2275390625,15287.3994140625,16533.533203125,4240.671875,24617.513671875,-6038.34765625,-0.0,269.4129943847656,9573.30078125,4429.0224609375,20782.15234375,13535.8173828125,9058.31640625,21061.1015625,7812.18212890625,9063.0849609375,3987.947998046875,-667.572021484375,19702.115234375,5086.26318359375,14494.259765625,6117.82080078125,3151.8935546875,9435.017578125,10240.078125,-190.73486328125,4336.833984375,-965.59521484375,11223.9521484375,147.81951904296875,2471.60595703125,-1196.0665283203125,3106.593994140625,2564.58935546875,19825.30078125,2844.333740234375,9964.306640625,244.77639770507812,7514.95361328125,22739.568359375,18912.951171875,13637.54296875,-0.0,-49314.5,16299.8828125,5498.7275390625,0.0,6300.6083984375,0.0,0.0
10974.4072265625,9696.4833984375,26511.3515625,8025.9638671875,25140.443359375,2505.779296875,3830.591796875,3848.075927734375,6911.75439453125,3788.47119140625,13017.654296875,-3764.62939453125,5237.26123046875,0.0,18798.509765625,1706.2822265625,21303.49609375,14539.5595703125,6540.61669921875,9564.55859375,19191.900390625,25740.46484375,12524.1279296875,15275.478515625,16524.791015625,4243.0556640625,24594.46484375,-6048.67919921875,-0.0,262.26043701171875,9564.55859375,4420.2802734375,20775.0,13527.8701171875,9047.9853515625,21050.771484375,7796.28759765625,9051.1640625,3969.66943359375,-673.9298706054688,19690.1953125,5084.67333984375,14472.8017578125,6108.2841796875,3135.9990234375,9424.6865234375,10247.23046875,-204.24525451660156,4324.9130859375,-969.5689086914062,11200.1103515625,139.07749938964844,2474.784912109375,-1196.861328125,3093.87841796875,2555.84716796875,19814.171875,2829.23388671875,9942.849609375,235.2396697998047,7520.51708984375,22727.6484375,18898.64453125,13628.005859375,-0.0,-49327.21484375,16290.345703125,5502.70068359375,0.0,6307.7607421875,0.0,0.0
10973.6123046875,9703.6357421875,26522.478515625,8028.34814453125,25145.212890625,2514.521240234375,3832.97607421875,3852.84423828125,6909.37060546875,3790.060791015625,13020.8330078125,-3749.529541015625,5243.61962890625,0.0,18794.537109375,1711.845458984375,21309.056640625,14542.7392578125,6546.17919921875,9562.96875,19197.46484375,25746.822265625,12530.486328125,15279.4521484375,16534.328125,4251.00341796875,24584.927734375,-6042.32177734375,-0.0,269.4129943847656,9571.7119140625,4425.84375,20782.15234375,13535.8173828125,9052.75390625,21056.333984375,7798.671875,9055.1376953125,3958.543212890625,-664.3931274414062,19694.962890625,5092.62109375,14477.5703125,6113.05224609375,3135.9990234375,9427.865234375,10266.3037109375,-216.96090698242188,4319.349609375,-958.4426879882812,11200.1103515625,143.8458709716797,2498.626708984375,-1185.735107421875,3096.2626953125,2553.462890625,19807.01953125,2834.002197265625,9941.2607421875,236.82911682128906,7538.79541015625,22732.416015625,18897.8515625,13622.443359375,-0.0,-49320.0625,16291.1416015625,5504.2900390625,0.0,6305.37646484375,0.0,0.0
10953.744140625,9692.509765625,26520.88671875,8031.52734375,25149.1875,2504.984619140625,3831.386474609375,3847.28125,6904.60205078125,3781.318603515625,12992.22265625,-3749.529541015625,5238.85107421875,0.0,18790.564453125,1703.1033935546875,21303.49609375,14540.3544921875,6544.58984375,9555.81640625,19196.66796875,25739.669921875,12530.486328125,15273.888671875,16538.30078125,4236.6982421875,24585.724609375,-6047.88427734375,-0.0,261.4656982421875,9570.1220703125,4420.2802734375,20780.5625,13532.638671875,9049.5751953125,21052.361328125,7793.9033203125,9050.369140625,3967.28515625,-688.2349853515625,19698.142578125,5079.9052734375,14479.16015625,6104.310546875,3131.230712890625,9421.5078125,10266.3037109375,-224.11346435546875,4321.73388671875,-967.1846923828125,11200.1103515625,135.89859008789062,2495.44775390625,-1185.735107421875,3096.2626953125,2534.389404296875,19803.046875,2837.18115234375,9937.2861328125,229.6765594482422,7535.6162109375,22728.443359375,18893.083984375,13614.4951171875,-0.0,-49320.859375,16290.345703125,5493.958984375,0.0,6296.634765625,0.0,0.0
10955.333984375,9682.1787109375,26516.9140625,8028.34814453125,25145.212890625,2493.063720703125,3829.797119140625,3836.94970703125,6899.03857421875,3768.60302734375,12977.91796875,-3761.450439453125,5229.314453125,0.0,18790.564453125,1689.593017578125,21297.13671875,14536.380859375,6537.4375,9550.25390625,19191.107421875,25731.72265625,12524.9228515625,15264.3515625,16531.1484375,4220.8037109375,24591.287109375,-6057.42138671875,-0.0,257.4920654296875,9561.3798828125,4417.1015625,20775.794921875,13525.486328125,9044.806640625,21042.82421875,7789.9296875,9042.421875,3990.33203125,-699.3611450195312,19697.34765625,5071.1630859375,14476.7763671875,6093.18408203125,3126.462158203125,9411.17578125,10272.662109375,-214.57672119140625,4319.349609375,-980.6951293945312,11202.494140625,124.77238464355469,2467.63232421875,-1198.45068359375,3093.083740234375,2523.26318359375,19788.7421875,2822.8759765625,9936.4921875,216.96090698242188,7522.10595703125,22722.0859375,18885.134765625,13603.3701171875,-0.0,-49330.39453125,16292.73046875,5480.4482421875,0.0,6279.9453125,0.0,0.0
10951.359375,9682.1787109375,26515.326171875,8028.34814453125,25142.828125,2497.037109375,3836.94970703125,3840.128662109375,6906.19140625,3776.55029296875,13024.806640625,-3759.861083984375,5222.9560546875,0.0,18795.33203125,1698.3350830078125,21298.7265625,14536.380859375,6541.4111328125,9556.611328125,19190.310546875,25734.10546875,12526.51171875,15266.736328125,16525.587890625,4222.39306640625,24598.439453125,-6058.21630859375,-0.0,256.69732666015625,9560.5849609375,4421.0751953125,20773.41015625,13524.69140625,9044.806640625,21043.619140625,7793.9033203125,9044.0107421875,4008.611083984375,-681.0823974609375,19691.78515625,5072.75244140625,14480.75,6097.15771484375,3134.40966796875,9417.5341796875,10248.025390625,-212.9872589111328,4316.9658203125,-983.0792846679688,11212.826171875,129.54075622558594,2431.86962890625,-1212.755859375,3093.083740234375,2522.468505859375,19775.232421875,2822.8759765625,9940.46484375,224.90818786621094,7514.15869140625,22726.05859375,18891.4921875,13609.7265625,-0.0,-49325.625,16287.9619140625,5491.57470703125,0.0,6291.8662109375,0.0,0.0
10970.43359375,9686.15234375,26531.21875,8039.474609375,25154.748046875,2512.931884765625,3853.638916015625,3855.228515625,6920.49658203125,3792.44482421875,13057.3916015625,-3749.529541015625,5233.28759765625,0.0,18809.63671875,1712.64013671875,21313.03125,14549.095703125,6554.126953125,9569.3271484375,19204.6171875,25748.412109375,12541.611328125,15281.8369140625,16538.30078125,4241.46630859375,24615.12890625,-6042.32177734375,-0.0,271.00244140625,9576.4794921875,4432.99609375,20786.126953125,13539.791015625,9058.31640625,21060.30859375,7809.7978515625,9059.90625,4001.458740234375,-656.44580078125,19702.115234375,5090.23681640625,14495.849609375,6113.84716796875,3150.30419921875,9431.044921875,10243.2568359375,-205.83470153808594,4331.2705078125,-962.4163208007812,11232.693359375,141.46168518066406,2450.94287109375,-1207.9874267578125,3090.699462890625,2535.18408203125,19798.279296875,2837.975830078125,9954.7705078125,238.4185791015625,7529.2587890625,22740.36328125,18908.181640625,13626.416015625,-0.0,-49320.0625,16290.345703125,5497.9326171875,0.0,6302.19775390625,0.0,0.0
10957.7177734375,9675.8203125,26543.935546875,8033.1162109375,25165.080078125,2516.110595703125,3851.254638671875,3860.79150390625,6922.880859375,3796.41845703125,13059.775390625,-3745.555908203125,5245.208984375,0.0,18808.841796875,1722.9715576171875,21314.62109375,14553.8642578125,6557.3056640625,9570.916015625,19209.384765625,25750.794921875,12548.7646484375,15288.193359375,16550.22265625,4244.6455078125,24614.333984375,-6037.55322265625,-0.0,275.77081298828125,9578.068359375,4431.40673828125,20790.89453125,13540.5859375,9063.8798828125,21065.076171875,7813.771484375,9064.6748046875,3960.132568359375,-647.7037963867188,19711.65234375,5092.62109375,14499.8232421875,6120.205078125,3151.8935546875,9436.607421875,10256.767578125,-204.24525451660156,4346.37060546875,-959.2374267578125,11223.9521484375,150.99842834472656,2470.0166015625,-1204.0137939453125,3094.673095703125,2542.336669921875,19819.736328125,2849.10205078125,9954.7705078125,245.57113647460938,7530.84814453125,22743.54296875,18910.56640625,13632.7744140625,-0.0,-49316.8828125,16301.4736328125,5510.6484375,0.0,6313.32421875,0.0,0.0
10963.2802734375,9670.2578125,26531.21875,8014.04296875,25151.5703125,2504.189697265625,3834.5654296875,3852.84423828125,6913.34375,3790.060791015625,13036.7275390625,-3747.93994140625,5234.876953125,0.0,18796.125,1715.0242919921875,21302.69921875,14541.943359375,6545.384765625,9563.763671875,19197.46484375,25740.46484375,12536.84375,15277.068359375,16535.91796875,4233.51904296875,24592.08203125,-6049.47412109375,-0.0,263.05517578125,9566.943359375,4417.1015625,20778.1796875,13526.2802734375,9051.958984375,21054.744140625,7800.26123046875,9055.931640625,3925.164794921875,-666.7772827148438,19700.52734375,5084.67333984375,14483.9287109375,6109.0791015625,3139.177978515625,9427.865234375,10263.919921875,-232.85548400878906,4334.44970703125,-975.9266967773438,11196.13671875,143.8458709716797,2462.0693359375,-1210.37158203125,3088.315185546875,2535.18408203125,19816.556640625,2841.949462890625,9942.849609375,240.00804138183594,7521.3115234375,22731.623046875,18900.236328125,13624.0322265625,-0.0,-49315.29296875,16303.0625,5509.05859375,0.0,6316.5029296875,0.0,0.0
10973.6123046875,9661.515625,26504.197265625,8002.91748046875,25137.265625,2497.037109375,3832.18115234375,3844.10205078125,6906.19140625,3779.729248046875,13006.5283203125,-3769.397705078125,5227.724609375,0.0,18792.15234375,1702.30859375,21288.39453125,14529.228515625,6538.232421875,9555.0224609375,19182.36328125,25728.544921875,12527.306640625,15265.94140625,16516.05078125,4204.90869140625,24592.876953125,-6060.60009765625,-0.0,227.29237365722656,9555.0224609375,4404.38623046875,20760.6953125,13514.359375,9037.654296875,21042.029296875,7792.31396484375,9047.1904296875,3935.495849609375,-683.4666137695312,19682.25,5076.7265625,14473.59765625,6099.5419921875,3133.61474609375,9418.328125,10226.5673828125,-251.928955078125,4318.55517578125,-985.4635009765625,11198.5205078125,134.3091278076172,2460.479736328125,-1227.855712890625,3077.189208984375,2526.4423828125,19806.2265625,2830.8232421875,9940.46484375,233.65020751953125,7511.7744140625,22718.90625,18893.083984375,13616.0849609375,-0.0,-49332.77734375,16295.91015625,5498.7275390625,0.0,6302.9921875,0.0,0.0
10975.9970703125,9673.4365234375,26495.45703125,8012.4541015625,25138.060546875,2497.83203125,3836.94970703125,3846.486328125,6909.37060546875,3776.55029296875,13012.8857421875,-3774.166015625,5231.69873046875,0.0,18794.537109375,1702.30859375,21290.779296875,14530.0224609375,6542.2060546875,9555.0224609375,19181.5703125,25729.337890625,12530.486328125,15268.326171875,16522.408203125,4197.75634765625,24597.64453125,-6057.42138671875,-0.0,232.85548400878906,9557.40625,4411.53857421875,20761.490234375,13519.1279296875,9038.4482421875,21042.82421875,7795.49267578125,9049.5751953125,3990.33203125,-672.3403930664062,19679.0703125,5073.54736328125,14477.5703125,6101.92626953125,3139.177978515625,9420.712890625,10206.69921875,-225.7029266357422,4325.7080078125,-981.4898071289062,11204.87890625,135.10386657714844,2462.864013671875,-1217.524169921875,3100.236083984375,2537.568359375,19806.2265625,2830.8232421875,9944.4384765625,228.0871124267578,7509.39013671875,22721.291015625,18894.671875,13613.701171875,-0.0,-49337.546875,16289.552734375,5492.369140625,0.0,6287.09814453125,0.0,0.0
10958.5126953125,9674.2314453125,26497.044921875,8021.99072265625,25138.060546875,2498.626708984375,3834.5654296875,3845.691650390625,6908.57568359375,3774.960693359375,13013.6806640625,-3777.344970703125,5205.47265625,0.0,18790.564453125,1703.8980712890625,21293.958984375,14530.818359375,6542.2060546875,9552.6376953125,19182.36328125,25731.72265625,12530.486328125,15268.326171875,16522.408203125,4225.572265625,24592.876953125,-6059.80517578125,-0.0,243.18695068359375,9557.40625,4413.1279296875,20763.078125,13523.1015625,9038.4482421875,21044.412109375,7793.1083984375,9049.5751953125,3988.742919921875,-672.3403930664062,19679.0703125,5075.13671875,14475.9814453125,6101.92626953125,3138.383056640625,9420.712890625,10222.5947265625,-216.1661834716797,4314.58154296875,-984.668701171875,11202.494140625,133.514404296875,2450.1484375,-1215.1400146484375,3093.083740234375,2527.23681640625,19791.921875,2826.849609375,9938.0810546875,229.6765594482422,7509.39013671875,22722.87890625,18894.671875,13608.9326171875,-0.0,-49341.51953125,16286.373046875,5485.216796875,0.0,6279.9453125,0.0,0.0
10949.7705078125,9682.1787109375,26512.94140625,8035.50048828125,25153.16015625,2510.547607421875,3848.075927734375,3857.612548828125,6919.7021484375,3791.650146484375,13016.064453125,-3759.861083984375,5208.65087890625,0.0,18805.662109375,1708.66650390625,21303.49609375,14543.533203125,6556.5107421875,9566.943359375,19195.080078125,25744.4375,12542.4072265625,15280.2470703125,16527.970703125,4239.87744140625,24607.181640625,-6047.88427734375,-0.0,264.6446228027344,9568.5322265625,4420.2802734375,20775.794921875,13532.638671875,9051.958984375,21058.716796875,7806.619140625,9061.49609375,3992.71630859375,-670.7509155273438,19690.990234375,5085.46826171875,14491.0810546875,6113.84716796875,3149.509521484375,9432.6337890625,10250.4091796875,-206.6294403076172,4312.9921875,-971.1583251953125,11216.00390625,143.8458709716797,2442.995849609375,-1200.8348388671875,3082.752197265625,2538.36328125,19795.099609375,2837.18115234375,9950.796875,240.80276489257812,7514.95361328125,22735.595703125,18906.59375,13622.443359375,-0.0,-49330.39453125,16285.578125,5497.9326171875,0.0,6299.01904296875,0.0,0.0
10984.73828125,9691.71484375,26520.09375,8051.3955078125,25161.90234375,2528.031494140625,3863.970458984375,3875.0966796875,6939.56982421875,3811.518310546875,13024.0126953125,-3746.3505859375,5238.85107421875,0.0,18821.55859375,1726.1505126953125,21317.80078125,14557.8388671875,6570.81591796875,9585.2216796875,19207.0,25759.5390625,12556.7119140625,15296.935546875,16534.328125,4254.9765625,24629.435546875,-6030.40087890625,-0.0,276.5655517578125,9582.8369140625,4434.58544921875,20788.51171875,13543.7646484375,9064.6748046875,21074.61328125,7822.513671875,9077.3896484375,4013.379638671875,-652.47216796875,19703.70703125,5101.36279296875,14506.1806640625,6132.1259765625,3165.404052734375,9450.1181640625,10240.078125,-189.9401397705078,4343.19140625,-951.2901611328125,11233.4892578125,159.74044799804688,2477.1689453125,-1191.298095703125,3097.85205078125,2550.2841796875,19814.96875,2851.486328125,9965.1025390625,258.28680419921875,7521.3115234375,22749.900390625,18924.078125,13644.6953125,-0.0,-49310.5234375,16293.525390625,5516.2109375,0.0,6322.06591796875,0.0,0.0
10995.0703125,9677.41015625,26505.7890625,8033.91162109375,25146.0078125,2517.7001953125,3851.254638671875,3865.559814453125,6930.828125,3804.365966796875,13032.75390625,-3763.039794921875,5232.4931640625,0.0,18806.45703125,1718.2032470703125,21307.46875,14548.3017578125,6558.89501953125,9578.068359375,19195.875,25748.412109375,12546.3798828125,15288.193359375,16522.408203125,4241.46630859375,24612.74609375,-6038.34765625,-0.0,259.0815124511719,9571.7119140625,4429.0224609375,20776.58984375,13534.228515625,9051.958984375,21063.486328125,7810.5927734375,9068.6484375,3986.358642578125,-665.1878662109375,19690.1953125,5091.03173828125,14487.90234375,6121.79443359375,3155.072509765625,9442.169921875,10215.44140625,-205.83470153808594,4342.39697265625,-962.4163208007812,11219.18359375,151.7931671142578,2497.037109375,-1208.7822265625,3089.90478515625,2535.18408203125,19811.7890625,2840.35986328125,9955.5654296875,253.5184326171875,7503.82763671875,22737.98046875,18913.74609375,13641.5166015625,-0.0,-49324.03515625,16287.1689453125,5509.05859375,0.0,6317.29736328125,0.0,0.0
10978.380859375,9671.0517578125,26493.072265625,8025.9638671875,25135.67578125,2504.984619140625,3836.155029296875,3851.254638671875,6919.7021484375,3791.650146484375,13028.78125,-3772.57666015625,5229.314453125,0.0,18792.15234375,1703.8980712890625,21298.7265625,14536.380859375,6546.17919921875,9568.5322265625,19184.748046875,25738.080078125,12534.458984375,15275.478515625,16521.611328125,4223.982421875,24583.33984375,-6053.44775390625,-0.0,250.33950805664062,9562.1748046875,4420.2802734375,20765.462890625,13523.1015625,9042.421875,21052.361328125,7797.876953125,9057.521484375,3988.742919921875,-676.3140258789062,19679.0703125,5078.31591796875,14472.8017578125,6109.0791015625,3140.767333984375,9427.865234375,10220.2099609375,-222.5240020751953,4309.0185546875,-981.4898071289062,11200.1103515625,138.28277587890625,2489.08984375,-1218.3189697265625,3075.599609375,2522.468505859375,19810.994140625,2826.054931640625,9948.4130859375,238.4185791015625,7501.443359375,22726.853515625,18901.029296875,13633.568359375,-0.0,-49337.546875,16292.73046875,5483.62744140625,0.0,6295.83984375,0.0,0.0
10957.7177734375,9673.4365234375,26494.662109375,8018.0166015625,25136.470703125,2504.189697265625,3836.155029296875,3852.049560546875,6919.7021484375,3790.85546875,13008.1171875,-3769.397705078125,5226.93017578125,0.0,18792.15234375,1705.487548828125,21295.546875,14533.2021484375,6544.58984375,9567.7373046875,19184.748046875,25736.490234375,12536.048828125,15274.68359375,16524.791015625,4226.36669921875,24584.134765625,-6053.44775390625,-0.0,246.36587524414062,9561.3798828125,4417.896484375,20763.078125,13522.3076171875,9041.626953125,21051.564453125,7796.28759765625,9055.1376953125,3964.106201171875,-666.7772827148438,19679.865234375,5078.31591796875,14472.8017578125,6111.462890625,3141.562255859375,9430.2490234375,10234.515625,-224.90818786621094,4305.04443359375,-979.900390625,11200.9052734375,137.48805236816406,2480.347900390625,-1219.1136474609375,3069.24169921875,2525.6474609375,19802.251953125,2827.644287109375,9943.64453125,236.82911682128906,7516.54296875,22727.6484375,18901.029296875,13635.953125,-0.0,-49337.546875,16302.2666015625,5487.6005859375,0.0,6298.22412109375,0.0,0.0
10946.591796875,9672.6416015625,26497.044921875,7995.7646484375,25126.93359375,2505.779296875,3831.386474609375,3847.28125,6915.72802734375,3782.908203125,13000.1708984375,-3777.344970703125,5219.77734375,0.0,18786.587890625,1704.69287109375,21289.189453125,14531.6123046875,6538.232421875,9561.3798828125,19179.978515625,25732.517578125,12531.2802734375,15271.5048828125,16516.84375,4231.134765625,24580.955078125,-6055.037109375,-0.0,242.39222717285156,9557.40625,4408.359375,20757.517578125,13518.3330078125,9035.26953125,21049.181640625,7789.134765625,9051.958984375,3943.443359375,-671.545654296875,19675.095703125,5079.9052734375,14464.060546875,6110.66796875,3137.58837890625,9425.48046875,10225.7724609375,-216.96090698242188,4305.83935546875,-976.721435546875,11196.13671875,137.48805236816406,2472.400634765625,-1215.1400146484375,3071.6259765625,2520.879150390625,19795.099609375,2826.054931640625,9937.2861328125,232.0607452392578,7511.7744140625,22722.0859375,18895.466796875,13624.0322265625,-0.0,-49343.90234375,16303.857421875,5487.6005859375,0.0,6293.45556640625,0.0,0.0
10960.896484375,9682.97265625,26507.376953125,8008.47998046875,25133.291015625,2520.08447265625,3836.155029296875,3855.228515625,6922.880859375,3790.060791015625,13025.6015625,-3770.1923828125,5235.671875,0.0,18795.33203125,1710.2559814453125,21300.31640625,14541.943359375,6543.794921875,9568.5322265625,19187.927734375,25742.849609375,12536.84375,15281.041015625,16512.076171875,4248.619140625,24585.724609375,-6044.7060546875,-0.0,259.0815124511719,9566.943359375,4418.69091796875,20768.642578125,13531.048828125,9042.421875,21057.923828125,7797.08251953125,9058.31640625,3963.311767578125,-660.41943359375,19683.837890625,5091.03173828125,14471.212890625,6121.0,3147.125244140625,9431.044921875,10241.66796875,-196.29795837402344,4316.9658203125,-958.4426879882812,11203.2890625,147.02479553222656,2482.732177734375,-1194.47705078125,3082.752197265625,2525.6474609375,19802.251953125,2832.41259765625,9946.0283203125,239.2133026123047,7520.51708984375,22730.03125,18903.4140625,13631.1845703125,-0.0,-49335.1640625,16302.2666015625,5493.1640625,0.0,6297.4296875,0.0,0.0
10987.91796875,9704.4306640625,26532.80859375,8043.4482421875,25161.90234375,2546.310546875,3863.970458984375,3882.2490234375,6953.875,3818.6708984375,13045.470703125,-3742.376953125,5259.513671875,0.0,18816.7890625,1738.0714111328125,21327.337890625,14566.5810546875,6570.81591796875,9599.5263671875,19215.7421875,25769.869140625,12563.0693359375,15305.6787109375,16541.48046875,4275.64013671875,24611.94921875,-6016.095703125,-0.0,290.87066650390625,9593.9638671875,4443.32763671875,20795.6640625,13557.2744140625,9071.8271484375,21084.943359375,7823.30810546875,9085.337890625,3994.30615234375,-640.55126953125,19710.859375,5116.462890625,14498.2333984375,6147.22607421875,3174.94091796875,9457.2705078125,10275.8408203125,-180.4033966064453,4341.6025390625,-927.4482421875,11230.3095703125,174.04556274414062,2504.984619140625,-1173.814208984375,3101.031005859375,2559.82080078125,19819.736328125,2857.04931640625,9974.638671875,266.23406982421875,7548.33203125,22756.2578125,18932.0234375,13666.947265625,-0.0,-49304.16796875,16306.2421875,5517.80078125,0.0,6323.65576171875,0.0,0.0
11016.5283203125,9721.1201171875,26555.857421875,8066.4951171875,25187.333984375,2562.999755859375,3885.42822265625,3906.091064453125,6977.716796875,3846.486328125,13054.2119140625,-3716.15087890625,5273.81884765625,0.0,18835.068359375,1764.2974853515625,21346.41015625,14586.4482421875,6593.86279296875,9625.7529296875,19238.791015625,25789.73828125,12586.1171875,15327.1357421875,16573.271484375,4288.35546875,24638.17578125,-5993.04833984375,-0.0,309.1494140625,9613.8310546875,4460.8115234375,20816.326171875,13576.3486328125,9094.8740234375,21105.607421875,7845.56103515625,9106.794921875,4012.584716796875,-624.6566772460938,19735.494140625,5132.35693359375,14521.28125,6167.09375,3197.193115234375,9483.4970703125,10290.1455078125,-164.50881958007812,4368.623046875,-911.5537109375,11253.357421875,198.68214416503906,2522.468505859375,-1164.2774658203125,3132.025390625,2586.046875,19833.24609375,2884.86474609375,9996.0966796875,293.2548522949219,7561.0478515625,22780.099609375,18955.072265625,13697.94140625,-0.0,-49282.7109375,16323.724609375,5553.5634765625,0.0,6364.1865234375,0.0,0.0
11011.759765625,9712.37890625,26541.55078125,8055.369140625,25177.001953125,2546.310546875,3875.0966796875,3890.196533203125,6958.6435546875,3830.591796875,13058.185546875,-3728.86669921875,5253.15625,0.0,18823.146484375,1747.608154296875,21334.490234375,14574.52734375,6580.3525390625,9606.6787109375,19226.07421875,25773.048828125,12574.1962890625,15312.8310546875,16561.349609375,4268.4873046875,24635.791015625,-6009.7373046875,-0.0,292.4601135253906,9600.3212890625,4448.890625,20804.404296875,13560.4541015625,9080.5693359375,21089.712890625,7833.64013671875,9093.2841796875,4012.584716796875,-637.372314453125,19721.984375,5116.462890625,14511.744140625,6149.60986328125,3184.4775390625,9468.396484375,10286.171875,-175.63502502441406,4355.11279296875,-928.2429809570312,11243.8203125,181.9928436279297,2514.521240234375,-1182.55615234375,3126.462158203125,2569.357666015625,19813.37890625,2870.5595703125,9980.99609375,277.36029052734375,7548.33203125,22764.205078125,18938.3828125,13673.3056640625,-0.0,-49299.3984375,16313.39453125,5539.25830078125,0.0,6352.265625,0.0,0.0
10998.2490234375,9699.662109375,26523.271484375,8037.09033203125,25163.4921875,2528.031494140625,3863.175537109375,3871.123046875,6945.13330078125,3808.33935546875,13044.6748046875,-3739.197998046875,5223.7509765625,0.0,18814.40625,1724.56103515625,21320.185546875,14561.0166015625,6566.8427734375,9588.400390625,19210.1796875,25757.154296875,12560.685546875,15295.3466796875,16535.91796875,4249.4140625,24628.638671875,-6030.40087890625,-0.0,280.5391845703125,9585.2216796875,4439.35400390625,20790.099609375,13545.353515625,9066.263671875,21073.818359375,7818.53955078125,9076.595703125,3995.8955078125,-649.2932739257812,19705.294921875,5099.7734375,14502.2080078125,6132.9208984375,3168.5830078125,9448.5283203125,10263.919921875,-189.9401397705078,4332.0654296875,-949.70068359375,11234.283203125,162.1246337890625,2498.626708984375,-1204.80859375,3101.82568359375,2556.641845703125,19807.01953125,2852.28076171875,9971.458984375,255.90261840820312,7533.232421875,22749.10546875,18922.486328125,13651.84765625,-0.0,-49304.16796875,16306.2421875,5505.0849609375,0.0,6310.93994140625,0.0,0.0
10980.765625,9692.509765625,26513.734375,8030.73193359375,25154.748046875,2517.7001953125,3856.81787109375,3861.58642578125,6937.98046875,3798.008056640625,13032.75390625,-3750.32421875,5222.9560546875,0.0,18810.4296875,1718.2032470703125,21310.6484375,14548.3017578125,6558.89501953125,9577.2744140625,19199.052734375,25748.412109375,12552.73828125,15286.6044921875,16518.43359375,4238.28759765625,24616.71875,-6039.9375,-0.0,271.00244140625,9573.30078125,4429.8173828125,20778.974609375,13535.8173828125,9056.7275390625,21062.693359375,7809.7978515625,9065.46875,3980.0009765625,-656.44580078125,19694.962890625,5091.826171875,14496.6435546875,6121.79443359375,3159.8408203125,9438.9912109375,10253.5888671875,-199.4768829345703,4317.76025390625,-958.4426879882812,11229.5146484375,154.17735290527344,2481.142822265625,-1204.80859375,3093.083740234375,2544.720947265625,19810.19921875,2845.12841796875,9964.306640625,247.955322265625,7520.51708984375,22740.36328125,18912.951171875,13637.54296875,-0.0,-49314.5,16300.6787109375,5499.52197265625,0.0,6302.19775390625,0.0,0.0
10978.380859375,9691.71484375,26518.50390625,8027.5537109375,25149.98046875,2520.08447265625,3848.075927734375,3861.58642578125,6933.21240234375,3797.21337890625,13036.7275390625,-3753.503173828125,5229.314453125,0.0,18808.046875,1725.355712890625,21309.853515625,14545.91796875,6555.7158203125,9575.6845703125,19199.052734375,25749.20703125,12547.17578125,15285.8095703125,16525.587890625,4245.43994140625,24596.849609375,-6036.75830078125,-0.0,274.1813659667969,9573.30078125,4431.40673828125,20778.974609375,13536.6123046875,9051.958984375,21062.693359375,7805.82421875,9064.6748046875,3973.642822265625,-654.0616455078125,19695.759765625,5095.0048828125,14485.5185546875,6123.3837890625,3155.867431640625,9438.197265625,10263.919921875,-214.57672119140625,4331.2705078125,-956.0584716796875,11218.388671875,155.7667999267578,2486.705810546875,-1184.1456298828125,3102.620361328125,2555.052490234375,19815.763671875,2851.486328125,9957.154296875,249.54476928710938,7524.490234375,22736.390625,18911.361328125,13634.3642578125,-0.0,-49316.8828125,16292.73046875,5501.90576171875,0.0,6306.17138671875,0.0,0.0
10964.8701171875,9686.15234375,26520.88671875,8017.22216796875,25149.1875,2516.905517578125,3842.512939453125,3859.2021484375,6930.033203125,3795.623779296875,13035.93359375,-3753.503173828125,5240.4404296875,0.0,18806.45703125,1720.58740234375,21306.673828125,14540.3544921875,6551.74267578125,9572.505859375,19197.46484375,25746.02734375,12541.611328125,15280.2470703125,16538.30078125,4241.46630859375,24597.64453125,-6039.9375,-0.0,269.4129943847656,9570.1220703125,4428.22802734375,20778.1796875,13533.4326171875,9048.779296875,21057.12890625,7800.26123046875,9059.111328125,3971.258544921875,-661.2141723632812,19697.34765625,5091.03173828125,14478.3662109375,6117.82080078125,3153.483154296875,9435.017578125,10260.7412109375,-227.29237365722656,4341.6025390625,-963.2110595703125,11212.03125,150.99842834472656,2482.732177734375,-1185.735107421875,3124.078125,2555.052490234375,19818.94140625,2850.691650390625,9956.359375,247.16058349609375,7518.92724609375,22731.623046875,18908.181640625,13633.568359375,-0.0,-49316.8828125,16296.705078125,5494.75341796875,0.0,6300.6083984375,0.0,0.0
10931.4921875,9685.357421875,26523.271484375,8022.78515625,25157.1328125,2516.110595703125,3853.638916015625,3861.58642578125,6942.7490234375,3805.955078125,13035.93359375,-3745.555908203125,5247.5927734375,0.0,18815.19921875,1726.9453125,21305.87890625,14543.533203125,6554.92138671875,9585.2216796875,19202.232421875,25746.02734375,12546.3798828125,15284.220703125,16546.25,4238.28759765625,24617.513671875,-6038.34765625,-0.0,265.4393615722656,9570.916015625,4425.048828125,20780.5625,13533.4326171875,9054.3427734375,21058.716796875,7809.00341796875,9064.6748046875,3976.027099609375,-681.8771362304688,19703.70703125,5088.6474609375,14490.287109375,6120.205078125,3159.8408203125,9443.759765625,10252.79296875,-220.1398162841797,4347.9599609375,-960.826904296875,11223.9521484375,154.17735290527344,2462.864013671875,-1191.298095703125,3120.1044921875,2565.3837890625,19821.326171875,2852.28076171875,9966.69140625,253.5184326171875,7514.95361328125,22735.595703125,18916.130859375,13648.6689453125,-0.0,-49312.90625,16309.419921875,5510.6484375,0.0,6320.4765625,0.0,0.0
10941.0283203125,9686.947265625,26522.478515625,8032.32177734375,25148.392578125,2511.34228515625,3849.665283203125,3859.2021484375,6940.36474609375,3805.955078125,13027.19140625,-3754.2978515625,5229.314453125,0.0,18812.021484375,1724.56103515625,21304.2890625,14541.1494140625,6548.5634765625,9586.0166015625,19196.66796875,25742.0546875,12539.2275390625,15278.6572265625,16530.35546875,4239.08251953125,24610.361328125,-6041.52685546875,-0.0,263.8498840332031,9566.943359375,4419.4853515625,20775.794921875,13531.84375,9048.779296875,21054.744140625,7803.43994140625,9061.49609375,3973.642822265625,-689.8244018554688,19695.759765625,5085.46826171875,14484.72265625,6116.2314453125,3154.27783203125,9439.7861328125,10249.6142578125,-206.6294403076172,4328.88671875,-962.4163208007812,11219.978515625,150.99842834472656,2459.68505859375,-1190.50341796875,3082.752197265625,2565.3837890625,19807.81640625,2845.923095703125,9962.7177734375,252.72369384765625,7522.10595703125,22730.828125,18912.15625,13655.0263671875,-0.0,-49319.265625,16309.419921875,5511.44287109375,0.0,6322.06591796875,0.0,0.0
10982.3544921875,9693.3046875,26529.630859375,8036.2958984375,25153.955078125,2520.08447265625,3852.049560546875,3866.354736328125,6943.5439453125,3810.7236328125,13037.5224609375,-3749.529541015625,5235.671875,0.0,18815.994140625,1726.1505126953125,21311.44140625,14548.3017578125,6554.92138671875,9590.78515625,19205.412109375,25750.001953125,12542.4072265625,15285.0146484375,16535.123046875,4246.23486328125,24600.82421875,-6031.1953125,-0.0,270.2077331542969,9576.4794921875,4427.43310546875,20785.33203125,13540.5859375,9055.1376953125,21061.896484375,7808.20849609375,9066.263671875,3975.232666015625,-665.9825439453125,19705.294921875,5095.0048828125,14488.697265625,6123.3837890625,3158.25146484375,9442.169921875,10248.8203125,-198.68214416503906,4327.29736328125,-946.521728515625,11221.568359375,155.7667999267578,2476.374267578125,-1184.9403076171875,3084.341796875,2551.078857421875,19803.841796875,2850.691650390625,9967.486328125,257.4920654296875,7540.384765625,22737.98046875,18915.333984375,13662.974609375,-0.0,-49315.29296875,16310.21484375,5509.853515625,0.0,6326.833984375,0.0,0.0
11006.1962890625,9696.4833984375,26548.705078125,8048.216796875,25174.6171875,2537.568359375,3867.1494140625,3880.659912109375,6950.6962890625,3817.08154296875,13049.443359375,-3730.4560546875,5261.10302734375,0.0,18830.298828125,1738.8662109375,21327.337890625,14561.8125,6570.02099609375,9594.7578125,19222.1015625,25767.484375,12559.890625,15300.1142578125,16562.939453125,4262.92431640625,24619.8984375,-6016.095703125,-0.0,288.4864807128906,9592.3740234375,4444.9169921875,20803.609375,13555.685546875,9072.62109375,21079.3828125,7823.30810546875,9078.9794921875,3985.563720703125,-656.44580078125,19726.75390625,5112.4892578125,14506.1806640625,6139.2783203125,3166.993408203125,9453.296875,10273.45703125,-201.0663299560547,4349.5498046875,-933.8060913085938,11237.4619140625,167.68772888183594,2478.758544921875,-1165.0721435546875,3115.336181640625,2547.89990234375,19822.12109375,2861.817626953125,9976.2275390625,265.4393615722656,7557.869140625,22753.873046875,18926.462890625,13660.58984375,-0.0,-49302.578125,16312.599609375,5508.26416015625,0.0,6325.2451171875,0.0,0.0
10982.3544921875,9667.0791015625,26534.3984375,8037.884765625,25162.697265625,2520.08447265625,3856.023193359375,3867.1494140625,6934.00732421875,3807.544677734375,13015.2705078125,-3742.376953125,5242.82470703125,0.0,18822.3515625,1734.0977783203125,21315.416015625,14549.095703125,6556.5107421875,9579.658203125,19207.796875,25753.974609375,12546.3798828125,15286.6044921875,16553.40234375,4262.12939453125,24619.1015625,-6037.55322265625,-0.0,280.5391845703125,9577.2744140625,4426.63818359375,20786.919921875,13542.17578125,9057.521484375,21066.666015625,7811.3876953125,9067.05859375,3972.053466796875,-655.651123046875,19708.474609375,5098.978515625,14497.439453125,6121.79443359375,3155.072509765625,9442.169921875,10266.3037109375,-222.5240020751953,4341.6025390625,-966.3899536132812,11229.5146484375,150.99842834472656,2454.916748046875,-1184.9403076171875,3100.236083984375,2532.800048828125,19812.583984375,2847.512451171875,9964.306640625,258.28680419921875,7536.4111328125,22739.568359375,18913.74609375,13639.9267578125,-0.0,-49315.29296875,16300.6787109375,5520.18505859375,0.0,6323.65576171875,0.0,0.0
10950.5654296875,9657.5419921875,26507.376953125,8021.1953125,25134.8828125,2500.21630859375,3833.770751953125,3842.512939453125,6911.75439453125,3783.702880859375,12980.3017578125,-3774.960693359375,5224.5458984375,0.0,18796.919921875,1699.1297607421875,21292.3671875,14526.84375,6535.05322265625,9557.40625,19182.36328125,25734.90234375,12522.5380859375,15265.94140625,16524.791015625,4235.10888671875,24599.234375,-6064.57373046875,-0.0,228.8818359375,9555.0224609375,4405.9755859375,20763.078125,13520.7177734375,9032.8857421875,21046.796875,7789.9296875,9044.0107421875,3970.464111328125,-651.6774291992188,19676.685546875,5086.26318359375,14475.9814453125,6097.9521484375,3135.204345703125,9418.328125,10239.283203125,-240.00804138183594,4318.55517578125,-993.4107055664062,11210.44140625,126.36184692382812,2453.3271484375,-1211.1663818359375,3081.16259765625,2511.34228515625,19784.76953125,2822.081298828125,9944.4384765625,228.0871124267578,7499.05908203125,22716.521484375,18891.4921875,13616.0849609375,-0.0,-49343.90234375,16291.1416015625,5490.77978515625,0.0,6292.6611328125,0.0,0.0
10941.0283203125,9675.0263671875,26516.9140625,8014.83837890625,25146.0078125,2505.779296875,3843.3076171875,3847.28125,6919.7021484375,3787.676513671875,12955.666015625,-3772.57666015625,5227.724609375,0.0,18800.89453125,1703.8980712890625,21296.34375,14533.2021484375,6542.2060546875,9563.763671875,19190.310546875,25739.669921875,12530.486328125,15270.7099609375,16547.044921875,4226.36669921875,24607.9765625,-6059.0107421875,-0.0,226.49765014648438,9560.5849609375,4413.1279296875,20771.02734375,13523.1015625,9042.421875,21052.361328125,7798.671875,9051.958984375,3992.71630859375,-669.1614990234375,19690.1953125,5083.87890625,14485.5185546875,6104.310546875,3143.151611328125,9423.0966796875,10246.4365234375,-241.5974884033203,4329.681640625,-979.900390625,11219.978515625,134.3091278076172,2462.864013671875,-1208.7822265625,3105.004638671875,2524.05810546875,19799.07421875,2821.286376953125,9951.591796875,232.85548400878906,7486.34326171875,22723.673828125,18897.8515625,13628.005859375,-0.0,-49340.7265625,16299.08984375,5494.75341796875,0.0,6295.04541015625,0.0,0.0
10956.1279296875,9682.97265625,26516.119140625,8020.40087890625,25149.98046875,2500.21630859375,3848.075927734375,3849.665283203125,6925.2646484375,3791.650146484375,13004.1435546875,-3763.039794921875,5229.314453125,0.0,18810.4296875,1707.871826171875,21298.7265625,14537.1748046875,6547.76904296875,9569.3271484375,19191.900390625,25739.669921875,12535.2548828125,15273.888671875,16542.27734375,4227.9560546875,24612.74609375,-6056.626953125,-0.0,251.13424682617188,9563.763671875,4412.3330078125,20771.02734375,13526.2802734375,9047.9853515625,21053.15625,7804.23486328125,9055.1376953125,3983.974365234375,-687.4402465820312,19690.990234375,5067.98388671875,14491.0810546875,6105.10498046875,3147.125244140625,9427.865234375,10255.177734375,-235.2396697998047,4335.24462890625,-979.1055908203125,11226.3369140625,139.8722381591797,2446.96923828125,-1209.576904296875,3095.4677734375,2536.773681640625,19824.50390625,2829.23388671875,9956.359375,239.2133026123047,7498.26416015625,22726.853515625,18902.62109375,13628.80078125,-0.0,-49327.21484375,16295.1142578125,5500.31640625,0.0,6294.25048828125,0.0,0.0
10984.73828125,9690.9208984375,26522.478515625,8035.50048828125,25159.517578125,2510.547607421875,3847.28125,3860.79150390625,6934.8017578125,3805.16064453125,13045.470703125,-3743.96630859375,5233.28759765625,0.0,18811.2265625,1722.1768798828125,21309.853515625,14547.5068359375,6558.10009765625,9579.658203125,19202.232421875,25750.794921875,12543.99609375,15284.220703125,16539.892578125,4240.671875,24609.56640625,-6043.9111328125,-0.0,266.23406982421875,9576.4794921875,4425.048828125,20781.359375,13540.5859375,9057.521484375,21065.87109375,7809.00341796875,9064.6748046875,3995.1005859375,-672.3403930664062,19698.9375,5086.26318359375,14494.259765625,6117.02587890625,3151.8935546875,9442.169921875,10269.482421875,-209.0136260986328,4347.16552734375,-973.5425415039062,11213.6201171875,153.3826141357422,2461.2744140625,-1202.4244384765625,3099.44140625,2539.95263671875,19833.24609375,2853.07568359375,9958.744140625,258.28680419921875,7531.64306640625,22736.390625,18912.951171875,13641.5166015625,-0.0,-49308.9375,16300.6787109375,5519.39013671875,0.0,6315.7080078125,0.0,0.0
10999.0439453125,9693.3046875,26532.015625,8036.2958984375,25170.64453125,2524.05810546875,3854.433837890625,3869.533447265625,6942.7490234375,3813.902587890625,13047.05859375,-3731.250732421875,5230.10888671875,0.0,18814.40625,1733.3031005859375,21320.185546875,14558.6328125,6566.0478515625,9589.1953125,19210.1796875,25761.921875,12553.5322265625,15293.7578125,16543.0703125,4237.4931640625,24613.5390625,-6034.3740234375,-0.0,285.30755615234375,9584.4267578125,4432.201171875,20789.3046875,13549.328125,9063.8798828125,21076.203125,7817.7451171875,9074.2109375,3999.074462890625,-654.0616455078125,19706.884765625,5098.18408203125,14501.412109375,6129.74169921875,3159.8408203125,9448.5283203125,10278.224609375,-205.83470153808594,4338.42333984375,-963.2110595703125,11221.568359375,164.50881958007812,2476.374267578125,-1191.298095703125,3099.44140625,2550.2841796875,19826.09375,2861.02294921875,9965.1025390625,265.4393615722656,7545.1533203125,22745.927734375,18920.8984375,13652.642578125,-0.0,-49299.3984375,16317.3671875,5524.953125,0.0,6325.2451171875,0.0,0.0
10969.638671875,9672.6416015625,26510.556640625,8018.81103515625,25143.623046875,2512.931884765625,3839.333740234375,3852.84423828125,6924.47021484375,3794.8291015625,13031.1650390625,-3759.06640625,5222.9560546875,0.0,18804.869140625,1711.845458984375,21302.69921875,14540.3544921875,6546.97412109375,9567.7373046875,19191.900390625,25747.6171875,12535.2548828125,15279.4521484375,16514.458984375,4225.572265625,24597.64453125,-6048.67919921875,-0.0,266.23406982421875,9567.7373046875,4413.9228515625,20772.615234375,13532.638671875,9044.0107421875,21061.896484375,7801.0556640625,9058.31640625,3964.90087890625,-668.3667602539062,19684.6328125,5087.8525390625,14480.75,6113.84716796875,3143.9462890625,9428.66015625,10255.97265625,-224.11346435546875,4305.04443359375,-971.9530639648438,11210.44140625,145.43533325195312,2467.63232421875,-1203.2191162109375,3089.90478515625,2541.5419921875,19814.171875,2843.5390625,9953.181640625,241.5974884033203,7533.232421875,22728.443359375,18902.62109375,13630.390625,-0.0,-49324.03515625,16307.03515625,5500.31640625,0.0,6305.37646484375,0.0,0.0
10967.2548828125,9686.15234375,26512.94140625,8031.52734375,25140.443359375,2526.4423828125,3840.128662109375,3856.023193359375,6924.47021484375,3797.21337890625,13035.1376953125,-3767.80810546875,5232.4931640625,0.0,18805.662109375,1711.0506591796875,21311.44140625,14544.328125,6549.3583984375,9566.1474609375,19197.46484375,25756.359375,12535.2548828125,15283.42578125,16523.99609375,4254.9765625,24600.029296875,-6041.52685546875,-0.0,247.16058349609375,9574.095703125,4427.43310546875,20777.384765625,13542.9697265625,9046.3955078125,21069.845703125,7802.64501953125,9060.7001953125,3973.642822265625,-654.0616455078125,19689.40234375,5106.92578125,14478.3662109375,6120.205078125,3146.33056640625,9432.6337890625,10242.4619140625,-200.2716064453125,4325.7080078125,-958.4426879882812,11213.6201171875,145.43533325195312,2471.60595703125,-1193.682373046875,3094.673095703125,2542.336669921875,19814.171875,2838.7705078125,9953.9755859375,243.98167419433594,7522.10595703125,22734.0078125,18904.208984375,13628.80078125,-0.0,-49330.39453125,16304.6513671875,5501.111328125,0.0,6305.37646484375,0.0,0.0
10960.1025390625,9693.3046875,26515.326171875,8022.78515625,25146.0078125,2511.34228515625,3845.691650390625,3859.2021484375,6934.00732421875,3805.955078125,13023.216796875,-3753.503173828125,5232.4931640625,0.0,18809.63671875,1718.2032470703125,21310.6484375,14544.328125,6553.33203125,9578.8642578125,19199.052734375,25749.20703125,12537.638671875,15281.041015625,16521.611328125,4243.8505859375,24607.9765625,-6039.9375,-0.0,264.6446228027344,9574.095703125,4425.84375,20778.1796875,13538.9970703125,9049.5751953125,21064.28125,7805.82421875,9063.8798828125,3962.516845703125,-651.6774291992188,19692.580078125,5085.46826171875,14483.1337890625,6116.2314453125,3154.27783203125,9436.607421875,10228.1572265625,-200.2716064453125,4329.681640625,-966.3899536132812,11218.388671875,149.4089813232422,2446.96923828125,-1192.8876953125,3093.083740234375,2555.84716796875,19812.583984375,2843.5390625,9961.1279296875,254.31314086914062,7503.82763671875,22734.80078125,18911.361328125,13647.0791015625,-0.0,-49323.2421875,16308.6259765625,5510.6484375,0.0,6314.9130859375,0.0,0.0
10981.5595703125,9695.689453125,26521.68359375,8027.5537109375,25152.365234375,2517.7001953125,3852.84423828125,3871.123046875,6947.517578125,3822.64453125,13028.78125,-3744.76123046875,5238.85107421875,0.0,18814.40625,1734.0977783203125,21313.03125,14553.0703125,6562.86865234375,9595.5537109375,19203.02734375,25753.1796875,12545.5859375,15289.783203125,16527.17578125,4247.82421875,24606.38671875,-6029.60595703125,-0.0,270.2077331542969,9580.453125,4430.6123046875,20783.7421875,13542.17578125,9055.931640625,21069.845703125,7814.56640625,9075.005859375,3970.464111328125,-655.651123046875,19698.142578125,5086.26318359375,14490.287109375,6126.5625,3163.019775390625,9450.912109375,10237.693359375,-195.50323486328125,4329.681640625,-961.62158203125,11224.7470703125,162.9193572998047,2462.0693359375,-1204.80859375,3090.699462890625,2555.84716796875,19814.171875,2856.254638671875,9967.486328125,271.00244140625,7518.92724609375,22744.337890625,18924.078125,13668.537109375,-0.0,-49314.5,16315.7783203125,5534.490234375,0.0,6345.11328125,0.0,0.0
10988.7119140625,9686.15234375,26525.65625,8031.52734375,25157.1328125,2520.08447265625,3856.023193359375,3871.123046875,6945.92822265625,3823.439453125,13035.93359375,-3755.092529296875,5239.6455078125,0.0,18815.19921875,1735.687255859375,21312.236328125,14554.66015625,6564.45849609375,9593.9638671875,19204.6171875,25754.76953125,12549.5595703125,15292.16796875,16531.943359375,4244.6455078125,24611.154296875,-6032.78515625,-0.0,262.26043701171875,9579.658203125,4425.048828125,20783.7421875,13542.9697265625,9058.31640625,21073.0234375,7814.56640625,9075.80078125,3953.77490234375,-656.44580078125,19698.9375,5088.6474609375,14494.259765625,6128.94677734375,3162.22509765625,9451.70703125,10258.357421875,-190.73486328125,4332.8603515625,-961.62158203125,11224.7470703125,165.3035430908203,2479.55322265625,-1206.39794921875,3097.057373046875,2545.515869140625,19815.763671875,2854.6650390625,9965.896484375,272.5919189453125,7528.4638671875,22745.1328125,18923.283203125,13665.3583984375,-0.0,-49312.90625,16314.9833984375,5537.6689453125,0.0,6353.06005859375,0.0,0.0
10972.0234375,9673.4365234375,26524.06640625,8032.32177734375,25150.775390625,2519.289794921875,3852.049560546875,3865.559814453125,6941.9541015625,3812.31298828125,13043.0859375,-3755.092529296875,5238.85107421875,0.0,18812.814453125,1729.3294677734375,21309.853515625,14554.66015625,6559.68994140625,9585.2216796875,19202.232421875,25751.58984375,12546.3798828125,15288.9892578125,16525.587890625,4242.26123046875,24607.181640625,-6035.1689453125,-0.0,262.26043701171875,9576.4794921875,4421.0751953125,20780.5625,13540.5859375,9053.5478515625,21069.845703125,7810.5927734375,9071.0322265625,3966.490234375,-654.8563842773438,19694.962890625,5088.6474609375,14488.697265625,6126.5625,3159.046142578125,9444.5546875,10257.5615234375,-201.86106872558594,4321.73388671875,-967.9794311523438,11220.7724609375,162.1246337890625,2470.0166015625,-1203.2191162109375,3099.44140625,2550.2841796875,19810.994140625,2850.691650390625,9963.5126953125,264.6446228027344,7526.87451171875,22741.16015625,18916.92578125,13654.232421875,-0.0,-49319.265625,16314.9833984375,5524.953125,0.0,6329.21826171875,0.0,0.0
10956.1279296875,9679.0,26523.271484375,8043.4482421875,25150.775390625,2531.210693359375,3855.228515625,3869.533447265625,6945.13330078125,3811.518310546875,13051.033203125,-3742.376953125,5250.77197265625,0.0,18812.814453125,1732.50830078125,21317.005859375,14561.8125,6563.66357421875,9586.8115234375,19207.796875,25762.716796875,12552.73828125,15295.3466796875,16537.5078125,4254.9765625,24602.4140625,-6027.2216796875,-0.0,282.128662109375,9586.0166015625,4433.79052734375,20786.126953125,13550.1220703125,9058.31640625,21079.3828125,7812.18212890625,9075.80078125,4018.14794921875,-650.8826904296875,19699.732421875,5104.5419921875,14487.90234375,6136.09912109375,3163.814453125,9446.14453125,10251.9990234375,-196.29795837402344,4333.65478515625,-960.0321655273438,11223.1572265625,166.09828186035156,2474.784912109375,-1195.2718505859375,3115.336181640625,2562.205078125,19814.96875,2857.843994140625,9964.306640625,261.4656982421875,7535.6162109375,22745.927734375,18919.310546875,13652.642578125,-0.0,-49307.34765625,16311.8037109375,5517.80078125,0.0,6313.32421875,0.0,0.0
10969.638671875,9684.5625,26516.9140625,8032.32177734375,25148.392578125,2528.826416015625,3852.84423828125,3865.559814453125,6942.7490234375,3806.75,13035.93359375,-3742.376953125,5238.05615234375,0.0,18813.609375,1723.766357421875,21315.416015625,14558.6328125,6561.279296875,9584.4267578125,19205.412109375,25759.5390625,12550.353515625,15292.16796875,16530.35546875,4224.77734375,24600.029296875,-6031.990234375,-0.0,282.9233703613281,9583.6328125,4435.38037109375,20785.33203125,13546.1494140625,9056.7275390625,21075.40625,7810.5927734375,9071.8271484375,4007.81640625,-652.47216796875,19696.5546875,5101.36279296875,14484.72265625,6132.9208984375,3161.430419921875,9441.3759765625,10243.2568359375,-181.9928436279297,4332.8603515625,-959.2374267578125,11220.7724609375,160.53517150878906,2486.705810546875,-1196.0665283203125,3106.593994140625,2561.41015625,19814.171875,2853.870361328125,9965.896484375,253.5184326171875,7530.84814453125,22744.337890625,18917.71875,13654.232421875,-0.0,-49308.140625,16311.0107421875,5509.05859375,0.0,6311.73486328125,0.0,0.0
10979.9697265625,9693.3046875,26510.556640625,8029.1435546875,25149.1875,2522.468505859375,3852.84423828125,3863.175537109375,6941.9541015625,3805.955078125,13026.396484375,-3747.1455078125,5222.9560546875,0.0,18815.994140625,1724.56103515625,21312.236328125,14555.4541015625,6558.89501953125,9583.6328125,19204.6171875,25753.974609375,12550.353515625,15290.578125,16529.560546875,4229.54541015625,24604.796875,-6034.3740234375,-0.0,271.79718017578125,9582.04296875,4432.99609375,20782.947265625,13542.17578125,9055.1376953125,21070.638671875,7809.00341796875,9067.8525390625,4004.63720703125,-650.8826904296875,19694.169921875,5089.44189453125,14486.3125,6130.53662109375,3160.6357421875,9439.7861328125,10241.66796875,-178.81393432617188,4330.47607421875,-957.64794921875,11223.9521484375,159.74044799804688,2487.50048828125,-1184.1456298828125,3096.2626953125,2552.668212890625,19808.611328125,2851.486328125,9966.69140625,251.928955078125,7524.490234375,22741.953125,18915.333984375,13654.232421875,-0.0,-49314.5,16310.21484375,5510.6484375,0.0,6310.14501953125,0.0,0.0
10969.638671875,9706.814453125,26534.3984375,8048.216796875,25167.46484375,2535.18408203125,3867.1494140625,3875.891357421875,6950.6962890625,3818.6708984375,13042.291015625,-3735.224365234375,5225.34033203125,0.0,18834.271484375,1736.4820556640625,21328.130859375,14569.759765625,6573.2001953125,9592.3740234375,19220.509765625,25768.279296875,12565.453125,15303.2939453125,16553.40234375,4262.12939453125,24622.28125,-6023.248046875,-0.0,269.4129943847656,9595.5537109375,4444.1220703125,20799.63671875,13557.2744140625,9070.2373046875,21083.35546875,7824.103515625,9080.5693359375,4014.174072265625,-638.1670532226562,19713.244140625,5105.33642578125,14503.001953125,6141.66259765625,3174.14599609375,9454.88671875,10271.8671875,-167.68772888183594,4347.16552734375,-940.1639404296875,11240.6416015625,168.4824676513672,2496.242431640625,-1167.456298828125,3095.4677734375,2558.2314453125,19818.94140625,2862.612548828125,9984.17578125,268.6182556152344,7536.4111328125,22754.669921875,18927.255859375,13658.2060546875,-0.0,-49297.80859375,16314.1884765625,5533.6953125,0.0,6334.78173828125,0.0,0.0
10977.5859375,9704.4306640625,26548.705078125,8057.75341796875,25179.38671875,2539.95263671875,3873.50732421875,3879.864990234375,6955.46484375,3821.05517578125,13043.0859375,-3732.04541015625,5241.2353515625,0.0,18833.478515625,1736.4820556640625,21336.873046875,14575.322265625,6577.173828125,9594.7578125,19230.046875,25776.228515625,12569.427734375,15308.0625,16573.271484375,4278.0244140625,24632.611328125,-6019.2744140625,-0.0,277.36029052734375,9601.91015625,4450.47998046875,20809.173828125,13566.017578125,9078.9794921875,21088.91796875,7828.87158203125,9086.9267578125,4003.8427734375,-631.0145263671875,19726.75390625,5114.07861328125,14510.94921875,6144.841796875,3178.11962890625,9458.0654296875,10282.9931640625,-174.04556274414062,4363.85498046875,-929.8324584960938,11245.41015625,170.07191467285156,2502.600341796875,-1171.429931640625,3108.18359375,2567.76806640625,19824.50390625,2859.433349609375,9977.8173828125,271.00244140625,7543.56396484375,22760.232421875,18930.435546875,13656.6162109375,-0.0,-49297.015625,16317.3671875,5529.7216796875,0.0,6333.98681640625,0.0,0.0
10987.1220703125,9686.15234375,26528.0390625,8043.4482421875,25164.28515625,2527.23681640625,3856.81787109375,3867.1494140625,6943.5439453125,3808.33935546875,13012.8857421875,-3748.734619140625,5234.08251953125,0.0,18808.841796875,1724.56103515625,21320.978515625,14561.0166015625,6562.86865234375,9586.0166015625,19215.7421875,25762.716796875,12554.328125,15295.3466796875,16552.607421875,4269.28173828125,24613.5390625,-6029.60595703125,-0.0,266.23406982421875,9586.0166015625,4434.58544921875,20791.689453125,13551.7119140625,9064.6748046875,21074.61328125,7812.97705078125,9073.4169921875,3977.61669921875,-644.52490234375,19710.064453125,5101.36279296875,14495.0556640625,6131.3310546875,3159.046142578125,9443.759765625,10244.8466796875,-201.0663299560547,4338.42333984375,-939.3692016601562,11223.9521484375,155.7667999267578,2501.010986328125,-1192.0928955078125,3100.236083984375,2552.668212890625,19813.37890625,2846.7177734375,9957.94921875,256.69732666015625,7529.2587890625,22747.517578125,18916.130859375,13652.642578125,-0.0,-49310.5234375,16322.931640625,5509.05859375,0.0,6311.73486328125,0.0,0.0
10984.73828125,9680.5888671875,26518.50390625,8030.73193359375,25156.33984375,2520.879150390625,3852.049560546875,3862.380859375,6936.39111328125,3803.571044921875,13016.064453125,-3758.271484375,5227.724609375,0.0,18805.662109375,1723.766357421875,21312.236328125,14553.8642578125,6557.3056640625,9582.04296875,19205.412109375,25753.974609375,12547.9697265625,15287.3994140625,16537.5078125,4255.771484375,24612.74609375,-6036.75830078125,-0.0,262.26043701171875,9579.658203125,4428.22802734375,20783.7421875,13542.9697265625,9056.7275390625,21069.05078125,7809.7978515625,9066.263671875,3974.437744140625,-665.9825439453125,19696.5546875,5095.0048828125,14491.8759765625,6123.3837890625,3155.867431640625,9438.9912109375,10238.48828125,-210.6030731201172,4328.88671875,-948.1112060546875,11222.3623046875,148.61424255371094,2489.884521484375,-1208.7822265625,3085.93115234375,2542.336669921875,19808.611328125,2841.15478515625,9958.744140625,252.72369384765625,7519.72216796875,22741.16015625,18909.7734375,13648.6689453125,-0.0,-49319.265625,16307.8310546875,5506.67431640625,0.0,6310.93994140625,0.0,0.0
10993.48046875,9699.662109375,26529.630859375,8041.85888671875,25174.6171875,2535.97900390625,3871.123046875,3876.68603515625,6954.669921875,3819.465576171875,13027.9853515625,-3742.376953125,5218.18798828125,0.0,18820.76171875,1738.0714111328125,21325.74609375,14568.169921875,6574.78955078125,9600.3212890625,19217.33203125,25768.279296875,12565.453125,15303.2939453125,16547.044921875,4267.6923828125,24634.203125,-6021.658203125,-0.0,283.7181091308594,9594.7578125,4443.32763671875,20794.869140625,13558.0703125,9071.0322265625,21082.560546875,7828.076171875,9081.36328125,3995.8955078125,-660.41943359375,19709.26953125,5108.51513671875,14512.5390625,6139.2783203125,3175.7353515625,9455.6806640625,10255.97265625,-191.5295867919922,4341.6025390625,-933.0113525390625,11242.23046875,165.3035430908203,2491.47412109375,-1185.735107421875,3072.4208984375,2557.436767578125,19815.763671875,2862.612548828125,9975.43359375,268.6182556152344,7539.59033203125,22755.46484375,18927.255859375,13668.537109375,-0.0,-49310.5234375,16314.1884765625,5517.005859375,0.0,6327.62890625,0.0,0.0
11000.6328125,9706.0205078125,26531.21875,8038.68017578125,25177.001953125,2535.97900390625,3876.68603515625,3883.838623046875,6962.6171875,3829.797119140625,13036.7275390625,-3733.635009765625,5233.28759765625,0.0,18826.326171875,1743.634521484375,21329.720703125,14572.1435546875,6578.763671875,9605.08984375,19220.509765625,25769.869140625,12568.6328125,15306.47265625,16547.837890625,4264.513671875,24627.84375,-6019.2744140625,-0.0,279.7444763183594,9596.34765625,4446.50634765625,20798.841796875,13560.4541015625,9075.005859375,21085.73828125,7830.46044921875,9089.310546875,4007.021484375,-638.9617919921875,19712.447265625,5108.51513671875,14516.5126953125,6145.63623046875,3178.914306640625,9462.8330078125,10255.97265625,-189.9401397705078,4347.9599609375,-931.4219360351562,11246.9990234375,170.07191467285156,2481.9375,-1174.60888671875,3099.44140625,2557.436767578125,19825.30078125,2867.380859375,9979.4072265625,276.5655517578125,7546.74267578125,22760.232421875,18932.8203125,13676.484375,-0.0,-49306.5546875,16321.3408203125,5533.6953125,0.0,6343.5234375,0.0,0.0
10991.890625,9698.0732421875,26529.630859375,8029.9375,25156.33984375,2520.879150390625,3852.84423828125,3872.71240234375,6944.33837890625,3814.697265625,13062.1591796875,-3739.197998046875,5237.26123046875,0.0,18815.994140625,1731.713623046875,21321.7734375,14557.0439453125,6563.66357421875,9589.1953125,19208.58984375,25759.5390625,12548.7646484375,15292.9619140625,16540.685546875,4250.20849609375,24601.6171875,-6033.57958984375,-0.0,270.2077331542969,9582.8369140625,4435.38037109375,20789.3046875,13550.1220703125,9059.111328125,21073.0234375,7813.771484375,9076.595703125,3995.1005859375,-645.3196411132812,19702.115234375,5097.38916015625,14491.0810546875,6130.53662109375,3159.8408203125,9450.912109375,10271.072265625,-203.4505157470703,4345.57568359375,-953.67431640625,11222.3623046875,158.9457244873047,2468.427001953125,-1180.1719970703125,3119.3095703125,2543.131591796875,19825.30078125,2857.04931640625,9963.5126953125,266.23406982421875,7536.4111328125,22747.517578125,18920.103515625,13655.0263671875,-0.0,-49312.11328125,16318.1630859375,5524.15869140625,0.0,6332.3974609375,0.0,0.0
10964.8701171875,9692.509765625,26525.65625,8021.1953125,25146.0078125,2512.931884765625,3843.3076171875,3863.970458984375,6932.41748046875,3807.544677734375,13055.0068359375,-3754.2978515625,5220.57177734375,0.0,18807.251953125,1725.355712890625,21314.62109375,14548.3017578125,6556.5107421875,9578.8642578125,19201.4375,25753.974609375,12538.4326171875,15285.8095703125,16523.203125,4245.43994140625,24595.259765625,-6040.73193359375,-0.0,265.4393615722656,9578.068359375,4423.45947265625,20784.537109375,13542.17578125,9050.369140625,21066.666015625,7804.23486328125,9068.6484375,3992.71630859375,-652.47216796875,19694.169921875,5091.826171875,14479.16015625,6122.5888671875,3150.30419921875,9443.759765625,10272.662109375,-206.6294403076172,4319.349609375,-965.59521484375,11212.826171875,151.7931671142578,2482.732177734375,-1188.1192626953125,3110.56787109375,2539.157958984375,19813.37890625,2849.10205078125,9956.359375,257.4920654296875,7525.28515625,22739.568359375,18911.361328125,13643.900390625,-0.0,-49323.2421875,16314.1884765625,5511.44287109375,0.0,6322.06591796875,0.0,0.0
10944.20703125,9692.509765625,26520.88671875,8018.81103515625,25149.98046875,2509.7529296875,3847.28125,3859.996826171875,6929.23876953125,3801.186767578125,13022.4228515625,-3752.70849609375,5229.314453125,0.0,18809.63671875,1722.9715576171875,21310.6484375,14548.3017578125,6554.92138671875,9574.890625,19199.052734375,25750.001953125,12540.8173828125,15283.42578125,16523.99609375,4243.0556640625,24611.154296875,-6046.294921875,-0.0,271.00244140625,9574.890625,4423.45947265625,20782.15234375,13536.6123046875,9050.369140625,21063.486328125,7805.029296875,9067.8525390625,3984.769287109375,-657.2405395507812,19693.375,5088.6474609375,14484.72265625,6119.41015625,3148.71484375,9441.3759765625,10254.3828125,-202.65579223632812,4328.09228515625,-973.5425415039062,11219.18359375,150.20370483398438,2476.374267578125,-1194.47705078125,3096.2626953125,2543.92626953125,19818.94140625,2848.307373046875,9958.744140625,247.16058349609375,7524.490234375,22737.98046875,18909.7734375,13635.158203125,-0.0,-49318.47265625,16308.6259765625,5499.52197265625,0.0,6300.6083984375,0.0,0.0
10958.5126953125,9696.4833984375,26523.271484375,8020.40087890625,25150.775390625,2508.9580078125,3846.486328125,3858.4072265625,6926.8544921875,3798.008056640625,13021.6279296875,-3748.734619140625,5229.314453125,0.0,18808.046875,1715.8189697265625,21313.826171875,14548.3017578125,6553.33203125,9572.505859375,19199.84765625,25748.412109375,12538.4326171875,15281.8369140625,16525.587890625,4246.23486328125,24612.74609375,-6051.0634765625,-0.0,271.00244140625,9574.095703125,4432.201171875,20782.15234375,13535.8173828125,9049.5751953125,21064.28125,7805.82421875,9065.46875,3987.153564453125,-647.7037963867188,19690.990234375,5085.46826171875,14486.3125,6114.6416015625,3147.125244140625,9438.9912109375,10249.6142578125,-198.68214416503906,4329.681640625,-971.9530639648438,11218.388671875,144.64060974121094,2470.0166015625,-1193.682373046875,3097.85205078125,2540.747314453125,19814.96875,2838.7705078125,9954.7705078125,241.5974884033203,7531.64306640625,22739.568359375,18908.9765625,13635.953125,-0.0,-49316.8828125,16303.857421875,5493.1640625,0.0,6293.45556640625,0.0,0.0
10981.5595703125,9699.662109375,26532.80859375,8033.91162109375,25158.724609375,2526.4423828125,3853.638916015625,3871.917724609375,6941.15966796875,3813.107666015625,13032.75390625,-3736.01904296875,5247.5927734375,0.0,18816.7890625,1732.50830078125,21325.74609375,14560.22265625,6566.0478515625,9586.8115234375,19209.384765625,25761.126953125,12545.5859375,15295.3466796875,16543.0703125,4265.30859375,24606.38671875,-6032.78515625,-0.0,281.33392333984375,9583.6328125,4436.9697265625,20790.89453125,13550.91796875,9060.7001953125,21077.791015625,7815.36083984375,9078.185546875,3988.742919921875,-638.1670532226562,19703.70703125,5101.36279296875,14493.4658203125,6133.71533203125,3157.45654296875,9452.501953125,10260.7412109375,-185.96649169921875,4336.0390625,-943.3428344726562,11227.130859375,162.1246337890625,2470.81103515625,-1182.55615234375,3112.951904296875,2562.999755859375,19820.53125,2853.870361328125,9965.1025390625,256.69732666015625,7539.59033203125,22750.6953125,18920.103515625,13657.41015625,-0.0,-49310.5234375,16312.599609375,5513.82666015625,0.0,6318.09228515625,0.0,0.0
11004.607421875,9713.9677734375,26551.087890625,8059.34228515625,25184.154296875,2554.257568359375,3878.275634765625,3898.9384765625,6968.97509765625,3844.10205078125,13044.6748046875,-3714.5615234375,5269.05078125,0.0,18838.248046875,1762.7080078125,21348.0,14585.654296875,6592.27392578125,9616.2158203125,19234.81640625,25787.353515625,12570.2216796875,15323.9560546875,16567.70703125,4285.1767578125,24628.638671875,-6002.5849609375,-0.0,305.17578125,9609.8583984375,4454.4541015625,20816.326171875,13577.1435546875,9086.9267578125,21104.017578125,7839.203125,9105.205078125,4003.0478515625,-621.477783203125,19730.7265625,5126.79443359375,14517.3076171875,6161.53076171875,3182.09326171875,9479.5224609375,10272.662109375,-162.1246337890625,4360.67578125,-913.9378662109375,11251.767578125,191.5295867919922,2495.44775390625,-1160.3037109375,3127.257080078125,2592.404541015625,19838.810546875,2884.070068359375,9993.712890625,289.2812194824219,7552.3056640625,22774.537109375,18945.53515625,13692.37890625,-0.0,-49284.296875,16327.69921875,5544.02685546875,0.0,6349.0869140625,0.0,0.0
10992.6865234375,9713.9677734375,26551.880859375,8060.93212890625,25191.306640625,2552.668212890625,3883.838623046875,3903.706787109375,6976.12744140625,3850.4599609375,13040.7021484375,-3708.99853515625,5253.15625,0.0,18840.630859375,1767.4764404296875,21351.1796875,14589.626953125,6595.45263671875,9625.7529296875,19241.173828125,25792.91796875,12574.990234375,15328.724609375,16568.501953125,4277.2294921875,24633.408203125,-6000.99560546875,-0.0,308.3547058105469,9615.4208984375,4458.42724609375,20821.09375,13580.322265625,9091.6953125,21109.580078125,7846.35546875,9109.9736328125,4013.379638671875,-620.6830444335938,19734.701171875,5127.5888671875,14521.28125,6164.70947265625,3188.451171875,9483.4970703125,10265.509765625,-157.35626220703125,4361.470703125,-924.2693481445312,11254.1513671875,195.50323486328125,2489.884521484375,-1156.330078125,3118.51513671875,2599.55712890625,19835.630859375,2892.017333984375,9996.0966796875,295.6390380859375,7549.126953125,22780.89453125,18953.482421875,13703.505859375,-0.0,-49275.55859375,16331.6728515625,5555.94775390625,0.0,6358.62353515625,0.0,0.0
10980.765625,9709.19921875,26552.677734375,8053.77978515625,25185.744140625,2546.310546875,3879.0703125,3896.55419921875,6969.77001953125,3840.92333984375,13047.8544921875,-3714.5615234375,5245.208984375,0.0,18838.248046875,1756.3502197265625,21344.8203125,14588.0380859375,6588.30029296875,9616.2158203125,19236.40625,25786.55859375,12568.6328125,15319.9833984375,16566.912109375,4274.84521484375,24628.638671875,-6010.5322265625,-0.0,302.7915954589844,9609.0634765625,4455.24853515625,20814.73828125,13573.9638671875,9086.1318359375,21102.427734375,7839.9970703125,9101.2314453125,4008.611083984375,-624.6566772460938,19731.521484375,5122.02587890625,14517.3076171875,6155.9677734375,3182.09326171875,9474.75390625,10273.45703125,-165.3035430908203,4357.49658203125,-935.3955688476562,11250.97265625,188.35067749023438,2471.60595703125,-1159.509033203125,3116.130859375,2590.0205078125,19825.30078125,2881.68603515625,9991.328125,283.7181091308594,7543.56396484375,22776.126953125,18947.125,13694.763671875,-0.0,-49283.50390625,16326.904296875,5541.642578125,0.0,6344.318359375,0.0,0.0
10965.6650390625,9704.4306640625,26539.9609375,8045.83251953125,25175.4140625,2536.773681640625,3871.917724609375,3885.42822265625,6959.4384765625,3830.591796875,13031.9599609375,-3725.687744140625,5236.466796875,0.0,18832.68359375,1741.2503662109375,21335.283203125,14577.7060546875,6579.55810546875,9604.294921875,19224.486328125,25776.228515625,12559.0966796875,15308.0625,16568.501953125,4266.10302734375,24635.791015625,-6020.86376953125,-0.0,289.2812194824219,9598.732421875,4445.71142578125,20803.609375,13562.8388671875,9076.595703125,21092.095703125,7831.255859375,9091.6953125,4000.663818359375,-631.8092041015625,19718.01171875,5111.6943359375,14510.154296875,6145.63623046875,3172.556640625,9462.8330078125,10267.8935546875,-181.9928436279297,4357.49658203125,-939.3692016601562,11250.1787109375,177.22447204589844,2451.737548828125,-1168.2509765625,3108.978271484375,2569.357666015625,19805.431640625,2873.738525390625,9983.3798828125,271.79718017578125,7526.87451171875,22764.205078125,18935.203125,13679.6640625,-0.0,-49297.80859375,16322.1357421875,5524.953125,0.0,6333.1923828125,0.0,0.0
10942.6181640625,9688.537109375,26514.529296875,8022.78515625,25155.544921875,2515.31591796875,3854.433837890625,3863.970458984375,6941.9541015625,3812.31298828125,12992.22265625,-3743.96630859375,5216.5986328125,0.0,18815.19921875,1717.4085693359375,21316.208984375,14557.0439453125,6558.89501953125,9586.0166015625,19203.8203125,25754.76953125,12540.8173828125,15289.783203125,16542.27734375,4243.8505859375,24618.306640625,-6044.7060546875,-0.0,267.82354736328125,9578.8642578125,4429.0224609375,20785.33203125,13541.380859375,9055.931640625,21069.05078125,7812.97705078125,9070.2373046875,3992.71630859375,-646.9090576171875,19690.990234375,5089.44189453125,14491.0810546875,6121.0,3155.072509765625,9442.169921875,10245.640625,-203.4505157470703,4340.01318359375,-965.59521484375,11235.873046875,153.3826141357422,2457.30078125,-1186.52978515625,3087.5205078125,2555.052490234375,19792.71484375,2842.744140625,9966.69140625,252.72369384765625,7510.18505859375,22741.953125,18914.541015625,13662.1787109375,-0.0,-49319.265625,16311.0107421875,5511.44287109375,0.0,6322.06591796875,0.0,0.0
10951.359375,9686.15234375,26523.271484375,8012.4541015625,25157.927734375,2517.7001953125,3857.612548828125,3866.354736328125,6941.9541015625,3811.518310546875,12981.09765625,-3739.992919921875,5216.5986328125,0.0,18815.19921875,1722.1768798828125,21320.185546875,14559.427734375,6562.07421875,9586.8115234375,19206.205078125,25758.744140625,12542.4072265625,15293.7578125,16524.791015625,4246.23486328125,24613.5390625,-6039.9375,-0.0,268.6182556152344,9581.248046875,4430.6123046875,20787.716796875,13544.5595703125,9057.521484375,21073.818359375,7815.36083984375,9072.62109375,3985.563720703125,-645.3196411132812,19692.580078125,5092.62109375,14495.0556640625,6122.5888671875,3157.45654296875,9444.5546875,10259.9462890625,-200.2716064453125,4327.29736328125,-969.5689086914062,11236.66796875,157.35626220703125,2487.50048828125,-1183.3509521484375,3089.90478515625,2568.562744140625,19816.556640625,2845.12841796875,9967.486328125,255.10787963867188,7524.490234375,22748.3125,18918.513671875,13662.1787109375,-0.0,-49316.08984375,16313.39453125,5511.44287109375,0.0,6317.29736328125,0.0,0.0
