10521.412109375,10085.900390625,26942.888671875,8553.6640625,24979.91015625,2417.564453125,3616.01513671875,4120.66796875,6842.61328125,3634.293701171875,12781.6201171875,-3562.768310546875,5021.09521484375,0.0,18746.056640625,1634.7567138671875,21157.265625,14754.931640625,6431.73828125,9384.94921875,18939.97265625,25739.669921875,13223.4892578125,15117.328125,16477.904296875,4165.96728515625,24437.109375,-6508.8271484375,-0.0,158.15098571777344,9385.7451171875,4127.8203125,20955.404296875,13394.35546875,9063.8798828125,21103.224609375,7731.91455078125,9040.0380859375,3509.521484375,-925.8588256835938,19386.609375,4924.93310546875,14345.6455078125,6051.0634765625,3020.763427734375,9233.951171875,9874.5029296875,64.37301635742188,4297.09765625,-972.747802734375,11221.568359375,46.09425735473633,2237.160888671875,-1116.59375,3180.50390625,2444.585205078125,19705.294921875,2893.60693359375,10482.470703125,234.44493103027344,7126.33154296875,22649.765625,18866.857421875,13240.177734375,-0.0,-49548.1484375,16280.015625,5797.544921875,0.0,6138.4833984375,0.0,0.0
10524.5908203125,10082.7216796875,26945.271484375,8551.2802734375,24970.373046875,2417.564453125,3613.631103515625,4123.05224609375,6844.20263671875,3635.088623046875,12792.74609375,-3555.61572265625,5028.248046875,0.0,18744.46875,1637.9356689453125,21158.060546875,14753.341796875,6433.328125,9387.333984375,18942.35546875,25744.4375,13221.900390625,15119.7119140625,16481.080078125,4169.14599609375,24432.33984375,-6504.05859375,-0.0,168.4824676513672,9387.333984375,4130.20458984375,20959.376953125,13395.9453125,9063.0849609375,21105.607421875,7731.11962890625,9040.0380859375,3512.700439453125,-902.8117065429688,19386.609375,4924.93310546875,14338.4931640625,6053.44775390625,3019.96875,9233.1572265625,9884.0400390625,69.93611907958984,4311.40283203125,-961.62158203125,11219.978515625,46.09425735473633,2245.903076171875,-1120.5673828125,3196.3984375,2450.94287109375,19706.091796875,2898.375244140625,10484.0595703125,230.47129821777344,7131.099609375,22652.9453125,18868.447265625,13243.357421875,-0.0,-49544.97265625,16280.015625,5791.1875,0.0,6144.046875,0.0,0.0
10524.5908203125,10083.5166015625,26938.916015625,8540.9482421875,24965.60546875,2415.974853515625,3612.836181640625,4119.078125,6848.17626953125,3630.3203125,12785.59375,-3559.58935546875,5021.09521484375,0.0,18745.263671875,1634.7567138671875,21154.0859375,14751.751953125,6431.73828125,9388.12890625,18937.587890625,25739.669921875,13218.720703125,15117.328125,16471.544921875,4169.94091796875,24428.3671875,-6507.23779296875,-0.0,166.09828186035156,9384.1552734375,4125.4365234375,20952.224609375,13390.3818359375,9059.90625,21104.8125,7729.5302734375,9036.8583984375,3509.521484375,-906.7853393554688,19381.046875,4921.75439453125,14335.314453125,6051.0634765625,3019.173828125,9229.18359375,9880.8603515625,73.11502838134766,4309.0185546875,-961.62158203125,11219.978515625,44.50480270385742,2242.72412109375,-1120.5673828125,3190.835205078125,2450.1484375,19702.115234375,2895.1962890625,10487.2392578125,223.31874084472656,7125.53662109375,22651.353515625,18866.0625,13243.357421875,-0.0,-49548.1484375,16280.015625,5776.08740234375,0.0,6124.97314453125,0.0,0.0
10523.001953125,10083.5166015625,26935.736328125,8540.1533203125,24967.98828125,2413.590576171875,3614.42578125,4117.48876953125,6856.12353515625,3633.4990234375,12787.1826171875,-3557.205078125,5017.12158203125,0.0,18751.62109375,1624.42529296875,21151.701171875,14751.751953125,6432.533203125,9394.486328125,18935.998046875,25736.490234375,13217.1318359375,15117.328125,16457.23828125,4168.3515625,24433.13671875,-6509.6220703125,-0.0,166.09828186035156,9380.9765625,4122.25732421875,20949.83984375,13389.587890625,9059.90625,21106.40234375,7730.3251953125,9038.4482421875,3507.13720703125,-900.427490234375,19378.662109375,4920.95947265625,14336.9033203125,6050.2685546875,3021.55810546875,9230.7734375,9874.5029296875,79.47286224365234,4304.25,-963.2110595703125,11225.541015625,42.91534423828125,2240.340087890625,-1113.414794921875,3182.887939453125,2446.96923828125,19701.322265625,2892.017333984375,10495.185546875,224.11346435546875,7123.15234375,22651.353515625,18868.447265625,13249.71484375,-0.0,-49547.35546875,16284.7841796875,5772.90869140625,0.0,6116.2314453125,0.0,0.0
10517.4375,10089.8740234375,26942.095703125,8542.5380859375,24974.345703125,2414.385498046875,3619.194091796875,4120.66796875,6857.71337890625,3641.4462890625,12785.59375,-3558.794677734375,5027.453125,0.0,18754.005859375,1623.6304931640625,21152.49609375,14750.1630859375,6432.533203125,9400.0498046875,18937.587890625,25737.28515625,13217.1318359375,15117.328125,16470.75,4169.14599609375,24441.876953125,-6508.0322265625,-0.0,170.8666534423828,9380.9765625,4123.05224609375,20951.4296875,13391.9716796875,9059.111328125,21105.607421875,7734.298828125,9042.421875,3504.753173828125,-897.2485961914062,19383.4296875,4919.3701171875,14343.26171875,6050.2685546875,3025.53173828125,9233.1572265625,9877.681640625,89.00960540771484,4313.787109375,-959.2374267578125,11229.5146484375,45.299530029296875,2236.3662109375,-1101.493896484375,3184.4775390625,2444.585205078125,19706.091796875,2892.017333984375,10497.5703125,228.8818359375,7121.56298828125,22652.1484375,18870.03515625,13253.6884765625,-0.0,-49547.35546875,16280.015625,5779.2666015625,0.0,6134.51025390625,0.0,0.0
10507.9013671875,10092.2587890625,26937.326171875,8536.1796875,24967.98828125,2408.822265625,3609.6572265625,4114.3095703125,6836.25537109375,3631.114990234375,12762.546875,-3554.821044921875,5023.4794921875,0.0,18743.673828125,1626.0146484375,21147.728515625,14742.21484375,6423.79150390625,9380.9765625,18932.0234375,25733.3125,13207.5947265625,15108.5849609375,16473.134765625,4161.99365234375,24434.724609375,-6512.80078125,-0.0,164.50881958007812,9373.0283203125,4118.28369140625,20945.072265625,13386.4091796875,9050.369140625,21096.865234375,7723.1728515625,9034.474609375,3505.5478515625,-903.6064453125,19379.45703125,4913.80712890625,14334.51953125,6044.7060546875,3013.61083984375,9225.208984375,9869.734375,70.73084259033203,4309.0185546875,-966.3899536132812,11218.388671875,39.73643112182617,2218.08740234375,-1100.6990966796875,3186.86181640625,2442.200927734375,19702.912109375,2887.2490234375,10478.49609375,224.11346435546875,7112.0263671875,22642.61328125,18862.08984375,13231.4365234375,-0.0,-49546.55859375,16261.736328125,5773.703125,0.0,6132.1259765625,0.0,0.0
10518.2333984375,10093.8486328125,26936.53125,8540.9482421875,24967.98828125,2409.6171875,3608.06787109375,4115.8994140625,6829.10302734375,3631.114990234375,12775.26171875,-3545.2841796875,5014.73779296875,0.0,18736.521484375,1629.98828125,21150.111328125,14743.0107421875,6423.79150390625,9376.2080078125,18933.615234375,25734.10546875,13206.0048828125,15109.3798828125,16478.697265625,4162.78857421875,24428.3671875,-6506.44287109375,-0.0,165.3035430908203,9374.6181640625,4123.05224609375,20945.072265625,13387.998046875,9049.5751953125,21098.455078125,7722.3779296875,9034.474609375,3511.90576171875,-896.453857421875,19380.25,4917.7802734375,14333.724609375,6046.294921875,3009.63720703125,9227.59375,9865.7607421875,56.42573165893555,4301.0712890625,-964.800537109375,11214.416015625,39.73643112182617,2219.677001953125,-1103.8780517578125,3190.04052734375,2447.76416015625,19696.5546875,2895.1962890625,10470.5498046875,227.29237365722656,7117.58935546875,22641.81640625,18860.498046875,13221.1044921875,-0.0,-49533.05078125,16261.736328125,5784.03466796875,0.0,6134.51025390625,0.0,0.0
10534.126953125,10100.205078125,26949.248046875,8551.2802734375,24978.318359375,2422.332763671875,3619.194091796875,4126.23095703125,6837.0498046875,3639.062255859375,12804.6669921875,-3539.72119140625,5013.14794921875,0.0,18742.083984375,1637.9356689453125,21161.23828125,14748.5732421875,6433.328125,9384.94921875,18943.9453125,25746.02734375,13215.5419921875,15118.1220703125,16490.6171875,4174.70947265625,24451.4140625,-6496.90625,-0.0,181.1981201171875,9385.7451171875,4134.17822265625,20957.7890625,13396.740234375,9059.111328125,21109.580078125,7731.11962890625,9042.421875,3507.931884765625,-897.2485961914062,19391.37890625,4928.90673828125,14345.6455078125,6058.21630859375,3019.96875,9237.1298828125,9890.3974609375,68.3466567993164,4309.81298828125,-952.8795776367188,11226.3369140625,45.299530029296875,2241.92919921875,-1096.7254638671875,3199.577392578125,2458.095458984375,19683.837890625,2903.938232421875,10478.49609375,236.82911682128906,7127.1259765625,22651.353515625,18870.830078125,13229.052734375,-0.0,-49526.69140625,16270.4794921875,5789.59814453125,0.0,6148.0205078125,0.0,0.0
10543.6640625,10109.7421875,26960.373046875,8554.458984375,24987.85546875,2431.074951171875,3632.70458984375,4132.5888671875,6844.20263671875,3639.85693359375,12819.7666015625,-3533.36328125,5008.37939453125,0.0,18750.826171875,1649.061767578125,21167.59765625,14753.341796875,6440.48046875,9392.1025390625,18950.3046875,25752.38671875,13224.2841796875,15126.0693359375,16486.64453125,4182.65673828125,24476.05078125,-6490.548828125,-0.0,190.73486328125,9392.8974609375,4144.509765625,20968.119140625,13403.09765625,9067.8525390625,21116.734375,7740.65625,9050.369140625,3533.36328125,-901.2222290039062,19398.53125,4936.0595703125,14359.951171875,6066.9580078125,3028.710693359375,9242.6943359375,9910.265625,89.80432891845703,4311.40283203125,-943.3428344726562,11244.6142578125,48.47844314575195,2248.287109375,-1083.215087890625,3207.524658203125,2468.427001953125,19679.0703125,2911.885498046875,10488.033203125,233.65020751953125,7135.8681640625,22659.30078125,18877.1875,13235.41015625,-0.0,-49526.69140625,16275.248046875,5779.2666015625,0.0,6142.45751953125,0.0,0.0
10539.69140625,10115.3056640625,26954.015625,8552.869140625,24989.447265625,2429.4853515625,3638.267578125,4130.9990234375,6846.5869140625,3635.88330078125,12807.845703125,-3538.92626953125,5008.37939453125,0.0,18757.185546875,1651.446044921875,21166.005859375,14753.341796875,6442.86474609375,9389.7177734375,18947.125,25750.001953125,13224.2841796875,15126.0693359375,16469.955078125,4182.65673828125,24473.66796875,-6491.34326171875,-0.0,193.11904907226562,9392.1025390625,4142.12548828125,20965.734375,13401.5087890625,9067.05859375,21117.529296875,7743.04052734375,9049.5751953125,3529.3896484375,-890.8907470703125,19393.76171875,4934.4697265625,14367.8984375,6066.16357421875,3031.0947265625,9243.48828125,9907.8818359375,101.72525787353516,4307.4287109375,-941.75341796875,11255.7412109375,47.6837158203125,2238.75048828125,-1081.6256103515625,3192.4248046875,2471.60595703125,19702.912109375,2911.0908203125,10488.828125,233.65020751953125,7138.25244140625,22659.30078125,18878.779296875,13223.4892578125,-0.0,-49533.05078125,16265.7109375,5774.498046875,0.0,6132.1259765625,0.0,0.0
10534.9228515625,10112.1259765625,26950.8359375,8543.33203125,24979.91015625,2417.564453125,3616.01513671875,4118.28369140625,6833.87158203125,3629.525390625,12801.48828125,-3547.66845703125,5014.73779296875,0.0,18744.46875,1629.193603515625,21158.853515625,14745.39453125,6429.35400390625,9379.38671875,18941.560546875,25742.0546875,13209.9794921875,15114.943359375,16473.927734375,4168.3515625,24437.109375,-6505.64794921875,-0.0,178.0192108154297,9384.1552734375,4130.9990234375,20960.171875,13393.5615234375,9058.31640625,21107.197265625,7727.94091796875,9037.654296875,3509.521484375,-898.8380126953125,19392.966796875,4922.548828125,14348.82421875,6055.037109375,3016.789794921875,9233.1572265625,9892.78125,93.7779769897461,4304.25,-950.4954223632812,11227.130859375,37.35224533081055,2236.3662109375,-1100.6990966796875,3182.09326171875,2461.2744140625,19710.859375,2895.990966796875,10476.9072265625,229.6765594482422,7135.8681640625,22648.96875,18868.447265625,13213.1572265625,-0.0,-49538.61328125,16264.1201171875,5776.88232421875,0.0,6121.79443359375,0.0,0.0
10532.5380859375,10115.3056640625,26959.578125,8541.7431640625,24975.935546875,2419.15380859375,3600.12060546875,4118.28369140625,6831.4873046875,3633.4990234375,12814.9990234375,-3535.74755859375,5041.75830078125,0.0,18740.49609375,1625.219970703125,21162.033203125,14742.21484375,6426.97021484375,9380.181640625,18944.740234375,25742.849609375,13201.236328125,15114.943359375,16496.9765625,4166.76171875,24427.572265625,-6506.44287109375,-0.0,174.04556274414062,9383.361328125,4133.38330078125,20965.734375,13393.5615234375,9056.7275390625,21108.78515625,7721.5830078125,9039.2431640625,3516.674072265625,-894.8643798828125,19394.556640625,4923.34375,14332.134765625,6054.24267578125,3008.842529296875,9233.1572265625,9902.318359375,87.4201431274414,4326.50244140625,-951.2901611328125,11205.6728515625,40.531158447265625,2245.903076171875,-1104.6727294921875,3205.935302734375,2457.30078125,19726.75390625,2893.60693359375,10472.93359375,234.44493103027344,7142.2255859375,22646.5859375,18865.267578125,13220.310546875,-0.0,-49535.43359375,16271.2724609375,5782.4453125,0.0,6122.5888671875,0.0,0.0
10519.02734375,10101.0009765625,26954.015625,8542.5380859375,24975.935546875,2419.948486328125,3599.325927734375,4117.48876953125,6825.923828125,3629.525390625,12806.255859375,-3543.69482421875,5040.1689453125,0.0,18735.7265625,1628.39892578125,21159.6484375,14743.0107421875,6424.5859375,9377.796875,18941.560546875,25742.0546875,13198.8525390625,15114.943359375,16494.591796875,4170.73583984375,24432.33984375,-6504.853515625,-0.0,176.42974853515625,9380.9765625,4129.40966796875,20959.376953125,13390.3818359375,9055.1376953125,21107.9921875,7719.99365234375,9039.2431640625,3511.111083984375,-899.6327514648438,19389.787109375,4923.34375,14332.9306640625,6053.44775390625,3003.279541015625,9229.18359375,9895.1650390625,84.2412338256836,4322.52880859375,-950.4954223632812,11208.0576171875,40.531158447265625,2246.69775390625,-1107.8516845703125,3209.114013671875,2452.532470703125,19715.626953125,2899.964599609375,10468.9599609375,224.90818786621094,7135.0732421875,22646.5859375,18860.498046875,13219.515625,-0.0,-49540.203125,16268.0947265625,5766.55078125,0.0,6121.0,0.0,0.0
10520.6171875,10086.6953125,26951.630859375,8543.33203125,24975.935546875,2420.7431640625,3600.915283203125,4119.078125,6818.771484375,3626.3466796875,12797.5146484375,-3548.463134765625,5031.4267578125,0.0,18735.7265625,1633.9620361328125,21158.853515625,14746.189453125,6424.5859375,9373.82421875,18939.97265625,25741.2578125,13198.8525390625,15114.943359375,16487.439453125,4174.70947265625,24429.162109375,-6504.853515625,-0.0,173.25083923339844,9381.771484375,4127.025390625,20957.7890625,13391.1767578125,9056.7275390625,21107.9921875,7719.99365234375,9040.0380859375,3512.700439453125,-901.2222290039062,19389.787109375,4924.93310546875,14335.314453125,6052.65283203125,3000.100341796875,9227.59375,9889.6025390625,78.67813110351562,4311.40283203125,-952.0848388671875,11211.236328125,38.14697265625,2253.0556640625,-1104.6727294921875,3205.140380859375,2456.506103515625,19704.5,2898.375244140625,10470.5498046875,218.5503692626953,7132.68896484375,22648.96875,18858.91015625,13212.36328125,-0.0,-49540.99609375,16264.9150390625,5761.7822265625,0.0,6119.41015625,0.0,0.0
10525.3857421875,10081.1318359375,26944.478515625,8540.9482421875,24969.578125,2409.6171875,3598.531005859375,4111.92578125,6808.43994140625,3618.3994140625,12795.9248046875,-3550.052734375,5023.4794921875,0.0,18738.904296875,1620.4515380859375,21150.111328125,14740.6259765625,6419.02294921875,9366.671875,18932.8203125,25735.697265625,13191.7001953125,15110.1748046875,16474.724609375,4182.65673828125,24423.599609375,-6515.97998046875,-0.0,161.3299102783203,9376.2080078125,4119.078125,20950.63671875,13385.61328125,9051.958984375,21102.427734375,7714.43017578125,9031.2958984375,3511.111083984375,-908.374755859375,19384.2265625,4920.16455078125,14330.5458984375,6042.32177734375,2994.537353515625,9221.236328125,9879.271484375,65.1677474975586,4298.68701171875,-964.800537109375,11208.8515625,26.226043701171875,2249.081787109375,-1100.6990966796875,3201.166748046875,2450.94287109375,19702.115234375,2888.043701171875,10470.5498046875,213.78199768066406,7128.71533203125,22644.201171875,18853.345703125,13203.62109375,-0.0,-49543.37890625,16256.9677734375,5768.14013671875,0.0,6117.02587890625,0.0,0.0
10536.51171875,10097.0263671875,26947.65625,8548.1005859375,24976.73046875,2415.974853515625,3602.504638671875,4119.873046875,6811.61865234375,3624.757080078125,12803.078125,-3538.1318359375,5021.09521484375,0.0,18735.7265625,1628.39892578125,21156.46875,14749.3681640625,6426.97021484375,9369.0556640625,18941.560546875,25745.234375,13198.8525390625,15116.5322265625,16481.080078125,4191.3984375,24430.751953125,-6504.853515625,-0.0,162.1246337890625,9384.1552734375,4127.8203125,20956.9921875,13393.5615234375,9059.90625,21111.169921875,7721.5830078125,9040.0380859375,3512.700439453125,-895.6591186523438,19391.37890625,4929.701171875,14339.2880859375,6051.8583984375,3001.68994140625,9228.388671875,9882.4501953125,70.73084259033203,4307.4287109375,-952.0848388671875,11212.03125,33.37860107421875,2244.3134765625,-1084.8045654296875,3201.96142578125,2454.121826171875,19699.732421875,2899.169921875,10468.9599609375,222.5240020751953,7138.25244140625,22651.353515625,18858.11328125,13200.4423828125,-0.0,-49529.8671875,16265.7109375,5775.29296875,0.0,6121.79443359375,0.0,0.0
10550.0224609375,10109.7421875,26960.373046875,8551.2802734375,24994.21484375,2432.6640625,3612.836181640625,4130.20458984375,6816.38720703125,3633.4990234375,12829.3037109375,-3530.979248046875,5033.81103515625,0.0,18734.931640625,1643.498779296875,21169.98046875,14762.87890625,6435.71240234375,9377.0029296875,18954.27734375,25756.359375,13212.36328125,15127.6591796875,16501.74609375,4192.98779296875,24445.8515625,-6490.548828125,-0.0,189.14540100097656,9395.2822265625,4140.53564453125,20968.119140625,13405.482421875,9072.62109375,21123.88671875,7733.50390625,9049.5751953125,3522.237060546875,-885.32763671875,19404.09375,4940.82763671875,14354.388671875,6066.9580078125,3008.842529296875,9233.951171875,9899.93359375,89.00960540771484,4328.88671875,-927.4482421875,11219.978515625,46.09425735473633,2257.823974609375,-1077.6519775390625,3201.166748046875,2473.1953125,19705.294921875,2906.322509765625,10465.78125,230.47129821777344,7153.35205078125,22664.0703125,18868.447265625,13206.7998046875,-0.0,-49525.8984375,16269.68359375,5783.23974609375,0.0,6126.5625,0.0,0.0
10548.4326171875,10112.1259765625,26964.345703125,8548.8955078125,24993.419921875,2430.280029296875,3612.836181640625,4128.61474609375,6817.18212890625,3630.3203125,12842.814453125,-3532.568603515625,5034.60546875,0.0,18740.49609375,1641.9093017578125,21169.185546875,14759.7001953125,6433.328125,9375.4130859375,18953.482421875,25753.974609375,13213.1572265625,15126.0693359375,16496.9765625,4184.24609375,24447.44140625,-6492.9326171875,-0.0,189.14540100097656,9394.486328125,4138.9462890625,20967.326171875,13403.09765625,9071.0322265625,21120.70703125,7732.70947265625,9047.1904296875,3528.594970703125,-896.453857421875,19403.298828125,4935.2646484375,14355.1826171875,6065.36865234375,3009.63720703125,9233.1572265625,9915.0341796875,92.18851470947266,4328.09228515625,-929.8324584960938,11220.7724609375,47.6837158203125,2264.181884765625,-1084.009765625,3193.219482421875,2471.60595703125,19707.6796875,2903.938232421875,10471.34375,230.47129821777344,7148.583984375,22660.890625,18864.47265625,13209.18359375,-0.0,-49529.8671875,16267.2998046875,5776.08740234375,0.0,6120.205078125,0.0,0.0
10544.458984375,10110.537109375,26961.16796875,8551.2802734375,24990.240234375,2428.690673828125,3615.22021484375,4127.025390625,6821.15576171875,3634.293701171875,12827.7138671875,-3529.3896484375,5038.57958984375,0.0,18742.083984375,1638.7303466796875,21167.59765625,14758.904296875,6434.91748046875,9379.38671875,18950.3046875,25751.58984375,13212.36328125,15123.6845703125,16491.4140625,4179.4775390625,24445.056640625,-6494.52197265625,-0.0,187.5559539794922,9394.486328125,4137.357421875,20967.326171875,13403.09765625,9071.0322265625,21117.529296875,7729.5302734375,9047.1904296875,3530.1845703125,-894.0697021484375,19401.708984375,4933.67529296875,14354.388671875,6062.189453125,3011.2265625,9233.1572265625,9915.0341796875,96.16216278076172,4325.7080078125,-934.600830078125,11222.3623046875,46.88898849487305,2268.1552734375,-1087.9835205078125,3203.551025390625,2470.81103515625,19707.6796875,2913.47509765625,10476.1123046875,232.0607452392578,7140.63623046875,22658.505859375,18865.267578125,13212.36328125,-0.0,-49523.515625,16268.888671875,5780.85546875,0.0,6121.79443359375,0.0,0.0
10525.3857421875,10107.3583984375,26941.298828125,8548.1005859375,24982.294921875,2423.12744140625,3612.836181640625,4120.66796875,6831.4873046875,3630.3203125,12782.4140625,-3531.77392578125,5029.04248046875,0.0,18745.263671875,1623.6304931640625,21158.060546875,14750.95703125,6431.73828125,9381.771484375,18941.560546875,25746.02734375,13209.18359375,15117.328125,16471.544921875,4173.1201171875,24441.083984375,-6504.05859375,-0.0,194.70851135253906,9385.7451171875,4127.8203125,20955.404296875,13397.5341796875,9060.7001953125,21111.169921875,7727.94091796875,9041.626953125,3511.111083984375,-890.0960083007812,19387.404296875,4928.90673828125,14348.82421875,6055.037109375,3013.61083984375,9229.18359375,9876.091796875,94.57270050048828,4317.76025390625,-946.521728515625,11223.1572265625,38.94169998168945,2233.1875,-1094.34130859375,3194.80908203125,2462.864013671875,19707.6796875,2896.78564453125,10482.470703125,220.93455505371094,7126.33154296875,22654.533203125,18863.677734375,13214.7470703125,-0.0,-49529.07421875,16271.2724609375,5776.08740234375,0.0,6116.2314453125,0.0,0.0
10516.6435546875,10100.205078125,26936.53125,8542.5380859375,24979.91015625,2421.5380859375,3613.631103515625,4116.69384765625,6844.99755859375,3631.114990234375,12775.26171875,-3550.052734375,5021.89013671875,0.0,18751.62109375,1616.47802734375,21151.701171875,14743.0107421875,6430.14892578125,9391.3076171875,18936.79296875,25742.0546875,13206.0048828125,15114.1484375,16475.51953125,4176.298828125,24440.2890625,-6508.0322265625,-0.0,162.9193572998047,9381.771484375,4122.25732421875,20950.63671875,13390.3818359375,9057.521484375,21106.40234375,7726.35107421875,9038.4482421875,3499.98486328125,-907.580078125,19385.01953125,4928.11181640625,14348.0302734375,6051.0634765625,3017.58447265625,9226.0048828125,9871.3232421875,74.7044906616211,4311.40283203125,-956.8532104492188,11223.9521484375,37.35224533081055,2223.650634765625,-1110.23583984375,3187.656494140625,2448.558837890625,19706.091796875,2884.070068359375,10493.595703125,218.5503692626953,7115.99951171875,22649.765625,18865.267578125,13223.4892578125,-0.0,-49537.0234375,16279.220703125,5767.34521484375,0.0,6106.69482421875,0.0,0.0
10511.875,10086.6953125,26938.916015625,8539.359375,24976.73046875,2419.948486328125,3612.836181640625,4115.1044921875,6844.20263671875,3626.3466796875,12794.3349609375,-3549.258056640625,5014.73779296875,0.0,18749.236328125,1619.6568603515625,21149.31640625,14739.8310546875,6426.97021484375,9388.923828125,18932.8203125,25739.669921875,13204.4150390625,15110.9697265625,16473.927734375,4175.50439453125,24437.904296875,-6506.44287109375,-0.0,143.0511474609375,9378.5927734375,4119.873046875,20949.044921875,13387.998046875,9055.1376953125,21103.224609375,7723.96728515625,9038.4482421875,3499.190185546875,-929.0377197265625,19384.2265625,4924.93310546875,14346.4404296875,6050.2685546875,3015.9951171875,9226.0048828125,9877.681640625,49.27317428588867,4306.63427734375,-953.67431640625,11223.9521484375,38.94169998168945,2226.82958984375,-1118.18310546875,3201.96142578125,2448.558837890625,19702.912109375,2892.017333984375,10492.0068359375,223.31874084472656,7107.2578125,22644.99609375,18863.677734375,13221.900390625,-0.0,-49535.43359375,16280.015625,5762.5771484375,0.0,6106.69482421875,0.0,0.0
10515.0537109375,10085.900390625,26943.68359375,8548.8955078125,24979.115234375,2417.564453125,3614.42578125,4118.28369140625,6837.8447265625,3627.93603515625,12807.845703125,-3538.1318359375,5021.09521484375,0.0,18750.033203125,1629.193603515625,21155.67578125,14743.0107421875,6427.7646484375,9382.5654296875,18937.587890625,25742.849609375,13208.3896484375,15114.1484375,16477.107421875,4173.1201171875,24446.646484375,-6503.26416015625,-0.0,166.09828186035156,9378.5927734375,4125.4365234375,20953.01953125,13392.765625,9057.521484375,21107.197265625,7724.76171875,9040.0380859375,3507.931884765625,-908.374755859375,19388.19921875,4925.72802734375,14350.4140625,6054.24267578125,3013.61083984375,9226.798828125,9879.271484375,55.63100051879883,4316.17138671875,-952.0848388671875,11225.541015625,41.32588577270508,2240.340087890625,-1103.8780517578125,3207.524658203125,2464.453369140625,19708.474609375,2895.990966796875,10486.443359375,222.5240020751953,7110.43701171875,22647.380859375,18864.47265625,13209.18359375,-0.0,-49527.484375,16275.248046875,5775.29296875,0.0,6118.61572265625,0.0,0.0
10526.974609375,10094.642578125,26951.630859375,8556.048828125,24990.240234375,2424.717041015625,3616.809814453125,4127.8203125,6828.30810546875,3638.267578125,12810.23046875,-3527.80029296875,5039.3740234375,0.0,18749.236328125,1643.498779296875,21164.41796875,14748.5732421875,6434.12255859375,9381.771484375,18947.125,25750.001953125,13213.1572265625,15121.30078125,16488.234375,4181.86181640625,24460.951171875,-6491.34326171875,-0.0,184.3770294189453,9386.5390625,4131.7939453125,20963.349609375,13401.5087890625,9065.46875,21115.9375,7729.5302734375,9046.3955078125,3515.08447265625,-891.6854858398438,19400.119140625,4930.49609375,14358.361328125,6062.984375,3014.405517578125,9234.74609375,9891.1923828125,78.67813110351562,4328.88671875,-943.3428344726562,11227.92578125,51.6573600769043,2249.081787109375,-1095.135986328125,3209.114013671875,2476.374267578125,19714.037109375,2901.55419921875,10478.49609375,230.47129821777344,7131.89453125,22654.533203125,18868.447265625,13213.1572265625,-0.0,-49525.1015625,16268.888671875,5791.1875,0.0,6132.9208984375,0.0,0.0
10529.3583984375,10094.642578125,26942.095703125,8540.9482421875,24974.345703125,2411.20654296875,3598.531005859375,4113.51513671875,6796.51904296875,3630.3203125,12805.4619140625,-3537.337158203125,5032.22119140625,0.0,18726.984375,1626.0146484375,21153.291015625,14737.447265625,6419.8173828125,9361.9033203125,18934.408203125,25739.669921875,13193.2900390625,15108.5849609375,16473.927734375,4172.3251953125,24434.724609375,-6502.4697265625,-0.0,178.81393432617188,9375.4130859375,4123.8466796875,20953.01953125,13389.587890625,9051.1640625,21104.017578125,7713.6357421875,9032.8857421875,3510.316162109375,-896.453857421875,19386.609375,4916.19091796875,14339.2880859375,6047.88427734375,2990.563720703125,9224.4150390625,9887.21875,87.4201431274414,4306.63427734375,-964.0057983398438,11207.2626953125,38.14697265625,2245.1083984375,-1104.6727294921875,3202.756103515625,2463.65869140625,19695.759765625,2888.043701171875,10451.4765625,225.7029266357422,7135.0732421875,22644.201171875,18853.345703125,13208.3896484375,-0.0,-49537.0234375,16245.841796875,5785.6240234375,0.0,6132.9208984375,0.0,0.0
10532.5380859375,10100.205078125,26944.478515625,8544.921875,24975.140625,2414.385498046875,3601.7099609375,4120.66796875,6814.7978515625,3645.420166015625,12811.0244140625,-3538.92626953125,5040.1689453125,0.0,18737.31640625,1626.8094482421875,21155.67578125,14742.21484375,6424.5859375,9380.9765625,18936.79296875,25746.822265625,13193.2900390625,15113.353515625,16473.927734375,4174.70947265625,24426.779296875,-6501.6748046875,-0.0,177.22447204589844,9379.38671875,4125.4365234375,20955.404296875,13392.765625,9052.75390625,21110.376953125,7719.99365234375,9039.2431640625,3511.90576171875,-896.453857421875,19386.609375,4919.3701171875,14340.8779296875,6049.47412109375,2998.510986328125,9232.361328125,9889.6025390625,99.34107208251953,4310.60791015625,-956.0584716796875,11214.416015625,39.73643112182617,2249.081787109375,-1103.8780517578125,3209.90869140625,2467.63232421875,19703.70703125,2891.22265625,10469.75390625,235.2396697998047,7139.04736328125,22649.765625,18863.677734375,13229.052734375,-0.0,-49535.43359375,16260.9423828125,5780.85546875,0.0,6144.046875,0.0,0.0
10529.3583984375,10101.794921875,26947.65625,8544.921875,24981.498046875,2417.564453125,3608.862548828125,4127.025390625,6824.33447265625,3652.57275390625,12811.0244140625,-3538.92626953125,5040.1689453125,0.0,18745.263671875,1635.551513671875,21158.853515625,14742.21484375,6430.14892578125,9390.513671875,18938.3828125,25751.58984375,13197.2626953125,15119.7119140625,16468.3671875,4178.6826171875,24440.2890625,-6500.08544921875,-0.0,175.63502502441406,9384.1552734375,4125.4365234375,20958.58203125,13395.9453125,9058.31640625,21116.734375,7726.35107421875,9043.216796875,3510.316162109375,-894.8643798828125,19390.583984375,4924.138671875,14349.6201171875,6055.037109375,3006.458251953125,9237.92578125,9894.37109375,97.75161743164062,4315.37646484375,-948.9059448242188,11221.568359375,43.7100715637207,2245.903076171875,-1103.083251953125,3214.677001953125,2462.864013671875,19707.6796875,2893.60693359375,10479.291015625,240.80276489257812,7137.45751953125,22653.73828125,18871.625,13227.462890625,-0.0,-49537.0234375,16264.9150390625,5784.82958984375,0.0,6147.22607421875,0.0,0.0
10517.4375,10098.6162109375,26948.451171875,8528.232421875,24985.47265625,2409.6171875,3606.478515625,4119.078125,6820.36083984375,3637.472900390625,12811.0244140625,-3545.2841796875,5033.01611328125,0.0,18746.056640625,1628.39892578125,21155.67578125,14738.2421875,6425.380859375,9380.181640625,18940.767578125,25745.234375,13194.87890625,15114.943359375,16472.33984375,4171.5302734375,24442.671875,-6506.44287109375,-0.0,171.661376953125,9383.361328125,4123.8466796875,20956.9921875,13394.35546875,9057.521484375,21111.96484375,7723.1728515625,9037.654296875,3511.111083984375,-896.453857421875,19393.76171875,4917.7802734375,14351.208984375,6047.88427734375,3003.279541015625,9229.9775390625,9902.318359375,86.62541961669922,4302.66064453125,-953.67431640625,11222.3623046875,38.14697265625,2242.72412109375,-1106.26220703125,3201.166748046875,2437.4326171875,19703.70703125,2885.659423828125,10480.0859375,225.7029266357422,7127.92041015625,22649.765625,18864.47265625,13211.568359375,-0.0,-49544.97265625,16266.50390625,5772.90869140625,0.0,6132.1259765625,0.0,0.0
10511.0810546875,10101.0009765625,26954.015625,8529.02734375,24995.8046875,2413.590576171875,3608.862548828125,4123.05224609375,6826.71875,3638.267578125,12804.6669921875,-3544.489501953125,5031.4267578125,0.0,18747.6484375,1636.34619140625,21158.060546875,14744.599609375,6426.97021484375,9385.7451171875,18946.330078125,25748.412109375,13198.05859375,15115.73828125,16488.234375,4176.298828125,24446.646484375,-6500.8798828125,-0.0,183.58230590820312,9384.1552734375,4125.4365234375,20959.376953125,13395.9453125,9062.2900390625,21115.14453125,7727.14599609375,9040.83203125,3511.90576171875,-897.2485961914062,19400.119140625,4921.75439453125,14355.9775390625,6050.2685546875,3007.2529296875,9230.7734375,9903.908203125,85.8306884765625,4300.2763671875,-953.67431640625,11226.3369140625,44.50480270385742,2231.597900390625,-1104.6727294921875,3182.09326171875,2443.79052734375,19702.912109375,2899.964599609375,10484.8544921875,230.47129821777344,7126.33154296875,22651.353515625,18865.267578125,13227.462890625,-0.0,-49539.40625,16273.6572265625,5784.03466796875,0.0,6136.09912109375,0.0,0.0
10507.1064453125,10090.6689453125,26942.095703125,8527.4384765625,24971.962890625,2400.080322265625,3595.35205078125,4107.9521484375,6816.38720703125,3623.96240234375,12794.3349609375,-3550.847412109375,5031.4267578125,0.0,18742.87890625,1622.8358154296875,21148.5234375,14729.5,6414.2548828125,9373.82421875,18933.615234375,25736.490234375,13182.1630859375,15101.4326171875,16484.259765625,4166.76171875,24432.33984375,-6517.56884765625,-0.0,167.68772888183594,9372.234375,4115.8994140625,20949.83984375,13386.4091796875,9045.6005859375,21102.427734375,7712.04638671875,9028.1171875,3500.779296875,-909.1694946289062,19386.609375,4910.6279296875,14336.109375,6037.55322265625,2995.33203125,9217.2626953125,9894.37109375,73.90975952148438,4305.83935546875,-968.774169921875,11215.2099609375,32.5838737487793,2222.06103515625,-1117.388427734375,3191.630126953125,2454.121826171875,19701.322265625,2890.427734375,10481.6748046875,215.37144470214844,7118.3837890625,22638.638671875,18852.552734375,13214.7470703125,-0.0,-49545.765625,16274.4521484375,5778.4716796875,0.0,6120.205078125,0.0,0.0
10509.4912109375,10092.2587890625,26938.916015625,8526.642578125,24961.62890625,2394.51708984375,3588.994384765625,4100.7998046875,6806.8505859375,3612.04150390625,12797.5146484375,-3549.258056640625,5027.453125,0.0,18738.904296875,1615.6832275390625,21145.34375,14727.91015625,6407.896484375,9362.697265625,18928.845703125,25734.10546875,13172.626953125,15096.6640625,16488.234375,4161.99365234375,24425.1875,-6524.7216796875,-0.0,149.4089813232422,9367.4658203125,4113.51513671875,20947.45703125,13382.4345703125,9040.83203125,21098.455078125,7706.4833984375,9020.1689453125,3500.779296875,-899.6327514648438,19381.841796875,4908.24365234375,14327.3671875,6032.78515625,2985.00048828125,9210.109375,9891.9873046875,69.14138793945312,4314.58154296875,-975.1319580078125,11208.0576171875,27.815500259399414,2223.650634765625,-1115.7989501953125,3210.70361328125,2458.89013671875,19702.115234375,2885.659423828125,10474.5224609375,204.24525451660156,7119.9736328125,22634.6640625,18846.193359375,13198.05859375,-0.0,-49543.37890625,16265.7109375,5777.67724609375,0.0,6112.25732421875,0.0,0.0
10506.3125,10088.2841796875,26932.55859375,8517.1064453125,24960.041015625,2395.31201171875,3585.8154296875,4097.62060546875,6794.9296875,3600.12060546875,12785.59375,-3546.078857421875,5018.7109375,0.0,18732.546875,1614.09375,21143.755859375,14729.5,6404.7177734375,9350.7763671875,18924.87109375,25734.10546875,13167.0634765625,15095.8701171875,16473.927734375,4163.58349609375,24421.21484375,-6522.33740234375,-0.0,150.99842834472656,9368.2607421875,4111.13134765625,20943.482421875,13380.05078125,9042.421875,21098.455078125,7702.50927734375,9018.580078125,3497.6005859375,-899.6327514648438,19377.07421875,4909.83349609375,14326.572265625,6031.990234375,2977.053466796875,9204.546875,9879.271484375,63.578285217285156,4299.48193359375,-973.5425415039062,11204.0830078125,23.84185791015625,2226.82958984375,-1106.26220703125,3195.603515625,2453.3271484375,19696.5546875,2891.22265625,10464.19140625,198.68214416503906,7118.3837890625,22634.6640625,18839.8359375,13180.5732421875,-0.0,-49541.7890625,16251.4052734375,5775.29296875,0.0,6093.97900390625,0.0,0.0
10519.02734375,10093.8486328125,26943.68359375,8519.490234375,24971.962890625,2400.875,3589.7890625,4103.978515625,6788.57177734375,3603.29931640625,12799.103515625,-3533.36328125,5016.3271484375,0.0,18733.34375,1621.246337890625,21153.291015625,14739.8310546875,6411.07568359375,9350.7763671875,18936.79296875,25741.2578125,13174.2158203125,15104.611328125,16481.876953125,4165.96728515625,24427.572265625,-6511.21142578125,-0.0,159.74044799804688,9376.2080078125,4119.078125,20951.4296875,13389.587890625,9051.1640625,21108.78515625,7709.662109375,9024.9375,3503.95849609375,-906.7853393554688,19388.19921875,4917.7802734375,14335.314453125,6038.34765625,2977.84814453125,9208.51953125,9882.4501953125,57.220458984375,4305.04443359375,-968.774169921875,11204.87890625,27.02077293395996,2241.92919921875,-1091.95703125,3190.835205078125,2456.506103515625,19695.759765625,2899.964599609375,10461.0126953125,202.65579223632812,7123.947265625,22643.408203125,18844.60546875,13179.779296875,-0.0,-49529.8671875,16252.994140625,5776.88232421875,0.0,6096.36328125,0.0,0.0
10533.3330078125,10103.384765625,26958.783203125,8528.232421875,24986.267578125,2408.822265625,3599.325927734375,4115.1044921875,6787.77685546875,3615.22021484375,12813.4091796875,-3521.4423828125,5025.06884765625,0.0,18740.49609375,1629.193603515625,21165.212890625,14748.5732421875,6419.8173828125,9360.3134765625,18949.5078125,25753.1796875,13182.9580078125,15114.943359375,16491.4140625,4169.94091796875,24439.494140625,-6500.08544921875,-0.0,164.50881958007812,9385.7451171875,4129.40966796875,20964.146484375,13399.9189453125,9062.2900390625,21119.9140625,7719.19873046875,9033.6796875,3513.4951171875,-903.6064453125,19400.119140625,4921.75439453125,14348.82421875,6045.50048828125,2984.2060546875,9221.236328125,9885.62890625,68.3466567993164,4320.14453125,-958.4426879882812,11214.416015625,35.762786865234375,2250.67138671875,-1084.009765625,3200.3720703125,2459.68505859375,19705.294921875,2903.1435546875,10465.78125,215.37144470214844,7130.3046875,22654.533203125,18852.552734375,13192.494140625,-0.0,-49514.76953125,16264.9150390625,5776.08740234375,0.0,6110.66796875,0.0,0.0
10531.7431640625,10099.4111328125,26957.193359375,8544.921875,24985.47265625,2413.590576171875,3600.12060546875,4115.8994140625,6790.1611328125,3617.6044921875,12814.2041015625,-3525.416015625,5022.6845703125,0.0,18742.87890625,1631.577880859375,21165.212890625,14750.1630859375,6419.8173828125,9361.9033203125,18949.5078125,25755.564453125,13182.9580078125,15114.943359375,16488.234375,4177.09375,24441.083984375,-6500.08544921875,-0.0,173.25083923339844,9388.923828125,4130.9990234375,20964.146484375,13401.5087890625,9063.0849609375,21121.501953125,7718.404296875,9032.08984375,3514.289794921875,-892.480224609375,19400.119140625,4928.11181640625,14347.2353515625,6047.88427734375,2984.2060546875,9222.8251953125,9891.1923828125,89.80432891845703,4315.37646484375,-951.2901611328125,11216.7998046875,36.55751419067383,2246.69775390625,-1088.7781982421875,3196.3984375,2462.0693359375,19705.294921875,2907.1171875,10469.75390625,217.75563049316406,7128.71533203125,22654.533203125,18851.7578125,13195.673828125,-0.0,-49517.94921875,16264.1201171875,5772.11376953125,0.0,6107.4892578125,0.0,0.0
10527.7705078125,10088.2841796875,26955.60546875,8547.3056640625,24988.650390625,2412.00146484375,3600.12060546875,4116.69384765625,6786.1875,3619.194091796875,12798.3095703125,-3523.82666015625,5021.89013671875,0.0,18742.083984375,1634.7567138671875,21163.62109375,14751.751953125,6419.02294921875,9362.697265625,18948.712890625,25756.359375,13178.984375,15114.1484375,16488.234375,4178.6826171875,24447.44140625,-6503.26416015625,-0.0,173.25083923339844,9387.333984375,4129.40966796875,20963.349609375,13402.302734375,9063.0849609375,21119.9140625,7719.99365234375,9032.08984375,3510.316162109375,-892.480224609375,19400.916015625,4931.291015625,14349.6201171875,6047.08984375,2984.2060546875,9223.6201171875,9890.3974609375,87.4201431274414,4310.60791015625,-949.70068359375,11219.978515625,38.94169998168945,2237.160888671875,-1106.26220703125,3200.3720703125,2464.453369140625,19691.78515625,2907.912109375,10472.93359375,219.3450927734375,7123.15234375,22652.9453125,18851.7578125,13189.3154296875,-0.0,-49515.5625,16262.53125,5767.34521484375,0.0,6110.66796875,0.0,0.0
10535.716796875,10098.6162109375,26956.400390625,8544.1279296875,24995.0078125,2419.15380859375,3610.451904296875,4126.23095703125,6794.9296875,3639.85693359375,12800.693359375,-3525.416015625,5025.06884765625,0.0,18748.44140625,1652.24072265625,21169.98046875,14754.931640625,6427.7646484375,9377.796875,18954.27734375,25761.921875,13184.5478515625,15119.7119140625,16485.849609375,4187.42529296875,24454.59375,-6493.72705078125,-0.0,171.661376953125,9392.1025390625,4137.357421875,20968.9140625,13407.0712890625,9068.6484375,21127.06640625,7727.94091796875,9042.421875,3530.1845703125,-884.532958984375,19400.916015625,4939.23828125,14360.7451171875,6051.0634765625,2993.74267578125,9237.1298828125,9895.1650390625,85.8306884765625,4311.40283203125,-942.548095703125,11233.4892578125,54.836273193359375,2245.903076171875,-1104.6727294921875,3194.80908203125,2476.374267578125,19694.169921875,2922.217041015625,10481.6748046875,238.4185791015625,7135.0732421875,22659.30078125,18863.677734375,13211.568359375,-0.0,-49517.15625,16264.1201171875,5779.2666015625,0.0,6139.2783203125,0.0,0.0
10528.564453125,10108.947265625,26959.578125,8543.33203125,24998.982421875,2422.332763671875,3612.04150390625,4130.9990234375,6793.34033203125,3647.009521484375,12793.541015625,-3521.4423828125,5030.6318359375,0.0,18743.673828125,1657.0091552734375,21170.775390625,14752.546875,6430.14892578125,9380.9765625,18955.865234375,25761.126953125,13186.13671875,15124.48046875,16494.591796875,4184.24609375,24453.00390625,-6487.36962890625,-0.0,181.1981201171875,9394.486328125,4138.15185546875,20969.708984375,13407.0712890625,9071.8271484375,21128.654296875,7730.3251953125,9045.6005859375,3528.594970703125,-884.532958984375,19404.888671875,4934.4697265625,14366.3095703125,6051.8583984375,2994.537353515625,9239.5146484375,9896.7548828125,84.2412338256836,4312.197265625,-940.1639404296875,11227.92578125,58.80991744995117,2240.340087890625,-1096.7254638671875,3193.219482421875,2481.142822265625,19701.322265625,2923.01171875,10473.728515625,247.955322265625,7141.43115234375,22662.48046875,18866.857421875,13213.9521484375,-0.0,-49521.12890625,16264.1201171875,5784.03466796875,0.0,6143.251953125,0.0,0.0
10514.259765625,10097.8212890625,26957.98828125,8538.5634765625,24996.599609375,2411.20654296875,3601.7099609375,4118.28369140625,6783.80322265625,3629.525390625,12796.7197265625,-3527.80029296875,5035.400390625,0.0,18738.904296875,1633.9620361328125,21165.212890625,14743.8046875,6422.99658203125,9369.8505859375,18951.892578125,25755.564453125,13178.189453125,15115.73828125,16487.439453125,4160.404296875,24449.826171875,-6501.6748046875,-0.0,176.42974853515625,9388.923828125,4130.9990234375,20964.94140625,13401.5087890625,9065.46875,21120.70703125,7722.3779296875,9036.064453125,3499.190185546875,-891.6854858398438,19400.916015625,4926.52294921875,14359.951171875,6044.7060546875,2984.2060546875,9226.798828125,9888.80859375,76.2939453125,4316.17138671875,-952.0848388671875,11211.236328125,40.531158447265625,2238.75048828125,-1095.135986328125,3200.3720703125,2461.2744140625,19714.037109375,2902.348876953125,10466.5751953125,226.49765014648438,7136.6630859375,22656.123046875,18855.73046875,13197.2626953125,-0.0,-49529.07421875,16263.326171875,5773.703125,0.0,6124.17822265625,0.0,0.0
10521.412109375,10093.8486328125,26953.220703125,8531.4111328125,24988.650390625,2404.848876953125,3600.915283203125,4112.720703125,6784.59765625,3619.98876953125,12809.435546875,-3534.157958984375,5023.4794921875,0.0,18742.87890625,1624.42529296875,21162.828125,14743.0107421875,6420.6123046875,9369.0556640625,18947.919921875,25750.001953125,13178.189453125,15110.9697265625,16477.107421875,4134.97314453125,24435.51953125,-6508.0322265625,-0.0,169.27719116210938,9383.361328125,4130.20458984375,20962.556640625,13398.330078125,9063.0849609375,21115.9375,7719.99365234375,9032.08984375,3515.08447265625,-895.6591186523438,19397.736328125,4920.95947265625,14355.1826171875,6043.1162109375,2984.2060546875,9221.236328125,9884.0400390625,64.37301635742188,4312.197265625,-965.59521484375,11213.6201171875,32.5838737487793,2237.955810546875,-1092.7518310546875,3202.756103515625,2448.558837890625,19714.83203125,2894.401611328125,10470.5498046875,212.19253540039062,7130.3046875,22653.73828125,18854.9375,13201.236328125,-0.0,-49528.28125,16264.9150390625,5766.55078125,0.0,6113.05224609375,0.0,0.0
10526.1806640625,10088.2841796875,26945.271484375,8517.1064453125,24973.55078125,2402.464599609375,3585.8154296875,4106.36279296875,6775.06103515625,3607.273193359375,12818.97265625,-3538.1318359375,5017.12158203125,0.0,18734.13671875,1618.0673828125,21156.46875,14731.8837890625,6411.87060546875,9356.33984375,18939.97265625,25742.0546875,13166.2685546875,15106.201171875,16471.544921875,4166.76171875,24425.984375,-6510.41650390625,-0.0,163.71409606933594,9377.0029296875,4127.8203125,20953.814453125,13390.3818359375,9051.1640625,21109.580078125,7707.27783203125,9025.7333984375,3503.16357421875,-891.6854858398438,19389.787109375,4914.6015625,14337.69921875,6038.34765625,2974.669189453125,9213.2880859375,9886.423828125,77.08867645263672,4306.63427734375,-967.9794311523438,11198.5205078125,27.02077293395996,2229.213623046875,-1099.109619140625,3203.551025390625,2443.79052734375,19710.859375,2891.22265625,10462.6015625,205.03997802734375,7120.76806640625,22645.79296875,18845.400390625,13190.1103515625,-0.0,-49533.84375,16258.55859375,5769.7294921875,0.0,6107.4892578125,0.0,0.0
10521.412109375,10083.5166015625,26946.068359375,8517.1064453125,24977.525390625,2409.6171875,3591.37841796875,4111.13134765625,6779.82958984375,3614.42578125,12817.3828125,-3541.310546875,5014.73779296875,0.0,18735.7265625,1622.0411376953125,21155.67578125,14731.08984375,6415.04931640625,9356.33984375,18939.17578125,25744.4375,13171.83203125,15107.791015625,16465.982421875,4173.1201171875,24435.51953125,-6509.6220703125,-0.0,167.68772888183594,9377.796875,4126.23095703125,20954.609375,13393.5615234375,9051.958984375,21111.169921875,7708.86767578125,9028.1171875,3496.010986328125,-889.30126953125,19390.583984375,4917.7802734375,14344.0556640625,6042.32177734375,2980.232177734375,9216.4677734375,9888.0126953125,95.367431640625,4307.4287109375,-961.62158203125,11205.6728515625,30.994415283203125,2231.597900390625,-1109.441162109375,3190.04052734375,2447.76416015625,19708.474609375,2888.043701171875,10465.78125,211.39781188964844,7121.56298828125,22645.79296875,18846.98828125,13191.7001953125,-0.0,-49543.37890625,16266.50390625,5781.650390625,0.0,6122.5888671875,0.0,0.0
10523.7958984375,10091.4638671875,26946.068359375,8531.4111328125,24981.498046875,2417.564453125,3600.915283203125,4118.28369140625,6790.1611328125,3622.372802734375,12802.283203125,-3539.72119140625,5024.2744140625,0.0,18738.111328125,1633.9620361328125,21161.23828125,14738.2421875,6421.4072265625,9365.08203125,18941.560546875,25750.001953125,13180.5732421875,15114.1484375,16473.134765625,4179.4775390625,24442.671875,-6503.26416015625,-0.0,177.22447204589844,9384.1552734375,4132.5888671875,20958.58203125,13400.7138671875,9056.7275390625,21116.734375,7715.22509765625,9036.8583984375,3510.316162109375,-895.6591186523438,19392.171875,4923.34375,14352.00390625,6052.65283203125,2992.153076171875,9224.4150390625,9890.3974609375,104.10944366455078,4311.40283203125,-952.0848388671875,11214.416015625,39.73643112182617,2235.571533203125,-1100.6990966796875,3187.656494140625,2453.3271484375,19706.091796875,2892.017333984375,10471.34375,219.3450927734375,7120.76806640625,22652.1484375,18854.140625,13198.8525390625,-0.0,-49544.17578125,16272.068359375,5783.23974609375,0.0,6129.74169921875,0.0,0.0
10530.154296875,10093.052734375,26950.041015625,8534.5908203125,24979.91015625,2419.948486328125,3602.504638671875,4116.69384765625,6794.9296875,3618.3994140625,12811.0244140625,-3541.310546875,5037.78466796875,0.0,18738.904296875,1628.39892578125,21161.23828125,14740.6259765625,6421.4072265625,9365.8759765625,18943.9453125,25749.20703125,13184.5478515625,15113.353515625,16486.64453125,4174.70947265625,24436.31640625,-6504.05859375,-0.0,174.04556274414062,9384.94921875,4135.767578125,20960.171875,13403.09765625,9056.7275390625,21117.529296875,7715.22509765625,9036.064453125,3520.647705078125,-904.401123046875,19392.171875,4924.93310546875,14350.4140625,6057.42138671875,2997.71630859375,9222.0302734375,9903.11328125,97.75161743164062,4312.9921875,-951.2901611328125,11214.416015625,40.531158447265625,2245.1083984375,-1100.6990966796875,3194.80908203125,2449.353515625,19710.859375,2893.60693359375,10469.75390625,212.9872589111328,7118.3837890625,22652.1484375,18853.345703125,13200.4423828125,-0.0,-49537.8203125,16270.4794921875,5777.67724609375,0.0,6105.89990234375,0.0,0.0
10532.5380859375,10097.8212890625,26951.630859375,8526.642578125,24981.498046875,2420.7431640625,3604.09423828125,4116.69384765625,6805.26123046875,3623.96240234375,12818.97265625,-3541.310546875,5039.3740234375,0.0,18740.49609375,1622.0411376953125,21158.853515625,14741.4208984375,6423.79150390625,9373.0283203125,18943.9453125,25746.822265625,13187.7255859375,15112.5595703125,16496.181640625,4173.91455078125,24432.33984375,-6505.64794921875,-0.0,172.4561004638672,9383.361328125,4134.17822265625,20960.171875,13399.9189453125,9056.7275390625,21115.9375,7717.609375,9036.8583984375,3519.852783203125,-894.0697021484375,19398.53125,4924.138671875,14350.4140625,6056.626953125,3002.484619140625,9224.4150390625,9904.7021484375,92.18851470947266,4317.76025390625,-955.2637939453125,11214.416015625,40.531158447265625,2253.0556640625,-1102.28857421875,3205.140380859375,2449.353515625,19709.26953125,2889.63330078125,10474.5224609375,216.96090698242188,7127.1259765625,22650.560546875,18855.73046875,13209.9794921875,-0.0,-49540.99609375,16268.888671875,5776.08740234375,0.0,6121.0,0.0,0.0
10523.7958984375,10097.0263671875,26934.94140625,8517.9013671875,24967.98828125,2412.7958984375,3600.915283203125,4111.92578125,6806.0556640625,3622.372802734375,12791.1572265625,-3549.258056640625,5026.65869140625,0.0,18738.904296875,1616.47802734375,21149.31640625,14731.08984375,6420.6123046875,9374.6181640625,18928.845703125,25737.28515625,13182.9580078125,15103.8173828125,16472.33984375,4168.3515625,24425.1875,-6509.6220703125,-0.0,168.4824676513672,9372.234375,4122.25732421875,20946.66015625,13387.203125,9045.6005859375,21107.197265625,7712.8408203125,9031.2958984375,3501.57421875,-895.6591186523438,19381.046875,4918.5751953125,14341.671875,6048.67919921875,2999.3056640625,9221.236328125,9875.2978515625,87.4201431274414,4301.8662109375,-964.0057983398438,11213.6201171875,37.35224533081055,2226.82958984375,-1101.493896484375,3193.219482421875,2445.3798828125,19702.912109375,2883.275390625,10476.9072265625,218.5503692626953,7123.15234375,22641.0234375,18853.345703125,13209.18359375,-0.0,-49550.53515625,16268.0947265625,5760.19287109375,0.0,6121.79443359375,0.0,0.0
10524.5908203125,10095.4375,26931.76171875,8519.490234375,24964.013671875,2403.25927734375,3600.915283203125,4110.33642578125,6812.41357421875,3623.167724609375,12795.130859375,-3552.436767578125,5025.86376953125,0.0,18741.2890625,1615.6832275390625,21146.138671875,14725.525390625,6418.22802734375,9374.6181640625,18928.845703125,25736.490234375,13178.984375,15101.4326171875,16457.23828125,4162.78857421875,24426.779296875,-6512.00634765625,-0.0,166.09828186035156,9369.8505859375,4118.28369140625,20942.6875,13386.4091796875,9042.421875,21104.8125,7711.251953125,9029.7060546875,3503.16357421875,-902.8117065429688,19373.89453125,4913.01220703125,14340.8779296875,6043.9111328125,2999.3056640625,9221.236328125,9879.271484375,85.8306884765625,4293.12353515625,-968.774169921875,11215.2099609375,36.55751419067383,2229.213623046875,-1103.8780517578125,3190.835205078125,2439.02197265625,19702.115234375,2879.3017578125,10478.49609375,219.3450927734375,7127.1259765625,22640.228515625,18853.345703125,13207.5947265625,-0.0,-49554.5078125,16270.4794921875,5760.98779296875,0.0,6124.17822265625,0.0,0.0
10520.6171875,10095.4375,26936.53125,8520.28515625,24968.783203125,2401.669677734375,3600.12060546875,4109.54150390625,6804.46630859375,3620.783447265625,12803.078125,-3551.64208984375,5024.2744140625,0.0,18734.13671875,1618.0673828125,21145.34375,14727.91015625,6417.43310546875,9368.2607421875,18932.8203125,25735.697265625,13179.779296875,15103.8173828125,16466.775390625,4159.609375,24429.162109375,-6511.21142578125,-0.0,162.9193572998047,9371.439453125,4118.28369140625,20947.45703125,13387.998046875,9044.806640625,21107.197265625,7712.04638671875,9029.7060546875,3505.5478515625,-905.1958618164062,19381.046875,4912.2177734375,14342.4677734375,6044.7060546875,2994.537353515625,9219.646484375,9883.244140625,80.26758575439453,4300.2763671875,-972.747802734375,11210.44140625,37.35224533081055,2235.571533203125,-1112.6199951171875,3196.3984375,2439.02197265625,19698.142578125,2879.3017578125,10467.3701171875,220.1398162841797,7130.3046875,22642.61328125,18851.7578125,13197.2626953125,-0.0,-49556.890625,16261.736328125,5775.29296875,0.0,6125.76806640625,0.0,0.0
10515.0537109375,10095.4375,26938.119140625,8521.080078125,24972.7578125,2403.25927734375,3600.12060546875,4109.54150390625,6798.1083984375,3620.783447265625,12796.7197265625,-3550.052734375,5024.2744140625,0.0,18732.546875,1623.6304931640625,21149.31640625,14727.115234375,6417.43310546875,9362.697265625,18935.998046875,25737.28515625,13182.9580078125,15104.611328125,16473.927734375,4161.99365234375,24433.13671875,-6509.6220703125,-0.0,159.74044799804688,9372.234375,4118.28369140625,20950.63671875,13389.587890625,9046.3955078125,21107.197265625,7711.251953125,9028.9111328125,3503.95849609375,-905.9906005859375,19386.609375,4911.4228515625,14344.8515625,6045.50048828125,2993.74267578125,9220.4404296875,9876.8876953125,78.67813110351562,4305.04443359375,-969.5689086914062,11210.44140625,38.94169998168945,2234.77685546875,-1116.59375,3194.80908203125,2450.1484375,19699.732421875,2884.070068359375,10461.0126953125,216.1661834716797,7128.71533203125,22643.408203125,18849.373046875,13196.46875,-0.0,-49552.91796875,16259.3515625,5772.90869140625,0.0,6128.15234375,0.0,0.0
10517.4375,10099.4111328125,26942.095703125,8523.4638671875,24975.140625,2407.23291015625,3602.504638671875,4113.51513671875,6798.90283203125,3617.6044921875,12799.8994140625,-3541.310546875,5021.89013671875,0.0,18734.13671875,1631.577880859375,21151.701171875,14727.91015625,6418.22802734375,9359.5185546875,18936.79296875,25738.080078125,13184.5478515625,15106.9951171875,16475.51953125,4164.3779296875,24433.931640625,-6503.26416015625,-0.0,165.3035430908203,9375.4130859375,4121.46240234375,20950.63671875,13391.1767578125,9047.1904296875,21107.9921875,7711.251953125,9031.2958984375,3510.316162109375,-902.0169677734375,19388.19921875,4914.6015625,14347.2353515625,6050.2685546875,2996.126953125,9222.0302734375,9876.8876953125,82.65177154541016,4303.45556640625,-962.4163208007812,11212.03125,43.7100715637207,2237.955810546875,-1114.20947265625,3197.98779296875,2450.94287109375,19700.52734375,2895.1962890625,10464.19140625,217.75563049316406,7128.71533203125,22642.61328125,18849.373046875,13184.5478515625,-0.0,-49542.5859375,16260.9423828125,5778.4716796875,0.0,6112.25732421875,0.0,0.0
10523.7958984375,10097.8212890625,26942.888671875,8519.490234375,24976.73046875,2408.822265625,3607.273193359375,4116.69384765625,6807.6455078125,3620.783447265625,12807.845703125,-3538.92626953125,5026.65869140625,0.0,18737.31640625,1628.39892578125,21150.908203125,14733.4736328125,6421.4072265625,9364.287109375,18937.587890625,25740.46484375,13190.1103515625,15108.5849609375,16477.107421875,4163.58349609375,24434.724609375,-6501.6748046875,-0.0,165.3035430908203,9377.0029296875,4123.05224609375,20952.224609375,13390.3818359375,9051.1640625,21110.376953125,7714.43017578125,9032.8857421875,3507.931884765625,-899.6327514648438,19390.583984375,4916.98583984375,14351.208984375,6051.8583984375,3002.484619140625,9222.0302734375,9881.6552734375,82.65177154541016,4306.63427734375,-959.2374267578125,11216.00390625,46.88898849487305,2238.75048828125,-1118.18310546875,3198.78271484375,2444.585205078125,19702.912109375,2899.169921875,10468.1650390625,220.93455505371094,7130.3046875,22644.201171875,18853.345703125,13192.494140625,-0.0,-49538.61328125,16266.50390625,5788.00830078125,0.0,6116.2314453125,0.0,0.0
10522.2060546875,10094.642578125,26944.478515625,8521.080078125,24978.318359375,2412.7958984375,3608.862548828125,4115.8994140625,6809.234375,3619.194091796875,12811.8203125,-3539.72119140625,5028.248046875,0.0,18738.111328125,1625.219970703125,21151.701171875,14733.4736328125,6422.99658203125,9365.08203125,18939.17578125,25742.0546875,13192.494140625,15108.5849609375,16480.287109375,4165.96728515625,24435.51953125,-6500.8798828125,-0.0,167.68772888183594,9377.0029296875,4123.8466796875,20952.224609375,13392.765625,9054.3427734375,21112.759765625,7714.43017578125,9031.2958984375,3497.6005859375,-905.1958618164062,19392.966796875,4920.95947265625,14352.00390625,6054.24267578125,3004.86865234375,9219.646484375,9889.6025390625,85.8306884765625,4312.197265625,-957.64794921875,11216.7998046875,44.50480270385742,2230.80322265625,-1118.18310546875,3195.603515625,2450.94287109375,19703.70703125,2902.348876953125,10468.9599609375,220.1398162841797,7131.89453125,22645.79296875,18854.140625,13191.7001953125,-0.0,-49537.0234375,16264.1201171875,5785.6240234375,0.0,6111.462890625,0.0,0.0
10519.02734375,10086.6953125,26945.271484375,8521.080078125,24981.498046875,2421.5380859375,3610.451904296875,4118.28369140625,6817.9765625,3627.141357421875,12801.48828125,-3546.078857421875,5012.353515625,0.0,18740.49609375,1629.98828125,21150.908203125,14733.4736328125,6425.380859375,9370.64453125,18942.35546875,25743.642578125,13198.05859375,15110.9697265625,16480.287109375,4176.298828125,24436.31640625,-6496.90625,-0.0,158.9457244873047,9381.771484375,4124.6416015625,20953.01953125,13395.150390625,9055.1376953125,21113.5546875,7716.814453125,9035.26953125,3501.57421875,-910.7589721679688,19393.76171875,4930.49609375,14354.388671875,6057.42138671875,3009.63720703125,9222.8251953125,9897.5498046875,77.08867645263672,4311.40283203125,-952.0848388671875,11217.59375,46.09425735473633,2223.650634765625,-1119.7725830078125,3190.835205078125,2450.1484375,19705.294921875,2908.70654296875,10472.93359375,223.31874084472656,7130.3046875,22646.5859375,18856.525390625,13198.8525390625,-0.0,-49538.61328125,16263.326171875,5775.29296875,0.0,6119.41015625,0.0,0.0
10518.2333984375,10079.54296875,26950.041015625,8521.080078125,24987.85546875,2423.92236328125,3616.01513671875,4122.25732421875,6829.8974609375,3638.267578125,12797.5146484375,-3555.61572265625,5004.40576171875,0.0,18744.46875,1635.551513671875,21154.880859375,14737.447265625,6430.14892578125,9382.5654296875,18945.53515625,25746.822265625,13206.0048828125,15112.5595703125,16486.64453125,4179.4775390625,24443.46875,-6495.31689453125,-0.0,147.02479553222656,9383.361328125,4126.23095703125,20956.197265625,13396.740234375,9059.111328125,21115.9375,7720.78857421875,9038.4482421875,3505.5478515625,-902.0169677734375,19399.32421875,4933.67529296875,14360.7451171875,6060.60009765625,3015.9951171875,9228.388671875,9899.1396484375,69.93611907958984,4320.939453125,-952.8795776367188,11223.9521484375,49.27317428588867,2222.06103515625,-1122.15673828125,3205.935302734375,2442.200927734375,19704.5,2910.296142578125,10478.49609375,230.47129821777344,7127.92041015625,22649.765625,18862.08984375,13213.1572265625,-0.0,-49542.5859375,16260.9423828125,5772.11376953125,0.0,6129.74169921875,0.0,0.0
10517.4375,10081.927734375,26955.60546875,8519.490234375,24995.8046875,2414.385498046875,3618.3994140625,4118.28369140625,6830.6923828125,3627.141357421875,12799.8994140625,-3541.310546875,5018.7109375,0.0,18746.853515625,1629.193603515625,21154.880859375,14738.2421875,6429.35400390625,9374.6181640625,18947.125,25744.4375,13209.18359375,15111.763671875,16484.259765625,4169.14599609375,24456.181640625,-6497.701171875,-0.0,158.9457244873047,9383.361328125,4126.23095703125,20960.171875,13396.740234375,9063.0849609375,21115.14453125,7722.3779296875,9036.8583984375,3508.726806640625,-900.427490234375,19404.888671875,4922.548828125,14366.3095703125,6057.42138671875,3016.789794921875,9224.4150390625,9902.318359375,63.578285217285156,4327.29736328125,-957.64794921875,11227.130859375,46.09425735473633,2226.034912109375,-1121.362060546875,3209.114013671875,2449.353515625,19706.884765625,2907.912109375,10477.7021484375,220.93455505371094,7123.15234375,22652.1484375,18860.498046875,13194.87890625,-0.0,-49532.25390625,16257.7626953125,5771.31884765625,0.0,6120.205078125,0.0,0.0
10513.46484375,10081.1318359375,26954.015625,8518.6962890625,24998.1875,2415.974853515625,3618.3994140625,4115.8994140625,6825.923828125,3613.631103515625,12804.6669921875,-3545.2841796875,5022.6845703125,0.0,18746.056640625,1627.6041259765625,21156.46875,14739.8310546875,6426.97021484375,9364.287109375,18948.712890625,25746.02734375,13210.7734375,15111.763671875,16477.107421875,4166.76171875,24464.130859375,-6499.29052734375,-0.0,162.9193572998047,9384.1552734375,4128.61474609375,20960.966796875,13398.330078125,9065.46875,21117.529296875,7723.96728515625,9034.474609375,3513.4951171875,-899.6327514648438,19402.50390625,4920.16455078125,14371.0771484375,6057.42138671875,3015.200439453125,9217.2626953125,9900.7294921875,69.93611907958984,4312.9921875,-956.0584716796875,11228.720703125,43.7100715637207,2232.392578125,-1118.18310546875,3201.166748046875,2448.558837890625,19706.884765625,2907.912109375,10476.1123046875,209.808349609375,7121.56298828125,22652.1484375,18854.9375,13181.369140625,-0.0,-49536.2265625,16262.53125,5762.5771484375,0.0,6108.2841796875,0.0,0.0
10517.4375,10085.10546875,26949.248046875,8522.669921875,24994.21484375,2417.564453125,3612.04150390625,4118.28369140625,6819.56640625,3616.809814453125,12790.3623046875,-3544.489501953125,5023.4794921875,0.0,18738.111328125,1633.167236328125,21158.853515625,14744.599609375,6428.5595703125,9361.9033203125,18947.919921875,25750.001953125,13207.5947265625,15114.943359375,16482.671875,4166.76171875,24444.26171875,-6499.29052734375,-0.0,170.07191467285156,9385.7451171875,4130.9990234375,20959.376953125,13402.302734375,9063.8798828125,21118.322265625,7719.99365234375,9036.064453125,3513.4951171875,-890.8907470703125,19400.119140625,4925.72802734375,14364.7197265625,6059.80517578125,3009.63720703125,9220.4404296875,9894.37109375,81.85704803466797,4293.12353515625,-953.67431640625,11221.568359375,46.09425735473633,2231.597900390625,-1110.23583984375,3184.4775390625,2445.3798828125,19698.9375,2911.0908203125,10470.5498046875,212.19253540039062,7123.947265625,22654.533203125,18854.9375,13186.13671875,-0.0,-49539.40625,16264.9150390625,5764.16650390625,0.0,6111.462890625,0.0,0.0
10522.2060546875,10089.8740234375,26943.68359375,8521.080078125,24976.73046875,2413.590576171875,3605.68359375,4115.1044921875,6823.53955078125,3623.96240234375,12785.59375,-3555.61572265625,5026.65869140625,0.0,18734.931640625,1625.219970703125,21156.46875,14738.2421875,6426.97021484375,9368.2607421875,18941.560546875,25745.234375,13198.05859375,15110.9697265625,16479.4921875,4164.3779296875,24423.599609375,-6504.05859375,-0.0,170.8666534423828,9380.9765625,4127.025390625,20953.01953125,13400.7138671875,9054.3427734375,21114.349609375,7713.6357421875,9035.26953125,3506.342529296875,-895.6591186523438,19391.37890625,4923.34375,14349.6201171875,6055.83203125,3008.842529296875,9222.0302734375,9884.0400390625,90.59906005859375,4298.68701171875,-963.2110595703125,11216.00390625,41.32588577270508,2226.82958984375,-1106.26220703125,3179.709228515625,2437.4326171875,19698.9375,2898.375244140625,10468.9599609375,222.5240020751953,7123.15234375,22649.765625,18854.140625,13199.646484375,-0.0,-49548.94140625,16263.326171875,5770.5244140625,0.0,6117.82080078125,0.0,0.0
10523.001953125,10087.490234375,26944.478515625,8514.7216796875,24970.373046875,2408.027587890625,3604.888916015625,4109.54150390625,6825.12890625,3622.372802734375,12802.283203125,-3559.58935546875,5025.06884765625,0.0,18735.7265625,1608.5306396484375,21150.908203125,14732.6787109375,6422.99658203125,9369.0556640625,18939.17578125,25740.46484375,13196.46875,15105.4072265625,16489.029296875,4158.81494140625,24423.599609375,-6511.21142578125,-0.0,158.15098571777344,9375.4130859375,4123.05224609375,20949.83984375,13393.5615234375,9051.958984375,21109.580078125,7712.04638671875,9030.5009765625,3501.57421875,-909.1694946289062,19391.37890625,4917.7802734375,14347.2353515625,6048.67919921875,3007.2529296875,9218.056640625,9879.271484375,72.32030487060547,4315.37646484375,-970.3636474609375,11215.2099609375,30.994415283203125,2219.677001953125,-1114.20947265625,3187.656494140625,2431.86962890625,19700.52734375,2880.096435546875,10470.5498046875,220.1398162841797,7120.76806640625,22646.5859375,18850.16796875,13199.646484375,-0.0,-49554.5078125,16257.7626953125,5757.013671875,0.0,6120.205078125,0.0,0.0
10518.2333984375,10089.080078125,26944.478515625,8512.337890625,24971.962890625,2411.20654296875,3601.7099609375,4111.92578125,6821.9501953125,3622.372802734375,12798.3095703125,-3552.436767578125,5029.8369140625,0.0,18732.546875,1610.1201171875,21151.701171875,14731.8837890625,6421.4072265625,9365.8759765625,18939.97265625,25743.642578125,13197.2626953125,15106.9951171875,16485.849609375,4160.404296875,24422.8046875,-6512.00634765625,-0.0,156.56153869628906,9376.2080078125,4124.6416015625,20953.01953125,13394.35546875,9051.958984375,21111.169921875,7711.251953125,9030.5009765625,3499.98486328125,-916.3220825195312,19392.966796875,4920.95947265625,14346.4404296875,6050.2685546875,3004.86865234375,9218.056640625,9878.4765625,52.45208740234375,4311.40283203125,-967.1846923828125,11211.236328125,30.19968605041504,2218.08740234375,-1111.8253173828125,3193.219482421875,2437.4326171875,19700.52734375,2877.712158203125,10466.5751953125,215.37144470214844,7119.9736328125,22644.99609375,18851.7578125,13194.87890625,-0.0,-49550.53515625,16257.7626953125,5760.98779296875,0.0,6124.97314453125,0.0,0.0
10514.259765625,10094.642578125,26942.888671875,8513.1328125,24971.962890625,2409.6171875,3601.7099609375,4111.92578125,6821.15576171875,3622.372802734375,12794.3349609375,-3552.436767578125,5031.4267578125,0.0,18730.958984375,1612.50439453125,21152.49609375,14731.08984375,6419.02294921875,9364.287109375,18936.79296875,25742.0546875,13197.2626953125,15105.4072265625,16478.697265625,4161.19921875,24428.3671875,-6513.595703125,-0.0,161.3299102783203,9376.2080078125,4123.8466796875,20951.4296875,13395.150390625,9049.5751953125,21111.169921875,7712.8408203125,9031.2958984375,3498.395263671875,-916.3220825195312,19390.583984375,4920.16455078125,14348.82421875,6051.8583984375,3004.86865234375,9218.8515625,9876.8876953125,53.2468147277832,4302.66064453125,-964.0057983398438,11211.236328125,29.404958724975586,2217.292724609375,-1107.8516845703125,3197.98779296875,2437.4326171875,19702.115234375,2878.5068359375,10463.3974609375,214.57672119140625,7116.79443359375,22642.61328125,18850.16796875,13194.083984375,-0.0,-49556.09375,16260.9423828125,5761.7822265625,0.0,6121.79443359375,0.0,0.0
10509.4912109375,10095.4375,26946.86328125,8513.927734375,24975.935546875,2408.027587890625,3605.68359375,4112.720703125,6822.74462890625,3623.96240234375,12799.8994140625,-3556.41064453125,5031.4267578125,0.0,18732.546875,1610.914794921875,21153.291015625,14735.8583984375,6419.8173828125,9367.4658203125,18937.587890625,25742.849609375,13196.46875,15106.201171875,16485.056640625,4159.609375,24432.33984375,-6512.80078125,-0.0,151.7931671142578,9377.796875,4123.8466796875,20952.224609375,13395.150390625,9050.369140625,21110.376953125,7712.04638671875,9030.5009765625,3502.368896484375,-902.8117065429688,19393.76171875,4918.5751953125,14350.4140625,6051.8583984375,3008.0478515625,9218.8515625,9883.244140625,64.37301635742188,4308.2236328125,-961.62158203125,11213.6201171875,30.19968605041504,2210.14013671875,-1111.030517578125,3207.524658203125,2439.02197265625,19702.912109375,2882.480712890625,10462.6015625,215.37144470214844,7113.61572265625,22643.408203125,18850.9609375,13197.2626953125,-0.0,-49555.30078125,16261.736328125,5765.75634765625,0.0,6123.3837890625,0.0,0.0
10507.1064453125,10089.080078125,26946.86328125,8516.3115234375,24975.140625,2412.00146484375,3608.06787109375,4115.1044921875,6830.6923828125,3623.167724609375,12795.9248046875,-3556.41064453125,5032.22119140625,0.0,18735.7265625,1617.272705078125,21154.880859375,14734.2685546875,6421.4072265625,9372.234375,18939.17578125,25742.0546875,13195.673828125,15107.791015625,16477.107421875,4167.556640625,24431.546875,-6508.0322265625,-0.0,149.4089813232422,9377.0029296875,4126.23095703125,20953.01953125,13395.9453125,9051.1640625,21110.376953125,7713.6357421875,9031.2958984375,3509.521484375,-898.0433349609375,19392.966796875,4922.548828125,14351.208984375,6053.44775390625,3012.816162109375,9219.646484375,9888.80859375,76.2939453125,4305.83935546875,-952.0848388671875,11215.2099609375,33.37860107421875,2217.292724609375,-1114.20947265625,3197.98779296875,2440.611572265625,19702.912109375,2886.454345703125,10469.75390625,213.78199768066406,7115.205078125,22641.81640625,18853.345703125,13200.4423828125,-0.0,-49548.1484375,16259.3515625,5757.80859375,0.0,6113.84716796875,0.0,0.0
10505.5166015625,10073.9794921875,26943.68359375,8513.927734375,24975.935546875,2412.00146484375,3608.06787109375,4115.1044921875,6834.666015625,3620.783447265625,12795.9248046875,-3558.794677734375,5036.98974609375,0.0,18738.904296875,1619.6568603515625,21151.701171875,14726.3212890625,6421.4072265625,9373.82421875,18937.587890625,25739.669921875,13195.673828125,15105.4072265625,16475.51953125,4174.70947265625,24437.109375,-6507.23779296875,-0.0,146.2300567626953,9373.82421875,4123.8466796875,20952.224609375,13391.9716796875,9049.5751953125,21108.78515625,7713.6357421875,9032.08984375,3510.316162109375,-904.401123046875,19392.171875,4922.548828125,14352.798828125,6053.44775390625,3012.816162109375,9218.8515625,9884.833984375,77.08867645263672,4308.2236328125,-951.2901611328125,11218.388671875,36.55751419067383,2226.82958984375,-1128.5146484375,3194.80908203125,2421.5380859375,19702.115234375,2881.68603515625,10473.728515625,214.57672119140625,7111.2314453125,22641.0234375,18852.552734375,13198.05859375,-0.0,-49553.7109375,16256.9677734375,5760.98779296875,0.0,6106.69482421875,0.0,0.0
10511.0810546875,10081.1318359375,26949.248046875,8525.0537109375,24985.47265625,2423.92236328125,3619.98876953125,4121.46240234375,6841.818359375,3628.730712890625,12805.4619140625,-3553.2314453125,5029.04248046875,0.0,18744.46875,1622.8358154296875,21159.6484375,14736.65234375,6429.35400390625,9380.181640625,18947.125,25747.6171875,13204.4150390625,15114.1484375,16482.671875,4199.34619140625,24461.74609375,-6495.31689453125,-0.0,155.7667999267578,9382.5654296875,4131.7939453125,20959.376953125,13399.9189453125,9059.90625,21117.529296875,7723.1728515625,9039.2431640625,3516.674072265625,-896.453857421875,19402.50390625,4932.88037109375,14366.3095703125,6064.57373046875,3019.96875,9226.0048828125,9873.7080078125,78.67813110351562,4311.40283203125,-942.548095703125,11232.693359375,46.88898849487305,2237.955810546875,-1123.7462158203125,3210.70361328125,2431.074951171875,19684.6328125,2895.1962890625,10484.8544921875,223.31874084472656,7118.3837890625,22648.96875,18860.498046875,13195.673828125,-0.0,-49544.97265625,16269.68359375,5774.498046875,0.0,6118.61572265625,0.0,0.0
10492.0068359375,10073.1845703125,26938.916015625,8508.3642578125,24975.935546875,2412.7958984375,3616.01513671875,4107.1572265625,6833.87158203125,3615.22021484375,12796.7197265625,-3567.53662109375,5002.81689453125,0.0,18738.111328125,1605.351806640625,21148.5234375,14727.115234375,6417.43310546875,9365.8759765625,18935.998046875,25737.28515625,13196.46875,15104.611328125,16464.392578125,4174.70947265625,24461.74609375,-6507.23779296875,-0.0,150.20370483398438,9371.439453125,4120.66796875,20946.66015625,13388.79296875,9050.369140625,21106.40234375,7712.8408203125,9028.1171875,3503.95849609375,-908.374755859375,19390.583984375,4920.95947265625,14362.3349609375,6050.2685546875,3012.816162109375,9211.69921875,9864.1708984375,65.1677474975586,4294.71337890625,-956.0584716796875,11232.693359375,36.55751419067383,2225.239990234375,-1132.48828125,3192.4248046875,2421.5380859375,19671.916015625,2879.3017578125,10476.1123046875,208.21888732910156,7106.462890625,22638.638671875,18850.9609375,13177.39453125,-0.0,-49562.453125,16256.173828125,5759.39794921875,0.0,6101.13134765625,0.0,0.0
10515.0537109375,10080.337890625,26945.271484375,8504.390625,24979.115234375,2409.6171875,3622.372802734375,4111.13134765625,6828.30810546875,3619.98876953125,12799.8994140625,-3554.0263671875,5009.17431640625,0.0,18742.083984375,1616.47802734375,21151.701171875,14727.91015625,6422.99658203125,9363.4921875,18939.17578125,25740.46484375,13203.62109375,15106.9951171875,16473.134765625,4161.19921875,24443.46875,-6508.0322265625,-0.0,158.9457244873047,9375.4130859375,4126.23095703125,20950.63671875,13393.5615234375,9051.958984375,21110.376953125,7716.814453125,9031.2958984375,3517.46875,-904.401123046875,19395.3515625,4920.16455078125,14367.8984375,6051.0634765625,3015.9951171875,9218.056640625,9876.091796875,69.93611907958984,4298.68701171875,-961.62158203125,11238.2578125,43.7100715637207,2220.4716796875,-1123.7462158203125,3194.80908203125,2424.717041015625,19701.322265625,2879.3017578125,10475.318359375,214.57672119140625,7115.205078125,22644.201171875,18852.552734375,13186.13671875,-0.0,-49552.125,16262.53125,5766.55078125,0.0,6111.462890625,0.0,0.0
10528.564453125,10079.54296875,26942.888671875,8505.185546875,24967.98828125,2409.6171875,3600.12060546875,4110.33642578125,6815.59228515625,3619.98876953125,12806.255859375,-3556.41064453125,5033.01611328125,0.0,18734.13671875,1622.8358154296875,21149.31640625,14723.1416015625,6415.84375,9354.7509765625,18935.203125,25740.46484375,13194.87890625,15105.4072265625,16475.51953125,4161.19921875,24411.677734375,-6504.05859375,-0.0,148.61424255371094,9372.234375,4125.4365234375,20949.83984375,13391.9716796875,9045.6005859375,21108.78515625,7704.09912109375,9029.7060546875,3501.57421875,-908.374755859375,19390.583984375,4919.3701171875,14346.4404296875,6050.2685546875,3001.68994140625,9216.4677734375,9885.62890625,58.01518630981445,4305.83935546875,-960.826904296875,11204.87890625,46.09425735473633,2222.06103515625,-1124.5408935546875,3205.140380859375,2435.84326171875,19721.189453125,2891.22265625,10458.62890625,216.96090698242188,7118.3837890625,22639.43359375,18844.60546875,13181.369140625,-0.0,-49545.765625,16259.3515625,5764.16650390625,0.0,6117.02587890625,0.0,0.0
10525.3857421875,10081.927734375,26938.119140625,8505.98046875,24961.62890625,2405.6435546875,3586.610107421875,4106.36279296875,6810.029296875,3616.809814453125,12804.6669921875,-3560.384033203125,5033.81103515625,0.0,18726.984375,1616.47802734375,21146.931640625,14723.1416015625,6409.486328125,9350.7763671875,18930.435546875,25738.875,13186.931640625,15101.4326171875,16469.16015625,4160.404296875,24415.650390625,-6508.8271484375,-0.0,146.2300567626953,9369.0556640625,4123.05224609375,20945.8671875,13390.3818359375,9040.83203125,21105.607421875,7695.35693359375,9022.5537109375,3493.626953125,-912.3484497070312,19385.814453125,4918.5751953125,14331.3408203125,6046.294921875,2991.3583984375,9211.69921875,9891.1923828125,56.42573165893555,4305.04443359375,-966.3899536132812,11191.3681640625,37.35224533081055,2233.1875,-1118.18310546875,3197.193115234375,2437.4326171875,19714.037109375,2888.043701171875,10453.8603515625,211.39781188964844,7117.58935546875,22635.458984375,18839.041015625,13180.5732421875,-0.0,-49549.73828125,16256.173828125,5764.16650390625,0.0,6111.462890625,0.0,0.0
10521.412109375,10084.3115234375,26942.888671875,8505.185546875,24969.578125,2404.053955078125,3598.531005859375,4109.54150390625,6824.33447265625,3621.578125,12807.845703125,-3554.0263671875,5027.453125,0.0,18734.13671875,1623.6304931640625,21149.31640625,14730.2939453125,6414.2548828125,9363.4921875,18935.203125,25740.46484375,13189.3154296875,15103.8173828125,16477.107421875,4154.04638671875,24425.984375,-6509.6220703125,-0.0,141.46168518066406,9370.64453125,4124.6416015625,20950.63671875,13391.9716796875,9045.6005859375,21108.78515625,7704.8935546875,9026.52734375,3502.368896484375,-915.52734375,19389.787109375,4921.75439453125,14341.671875,6048.67919921875,3002.484619140625,9216.4677734375,9901.5234375,49.27317428588867,4306.63427734375,-974.3372802734375,11206.4677734375,37.35224533081055,2242.72412109375,-1108.6463623046875,3199.577392578125,2435.04833984375,19704.5,2892.017333984375,10466.5751953125,214.57672119140625,7119.1787109375,22641.0234375,18844.60546875,13193.2900390625,-0.0,-49547.35546875,16264.9150390625,5768.14013671875,0.0,6117.02587890625,0.0,0.0
10515.8486328125,10080.337890625,26939.7109375,8501.2119140625,24966.3984375,2397.6962890625,3596.146728515625,4107.1572265625,6824.33447265625,3619.194091796875,12803.078125,-3559.58935546875,5023.4794921875,0.0,18733.34375,1624.42529296875,21146.138671875,14726.3212890625,6412.6650390625,9365.08203125,18932.0234375,25736.490234375,13186.13671875,15100.638671875,16472.33984375,4144.509765625,24425.984375,-6512.80078125,-0.0,133.514404296875,9366.671875,4117.48876953125,20946.66015625,13386.4091796875,9041.626953125,21104.8125,7702.50927734375,9025.7333984375,3496.805908203125,-913.1431884765625,19387.404296875,4911.4228515625,14342.4677734375,6044.7060546875,3000.895263671875,9215.6728515625,9897.5498046875,41.32588577270508,4303.45556640625,-981.4898071289062,11209.6474609375,31.789142608642578,2231.597900390625,-1115.004150390625,3190.04052734375,2428.690673828125,19702.115234375,2888.043701171875,10469.75390625,218.5503692626953,7114.41015625,22637.048828125,18844.60546875,13190.1103515625,-0.0,-49551.328125,16261.736328125,5758.603515625,0.0,6109.87353515625,0.0,0.0
10496.775390625,10070.0068359375,26926.19921875,8497.23828125,24958.453125,2390.543701171875,3588.994384765625,4099.21044921875,6815.59228515625,3612.836181640625,12782.4140625,-3565.15234375,5017.12158203125,0.0,18732.546875,1611.7095947265625,21137.396484375,14714.400390625,6404.7177734375,9357.9296875,18922.486328125,25726.16015625,13174.2158203125,15091.896484375,16462.0078125,4136.5625,24422.8046875,-6520.748046875,-0.0,131.92494201660156,9359.5185546875,4105.56787109375,20935.53515625,13373.6923828125,9034.474609375,21097.66015625,7693.767578125,9016.1962890625,3486.474365234375,-921.0904541015625,19377.8671875,4897.11767578125,14335.314453125,6035.96337890625,2991.3583984375,9207.7255859375,9868.939453125,35.762786865234375,4293.91845703125,-984.668701171875,11207.2626953125,17.48402976989746,2207.756103515625,-1135.667236328125,3179.709228515625,2424.717041015625,19700.52734375,2877.712158203125,10465.78125,210.6030731201172,7106.462890625,22629.103515625,18839.8359375,13181.369140625,-0.0,-49558.48046875,16255.37890625,5745.8876953125,0.0,6098.7470703125,0.0,0.0
10501.5439453125,10077.1591796875,26929.37890625,8499.6220703125,24964.80859375,2398.490966796875,3595.35205078125,4106.36279296875,6819.56640625,3623.96240234375,12786.388671875,-3560.384033203125,5015.5322265625,0.0,18735.7265625,1622.0411376953125,21144.548828125,14721.552734375,6411.87060546875,9365.8759765625,18928.845703125,25734.10546875,13177.39453125,15102.2275390625,16465.1875,4149.2783203125,24425.1875,-6511.21142578125,-0.0,145.43533325195312,9365.08203125,4117.48876953125,20941.099609375,13380.05078125,9038.4482421875,21104.8125,7701.71484375,9021.7587890625,3510.316162109375,-907.580078125,19381.046875,4905.859375,14341.671875,6043.9111328125,2995.33203125,9214.8779296875,9865.7607421875,61.98883056640625,4293.91845703125,-968.774169921875,11209.6474609375,24.636587142944336,2226.82958984375,-1134.8724365234375,3185.272216796875,2435.04833984375,19701.322265625,2888.838623046875,10471.34375,213.78199768066406,7112.8212890625,22634.6640625,18846.193359375,13199.646484375,-0.0,-49549.73828125,16262.53125,5758.603515625,0.0,6116.2314453125,0.0,0.0
10515.8486328125,10083.5166015625,26936.53125,8512.337890625,24972.7578125,2413.590576171875,3601.7099609375,4117.48876953125,6817.9765625,3629.525390625,12791.1572265625,-3546.078857421875,5017.916015625,0.0,18737.31640625,1633.9620361328125,21155.67578125,14735.0625,6419.8173828125,9369.0556640625,18937.587890625,25746.822265625,13183.7529296875,15112.5595703125,16469.955078125,4166.76171875,24432.33984375,-6499.29052734375,-0.0,158.9457244873047,9377.0029296875,4125.4365234375,20950.63671875,13394.35546875,9047.1904296875,21115.14453125,7709.662109375,9032.8857421875,3509.521484375,-901.2222290039062,19388.19921875,4920.95947265625,14350.4140625,6057.42138671875,2999.3056640625,9223.6201171875,9876.8876953125,80.26758575439453,4301.8662109375,-952.8795776367188,11216.00390625,34.96805953979492,2237.955810546875,-1134.8724365234375,3191.630126953125,2449.353515625,19705.294921875,2898.375244140625,10472.93359375,219.3450927734375,7117.58935546875,22644.201171875,18851.7578125,13195.673828125,-0.0,-49537.0234375,16265.7109375,5779.2666015625,0.0,6128.15234375,0.0,0.0
10512.669921875,10072.390625,26934.94140625,8503.5966796875,24972.7578125,2406.438232421875,3600.12060546875,4111.13134765625,6810.029296875,3622.372802734375,12787.978515625,-3549.258056640625,5012.353515625,0.0,18734.13671875,1625.219970703125,21149.31640625,14727.91015625,6415.84375,9359.5185546875,18935.203125,25742.849609375,13178.984375,15106.201171875,16465.982421875,4161.99365234375,24432.33984375,-6507.23779296875,-0.0,152.587890625,9369.8505859375,4116.69384765625,20946.66015625,13390.3818359375,9044.0107421875,21109.580078125,7706.4833984375,9029.7060546875,3491.24267578125,-909.9642333984375,19388.19921875,4916.98583984375,14349.6201171875,6051.8583984375,2996.921630859375,9219.646484375,9871.3232421875,72.32030487060547,4301.0712890625,-958.4426879882812,11212.03125,30.994415283203125,2223.650634765625,-1142.8197021484375,3190.835205078125,2444.585205078125,19702.115234375,2891.22265625,10467.3701171875,216.1661834716797,7112.0263671875,22638.638671875,18847.783203125,13183.7529296875,-0.0,-49544.17578125,16260.9423828125,5774.498046875,0.0,6127.357421875,0.0,0.0
10516.6435546875,10077.953125,26935.736328125,8506.775390625,24976.73046875,2405.6435546875,3607.273193359375,4113.51513671875,6820.36083984375,3626.3466796875,12794.3349609375,-3543.69482421875,5019.505859375,0.0,18741.2890625,1634.7567138671875,21151.701171875,14727.115234375,6418.22802734375,9365.08203125,18937.587890625,25744.4375,13183.7529296875,15108.5849609375,16465.982421875,4166.76171875,24441.083984375,-6505.64794921875,-0.0,150.99842834472656,9372.234375,4119.078125,20949.044921875,13394.35546875,9047.1904296875,21112.759765625,7710.45703125,9032.8857421875,3499.190185546875,-903.6064453125,19393.76171875,4919.3701171875,14355.9775390625,6053.44775390625,3003.279541015625,9224.4150390625,9868.14453125,69.93611907958984,4305.04443359375,-956.0584716796875,11219.18359375,34.1733283996582,2226.034912109375,-1126.1304931640625,3183.6826171875,2446.174560546875,19708.474609375,2894.401611328125,10476.1123046875,220.93455505371094,7117.58935546875,22642.61328125,18853.345703125,13187.7255859375,-0.0,-49540.99609375,16267.2998046875,5776.88232421875,0.0,6115.4365234375,0.0,0.0
10517.4375,10077.1591796875,26929.37890625,8509.1591796875,24975.935546875,2403.25927734375,3606.478515625,4110.33642578125,6821.15576171875,3633.4990234375,12790.3623046875,-3543.69482421875,5020.30029296875,0.0,18743.673828125,1618.0673828125,21151.701171875,14725.525390625,6415.84375,9367.4658203125,18936.79296875,25742.849609375,13182.9580078125,15106.201171875,16465.1875,4166.76171875,24441.876953125,-6513.595703125,-0.0,144.64060974121094,9371.439453125,4119.078125,20947.45703125,13393.5615234375,9047.1904296875,21110.376953125,7708.86767578125,9030.5009765625,3504.753173828125,-909.1694946289062,19392.966796875,4917.7802734375,14355.9775390625,6049.47412109375,3002.484619140625,9221.236328125,9867.3505859375,69.93611907958984,4305.04443359375,-958.4426879882812,11218.388671875,28.6102294921875,2225.239990234375,-1115.7989501953125,3170.17236328125,2446.96923828125,19705.294921875,2888.043701171875,10474.5224609375,224.11346435546875,7118.3837890625,22640.228515625,18850.16796875,13192.494140625,-0.0,-49540.203125,16263.326171875,5774.498046875,0.0,6124.17822265625,0.0,0.0
10510.28515625,10079.54296875,26935.736328125,8512.337890625,24978.318359375,2407.23291015625,3605.68359375,4110.33642578125,6815.59228515625,3636.677978515625,12791.1572265625,-3544.489501953125,5033.81103515625,0.0,18740.49609375,1612.50439453125,21152.49609375,14729.5,6417.43310546875,9368.2607421875,18939.97265625,25745.234375,13182.9580078125,15106.201171875,16482.671875,4169.94091796875,24440.2890625,-6510.41650390625,-0.0,154.17735290527344,9373.0283203125,4120.66796875,20949.044921875,13394.35546875,9047.1904296875,21110.376953125,7710.45703125,9028.9111328125,3501.57421875,-906.7853393554688,19394.556640625,4919.3701171875,14358.361328125,6050.2685546875,2999.3056640625,9221.236328125,9882.4501953125,79.47286224365234,4316.17138671875,-955.2637939453125,11218.388671875,31.789142608642578,2222.855712890625,-1110.23583984375,3185.272216796875,2453.3271484375,19704.5,2888.838623046875,10471.34375,224.90818786621094,7118.3837890625,22639.43359375,18850.9609375,13194.87890625,-0.0,-49540.203125,16260.1474609375,5772.11376953125,0.0,6140.86767578125,0.0,0.0
10510.28515625,10083.5166015625,26944.478515625,8511.54296875,24978.318359375,2408.822265625,3600.915283203125,4109.54150390625,6806.8505859375,3627.93603515625,12807.845703125,-3543.69482421875,5036.98974609375,0.0,18735.7265625,1617.272705078125,21154.0859375,14730.2939453125,6415.04931640625,9360.3134765625,18939.17578125,25745.234375,13180.5732421875,15106.201171875,16491.4140625,4169.94091796875,24430.751953125,-6508.8271484375,-0.0,162.9193572998047,9373.82421875,4122.25732421875,20950.63671875,13395.9453125,9047.1904296875,21109.580078125,7708.07275390625,9028.1171875,3502.368896484375,-901.2222290039062,19394.556640625,4920.16455078125,14356.7724609375,6050.2685546875,2996.921630859375,9218.056640625,9897.5498046875,84.2412338256836,4315.37646484375,-956.0584716796875,11214.416015625,32.5838737487793,2226.82958984375,-1105.4674072265625,3201.96142578125,2455.71142578125,19703.70703125,2892.017333984375,10466.5751953125,220.93455505371094,7119.9736328125,22638.638671875,18846.98828125,13184.5478515625,-0.0,-49543.37890625,16259.3515625,5773.703125,0.0,6129.74169921875,0.0,0.0
10505.5166015625,10077.1591796875,26938.119140625,8503.5966796875,24968.783203125,2397.6962890625,3596.941650390625,4101.59423828125,6803.67138671875,3612.04150390625,12798.3095703125,-3546.078857421875,5025.86376953125,0.0,18734.13671875,1606.941162109375,21146.138671875,14718.373046875,6409.486328125,9353.1611328125,18930.435546875,25737.28515625,13173.4208984375,15097.458984375,16472.33984375,4161.19921875,24425.984375,-6515.97998046875,-0.0,154.97207641601562,9367.4658203125,4115.8994140625,20946.66015625,13389.587890625,9039.2431640625,21101.6328125,7702.50927734375,9019.375,3496.805908203125,-905.9906005859375,19385.01953125,4912.2177734375,14348.82421875,6042.32177734375,2992.153076171875,9210.109375,9888.80859375,73.90975952148438,4296.302734375,-970.3636474609375,11210.44140625,25.43131446838379,2222.855712890625,-1112.6199951171875,3199.577392578125,2448.558837890625,19698.9375,2886.454345703125,10466.5751953125,205.03997802734375,7114.41015625,22631.486328125,18840.630859375,13179.779296875,-0.0,-49542.5859375,16260.9423828125,5760.98779296875,0.0,6103.515625,0.0,0.0
10513.46484375,10081.1318359375,26946.068359375,8511.54296875,24975.935546875,2402.464599609375,3605.68359375,4109.54150390625,6811.61865234375,3621.578125,12800.693359375,-3539.72119140625,5038.57958984375,0.0,18740.49609375,1616.47802734375,21152.49609375,14723.9375,6415.04931640625,9365.08203125,18938.3828125,25743.642578125,13179.779296875,15104.611328125,16477.107421875,4163.58349609375,24436.31640625,-6508.0322265625,-0.0,162.9193572998047,9371.439453125,4120.66796875,20952.224609375,13396.740234375,9046.3955078125,21107.197265625,7710.45703125,9025.7333984375,3500.779296875,-897.2485961914062,19393.76171875,4916.98583984375,14357.56640625,6047.88427734375,3001.68994140625,9221.236328125,9892.78125,80.26758575439453,4305.83935546875,-966.3899536132812,11220.7724609375,35.762786865234375,2229.213623046875,-1106.26220703125,3199.577392578125,2446.96923828125,19704.5,2895.1962890625,10472.93359375,212.9872589111328,7118.3837890625,22640.228515625,18850.16796875,13190.1103515625,-0.0,-49532.25390625,16263.326171875,5765.75634765625,0.0,6113.05224609375,0.0,0.0
10516.6435546875,10081.1318359375,26947.65625,8509.1591796875,24985.47265625,2404.053955078125,3610.451904296875,4111.13134765625,6814.7978515625,3623.96240234375,12796.7197265625,-3550.052734375,5036.1953125,0.0,18745.263671875,1618.8621826171875,21154.0859375,14724.7314453125,6417.43310546875,9368.2607421875,18941.560546875,25743.642578125,13182.1630859375,15103.8173828125,16496.181640625,4163.58349609375,24445.8515625,-6506.44287109375,-0.0,162.1246337890625,9373.0283203125,4122.25732421875,20953.01953125,13396.740234375,9049.5751953125,21107.9921875,7712.04638671875,9028.9111328125,3499.98486328125,-902.8117065429688,19402.50390625,4916.98583984375,14363.9248046875,6046.294921875,3005.66357421875,9223.6201171875,9895.9609375,80.26758575439453,4322.52880859375,-964.0057983398438,11223.9521484375,38.94169998168945,2227.624267578125,-1107.8516845703125,3196.3984375,2439.816650390625,19706.091796875,2894.401611328125,10476.1123046875,216.96090698242188,7116.79443359375,22639.43359375,18852.552734375,13190.9052734375,-0.0,-49538.61328125,16261.736328125,5768.9345703125,0.0,6111.462890625,0.0,0.0
10511.875,10081.1318359375,26942.888671875,8506.775390625,24987.0625,2404.053955078125,3609.6572265625,4109.54150390625,6814.0029296875,3622.372802734375,12795.9248046875,-3550.052734375,5012.353515625,0.0,18744.46875,1618.0673828125,21150.908203125,14723.9375,6417.43310546875,9365.8759765625,18937.587890625,25738.080078125,13178.189453125,15102.2275390625,16484.259765625,4162.78857421875,24445.056640625,-6508.0322265625,-0.0,157.35626220703125,9371.439453125,4120.66796875,20948.251953125,13392.765625,9045.6005859375,21106.40234375,7710.45703125,9027.322265625,3496.010986328125,-907.580078125,19398.53125,4915.39599609375,14363.9248046875,6046.294921875,3004.86865234375,9219.646484375,9895.1650390625,83.44650268554688,4324.1181640625,-956.8532104492188,11222.3623046875,35.762786865234375,2226.82958984375,-1111.030517578125,3195.603515625,2436.637939453125,19701.322265625,2892.017333984375,10475.318359375,216.1661834716797,7112.8212890625,22635.458984375,18850.9609375,13187.7255859375,-0.0,-49542.5859375,16260.9423828125,5761.7822265625,0.0,6109.0791015625,0.0,0.0
10506.3125,10073.1845703125,26947.65625,8498.828125,24991.03515625,2402.464599609375,3613.631103515625,4112.720703125,6817.9765625,3629.525390625,12801.48828125,-3544.489501953125,5018.7109375,0.0,18746.056640625,1627.6041259765625,21150.111328125,14726.3212890625,6419.02294921875,9372.234375,18939.17578125,25738.080078125,13180.5732421875,15103.0224609375,16481.876953125,4155.6357421875,24451.4140625,-6508.0322265625,-0.0,146.2300567626953,9369.8505859375,4117.48876953125,20951.4296875,13390.3818359375,9047.9853515625,21107.197265625,7712.8408203125,9027.322265625,3482.500732421875,-910.7589721679688,19400.916015625,4913.01220703125,14368.693359375,6046.294921875,3009.63720703125,9223.6201171875,9895.1650390625,73.11502838134766,4325.7080078125,-959.2374267578125,11225.541015625,38.94169998168945,2216.498046875,-1126.9251708984375,3210.70361328125,2437.4326171875,19704.5,2895.1962890625,10482.470703125,220.93455505371094,7110.43701171875,22637.84375,18854.9375,13193.2900390625,-0.0,-49545.765625,16260.9423828125,5757.80859375,0.0,6119.41015625,0.0,0.0
10505.5166015625,10062.05859375,26948.451171875,8502.0068359375,24996.599609375,2403.25927734375,3618.3994140625,4113.51513671875,6817.9765625,3629.525390625,12803.078125,-3550.052734375,5029.8369140625,0.0,18753.2109375,1627.6041259765625,21151.701171875,14726.3212890625,6421.4072265625,9369.8505859375,18939.97265625,25741.2578125,13184.5478515625,15106.201171875,16484.259765625,4154.8408203125,24465.71875,-6510.41650390625,-0.0,150.99842834472656,9370.64453125,4116.69384765625,20951.4296875,13391.9716796875,9049.5751953125,21107.9921875,7716.02001953125,9031.2958984375,3475.34814453125,-906.7853393554688,19401.708984375,4916.98583984375,14375.845703125,6049.47412109375,3012.021240234375,9227.59375,9881.6552734375,75.49921417236328,4316.17138671875,-964.800537109375,11232.693359375,40.531158447265625,2208.55078125,-1133.282958984375,3190.835205078125,2435.04833984375,19712.447265625,2893.60693359375,10486.443359375,217.75563049316406,7108.84716796875,22640.228515625,18857.3203125,13188.521484375,-0.0,-49546.55859375,16256.173828125,5756.21923828125,0.0,6113.84716796875,0.0,0.0
10509.4912109375,10070.0068359375,26945.271484375,8505.185546875,24989.447265625,2409.6171875,3611.246826171875,4112.720703125,6812.41357421875,3619.194091796875,12804.6669921875,-3554.0263671875,5023.4794921875,0.0,18746.056640625,1618.8621826171875,21152.49609375,14722.34765625,6418.22802734375,9364.287109375,18938.3828125,25743.642578125,13179.779296875,15105.4072265625,16481.080078125,4169.94091796875,24456.181640625,-6508.0322265625,-0.0,150.99842834472656,9371.439453125,4119.873046875,20949.83984375,13395.150390625,9047.1904296875,21111.169921875,7711.251953125,9032.08984375,3491.24267578125,-904.401123046875,19396.146484375,4925.72802734375,14367.8984375,6051.0634765625,3005.66357421875,9222.8251953125,9882.4501953125,74.7044906616211,4298.68701171875,-960.826904296875,11226.3369140625,37.35224533081055,2219.677001953125,-1129.309326171875,3182.09326171875,2442.200927734375,19708.474609375,2895.1962890625,10476.9072265625,208.21888732910156,7112.8212890625,22637.84375,18853.345703125,13182.9580078125,-0.0,-49545.765625,16256.9677734375,5758.603515625,0.0,6104.310546875,0.0,0.0
10509.4912109375,10076.36328125,26935.736328125,8497.23828125,24960.041015625,2403.25927734375,3595.35205078125,4107.9521484375,6803.67138671875,3613.631103515625,12806.255859375,-3552.436767578125,5025.86376953125,0.0,18733.34375,1615.6832275390625,21147.728515625,14712.015625,6407.10205078125,9357.134765625,18928.05078125,25736.490234375,13163.8837890625,15099.048828125,16469.955078125,4163.58349609375,24418.830078125,-6508.8271484375,-0.0,158.15098571777344,9363.4921875,4119.078125,20943.482421875,13388.79296875,9032.8857421875,21102.427734375,7700.125,9023.3486328125,3501.57421875,-908.374755859375,19384.2265625,4915.39599609375,14341.671875,6046.294921875,2995.33203125,9218.8515625,9891.1923828125,67.55193328857422,4296.302734375,-960.826904296875,11211.236328125,33.37860107421875,2229.213623046875,-1124.5408935546875,3186.06689453125,2453.3271484375,19702.115234375,2896.78564453125,10465.78125,205.83470153808594,7112.0263671875,22627.51171875,18846.193359375,13178.984375,-0.0,-49546.55859375,16260.9423828125,5758.603515625,0.0,6102.720703125,0.0,0.0
10507.9013671875,10088.2841796875,26934.146484375,8503.5966796875,24961.62890625,2405.6435546875,3595.35205078125,4111.92578125,6807.6455078125,3619.98876953125,12799.103515625,-3549.258056640625,5021.89013671875,0.0,18733.34375,1622.0411376953125,21150.111328125,14716.7841796875,6411.07568359375,9361.107421875,18929.640625,25740.46484375,13165.4736328125,15103.0224609375,16480.287109375,4173.1201171875,24415.650390625,-6503.26416015625,-0.0,169.27719116210938,9365.8759765625,4120.66796875,20946.66015625,13391.9716796875,9034.474609375,21104.017578125,7699.33056640625,9026.52734375,3500.779296875,-899.6327514648438,19390.583984375,4916.98583984375,14341.671875,6051.0634765625,2996.126953125,9222.0302734375,9872.119140625,75.49921417236328,4305.83935546875,-955.2637939453125,11211.236328125,39.73643112182617,2220.4716796875,-1112.6199951171875,3182.09326171875,2456.506103515625,19702.912109375,2898.375244140625,10466.5751953125,213.78199768066406,7113.61572265625,22630.69140625,18847.783203125,13181.369140625,-0.0,-49546.55859375,16261.736328125,5764.16650390625,0.0,6109.0791015625,0.0,0.0
10507.1064453125,10086.6953125,26933.3515625,8496.443359375,24966.3984375,2409.6171875,3600.915283203125,4113.51513671875,6810.82373046875,3623.167724609375,12798.3095703125,-3544.489501953125,5023.4794921875,0.0,18735.7265625,1622.8358154296875,21149.31640625,14717.5791015625,6413.4599609375,9365.08203125,18930.435546875,25741.2578125,13170.2421875,15103.0224609375,16474.724609375,4169.94091796875,24424.39453125,-6502.4697265625,-0.0,162.9193572998047,9367.4658203125,4120.66796875,20945.8671875,13393.5615234375,9034.474609375,21107.197265625,7702.50927734375,9027.322265625,3499.190185546875,-903.6064453125,19388.994140625,4917.7802734375,14347.2353515625,6054.24267578125,2998.510986328125,9223.6201171875,9867.3505859375,67.55193328857422,4306.63427734375,-953.67431640625,11212.03125,39.73643112182617,2214.90869140625,-1114.20947265625,3196.3984375,2443.79052734375,19702.912109375,2895.990966796875,10467.3701171875,214.57672119140625,7114.41015625,22633.076171875,18850.9609375,13190.1103515625,-0.0,-49541.7890625,16249.8154296875,5769.7294921875,0.0,6121.0,0.0,0.0
10508.6962890625,10077.1591796875,26930.966796875,8494.0595703125,24961.62890625,2411.20654296875,3600.12060546875,4112.720703125,6811.61865234375,3619.98876953125,12802.283203125,-3539.72119140625,5017.12158203125,0.0,18736.521484375,1622.0411376953125,21148.5234375,14715.1943359375,6413.4599609375,9362.697265625,18928.05078125,25740.46484375,13170.2421875,15102.2275390625,16460.41796875,4168.3515625,24425.1875,-6499.29052734375,-0.0,165.3035430908203,9368.2607421875,4120.66796875,20943.482421875,13394.35546875,9030.5009765625,21107.197265625,7703.30419921875,9027.322265625,3499.98486328125,-905.9906005859375,19381.046875,4920.16455078125,14345.6455078125,6055.037109375,3000.895263671875,9222.0302734375,9872.119140625,69.14138793945312,4295.5078125,-952.0848388671875,11212.03125,40.531158447265625,2212.5244140625,-1112.6199951171875,3198.78271484375,2442.995849609375,19701.322265625,2893.60693359375,10468.1650390625,210.6030731201172,7112.8212890625,22632.28125,18850.9609375,13187.7255859375,-0.0,-49531.4609375,16252.994140625,5760.98779296875,0.0,6110.66796875,0.0,0.0
10510.28515625,10076.36328125,26939.7109375,8501.2119140625,24967.98828125,2415.18017578125,3605.68359375,4117.48876953125,6815.59228515625,3627.93603515625,12798.3095703125,-3536.542236328125,5026.65869140625,0.0,18738.111328125,1629.98828125,21154.0859375,14719.1689453125,6418.22802734375,9367.4658203125,18933.615234375,25744.4375,13175.8046875,15107.791015625,16471.544921875,4172.3251953125,24437.109375,-6492.1376953125,-0.0,166.09828186035156,9372.234375,4127.025390625,20949.044921875,13397.5341796875,9036.064453125,21111.96484375,7708.07275390625,9032.8857421875,3502.368896484375,-898.0433349609375,19388.19921875,4924.93310546875,14352.00390625,6059.0107421875,3005.66357421875,9228.388671875,9881.6552734375,72.32030487060547,4301.0712890625,-945.72705078125,11219.978515625,46.09425735473633,2214.114013671875,-1109.441162109375,3203.551025390625,2448.558837890625,19702.912109375,2904.73291015625,10471.34375,213.78199768066406,7111.2314453125,22636.255859375,18856.525390625,13193.2900390625,-0.0,-49525.1015625,16264.1201171875,5759.39794921875,0.0,6105.89990234375,0.0,0.0
10510.28515625,10088.2841796875,26948.451171875,8510.7490234375,24977.525390625,2419.15380859375,3613.631103515625,4123.8466796875,6825.12890625,3642.2412109375,12803.078125,-3535.74755859375,5030.6318359375,0.0,18742.87890625,1632.37255859375,21159.6484375,14725.525390625,6426.17578125,9377.796875,18939.97265625,25750.794921875,13182.1630859375,15114.1484375,16478.697265625,4175.50439453125,24452.208984375,-6490.548828125,-0.0,171.661376953125,9377.0029296875,4133.38330078125,20956.197265625,13405.482421875,9044.806640625,21116.734375,7714.43017578125,9041.626953125,3502.368896484375,-890.0960083007812,19396.146484375,4928.11181640625,14361.541015625,6062.984375,3013.61083984375,9237.92578125,9888.80859375,81.85704803466797,4303.45556640625,-945.72705078125,11229.5146484375,50.86262893676758,2225.239990234375,-1099.109619140625,3213.087890625,2453.3271484375,19698.142578125,2912.680419921875,10480.0859375,225.7029266357422,7115.205078125,22643.408203125,18864.47265625,13198.8525390625,-0.0,-49520.33203125,16271.2724609375,5771.31884765625,0.0,6113.05224609375,0.0,0.0
10507.9013671875,10091.4638671875,26945.271484375,8514.7216796875,24973.55078125,2414.385498046875,3614.42578125,4122.25732421875,6824.33447265625,3646.21484375,12800.693359375,-3532.568603515625,5011.55859375,0.0,18741.2890625,1631.577880859375,21159.6484375,14723.9375,6425.380859375,9377.0029296875,18939.17578125,25748.412109375,13179.779296875,15112.5595703125,16465.1875,4174.70947265625,24446.646484375,-6494.52197265625,-0.0,174.8402862548828,9376.2080078125,4129.40966796875,20954.609375,13404.6865234375,9042.421875,21112.759765625,7712.8408203125,9038.4482421875,3500.779296875,-905.1958618164062,19393.76171875,4928.90673828125,14360.7451171875,6059.0107421875,3012.816162109375,9237.92578125,9884.833984375,89.00960540771484,4286.76611328125,-953.67431640625,11227.130859375,49.27317428588867,2226.034912109375,-1104.6727294921875,3194.014404296875,2461.2744140625,19694.962890625,2913.47509765625,10478.49609375,232.0607452392578,7113.61572265625,22640.228515625,18863.677734375,13186.931640625,-0.0,-49521.921875,16264.9150390625,5783.23974609375,0.0,6121.79443359375,0.0,0.0
10511.0810546875,10085.900390625,26946.86328125,8517.1064453125,24976.73046875,2412.7958984375,3612.04150390625,4119.078125,6810.029296875,3635.088623046875,12804.6669921875,-3527.00537109375,5013.94287109375,0.0,18736.521484375,1634.7567138671875,21158.853515625,14723.9375,6421.4072265625,9362.697265625,18939.17578125,25746.822265625,13176.6005859375,15107.791015625,16469.955078125,4175.50439453125,24435.51953125,-6496.111328125,-0.0,170.07191467285156,9373.82421875,4126.23095703125,20956.197265625,13403.09765625,9042.421875,21111.96484375,7708.86767578125,9032.08984375,3507.13720703125,-913.1431884765625,19396.146484375,4926.52294921875,14360.7451171875,6055.037109375,3007.2529296875,9230.7734375,9887.21875,87.4201431274414,4287.56103515625,-950.4954223632812,11223.9521484375,44.50480270385742,2228.4189453125,-1116.59375,3190.04052734375,2467.63232421875,19696.5546875,2914.269775390625,10468.1650390625,227.29237365722656,7115.205078125,22638.638671875,18857.3203125,13169.4482421875,-0.0,-49517.15625,16256.173828125,5787.2138671875,0.0,6121.0,0.0,0.0
10516.6435546875,10083.5166015625,26949.248046875,8510.7490234375,24970.373046875,2407.23291015625,3600.12060546875,4108.7470703125,6794.9296875,3605.68359375,12814.2041015625,-3534.157958984375,5019.505859375,0.0,18730.1640625,1622.0411376953125,21155.67578125,14717.5791015625,6410.28076171875,9346.0078125,18938.3828125,25742.849609375,13166.2685546875,15099.8427734375,16478.697265625,4171.5302734375,24426.779296875,-6502.4697265625,-0.0,162.9193572998047,9370.64453125,4123.8466796875,20953.814453125,13397.5341796875,9036.8583984375,21107.197265625,7700.125,9023.3486328125,3509.521484375,-898.8380126953125,19396.146484375,4920.16455078125,14348.82421875,6047.08984375,2994.537353515625,9213.2880859375,9896.7548828125,78.67813110351562,4299.48193359375,-949.70068359375,11212.826171875,30.19968605041504,2226.82958984375,-1118.9779052734375,3201.96142578125,2458.095458984375,19689.40234375,2907.912109375,10457.8330078125,202.65579223632812,7120.76806640625,22632.28125,18843.80859375,13165.4736328125,-0.0,-49516.359375,16256.9677734375,5771.31884765625,0.0,6101.13134765625,0.0,0.0
10510.28515625,10078.748046875,26940.50390625,8500.4169921875,24967.98828125,2402.464599609375,3602.504638671875,4108.7470703125,6804.46630859375,3620.783447265625,12802.283203125,-3545.2841796875,5017.916015625,0.0,18734.931640625,1621.246337890625,21150.908203125,14712.810546875,6411.87060546875,9360.3134765625,18932.8203125,25740.46484375,13167.0634765625,15097.458984375,16473.134765625,4160.404296875,24433.931640625,-6508.0322265625,-0.0,154.97207641601562,9366.671875,4115.8994140625,20947.45703125,13391.1767578125,9034.474609375,21104.017578125,7701.71484375,9025.7333984375,3499.98486328125,-902.8117065429688,19392.171875,4913.01220703125,14346.4404296875,6046.294921875,3000.895263671875,9217.2626953125,9887.21875,68.3466567993164,4300.2763671875,-955.2637939453125,11218.388671875,29.404958724975586,2208.55078125,-1126.1304931640625,3201.166748046875,2442.200927734375,19692.580078125,2895.990966796875,10466.5751953125,206.6294403076172,7118.3837890625,22631.486328125,18848.578125,13191.7001953125,-0.0,-49536.2265625,16261.736328125,5764.16650390625,0.0,6127.357421875,0.0,0.0
10502.3388671875,10065.23828125,26932.55859375,8488.49609375,24965.60546875,2392.133056640625,3604.888916015625,4103.978515625,6809.234375,3623.96240234375,12794.3349609375,-3565.947265625,5021.09521484375,0.0,18739.701171875,1614.8885498046875,21142.958984375,14708.0419921875,6411.87060546875,9365.08203125,18926.462890625,25730.927734375,13164.6796875,15091.1015625,16467.5703125,4148.4833984375,24425.984375,-6519.15869140625,-0.0,145.43533325195312,9360.3134765625,4109.54150390625,20941.099609375,13381.640625,9032.08984375,21096.865234375,7700.125,9020.1689453125,3490.447998046875,-918.7062377929688,19386.609375,4905.06494140625,14350.4140625,6038.34765625,3002.484619140625,9217.2626953125,9880.06640625,59.604644775390625,4301.0712890625,-971.1583251953125,11221.568359375,24.636587142944336,2199.013916015625,-1130.8988037109375,3192.4248046875,2422.332763671875,19705.294921875,2880.096435546875,10472.138671875,207.42416381835938,7107.2578125,22625.923828125,18846.193359375,13199.646484375,-0.0,-49561.66015625,16261.736328125,5753.04052734375,0.0,6132.1259765625,0.0,0.0
10489.623046875,10055.701171875,26928.583984375,8480.548828125,24959.24609375,2385.775390625,3589.7890625,4096.826171875,6803.67138671875,3615.22021484375,12784.00390625,-3573.89453125,5018.7109375,0.0,18734.931640625,1605.351806640625,21135.01171875,14704.068359375,6403.9228515625,9359.5185546875,18921.693359375,25722.185546875,13156.7314453125,15086.3330078125,16465.1875,4140.53564453125,24417.2421875,-6526.3115234375,-0.0,133.514404296875,9354.7509765625,4103.18359375,20937.125,13374.48828125,9027.322265625,21089.712890625,7688.9990234375,9011.427734375,3485.6796875,-944.9323120117188,19381.046875,4893.9384765625,14338.4931640625,6030.40087890625,2992.94775390625,9208.51953125,9876.091796875,48.47844314575195,4295.5078125,-979.1055908203125,11198.5205078125,18.278757095336914,2193.450927734375,-1141.230224609375,3181.298583984375,2411.20654296875,19712.447265625,2872.149169921875,10466.5751953125,198.68214416503906,7099.310546875,22619.56640625,18839.041015625,13191.7001953125,-0.0,-49570.3984375,16260.1474609375,5754.62939453125,0.0,6118.61572265625,0.0,0.0
10492.8017578125,10063.6484375,26938.119140625,8490.8798828125,24967.98828125,2390.543701171875,3594.5576171875,4099.21044921875,6799.69775390625,3602.504638671875,12791.1572265625,-3562.768310546875,5022.6845703125,0.0,18734.931640625,1608.5306396484375,21140.576171875,14711.220703125,6402.33349609375,9349.1865234375,18927.255859375,25729.337890625,13162.294921875,15090.306640625,16473.134765625,4150.86767578125,24425.1875,-6519.15869140625,-0.0,146.2300567626953,9360.3134765625,4108.7470703125,20941.892578125,13382.4345703125,9033.6796875,21095.275390625,7692.97265625,9014.6064453125,3491.24267578125,-934.600830078125,19389.787109375,4901.09130859375,14341.671875,6038.34765625,2992.94775390625,9207.7255859375,9878.4765625,59.604644775390625,4301.0712890625,-970.3636474609375,11202.494140625,23.84185791015625,2203.7822265625,-1132.48828125,3188.451171875,2427.10107421875,19709.26953125,2880.096435546875,10467.3701171875,192.32432556152344,7104.07861328125,22624.333984375,18839.041015625,13175.8046875,-0.0,-49556.09375,16257.7626953125,5762.5771484375,0.0,6102.720703125,0.0,0.0
10500.7490234375,10063.6484375,26937.326171875,8485.3173828125,24967.98828125,2388.9541015625,3593.7626953125,4097.62060546875,6796.51904296875,3600.915283203125,12776.8515625,-3561.178955078125,5017.916015625,0.0,18730.1640625,1606.146484375,21142.958984375,14714.400390625,6403.1279296875,9345.2138671875,18928.845703125,25730.1328125,13166.2685546875,15089.51171875,16472.33984375,4154.04638671875,24424.39453125,-6516.7744140625,-0.0,148.61424255371094,9361.107421875,4110.33642578125,20941.892578125,13384.8193359375,9033.6796875,21095.275390625,7692.17822265625,9014.6064453125,3490.447998046875,-916.3220825195312,19391.37890625,4905.859375,14344.8515625,6037.55322265625,2991.3583984375,9206.9306640625,9865.7607421875,59.604644775390625,4297.89208984375,-967.1846923828125,11204.0830078125,26.226043701171875,2206.16650390625,-1135.667236328125,3177.324951171875,2436.637939453125,19702.115234375,2883.275390625,10459.4228515625,191.5295867919922,7101.69482421875,22624.333984375,18836.65625,13163.08984375,-0.0,-49555.30078125,16248.2265625,5764.96142578125,0.0,6094.77392578125,0.0,0.0
10506.3125,10062.853515625,26942.888671875,8485.3173828125,24972.7578125,2391.33837890625,3595.35205078125,4100.0048828125,6799.69775390625,3602.504638671875,12771.2890625,-3561.178955078125,5021.09521484375,0.0,18730.1640625,1610.1201171875,21144.548828125,14714.400390625,6404.7177734375,9345.2138671875,18932.0234375,25731.72265625,13169.4482421875,15091.896484375,16487.439453125,4148.4833984375,24425.1875,-6515.18505859375,-0.0,147.81951904296875,9363.4921875,4114.3095703125,20942.6875,13387.998046875,9036.8583984375,21096.865234375,7692.17822265625,9016.1962890625,3504.753173828125,-913.9378662109375,19395.3515625,4908.24365234375,14348.82421875,6036.75830078125,2993.74267578125,9209.3154296875,9866.5556640625,49.27317428588867,4305.04443359375,-971.1583251953125,11206.4677734375,30.994415283203125,2199.013916015625,-1138.0513916015625,3183.6826171875,2435.04833984375,19702.912109375,2889.63330078125,10458.62890625,195.50323486328125,7102.4892578125,22624.333984375,18835.86328125,13162.294921875,-0.0,-49555.30078125,16245.841796875,5757.80859375,0.0,6094.77392578125,0.0,0.0
10503.927734375,10061.263671875,26946.068359375,8486.9072265625,24975.935546875,2391.33837890625,3597.736328125,4095.236328125,6806.8505859375,3598.531005859375,12784.798828125,-3557.999755859375,5030.6318359375,0.0,18736.521484375,1607.7359619140625,21144.548828125,14712.015625,6403.1279296875,9349.1865234375,18932.0234375,25734.10546875,13171.83203125,15091.896484375,16497.76953125,4146.09912109375,24429.95703125,-6519.15869140625,-0.0,142.2564239501953,9363.4921875,4115.1044921875,20945.072265625,13387.998046875,9036.064453125,21096.865234375,7692.17822265625,9014.6064453125,3492.832275390625,-920.2957153320312,19395.3515625,4907.44921875,14352.00390625,6032.78515625,2996.126953125,9203.751953125,9872.9130859375,42.91534423828125,4312.9921875,-979.1055908203125,11209.6474609375,27.815500259399414,2194.24560546875,-1142.0250244140625,3195.603515625,2428.690673828125,19702.912109375,2886.454345703125,10466.5751953125,186.76121520996094,7103.2841796875,22623.5390625,18837.451171875,13177.39453125,-0.0,-49549.73828125,16255.37890625,5749.06689453125,0.0,6090.00537109375,0.0,0.0
10503.1328125,10059.673828125,26946.068359375,8490.0859375,24975.935546875,2396.9013671875,3602.504638671875,4100.0048828125,6821.15576171875,3608.06787109375,12801.48828125,-3558.794677734375,5033.81103515625,0.0,18740.49609375,1606.941162109375,21148.5234375,14719.1689453125,6407.10205078125,9363.4921875,18935.203125,25739.669921875,13174.2158203125,15095.07421875,16486.64453125,4158.81494140625,24434.724609375,-6518.36376953125,-0.0,136.6933135986328,9367.4658203125,4117.48876953125,20950.63671875,13391.1767578125,9038.4482421875,21100.044921875,7696.94677734375,9018.580078125,3492.832275390625,-911.5537109375,19396.146484375,4913.80712890625,14353.5927734375,6038.34765625,3001.68994140625,9207.7255859375,9881.6552734375,31.789142608642578,4309.0185546875,-975.1319580078125,11214.416015625,30.994415283203125,2210.934814453125,-1143.6143798828125,3197.98779296875,2426.306396484375,19702.912109375,2881.68603515625,10476.9072265625,193.11904907226562,7106.462890625,22625.923828125,18843.015625,13204.4150390625,-0.0,-49552.125,16266.50390625,5750.65625,0.0,6103.515625,0.0,0.0
10485.6494140625,10046.1640625,26926.19921875,8471.01171875,24956.068359375,2384.185791015625,3587.405029296875,4088.878662109375,6810.82373046875,3604.09423828125,12785.59375,-3576.27880859375,5009.17431640625,0.0,18729.369140625,1591.046630859375,21134.21875,14704.86328125,6395.18115234375,9353.1611328125,18919.310546875,25725.365234375,13158.3212890625,15083.1533203125,16457.23828125,4149.2783203125,24419.626953125,-6531.07958984375,-0.0,123.9776611328125,9351.5712890625,4101.59423828125,20934.740234375,13378.4609375,9021.7587890625,21086.53515625,7684.23095703125,9006.6591796875,3480.9111328125,-922.679931640625,19377.8671875,4901.8857421875,14336.9033203125,6027.2216796875,2990.563720703125,9199.7783203125,9880.8603515625,24.636587142944336,4287.56103515625,-986.2581787109375,11202.494140625,17.48402976989746,2203.7822265625,-1151.561767578125,3180.50390625,2412.00146484375,19691.78515625,2861.02294921875,10464.19140625,188.35067749023438,7092.15771484375,22614.001953125,18831.888671875,13189.3154296875,-0.0,-49578.3515625,16257.7626953125,5739.5302734375,0.0,6104.310546875,0.0,0.0
10484.0595703125,10044.5751953125,26921.4296875,8463.0654296875,24951.298828125,2379.41748046875,3582.636474609375,4083.3154296875,6802.876953125,3596.941650390625,12791.951171875,-3583.43115234375,5000.4326171875,0.0,18727.779296875,1591.84130859375,21128.654296875,14693.7373046875,6389.6181640625,9342.830078125,18912.951171875,25719.0078125,13150.3740234375,15078.3857421875,16454.060546875,4143.71484375,24415.650390625,-6535.05322265625,-0.0,120.79874420166016,9347.59765625,4096.03125,20929.177734375,13371.30859375,9015.4013671875,21082.560546875,7679.46240234375,9001.8916015625,3476.142822265625,-928.2429809570312,19373.09765625,4892.34912109375,14332.134765625,6023.248046875,2982.616455078125,9195.8046875,9882.4501953125,44.50480270385742,4285.1767578125,-992.6160278320312,11196.9306640625,13.51038646697998,2199.808837890625,-1148.3828125,3181.298583984375,2409.6171875,19691.78515625,2863.4072265625,10456.244140625,185.17176818847656,7087.3896484375,22607.64453125,18824.736328125,13175.0107421875,-0.0,-49588.6796875,16252.994140625,5734.76171875,0.0,6090.7998046875,0.0,0.0
10488.033203125,10056.49609375,26924.609375,8475.7802734375,24952.888671875,2377.827880859375,3585.8154296875,4087.289306640625,6806.0556640625,3597.736328125,12795.9248046875,-3573.099853515625,5002.81689453125,0.0,18732.546875,1593.430908203125,21135.01171875,14696.12109375,6392.001953125,9345.2138671875,18915.333984375,25722.185546875,13151.962890625,15079.1806640625,16452.470703125,4141.33056640625,24420.419921875,-6534.25830078125,-0.0,127.95130920410156,9349.1865234375,4102.388671875,20931.5625,13376.0771484375,9018.580078125,21083.35546875,7681.8466796875,9004.275390625,3482.500732421875,-920.2957153320312,19376.27734375,4892.34912109375,14336.109375,6023.248046875,2987.384765625,9195.8046875,9880.06640625,54.836273193359375,4285.97119140625,-993.4107055664062,11202.494140625,13.51038646697998,2204.5771484375,-1138.0513916015625,3178.914306640625,2412.00146484375,19697.34765625,2875.328125,10463.3974609375,185.17176818847656,7089.7734375,22608.439453125,18828.7109375,13176.6005859375,-0.0,-49574.375,16260.1474609375,5737.9404296875,0.0,6086.03125,0.0,0.0
10491.2119140625,10064.4423828125,26926.19921875,8482.9326171875,24956.861328125,2383.39111328125,3589.7890625,4094.44189453125,6810.029296875,3605.68359375,12785.59375,-3564.357666015625,5010.763671875,0.0,18738.904296875,1605.351806640625,21138.19140625,14701.68359375,6398.35986328125,9352.3662109375,18918.513671875,25723.775390625,13155.9375,15083.94921875,16450.8828125,4143.71484375,24426.779296875,-6527.10595703125,-0.0,131.92494201660156,9351.5712890625,4107.9521484375,20935.53515625,13380.8447265625,9023.3486328125,21088.123046875,7685.8203125,9010.6328125,3485.6796875,-917.9114990234375,19379.45703125,4897.91259765625,14340.8779296875,6030.40087890625,2992.94775390625,9206.1357421875,9873.7080078125,55.63100051879883,4288.35546875,-987.84765625,11207.2626953125,18.278757095336914,2211.729736328125,-1133.282958984375,3171.76171875,2415.974853515625,19698.9375,2880.89111328125,10471.34375,191.5295867919922,7094.5419921875,22613.20703125,18834.271484375,13178.984375,-0.0,-49567.22265625,16269.68359375,5736.35107421875,0.0,6102.720703125,0.0,0.0
10492.0068359375,10062.05859375,26927.7890625,8487.701171875,24963.220703125,2386.570068359375,3588.994384765625,4091.2626953125,6798.90283203125,3603.29931640625,12776.0576171875,-3571.51025390625,5009.96923828125,0.0,18730.958984375,1606.146484375,21138.986328125,14704.068359375,6396.7705078125,9345.2138671875,18920.103515625,25727.748046875,13157.52734375,15084.7431640625,16473.927734375,4146.89404296875,24424.39453125,-6526.3115234375,-0.0,135.89859008789062,9355.544921875,4108.7470703125,20937.919921875,13381.640625,9024.9375,21090.5078125,7685.8203125,9009.837890625,3485.6796875,-922.679931640625,19385.01953125,4900.296875,14340.8779296875,6031.990234375,2986.590087890625,9203.751953125,9870.529296875,61.98883056640625,4295.5078125,-980.6951293945312,11204.87890625,13.51038646697998,2214.114013671875,-1140.435546875,3170.967041015625,2423.12744140625,19691.78515625,2876.91748046875,10461.0126953125,185.96649169921875,7095.3369140625,22613.20703125,18830.298828125,13163.08984375,-0.0,-49568.015625,16261.736328125,5734.76171875,0.0,6097.15771484375,0.0,0.0
10495.98046875,10059.673828125,26925.40625,8486.9072265625,24959.24609375,2385.775390625,3586.610107421875,4088.878662109375,6797.3134765625,3603.29931640625,12782.4140625,-3567.53662109375,5006.7900390625,0.0,18726.19140625,1595.020263671875,21136.6015625,14701.68359375,6395.18115234375,9341.240234375,18916.92578125,25725.365234375,13153.552734375,15084.7431640625,16481.876953125,4147.6884765625,24418.03515625,-6529.490234375,-0.0,140.66696166992188,9354.7509765625,4106.36279296875,20937.125,13380.05078125,9022.5537109375,21089.712890625,7683.43603515625,9009.0439453125,3488.063720703125,-925.8588256835938,19378.662109375,4901.09130859375,14336.9033203125,6033.57958984375,2982.616455078125,9198.9833984375,9870.529296875,64.37301635742188,4295.5078125,-972.747802734375,11201.69921875,11.126200675964355,2211.729736328125,-1142.8197021484375,3172.556640625,2426.306396484375,19691.78515625,2868.97021484375,10456.244140625,185.96649169921875,7098.51611328125,22614.001953125,18831.095703125,13160.705078125,-0.0,-49564.046875,16260.1474609375,5751.451171875,0.0,6099.5419921875,0.0,0.0
10497.5703125,10056.49609375,26918.25390625,8484.5224609375,24948.12109375,2383.39111328125,3581.841796875,4088.083740234375,6796.51904296875,3603.29931640625,12785.59375,-3565.15234375,5006.7900390625,0.0,18723.01171875,1592.6361083984375,21131.833984375,14696.12109375,6392.001953125,9341.240234375,18910.56640625,25721.392578125,13145.6064453125,15082.359375,16457.23828125,4150.86767578125,24414.0625,-6530.28466796875,-0.0,134.3091278076172,9347.59765625,4103.18359375,20932.35546875,13376.8720703125,9015.4013671875,21086.53515625,7678.66748046875,9008.248046875,3487.26904296875,-934.600830078125,19365.9453125,4897.91259765625,14332.134765625,6032.78515625,2981.82177734375,9198.1884765625,9863.376953125,45.299530029296875,4283.5869140625,-974.3372802734375,11197.7265625,11.920928955078125,2205.371826171875,-1147.588134765625,3175.7353515625,2421.5380859375,19690.1953125,2866.5859375,10453.064453125,188.35067749023438,7096.92626953125,22611.6171875,18828.7109375,13163.8837890625,-0.0,-49560.0703125,16258.55859375,5754.62939453125,0.0,6101.13134765625,0.0,0.0
