12926.2607421875,12252.3310546875,29894.509765625,9563.763671875,25854.90625,3798.008056640625,5587.73681640625,6691.61474609375,6825.12890625,4375.77587890625,12111.6640625,-1024.4051513671875,6879.1708984375,0.0,20314.05859375,3947.416748046875,22466.18359375,17432.37109375,7116.79443359375,9512.9013671875,20805.201171875,27197.203125,18242.201171875,16798.97265625,18796.919921875,4507.70068359375,26400.884765625,-2224.4453125,0.0,452.99530029296875,11574.427734375,3866.354736328125,23314.953125,14302.73046875,12354.056640625,21927.357421875,6950.6962890625,11556.1484375,6039.9375,963.2110595703125,20606.517578125,6785.392578125,14576.912109375,9276.8671875,6268.0244140625,9721.9150390625,9986.5595703125,758.1710815429688,7468.859375,831.2861328125,14016.6279296875,3910.064697265625,7034.14306640625,1519.5211181640625,8931.16015625,2768.039794921875,21510.919921875,2455.71142578125,15059.3115234375,1569.5889892578125,7391.77099609375,23857.751953125,18788.1796875,10889.37109375,-0.0,-47617.75390625,17338.59375,3689.130126953125,0.0,6278.35595703125,0.0,0.0
12928.6455078125,12268.2255859375,29918.3515625,9585.2216796875,25881.1328125,3821.849853515625,5609.9892578125,6714.662109375,6853.7392578125,4400.412109375,12128.353515625,-1003.7421875,6903.0126953125,0.0,20329.15625,3970.464111328125,22488.435546875,17454.625,7140.63623046875,9542.3056640625,20829.04296875,27220.25,18266.04296875,16822.814453125,18827.119140625,4531.54248046875,26419.162109375,-2199.013916015625,0.0,472.863525390625,11597.4736328125,3887.812255859375,23339.58984375,14325.7783203125,12379.4873046875,21949.609375,6972.94873046875,11579.1962890625,6059.0107421875,988.642333984375,20633.5390625,6806.0556640625,14601.5478515625,9301.5029296875,6290.27685546875,9745.7568359375,10002.4541015625,778.039306640625,7495.08544921875,863.0752563476562,14038.0859375,3935.495849609375,7087.3896484375,1542.5682373046875,8951.0283203125,2780.75537109375,21532.376953125,2480.347900390625,15078.3857421875,1593.430908203125,7411.638671875,23880.00390625,18812.021484375,10926.7236328125,-0.0,-47595.5,17351.30859375,3707.408935546875,0.0,6292.6611328125,0.0,0.0
12941.3603515625,12273.7880859375,29917.55859375,9587.60546875,25879.541015625,3829.00244140625,5609.1943359375,6725.7880859375,6860.09716796875,4412.3330078125,12121.9951171875,-998.973876953125,6910.16552734375,0.0,20332.3359375,3984.769287109375,22492.408203125,17457.0078125,7146.19970703125,9551.0478515625,20832.220703125,27225.8125,18267.630859375,16827.583984375,18832.68359375,4537.10546875,26404.0625,-2190.27197265625,0.0,476.837158203125,11601.4482421875,3892.580810546875,23341.1796875,14330.5458984375,12381.0771484375,21954.37890625,6973.74365234375,11584.7587890625,6060.60009765625,992.6160278320312,20635.923828125,6812.41357421875,14597.5751953125,9308.6552734375,6295.04541015625,9754.498046875,9984.17578125,792.3444213867188,7507.80126953125,868.6383666992188,14034.9072265625,3947.416748046875,7112.8212890625,1548.926025390625,8946.259765625,2791.0869140625,21538.734375,2490.679443359375,15083.1533203125,1610.1201171875,7416.4072265625,23880.00390625,18819.966796875,10941.8232421875,-0.0,-47589.9375,17358.4609375,3728.86669921875,0.0,6322.86083984375,0.0,0.0
12935.001953125,12253.125,29897.689453125,9565.353515625,25867.62109375,3805.955078125,5586.9423828125,6702.7412109375,6837.8447265625,4390.87548828125,12106.8955078125,-1022.815673828125,6901.4228515625,0.0,20318.03125,3964.106201171875,22475.71875,17437.138671875,7125.53662109375,9526.412109375,20817.12109375,27204.35546875,18248.55859375,16807.71484375,18825.53125,4506.90625,26392.9375,-2211.729736328125,0.0,454.5847473144531,11583.1689453125,3873.50732421875,23324.490234375,14310.677734375,12362.0029296875,21933.71484375,6953.08056640625,11564.095703125,6046.294921875,967.1846923828125,20622.412109375,6787.77685546875,14578.501953125,9287.1982421875,6275.1767578125,9732.24609375,9964.306640625,776.4498291015625,7503.82763671875,835.259765625,14014.244140625,3926.75390625,7100.900390625,1522.699951171875,8935.9287109375,2773.602783203125,21529.9921875,2468.427001953125,15064.080078125,1587.072998046875,7398.12841796875,23857.751953125,18797.716796875,10911.6240234375,-0.0,-47619.34375,17356.873046875,3710.587646484375,0.0,6302.9921875,0.0,0.0
12927.849609375,12235.6416015625,29882.58984375,9554.2265625,25850.931640625,3787.676513671875,5574.2265625,6684.4619140625,6821.15576171875,4371.00732421875,12106.8955078125,-1043.4786376953125,6890.296875,0.0,20306.90625,3946.622314453125,22459.826171875,17422.041015625,7108.84716796875,9505.7490234375,20802.81640625,27190.84375,18234.25390625,16788.640625,18809.63671875,4487.03759765625,26383.400390625,-2231.597900390625,0.0,435.5112609863281,11569.6591796875,3859.996826171875,23310.18359375,14296.3720703125,12348.4921875,21916.23046875,6938.775390625,11546.611328125,6036.75830078125,952.0848388671875,20606.517578125,6771.087890625,14566.5810546875,9269.71484375,6259.28271484375,9713.1728515625,9957.94921875,763.7341918945312,7479.19091796875,814.5968017578125,14004.70703125,3906.091064453125,7086.59521484375,1504.4212646484375,8943.0810546875,2748.96630859375,21518.072265625,2448.558837890625,15049.775390625,1567.99951171875,7386.20751953125,23844.2421875,18779.435546875,10885.3974609375,-0.0,-47636.03125,17343.36328125,3693.8984375,0.0,6283.12451171875,0.0,0.0
12929.439453125,12221.3359375,29865.107421875,9546.2802734375,25837.421875,3772.57666015625,5560.71630859375,6668.56787109375,6805.26123046875,4351.93408203125,12093.384765625,-1063.346923828125,6876.78662109375,0.0,20298.162109375,3925.164794921875,22448.697265625,17406.94140625,7094.5419921875,9487.4697265625,20789.3046875,27179.71875,18222.33203125,16771.951171875,18786.587890625,4475.11669921875,26372.2734375,-2249.876708984375,0.0,423.59033203125,11556.943359375,3850.4599609375,23298.263671875,14286.041015625,12334.982421875,21901.130859375,6923.67578125,11529.1279296875,6021.658203125,942.548095703125,20589.828125,6759.16650390625,14553.8642578125,9253.8193359375,6247.36181640625,9696.4833984375,9939.6708984375,752.6079711914062,7462.50146484375,793.933837890625,13992.7861328125,3886.222900390625,7064.34228515625,1491.70556640625,8925.59765625,2739.429443359375,21506.9453125,2431.86962890625,15038.6494140625,1548.926025390625,7375.08154296875,23829.142578125,18764.337890625,10859.9658203125,-0.0,-47648.74609375,17333.826171875,3667.67236328125,0.0,6255.30859375,0.0,0.0
12938.9765625,12227.6943359375,29869.080078125,9554.2265625,25846.162109375,3779.729248046875,5570.2529296875,6676.51513671875,6816.38720703125,4359.880859375,12098.1533203125,-1052.220703125,6872.81298828125,0.0,20297.369140625,3935.495849609375,22458.234375,17416.4765625,7104.07861328125,9495.41796875,20797.251953125,27188.458984375,18231.07421875,16779.900390625,18788.97265625,4480.68017578125,26380.220703125,-2243.518798828125,0.0,432.3323669433594,11564.095703125,3857.612548828125,23305.416015625,14294.783203125,12342.9296875,21910.66796875,6930.828125,11537.0751953125,6025.63232421875,952.0848388671875,20597.77734375,6767.1142578125,14563.4013671875,9260.177734375,6256.103515625,9702.841796875,9943.64453125,757.3763427734375,7472.8330078125,794.7285766601562,13997.5546875,3891.785888671875,7065.931640625,1498.858154296875,8916.8544921875,2751.350341796875,21504.560546875,2441.40625,15039.4443359375,1556.07861328125,7376.6708984375,23836.294921875,18770.6953125,10869.5029296875,-0.0,-47642.390625,17340.978515625,3674.824951171875,0.0,6266.43505859375,0.0,0.0
12941.3603515625,12236.435546875,29881.794921875,9558.9951171875,25862.05859375,3785.29248046875,5582.96826171875,6686.0517578125,6827.51318359375,4369.41748046875,12102.921875,-1041.88916015625,6879.96533203125,0.0,20306.111328125,3947.416748046875,22466.978515625,17426.80859375,7113.61572265625,9505.7490234375,20808.37890625,27197.99609375,18242.201171875,16791.025390625,18800.099609375,4484.6533203125,26396.91015625,-2233.1875,0.0,440.2796325683594,11573.6318359375,3866.354736328125,23314.953125,14302.73046875,12354.8505859375,21920.205078125,6941.9541015625,11548.201171875,6032.78515625,961.62158203125,20608.90234375,6772.6767578125,14577.7060546875,9268.919921875,6265.64013671875,9715.556640625,9958.744140625,762.1447143554688,7484.75390625,798.7022705078125,14010.2705078125,3905.29638671875,7069.90576171875,1506.0106201171875,8926.3916015625,2756.913330078125,21509.328125,2456.506103515625,15047.390625,1571.178466796875,7379.85009765625,23847.421875,18783.41015625,10881.423828125,-0.0,-47632.05859375,17340.18359375,3688.33544921875,0.0,6278.35595703125,0.0,0.0
12948.5126953125,12248.3564453125,29896.89453125,9571.7119140625,25880.3359375,3800.39208984375,5600.45263671875,6701.9462890625,6844.99755859375,4386.10693359375,12113.25390625,-1029.1734619140625,6880.76025390625,0.0,20320.416015625,3964.106201171875,22479.693359375,17441.115234375,7128.71533203125,9524.822265625,20824.2734375,27210.712890625,18259.68359375,16805.330078125,18816.7890625,4499.75341796875,26420.751953125,-2215.703369140625,0.0,449.8163757324219,11588.732421875,3876.68603515625,23327.669921875,14317.0361328125,12370.74609375,21936.09765625,6957.84912109375,11564.890625,6043.1162109375,971.9530639648438,20625.591796875,6786.1875,14595.19140625,9283.224609375,6282.32958984375,9731.4521484375,9980.99609375,773.2709350585938,7491.90673828125,817.7757568359375,14029.34375,3922.780517578125,7077.8525390625,1520.3157958984375,8943.0810546875,2761.681884765625,21500.587890625,2464.453369140625,15062.4912109375,1591.046630859375,7390.18115234375,23864.111328125,18800.89453125,10901.2919921875,-0.0,-47615.3671875,17336.2109375,3708.20361328125,0.0,6298.22412109375,0.0,0.0
12989.8388671875,12298.4248046875,29937.42578125,9620.984375,25912.126953125,3851.254638671875,5645.751953125,6750.4248046875,6895.0654296875,4436.1748046875,12148.220703125,-988.642333984375,6911.75439453125,0.0,20360.150390625,4011.789794921875,22528.171875,17488.001953125,7176.3994140625,9576.4794921875,20864.8046875,27259.984375,18305.779296875,16853.80859375,18851.7578125,4551.41064453125,26454.92578125,-2170.40380859375,0.0,500.67901611328125,11634.826171875,3923.574951171875,23371.37890625,14366.3095703125,12412.0712890625,21985.373046875,7006.3271484375,11613.369140625,6089.21044921875,1020.4315185546875,20661.353515625,6838.6396484375,14634.9267578125,9330.9091796875,6330.80810546875,9779.1357421875,10024.70703125,826.5177612304688,7523.6953125,872.6119995117188,14077.822265625,3970.464111328125,7118.3837890625,1574.357421875,8973.28125,2806.9814453125,21528.40234375,2514.521240234375,15109.3798828125,1635.551513671875,7433.09619140625,23911.794921875,18849.373046875,10959.3076171875,-0.0,-47571.66015625,17364.025390625,3761.450439453125,0.0,6349.0869140625,0.0,0.0
12974.7392578125,12284.119140625,29913.583984375,9604.294921875,25884.310546875,3838.5390625,5629.857421875,6736.11962890625,6879.1708984375,4423.45947265625,12130.7373046875,-995.794921875,6910.16552734375,0.0,20349.025390625,3999.868896484375,22512.27734375,17472.90234375,7160.5048828125,9559.791015625,20844.140625,27245.6796875,18287.5,16837.916015625,18828.7109375,4539.48974609375,26427.904296875,-2184.708740234375,0.0,485.57916259765625,11618.931640625,3906.091064453125,23352.3046875,14351.208984375,12392.203125,21969.4765625,6990.4326171875,11599.0634765625,6070.13720703125,1003.7421875,20632.744140625,6825.923828125,14614.2646484375,9318.98828125,6314.11865234375,9765.625,10002.4541015625,808.239013671875,7505.4169921875,860.6910400390625,14057.9541015625,3959.337646484375,7104.87353515625,1561.6417236328125,8951.8232421875,2800.62353515625,21538.734375,2499.42138671875,15095.8701171875,1624.42529296875,7419.5859375,23895.8984375,18835.068359375,10941.0283203125,-0.0,-47582.78515625,17360.052734375,3751.913818359375,0.0,6339.5498046875,0.0,0.0
12929.439453125,12247.5625,29877.8203125,9562.96875,25849.341796875,3798.802734375,5582.173828125,6697.97265625,6843.408203125,4386.10693359375,12098.9482421875,-1029.96826171875,6902.2177734375,0.0,20309.2890625,3961.721923828125,22472.5390625,17433.9609375,7121.56298828125,9522.4384765625,20807.583984375,27206.740234375,18246.173828125,16800.5625,18794.537109375,4500.5478515625,26374.658203125,-2223.650634765625,0.0,445.0480041503906,11582.375,3863.970458984375,23314.158203125,14312.267578125,12354.056640625,21932.125,6947.517578125,11560.9169921875,6025.63232421875,967.1846923828125,20596.98046875,6784.59765625,14568.169921875,9280.8408203125,6274.38232421875,9729.0673828125,9965.1025390625,767.7078247070312,7470.44873046875,822.5440673828125,13998.349609375,3925.164794921875,7059.57421875,1525.87890625,8931.16015625,2764.06591796875,21533.966796875,2460.479736328125,15056.927734375,1589.4571533203125,7392.5654296875,23856.958984375,18795.33203125,10906.060546875,-0.0,-47623.31640625,17350.515625,3707.408935546875,0.0,6297.4296875,0.0,0.0
12913.544921875,12239.615234375,29866.6953125,9551.0478515625,25839.009765625,3788.47119140625,5566.27880859375,6686.0517578125,6825.923828125,4371.8017578125,12094.1796875,-1039.5050048828125,6898.244140625,0.0,20293.39453125,3949.801025390625,22462.208984375,17423.62890625,7108.84716796875,9508.1328125,20795.6640625,27195.611328125,18232.6640625,16790.232421875,18790.564453125,4487.83251953125,26358.763671875,-2234.77685546875,0.0,436.3059997558594,11571.248046875,3856.023193359375,23303.828125,14299.5517578125,12342.9296875,21921.79296875,6933.21240234375,11550.5859375,6022.453125,963.2110595703125,20589.828125,6773.4716796875,14554.66015625,9269.71484375,6260.0771484375,9716.3515625,9950.001953125,755.786865234375,7458.52783203125,809.8284301757812,13984.0439453125,3912.448974609375,7048.4482421875,1513.9580078125,8935.1337890625,2749.760986328125,21526.814453125,2452.532470703125,15038.6494140625,1568.794189453125,7385.41259765625,23845.830078125,18780.232421875,10887.7822265625,-0.0,-47634.44140625,17338.59375,3690.7197265625,0.0,6285.5087890625,0.0,0.0
12927.0556640625,12249.15234375,29872.259765625,9566.1474609375,25851.7265625,3800.39208984375,5584.55810546875,6696.3828125,6836.25537109375,4380.5439453125,12094.974609375,-1025.99462890625,6895.8603515625,0.0,20306.111328125,3963.311767578125,22472.5390625,17437.138671875,7123.15234375,9515.28515625,20805.994140625,27206.740234375,18246.96875,16804.537109375,18802.484375,4500.5478515625,26377.8359375,-2218.08740234375,0.0,448.2269287109375,11580.78515625,3865.559814453125,23309.388671875,14311.47265625,12353.2607421875,21933.71484375,6949.10693359375,11562.5068359375,6035.1689453125,969.5689086914062,20600.16015625,6786.98193359375,14570.5537109375,9283.224609375,6271.20361328125,9728.2724609375,9946.8232421875,768.5025634765625,7472.0380859375,820.9546508789062,14003.1171875,3921.190673828125,7056.39501953125,1521.9052734375,8936.72265625,2765.655517578125,21523.634765625,2470.81103515625,15050.5703125,1578.3310546875,7394.94921875,23859.341796875,18791.357421875,10894.1396484375,-0.0,-47619.34375,17337.798828125,3696.28271484375,0.0,6295.83984375,0.0,0.0
12927.849609375,12242.0,29871.462890625,9562.96875,25852.521484375,3799.597412109375,5589.326171875,6699.56201171875,6844.99755859375,4390.0810546875,12088.6162109375,-1036.3260498046875,6889.501953125,0.0,20312.466796875,3961.721923828125,22470.951171875,17434.755859375,7128.71533203125,9524.822265625,20805.201171875,27208.328125,18250.146484375,16806.921875,18796.125,4500.5478515625,26385.783203125,-2221.2666015625,0.0,439.48492431640625,11579.990234375,3859.996826171875,23308.595703125,14310.677734375,12355.6455078125,21934.509765625,6953.875,11566.4794921875,6028.81103515625,960.826904296875,20596.98046875,6785.392578125,14573.7333984375,9283.224609375,6279.150390625,9733.041015625,9946.8232421875,764.5289306640625,7471.2431640625,821.7493896484375,14011.8603515625,3922.780517578125,7054.8056640625,1516.3421630859375,8928.775390625,2764.06591796875,21522.044921875,2459.68505859375,15060.107421875,1588.6624755859375,7388.591796875,23864.904296875,18799.3046875,10907.650390625,-0.0,-47630.46875,17345.74609375,3712.17724609375,0.0,6318.88720703125,0.0,0.0
12919.90234375,12227.6943359375,29860.337890625,9552.6376953125,25842.189453125,3786.881591796875,5579.78955078125,6685.2568359375,6826.71875,4373.3916015625,12065.5703125,-1049.041748046875,6877.5810546875,0.0,20300.546875,3941.05908203125,22462.208984375,17422.833984375,7116.79443359375,9507.3388671875,20794.869140625,27196.408203125,18239.81640625,16793.41015625,18782.615234375,4488.626953125,26376.248046875,-2241.134765625,0.0,425.9745178222656,11568.8642578125,3848.075927734375,23298.263671875,14300.3466796875,12343.724609375,21924.177734375,6941.9541015625,11552.1748046875,6017.68505859375,947.3164672851562,20585.85546875,6775.06103515625,14563.4013671875,9268.919921875,6266.43505859375,9717.146484375,9934.90234375,749.4290771484375,7461.70654296875,805.06005859375,13999.14453125,3903.706787109375,7047.6533203125,1505.2159423828125,8914.470703125,2744.992431640625,21510.125,2440.611572265625,15047.390625,1568.794189453125,7375.08154296875,23852.189453125,18786.587890625,10885.3974609375,-0.0,-47642.390625,17336.2109375,3689.130126953125,0.0,6292.6611328125,0.0,0.0
12927.849609375,12242.0,29861.927734375,9566.1474609375,25853.314453125,3800.39208984375,5591.71044921875,6693.20458984375,6834.666015625,4374.98095703125,12080.6689453125,-1031.5577392578125,6884.73388671875,0.0,20310.87890625,3940.26416015625,22473.3359375,17435.55078125,7127.1259765625,9514.4912109375,20805.201171875,27209.123046875,18251.73828125,16805.330078125,18797.716796875,4504.52197265625,26386.580078125,-2229.213623046875,0.0,441.0743713378906,11581.580078125,3862.380859375,23309.388671875,14313.0615234375,12354.056640625,21937.689453125,6953.875,11561.7109375,6027.2216796875,963.2110595703125,20595.392578125,6789.3662109375,14576.1171875,9280.0458984375,6276.76611328125,9722.7099609375,9936.4921875,768.5025634765625,7469.654296875,820.9546508789062,14010.2705078125,3907.680419921875,7067.521484375,1519.5211181640625,8920.033203125,2757.708251953125,21514.892578125,2443.79052734375,15056.1328125,1567.204833984375,7387.00244140625,23863.31640625,18794.537109375,10891.7548828125,-0.0,-47627.2890625,17341.771484375,3674.824951171875,0.0,6267.2294921875,0.0,0.0
12940.56640625,12255.509765625,29881.794921875,9582.8369140625,25872.388671875,3825.028564453125,5612.37353515625,6716.25146484375,6856.91845703125,4397.2333984375,12109.279296875,-1006.921142578125,6893.47607421875,0.0,20329.15625,3961.721923828125,22493.205078125,17457.0078125,7148.583984375,9540.716796875,20826.658203125,27232.169921875,18270.810546875,16828.37890625,18812.814453125,4529.953125,26405.65234375,-2203.7822265625,0.0,464.1214904785156,11603.0380859375,3883.0439453125,23330.052734375,14332.9306640625,12373.923828125,21959.939453125,6974.5380859375,11583.9638671875,6051.0634765625,984.668701171875,20613.669921875,6813.2080078125,14597.5751953125,9303.0927734375,6296.634765625,9744.9619140625,9965.896484375,789.960205078125,7488.7275390625,851.9490356445312,14030.93359375,3929.13818359375,7081.03173828125,1540.18408203125,8929.5703125,2776.78173828125,21528.40234375,2466.837646484375,15078.3857421875,1587.86767578125,7400.5126953125,23886.361328125,18817.583984375,10921.1611328125,-0.0,-47602.65234375,17359.255859375,3697.8720703125,0.0,6281.53466796875,0.0,0.0
12923.0810546875,12249.15234375,29894.509765625,9589.1953125,25883.515625,3829.797119140625,5619.52587890625,6721.814453125,6860.09716796875,4406.77001953125,12111.6640625,-1008.5106201171875,6905.39697265625,0.0,20332.3359375,3972.848388671875,22501.9453125,17462.572265625,7154.94140625,9547.8701171875,20837.783203125,27236.9375,18277.962890625,16833.94140625,18822.3515625,4532.33740234375,26419.162109375,-2201.398193359375,0.0,468.09515380859375,11611.779296875,3888.60693359375,23339.58984375,14337.69921875,12383.4609375,21964.708984375,6978.51171875,11589.52734375,6052.65283203125,989.4371337890625,20626.38671875,6815.59228515625,14607.90625,9306.271484375,6302.19775390625,9752.1142578125,9978.6123046875,794.7285766601562,7502.23779296875,851.9490356445312,14038.8798828125,3937.085693359375,7071.4951171875,1537.7998046875,8947.0546875,2779.166015625,21533.966796875,2479.55322265625,15083.94921875,1598.19921875,7401.3076171875,23891.92578125,18823.94140625,10923.544921875,-0.0,-47603.4453125,17367.998046875,3716.945556640625,0.0,6306.96630859375,0.0,0.0
12896.85546875,12245.177734375,29883.384765625,9576.4794921875,25873.98046875,3815.491943359375,5608.39990234375,6712.27783203125,6839.43408203125,4394.84912109375,12090.2060546875,-1021.2262573242188,6891.88623046875,0.0,20322.00390625,3964.90087890625,22489.228515625,17449.060546875,7141.43115234375,9531.1806640625,20825.86328125,27223.4296875,18264.451171875,16822.01953125,18806.45703125,4522.80029296875,26409.626953125,-2215.703369140625,0.0,459.3531188964844,11599.8583984375,3875.891357421875,23329.2578125,14326.572265625,12373.1298828125,21952.787109375,6965.7958984375,11577.6064453125,6043.9111328125,979.1055908203125,20616.849609375,6802.876953125,14595.9853515625,9292.76171875,6287.892578125,9739.3994140625,9961.9228515625,785.986572265625,7486.34326171875,832.080810546875,14026.958984375,3927.548828125,7042.08984375,1526.6737060546875,8929.5703125,2780.75537109375,21522.044921875,2473.990234375,15071.232421875,1587.86767578125,7391.77099609375,23880.00390625,18811.2265625,10902.8818359375,-0.0,-47613.78125,17355.283203125,3706.6142578125,0.0,6304.58203125,0.0,0.0
12918.3134765625,12245.97265625,29881.0,9570.916015625,25870.00390625,3811.518310546875,5604.42578125,6708.3037109375,6835.46044921875,4392.46533203125,12078.28515625,-1019.6367797851562,6886.3232421875,0.0,20318.826171875,3964.106201171875,22485.255859375,17444.29296875,7138.25244140625,9529.5908203125,20822.68359375,27219.453125,18261.2734375,16818.046875,18798.509765625,4514.85302734375,26398.5,-2218.08740234375,0.0,452.2005615234375,11596.6796875,3871.123046875,23323.693359375,14321.8037109375,12369.9501953125,21949.609375,6962.6171875,11575.2216796875,6043.9111328125,974.3372802734375,20613.669921875,6798.1083984375,14589.626953125,9291.966796875,6283.9189453125,9737.0146484375,9947.6171875,779.6287841796875,7474.42236328125,828.9019165039062,14022.986328125,3926.75390625,7022.22216796875,1524.2894287109375,8923.212890625,2771.218505859375,21518.072265625,2473.1953125,15069.6435546875,1585.4835205078125,7391.77099609375,23879.208984375,18807.251953125,10905.265625,-0.0,-47609.01171875,17344.951171875,3707.408935546875,0.0,6300.6083984375,0.0,0.0
12921.4921875,12247.5625,29891.33203125,9575.6845703125,25875.568359375,3813.902587890625,5605.220703125,6709.8935546875,6837.0498046875,4394.05419921875,12079.080078125,-1014.07373046875,6895.0654296875,0.0,20323.595703125,3961.721923828125,22490.025390625,17449.060546875,7141.43115234375,9534.359375,20828.24609375,27222.6328125,18263.658203125,16822.01953125,18808.046875,4516.44287109375,26395.3203125,-2217.292724609375,0.0,455.3794860839844,11599.0634765625,3871.917724609375,23329.2578125,14323.3935546875,12374.71875,21953.58203125,6965.00146484375,11577.6064453125,6021.658203125,971.1583251953125,20619.234375,6799.69775390625,14595.19140625,9295.1455078125,6283.9189453125,9738.6044921875,9965.896484375,781.2182006835938,7479.19091796875,833.6702880859375,14025.3701171875,3926.75390625,7005.53271484375,1529.057861328125,8935.1337890625,2780.75537109375,21523.634765625,2469.221923828125,15073.6171875,1587.072998046875,7390.18115234375,23880.80078125,18809.63671875,10913.212890625,-0.0,-47604.24609375,17344.15625,3705.024658203125,0.0,6297.4296875,0.0,0.0
12904.8037109375,12233.2568359375,29890.537109375,9570.1220703125,25871.595703125,3808.33935546875,5598.86328125,6703.53564453125,6815.59228515625,4385.3125,12076.6953125,-1029.96826171875,6887.11767578125,0.0,20315.646484375,3952.97998046875,22485.255859375,17443.498046875,7133.48388671875,9518.4638671875,20822.68359375,27219.453125,18254.916015625,16813.27734375,18807.251953125,4511.67431640625,26392.9375,-2225.239990234375,0.0,442.663818359375,11594.2958984375,3864.76513671875,23325.28515625,14317.0361328125,12369.9501953125,21948.01953125,6957.05419921875,11570.4541015625,6025.63232421875,955.2637939453125,20617.642578125,6794.134765625,14588.8330078125,9285.609375,6272.79296875,9728.2724609375,9964.306640625,768.5025634765625,7478.39599609375,828.9019165039062,14018.2177734375,3914.0380859375,7008.71142578125,1517.136962890625,8925.59765625,2767.2451171875,21515.6875,2456.506103515625,15064.080078125,1579.125732421875,7382.23388671875,23872.056640625,18796.919921875,10887.7822265625,-0.0,-47620.93359375,17334.619140625,3708.20361328125,0.0,6304.58203125,0.0,0.0
12897.650390625,12244.3837890625,29896.89453125,9578.8642578125,25885.900390625,3814.697265625,5601.2470703125,6705.12548828125,6809.234375,4379.74951171875,12062.390625,-1030.7630615234375,6900.62841796875,0.0,20317.236328125,3951.390625,22494.79296875,17451.4453125,7135.8681640625,9513.6953125,20834.603515625,27228.197265625,18259.68359375,16819.634765625,18826.326171875,4524.3896484375,26403.26953125,-2221.2666015625,0.0,450.6111145019531,11602.2421875,3875.0966796875,23334.822265625,14325.7783203125,12377.1025390625,21957.556640625,6963.41162109375,11572.04296875,6045.50048828125,959.2374267578125,20630.359375,6802.876953125,14598.369140625,9291.966796875,6272.79296875,9728.2724609375,9965.1025390625,774.8603515625,7495.08544921875,844.7965087890625,14019.0126953125,3911.654052734375,7047.6533203125,1521.110595703125,8928.775390625,2764.86083984375,21518.072265625,2455.71142578125,15060.9013671875,1575.94677734375,7389.38671875,23880.00390625,18799.3046875,10877.4501953125,-0.0,-47628.0859375,17336.2109375,3700.25634765625,0.0,6292.6611328125,0.0,0.0
12886.5244140625,12252.3310546875,29903.25390625,9582.8369140625,25891.462890625,3819.465576171875,5604.42578125,6704.33056640625,6812.41357421875,4377.365234375,12094.1796875,-1025.199951171875,6904.60205078125,0.0,20318.03125,3945.827392578125,22500.357421875,17455.419921875,7139.04736328125,9516.875,20843.34765625,27232.96484375,18262.068359375,16824.404296875,18831.888671875,4528.36376953125,26412.009765625,-2218.88232421875,0.0,452.2005615234375,11610.1904296875,3883.0439453125,23342.767578125,14332.134765625,12382.6669921875,21960.734375,6966.5908203125,11572.837890625,6039.9375,964.0057983398438,20634.33203125,6807.6455078125,14603.9326171875,9295.1455078125,6275.1767578125,9725.888671875,9967.486328125,777.2445678710938,7501.443359375,851.9490356445312,14022.19140625,3910.064697265625,7062.75341796875,1523.4947509765625,8938.3125,2768.039794921875,21515.6875,2454.916748046875,15062.4912109375,1568.794189453125,7387.00244140625,23883.18359375,18800.099609375,10885.3974609375,-0.0,-47626.49609375,17347.3359375,3676.41455078125,0.0,6256.103515625,0.0,0.0
12917.5185546875,12267.4306640625,29914.37890625,9594.7578125,25895.4375,3826.6181640625,5618.73095703125,6719.4306640625,6826.71875,4395.6435546875,12129.943359375,-1002.9474487304688,6893.47607421875,0.0,20329.15625,3964.90087890625,22512.27734375,17466.544921875,7152.5576171875,9535.94921875,20853.677734375,27244.88671875,18273.1953125,16837.916015625,18824.736328125,4528.36376953125,26420.751953125,-2204.5771484375,0.0,462.53204345703125,11622.9052734375,3897.34912109375,23356.279296875,14344.8515625,12392.998046875,21970.271484375,6979.306640625,11587.9375,6053.44775390625,981.4898071289062,20641.484375,6814.7978515625,14611.8798828125,9307.861328125,6288.68701171875,9742.5771484375,9985.7646484375,788.3707885742188,7492.701171875,847.1806640625,14035.7021484375,3927.548828125,7085.80029296875,1533.031494140625,8946.259765625,2791.0869140625,21515.6875,2477.1689453125,15077.5908203125,1589.4571533203125,7400.5126953125,23897.490234375,18815.994140625,10907.650390625,-0.0,-47604.24609375,17351.30859375,3697.8720703125,0.0,6286.30322265625,0.0,0.0
12939.7705078125,12271.404296875,29921.53125,9613.8310546875,25907.357421875,3841.718017578125,5633.8310546875,6738.50390625,6839.43408203125,4419.4853515625,12143.453125,-992.6160278320312,6893.47607421875,0.0,20344.2578125,3987.153564453125,22525.787109375,17478.466796875,7166.8623046875,9557.40625,20864.8046875,27257.6015625,18285.115234375,16851.42578125,18834.271484375,4541.8740234375,26434.263671875,-2188.6826171875,0.0,476.837158203125,11634.826171875,3907.680419921875,23367.404296875,14358.361328125,12406.5087890625,21984.578125,6992.81689453125,11603.83203125,6068.5478515625,991.8212890625,20652.61328125,6828.30810546875,14626.185546875,9324.55078125,6302.9921875,9761.6513671875,9996.0966796875,800.2916870117188,7494.291015625,857.5121459960938,14051.5966796875,3947.416748046875,7101.69482421875,1544.1575927734375,8952.6171875,2809.365478515625,21531.58203125,2499.42138671875,15094.2802734375,1613.299072265625,7419.5859375,23911.794921875,18832.68359375,10930.697265625,-0.0,-47589.9375,17353.693359375,3731.250732421875,0.0,6330.80810546875,0.0,0.0
12953.28125,12261.0732421875,29910.40625,9600.3212890625,25898.615234375,3833.770751953125,5623.49951171875,6726.5830078125,6822.74462890625,4406.77001953125,12136.2998046875,-1006.921142578125,6902.2177734375,0.0,20336.30859375,3976.82177734375,22518.634765625,17468.134765625,7157.32568359375,9543.1015625,20852.884765625,27247.271484375,18272.400390625,16838.708984375,18831.095703125,4534.72119140625,26415.982421875,-2199.808837890625,0.0,466.50567626953125,11625.2900390625,3898.9384765625,23358.6640625,14348.82421875,12394.587890625,21975.8359375,6981.69091796875,11591.9111328125,6072.52099609375,985.4635009765625,20643.869140625,6817.9765625,14614.2646484375,9311.0400390625,6291.0712890625,9749.73046875,9994.5068359375,796.3180541992188,7493.49609375,848.7701416015625,14041.2646484375,3936.290771484375,7108.052734375,1539.3892822265625,8948.6435546875,2802.212890625,21531.58203125,2485.1162109375,15086.3330078125,1599.7886962890625,7414.81787109375,23899.078125,18820.76171875,10910.828125,-0.0,-47600.26953125,17345.74609375,3716.15087890625,0.0,6317.29736328125,0.0,0.0
12968.380859375,12276.1728515625,29909.611328125,9600.3212890625,25894.642578125,3839.333740234375,5617.9365234375,6734.52978515625,6826.71875,4413.1279296875,12129.1474609375,-997.3843994140625,6909.37060546875,0.0,20337.10546875,3983.974365234375,22521.814453125,17470.517578125,7159.7099609375,9548.6640625,20854.47265625,27253.626953125,18273.1953125,16845.068359375,18826.326171875,4545.84765625,26412.009765625,-2194.24560546875,0.0,473.6582336425781,11627.673828125,3903.706787109375,23360.251953125,14355.1826171875,12392.203125,21979.80859375,6982.4853515625,11599.0634765625,6076.49462890625,992.6160278320312,20642.28125,6825.923828125,14607.90625,9316.603515625,6292.6611328125,9756.087890625,9992.123046875,803.4705810546875,7506.2119140625,856.7174072265625,14034.9072265625,3943.443359375,7115.205078125,1548.13134765625,8949.439453125,2807.776123046875,21536.349609375,2489.08984375,15091.896484375,1606.941162109375,7419.5859375,23903.05078125,18824.736328125,10917.9814453125,-0.0,-47591.52734375,17352.103515625,3722.5087890625,0.0,6315.7080078125,0.0,0.0
12957.2548828125,12272.994140625,29906.431640625,9596.34765625,25893.845703125,3840.92333984375,5621.91015625,6732.9404296875,6829.8974609375,4409.154296875,12126.763671875,-1000.5632934570312,6905.39697265625,0.0,20340.28515625,3976.027099609375,22519.4296875,17465.75,7159.7099609375,9550.25390625,20851.29296875,27252.83203125,18272.400390625,16845.861328125,18823.94140625,4553.0,26421.546875,-2194.24560546875,0.0,472.06878662109375,11624.4951171875,3899.7333984375,23355.484375,14352.00390625,12389.8193359375,21979.80859375,6983.2802734375,11598.26953125,6077.28955078125,989.4371337890625,20637.51171875,6825.923828125,14610.291015625,9318.1923828125,6294.25048828125,9756.087890625,9985.7646484375,793.13916015625,7503.82763671875,868.6383666992188,14038.0859375,3940.26416015625,7101.69482421875,1547.3365478515625,8959.7705078125,2796.64990234375,21533.966796875,2482.732177734375,15089.51171875,1601.3780517578125,7411.638671875,23902.2578125,18823.94140625,10921.955078125,-0.0,-47599.4765625,17367.205078125,3711.382568359375,0.0,6296.634765625,0.0,0.0
12947.71875,12266.6357421875,29896.89453125,9591.5791015625,25891.462890625,3836.94970703125,5621.115234375,6725.7880859375,6823.53955078125,4400.412109375,12131.53125,-1010.894775390625,6895.0654296875,0.0,20340.28515625,3967.28515625,22513.8671875,17458.59765625,7157.32568359375,9545.4853515625,20845.732421875,27248.064453125,18267.630859375,16839.50390625,18824.736328125,4542.6689453125,26426.314453125,-2199.013916015625,0.0,467.3004150390625,11619.7275390625,3890.9912109375,23348.33203125,14345.6455078125,12384.255859375,21973.451171875,6980.89599609375,11594.2958984375,6060.60009765625,982.2845458984375,20632.744140625,6820.36083984375,14608.701171875,9312.6298828125,6291.8662109375,9749.73046875,9989.73828125,787.5760498046875,7495.08544921875,864.6647338867188,14039.67578125,3933.906494140625,7102.4892578125,1541.7734375,8951.8232421875,2779.166015625,21529.9921875,2477.1689453125,15087.921875,1591.84130859375,7407.6650390625,23898.283203125,18820.76171875,10916.392578125,-0.0,-47603.4453125,17371.177734375,3697.8720703125,0.0,6281.53466796875,0.0,0.0
12924.6708984375,12251.5361328125,29881.0,9566.943359375,25877.953125,3815.491943359375,5606.81005859375,6710.68798828125,6796.51904296875,4386.10693359375,12102.921875,-1026.789306640625,6879.1708984375,0.0,20324.388671875,3954.5693359375,22497.177734375,17441.115234375,7140.63623046875,9524.02734375,20828.24609375,27229.78515625,18251.73828125,16822.814453125,18804.07421875,4518.0322265625,26411.21484375,-2218.08740234375,0.0,448.2269287109375,11602.2421875,3871.917724609375,23330.84765625,14327.3671875,12365.9775390625,21955.171875,6964.20654296875,11576.8115234375,6037.55322265625,966.3899536132812,20616.0546875,6800.49267578125,14593.6015625,9292.76171875,6272.79296875,9733.8359375,9968.28125,775.6550903320312,7466.47509765625,842.4122924804688,14026.1650390625,3919.6015625,7065.931640625,1518.726318359375,8935.9287109375,2762.4765625,21499.79296875,2460.479736328125,15072.822265625,1580.7152099609375,7393.3603515625,23880.80078125,18805.662109375,10887.7822265625,-0.0,-47612.19140625,17351.30859375,3693.103759765625,0.0,6282.32958984375,0.0,0.0
12915.9287109375,12244.3837890625,29869.080078125,9562.96875,25862.05859375,3804.365966796875,5600.45263671875,6701.1513671875,6781.41943359375,4378.16015625,12082.2587890625,-1031.5577392578125,6875.99169921875,0.0,20318.03125,3945.827392578125,22488.435546875,17433.166015625,7129.51025390625,9514.4912109375,20817.9140625,27219.453125,18240.609375,16815.662109375,18786.587890625,4510.87939453125,26396.91015625,-2226.034912109375,0.0,445.8427429199219,11591.9111328125,3865.559814453125,23319.720703125,14318.625,12354.8505859375,21947.224609375,6956.25927734375,11569.6591796875,6035.96337890625,960.0321655273438,20601.75,6788.57177734375,14582.474609375,9283.224609375,6264.05078125,9724.2998046875,9961.1279296875,774.8603515625,7454.55419921875,829.6966552734375,14022.986328125,3910.859619140625,7042.884765625,1509.984375,8927.185546875,2767.2451171875,21501.3828125,2448.558837890625,15067.259765625,1570.3836669921875,7383.8232421875,23871.263671875,18796.125,10871.0927734375,-0.0,-47622.51953125,17339.388671875,3680.38818359375,0.0,6272.79296875,0.0,0.0
12940.56640625,12261.0732421875,29886.564453125,9583.6328125,25874.7734375,3823.439453125,5612.37353515625,6718.6357421875,6795.724609375,4394.05419921875,12108.4853515625,-1007.7158203125,6896.65478515625,0.0,20329.15625,3964.90087890625,22505.91796875,17449.060546875,7146.994140625,9531.974609375,20833.810546875,27236.9375,18254.12109375,16833.146484375,18812.021484375,4531.54248046875,26404.857421875,-2202.98779296875,0.0,468.09515380859375,11608.6005859375,3883.0439453125,23338.794921875,14337.69921875,12371.5400390625,21964.708984375,6972.154296875,11585.552734375,6050.2685546875,976.721435546875,20617.642578125,6806.0556640625,14595.9853515625,9303.0927734375,6276.76611328125,9743.373046875,9982.5859375,797.11279296875,7482.3701171875,851.154296875,14032.5234375,3930.7275390625,7069.11083984375,1529.057861328125,8944.6708984375,2790.2919921875,21525.224609375,2470.0166015625,15076.0009765625,1585.4835205078125,7405.28125,23889.541015625,18812.021484375,10886.1923828125,-0.0,-47605.0390625,17350.515625,3689.925048828125,0.0,6281.53466796875,0.0,0.0
12953.28125,12266.6357421875,29886.564453125,9590.78515625,25881.92578125,3829.00244140625,5613.962890625,6728.17236328125,6800.49267578125,4407.564453125,12114.8427734375,-999.7686157226562,6908.57568359375,0.0,20334.720703125,3980.79541015625,22512.27734375,17456.212890625,7155.736328125,9543.1015625,20838.580078125,27244.091796875,18258.890625,16839.50390625,18812.814453125,4533.1318359375,26409.626953125,-2195.835205078125,0.0,474.4529724121094,11615.7529296875,3888.60693359375,23342.767578125,14344.8515625,12378.6923828125,21972.65625,6977.716796875,11594.2958984375,6045.50048828125,984.668701171875,20620.02734375,6812.41357421875,14599.958984375,9308.6552734375,6281.53466796875,9752.9091796875,9969.0751953125,805.06005859375,7488.7275390625,853.5385131835938,14024.5751953125,3942.6484375,7077.05810546875,1540.978759765625,8946.259765625,2799.0341796875,21537.939453125,2487.50048828125,15080.76953125,1602.1728515625,7421.17529296875,23895.8984375,18821.55859375,10900.4970703125,-0.0,-47590.734375,17355.283203125,3710.587646484375,0.0,6301.40283203125,0.0,0.0
12949.3076171875,12272.1982421875,29890.537109375,9594.7578125,25887.490234375,3827.412841796875,5619.52587890625,6729.76171875,6797.3134765625,4412.3330078125,12111.6640625,-996.5896606445312,6908.57568359375,0.0,20337.900390625,3984.769287109375,22513.8671875,17459.392578125,7156.53076171875,9541.51171875,20842.552734375,27246.474609375,18260.478515625,16840.298828125,18810.4296875,4533.1318359375,26418.3671875,-2199.013916015625,0.0,473.6582336425781,11616.5478515625,3891.785888671875,23344.359375,14345.6455078125,12381.0771484375,21974.244140625,6982.4853515625,11595.8857421875,6037.55322265625,987.0529174804688,20623.20703125,6812.41357421875,14607.1123046875,9307.861328125,6284.7138671875,9755.2939453125,9964.306640625,808.239013671875,7489.5224609375,840.8228759765625,14033.3173828125,3943.443359375,7086.59521484375,1544.952392578125,8933.5439453125,2807.776123046875,21536.349609375,2497.83203125,15082.359375,1606.146484375,7426.73876953125,23897.490234375,18823.146484375,10897.318359375,-0.0,-47583.578125,17352.103515625,3720.91943359375,0.0,6306.96630859375,0.0,0.0
12929.439453125,12269.0205078125,29888.15234375,9584.4267578125,25885.10546875,3821.849853515625,5613.962890625,6723.40380859375,6786.98193359375,4404.38623046875,12119.6103515625,-999.7686157226562,6901.4228515625,0.0,20325.978515625,3976.027099609375,22506.71484375,17452.240234375,7148.583984375,9534.359375,20839.373046875,27236.9375,18254.12109375,16833.94140625,18814.40625,4530.748046875,26409.626953125,-2207.756103515625,0.0,464.1214904785156,11611.779296875,3885.42822265625,23338.0,14339.2880859375,12377.1025390625,21967.888671875,6974.5380859375,11590.3212890625,6037.55322265625,979.900390625,20622.412109375,6805.26123046875,14602.34375,9299.9140625,6278.35595703125,9749.73046875,9965.1025390625,797.9075317382812,7485.54833984375,836.0545043945312,14024.5751953125,3937.085693359375,7094.5419921875,1533.826171875,8945.46484375,2800.62353515625,21534.76171875,2489.884521484375,15072.822265625,1599.7886962890625,7411.638671875,23889.541015625,18815.19921875,10889.37109375,-0.0,-47588.34765625,17346.541015625,3716.15087890625,0.0,6298.22412109375,0.0,0.0
12916.724609375,12261.0732421875,29876.232421875,9574.095703125,25877.953125,3811.518310546875,5606.81005859375,6713.8671875,6787.77685546875,4399.61767578125,12115.6376953125,-1006.921142578125,6889.501953125,0.0,20328.36328125,3964.90087890625,22498.765625,17443.498046875,7143.0205078125,9534.359375,20829.04296875,27228.197265625,18246.96875,16824.404296875,18805.662109375,4520.416015625,26400.884765625,-2217.292724609375,0.0,456.1742248535156,11603.0380859375,3877.480712890625,23330.052734375,14329.7509765625,12370.74609375,21959.939453125,6966.5908203125,11581.580078125,6047.88427734375,971.9530639648438,20613.669921875,6796.51904296875,14592.806640625,9290.3779296875,6274.38232421875,9740.98828125,9958.744140625,782.8076782226562,7476.806640625,830.4913940429688,14019.806640625,3926.75390625,7085.00537109375,1530.647216796875,8940.6962890625,2789.497314453125,21532.376953125,2475.57958984375,15075.20703125,1591.84130859375,7401.3076171875,23883.18359375,18809.63671875,10896.5234375,-0.0,-47601.0625,17353.693359375,3700.25634765625,0.0,6288.68701171875,0.0,0.0
12902.4189453125,12252.3310546875,29870.66796875,9568.5322265625,25877.953125,3810.7236328125,5612.37353515625,6713.8671875,6790.1611328125,4400.412109375,12102.126953125,-1012.4841918945312,6891.091796875,0.0,20335.515625,3964.90087890625,22493.998046875,17442.703125,7143.8154296875,9538.3330078125,20828.24609375,27225.8125,18248.55859375,16824.404296875,18796.125,4514.05859375,26411.21484375,-2218.88232421875,0.0,454.5847473144531,11599.8583984375,3871.123046875,23326.078125,14324.1884765625,12368.361328125,21956.76171875,6968.97509765625,11579.990234375,6047.08984375,970.3636474609375,20609.697265625,6790.1611328125,14598.369140625,9288.7880859375,6275.1767578125,9741.783203125,9960.333984375,775.6550903320312,7472.0380859375,828.9019165039062,14028.548828125,3927.548828125,7064.34228515625,1529.057861328125,8931.9541015625,2783.934326171875,21529.9921875,2471.60595703125,15082.359375,1592.6361083984375,7394.15478515625,23883.18359375,18811.2265625,10901.2919921875,-0.0,-47600.26953125,17360.845703125,3701.051025390625,0.0,6292.6611328125,0.0,0.0
12906.392578125,12244.3837890625,29865.107421875,9561.3798828125,25875.568359375,3804.365966796875,5609.9892578125,6708.3037109375,6779.03515625,4395.6435546875,12090.2060546875,-1019.6367797851562,6888.70751953125,0.0,20332.3359375,3957.74853515625,22490.025390625,17437.935546875,7139.04736328125,9529.5908203125,20823.478515625,27221.837890625,18244.5859375,16820.431640625,18793.7421875,4514.05859375,26408.830078125,-2226.034912109375,0.0,446.6374816894531,11595.08984375,3865.559814453125,23322.10546875,14319.419921875,12367.56640625,21952.787109375,6965.7958984375,11576.0166015625,6037.55322265625,962.4163208007812,20606.517578125,6786.1875,14596.7802734375,9284.8134765625,6268.8193359375,9736.220703125,9953.9755859375,770.88671875,7467.27001953125,824.9282836914062,14024.5751953125,3921.190673828125,7035.732421875,1520.3157958984375,8927.9814453125,2774.397705078125,21523.634765625,2461.2744140625,15076.796875,1587.072998046875,7386.20751953125,23880.00390625,18806.45703125,10886.1923828125,-0.0,-47608.21484375,17367.205078125,3697.077392578125,0.0,6291.8662109375,0.0,0.0
12901.6240234375,12222.92578125,29847.62109375,9539.921875,25852.521484375,3782.908203125,5582.96826171875,6682.078125,6747.24560546875,4368.623046875,12073.5166015625,-1046.6575927734375,6875.99169921875,0.0,20310.083984375,3931.5224609375,22468.56640625,17415.681640625,7114.41015625,9497.0068359375,20801.2265625,27200.380859375,18219.15234375,16797.384765625,18777.052734375,4491.80615234375,26372.2734375,-2249.081787109375,0.0,423.59033203125,11573.6318359375,3842.512939453125,23299.8515625,14297.9619140625,12346.1083984375,21931.330078125,6940.36474609375,11552.9697265625,6012.91650390625,936.1903076171875,20587.443359375,6763.14013671875,14569.759765625,9261.767578125,6242.59326171875,9710.7890625,9942.0546875,754.1974487304688,7444.22314453125,805.06005859375,13997.5546875,3894.96484375,7025.40087890625,1498.858154296875,8915.2646484375,2750.5556640625,21506.9453125,2435.04833984375,15048.98046875,1559.257568359375,7367.92919921875,23856.162109375,18779.435546875,10848.044921875,-0.0,-47637.62109375,17348.130859375,3678.798583984375,0.0,6268.8193359375,0.0,0.0
12914.33984375,12227.6943359375,29853.978515625,9538.3330078125,25856.494140625,3784.49755859375,5582.173828125,6679.69384765625,6738.50390625,4356.7021484375,12081.4638671875,-1044.2734375,6879.1708984375,0.0,20308.494140625,3925.164794921875,22470.951171875,17418.861328125,7115.205078125,9490.6494140625,20806.7890625,27202.763671875,18222.33203125,16798.177734375,18781.8203125,4489.421875,26376.248046875,-2249.876708984375,0.0,428.35870361328125,11577.6064453125,3845.691650390625,23306.2109375,14298.7568359375,12349.2880859375,21932.919921875,6942.7490234375,11552.1748046875,6017.68505859375,940.9586791992188,20591.41796875,6762.345703125,14570.5537109375,9259.3828125,6241.00341796875,9706.814453125,9955.5654296875,759.7605590820312,7450.58056640625,803.4705810546875,13999.14453125,3887.812255859375,7051.62646484375,1502.831787109375,8921.623046875,2751.350341796875,21509.328125,2434.253662109375,15046.5966796875,1548.926025390625,7380.64453125,23856.958984375,18776.2578125,10833.740234375,-0.0,-47633.6484375,17326.673828125,3650.1884765625,0.0,6241.79833984375,0.0,0.0
12946.9228515625,12266.6357421875,29894.509765625,9577.2744140625,25895.4375,3824.23388671875,5621.115234375,6718.6357421875,6776.65087890625,4398.02783203125,12112.4580078125,-1008.5106201171875,6911.75439453125,0.0,20339.48828125,3967.28515625,22510.6875,17458.59765625,7154.94140625,9532.76953125,20848.115234375,27241.70703125,18261.2734375,16838.708984375,18823.94140625,4525.1845703125,26418.3671875,-2212.5244140625,0.0,465.7109680175781,11617.3427734375,3884.63330078125,23345.947265625,14338.4931640625,12388.2294921875,21974.244140625,6980.89599609375,11592.7060546875,6056.626953125,976.721435546875,20634.33203125,6799.69775390625,14611.0849609375,9299.9140625,6277.56103515625,9746.5517578125,9989.73828125,799.4969482421875,7489.5224609375,838.4386596679688,14034.1123046875,3930.7275390625,7096.92626953125,1540.978759765625,8951.0283203125,2793.47119140625,21534.76171875,2477.1689453125,15083.1533203125,1591.046630859375,7421.17529296875,23897.490234375,18815.19921875,10878.2451171875,-0.0,-47596.29296875,17341.771484375,3689.925048828125,0.0,6280.740234375,0.0,0.0
12942.9501953125,12259.4833984375,29884.97265625,9574.095703125,25893.052734375,3821.849853515625,5615.55224609375,6713.8671875,6769.49853515625,4394.84912109375,12099.7431640625,-1014.868408203125,6905.39697265625,0.0,20332.3359375,3960.927490234375,22505.125,17454.625,7150.17333984375,9528.0009765625,20843.34765625,27238.52734375,18255.7109375,16833.146484375,18823.146484375,4524.3896484375,26417.57421875,-2218.08740234375,0.0,460.9425964355469,11614.958984375,3879.864990234375,23339.58984375,14333.724609375,12385.05078125,21969.4765625,6976.12744140625,11586.3486328125,6054.24267578125,969.5689086914062,20627.974609375,6798.1083984375,14607.90625,9295.9404296875,6271.998046875,9742.5771484375,9970.6650390625,791.5496826171875,7486.34326171875,836.0545043945312,14029.34375,3925.959228515625,7094.5419921875,1537.7998046875,8935.9287109375,2790.2919921875,21529.197265625,2466.837646484375,15075.20703125,1589.4571533203125,7412.43359375,23892.720703125,18808.841796875,10875.0654296875,-0.0,-47607.421875,17337.798828125,3694.693359375,0.0,6287.09814453125,0.0,0.0
12947.71875,12253.9208984375,29884.1796875,9570.1220703125,25892.2578125,3821.849853515625,5613.16845703125,6711.48291015625,6770.29296875,4392.46533203125,12098.1533203125,-1021.2262573242188,6903.0126953125,0.0,20331.541015625,3959.337646484375,22502.740234375,17453.03515625,7146.19970703125,9524.02734375,20842.552734375,27234.5546875,18254.12109375,16830.763671875,18821.55859375,4523.59521484375,26417.57421875,-2219.677001953125,0.0,454.5847473144531,11613.369140625,3876.68603515625,23338.0,14330.5458984375,12383.4609375,21968.68359375,6971.359375,11582.375,6036.75830078125,964.0057983398438,20627.974609375,6797.3134765625,14606.31640625,9295.9404296875,6268.0244140625,9737.8095703125,9963.5126953125,784.3970947265625,7490.31689453125,836.0545043945312,14027.7548828125,3923.574951171875,7091.36328125,1534.620849609375,8935.1337890625,2774.397705078125,21525.224609375,2468.427001953125,15071.232421875,1584.6888427734375,7403.69189453125,23891.92578125,18804.869140625,10875.0654296875,-0.0,-47604.24609375,17340.978515625,3693.8984375,0.0,6287.09814453125,0.0,0.0
12959.6396484375,12270.609375,29892.921875,9586.0166015625,25907.357421875,3836.155029296875,5631.44677734375,6728.17236328125,6800.49267578125,4413.1279296875,12119.6103515625,-1010.1000366210938,6922.880859375,0.0,20350.615234375,3973.642822265625,22521.01953125,17469.724609375,7162.88916015625,9547.8701171875,20860.830078125,27252.0390625,18274.783203125,16847.453125,18831.095703125,4543.46337890625,26426.314453125,-2206.96142578125,0.0,472.863525390625,11630.05859375,3892.580810546875,23354.689453125,14348.82421875,12397.765625,21986.166015625,6988.04833984375,11599.0634765625,6051.8583984375,983.0792846679688,20642.28125,6816.38720703125,14622.2119140625,9311.8349609375,6289.48193359375,9752.9091796875,9976.2275390625,801.8811645507812,7509.39013671875,850.359619140625,14043.6484375,3939.4697265625,7095.3369140625,1549.720703125,8959.7705078125,2786.318603515625,21541.9140625,2482.732177734375,15094.2802734375,1602.1728515625,7421.97021484375,23908.615234375,18824.736328125,10913.212890625,-0.0,-47585.96484375,17363.23046875,3709.79296875,0.0,6298.22412109375,0.0,0.0
12948.5126953125,12268.2255859375,29893.716796875,9591.5791015625,25896.23046875,3836.155029296875,5630.65185546875,6731.3515625,6807.6455078125,4420.2802734375,12118.021484375,-1007.7158203125,6897.44970703125,0.0,20352.205078125,3980.79541015625,22520.22265625,17467.33984375,7162.88916015625,9554.2265625,20856.857421875,27254.423828125,18270.015625,16847.453125,18814.40625,4551.41064453125,26412.009765625,-2202.98779296875,0.0,474.4529724121094,11629.263671875,3889.401611328125,23352.3046875,14351.208984375,12393.7919921875,21985.373046875,6985.66455078125,11601.4482421875,6051.0634765625,985.4635009765625,20635.12890625,6818.771484375,14615.05859375,9312.6298828125,6291.0712890625,9756.8828125,9968.28125,801.8811645507812,7485.54833984375,850.359619140625,14039.67578125,3941.85400390625,7084.2109375,1543.3629150390625,8938.3125,2799.0341796875,21534.76171875,2482.732177734375,15099.048828125,1610.1201171875,7421.97021484375,23909.41015625,18825.53125,10924.3388671875,-0.0,-47581.98828125,17371.177734375,3725.687744140625,0.0,6314.11865234375,0.0,0.0
12953.28125,12273.7880859375,29910.40625,9597.142578125,25906.5625,3848.075927734375,5638.599609375,6740.09326171875,6817.9765625,4433.79052734375,12128.353515625,-1001.3580322265625,6906.19140625,0.0,20351.41015625,3991.921875,22529.759765625,17475.287109375,7170.8359375,9566.943359375,20865.599609375,27263.958984375,18280.34765625,16856.98828125,18833.478515625,4556.97412109375,26423.13671875,-2193.450927734375,0.0,474.4529724121094,11638.80078125,3894.96484375,23361.046875,14359.951171875,12401.740234375,21996.498046875,6992.81689453125,11610.984375,6054.24267578125,993.4107055664062,20647.048828125,6829.10302734375,14624.595703125,9323.755859375,6299.81396484375,9768.0087890625,9970.6650390625,804.2653198242188,7496.6748046875,861.4857788085938,14047.623046875,3952.97998046875,7099.310546875,1546.5418701171875,8958.1806640625,2802.212890625,21534.76171875,2491.47412109375,15103.8173828125,1623.6304931640625,7428.328125,23916.5625,18833.478515625,10937.849609375,-0.0,-47578.8125,17370.3828125,3743.171630859375,0.0,6345.11328125,0.0,0.0
12970.7646484375,12300.80859375,29926.30078125,9612.2431640625,25930.404296875,3867.1494140625,5659.26220703125,6759.96142578125,6838.6396484375,4451.27490234375,12149.0166015625,-982.2845458984375,6918.1123046875,0.0,20365.71484375,4007.81640625,22550.423828125,17493.56640625,7190.7041015625,9585.2216796875,20885.466796875,27282.23828125,18300.21484375,16876.0625,18851.7578125,4564.9208984375,26451.74609375,-2175.172119140625,0.0,489.55279541015625,11657.0791015625,3917.21728515625,23380.9140625,14377.4345703125,12420.8134765625,22014.775390625,7013.4794921875,11627.673828125,6082.05810546875,1023.6104736328125,20666.91796875,6842.61328125,14646.0537109375,9342.0341796875,6318.88720703125,9787.0830078125,10000.0693359375,822.5440673828125,7520.51708984375,884.532958984375,14069.875,3971.258544921875,7125.53662109375,1565.6153564453125,8977.25390625,2816.51806640625,21538.734375,2510.547607421875,15121.30078125,1642.7039794921875,7448.9912109375,23934.044921875,18850.9609375,10955.333984375,-0.0,-47564.5078125,17379.125,3748.734619140625,0.0,6361.0078125,0.0,0.0
12969.1767578125,12295.24609375,29920.736328125,9600.3212890625,25928.01953125,3859.2021484375,5656.08349609375,6750.4248046875,6831.4873046875,4432.99609375,12145.0419921875,-988.642333984375,6910.16552734375,0.0,20366.509765625,3991.921875,22544.06640625,17487.20703125,7181.96240234375,9570.1220703125,20879.904296875,27277.46875,18298.625,16868.115234375,18840.630859375,4556.97412109375,26458.8984375,-2184.708740234375,0.0,481.60552978515625,11650.7216796875,3912.448974609375,23376.94140625,14371.0771484375,12416.83984375,22006.830078125,7007.9169921875,11618.1376953125,6080.46875,1011.6895141601562,20660.55859375,6835.46044921875,14646.0537109375,9331.703125,6314.11865234375,9775.9560546875,10011.990234375,816.186279296875,7514.95361328125,874.9962158203125,14070.669921875,3958.543212890625,7102.4892578125,1557.6680908203125,8963.744140625,2814.9287109375,21541.9140625,2499.42138671875,15114.943359375,1623.6304931640625,7437.86474609375,23929.27734375,18841.42578125,10934.6708984375,-0.0,-47566.890625,17375.9453125,3720.91943359375,0.0,6316.5029296875,0.0,0.0
12944.5390625,12262.662109375,29903.25390625,9578.8642578125,25909.7421875,3829.797119140625,5630.65185546875,6720.22509765625,6802.08203125,4398.82275390625,12126.763671875,-1018.04736328125,6903.80712890625,0.0,20345.845703125,3962.516845703125,22518.634765625,17461.77734375,7155.736328125,9535.1533203125,20858.4453125,27252.83203125,18275.580078125,16842.68359375,18826.326171875,4529.953125,26434.263671875,-2215.703369140625,0.0,459.3531188964844,11626.8798828125,3887.812255859375,23353.099609375,14347.2353515625,12395.3818359375,21979.80859375,6981.69091796875,11591.9111328125,6067.7529296875,974.3372802734375,20641.484375,6810.029296875,14626.185546875,9304.6826171875,6288.68701171875,9744.1669921875,9995.30078125,791.5496826171875,7495.8798828125,841.6175537109375,14047.623046875,3929.13818359375,7077.8525390625,1529.8525390625,8943.0810546875,2791.881591796875,21535.5546875,2470.0166015625,15087.921875,1592.6361083984375,7408.4599609375,23903.05078125,18813.609375,10895.7294921875,-0.0,-47593.91015625,17357.66796875,3697.077392578125,0.0,6281.53466796875,0.0,0.0
12908.7763671875,12230.0791015625,29876.232421875,9547.8701171875,25873.98046875,3798.802734375,5591.71044921875,6685.2568359375,6767.1142578125,4367.03369140625,12107.689453125,-1049.8365478515625,6906.19140625,0.0,20321.2109375,3932.317138671875,22489.228515625,17432.37109375,7119.9736328125,9496.2119140625,20826.658203125,27219.453125,18239.021484375,16809.3046875,18807.251953125,4499.75341796875,26394.525390625,-2247.492431640625,0.0,428.35870361328125,11598.26953125,3858.4072265625,23324.490234375,14317.0361328125,12360.4130859375,21948.814453125,6945.13330078125,11556.943359375,6041.52685546875,944.9323120117188,20612.875,6775.85595703125,14585.654296875,9272.0986328125,6252.1298828125,9709.994140625,9968.28125,760.5552978515625,7475.21728515625,807.4442749023438,14005.501953125,3900.52783203125,7063.5478515625,1501.2423095703125,8927.185546875,2756.913330078125,21524.4296875,2440.611572265625,15052.955078125,1562.4364013671875,7380.64453125,23869.671875,18777.052734375,10853.6083984375,-0.0,-47624.90625,17334.619140625,3673.235595703125,0.0,6260.8720703125,0.0,0.0
12888.1142578125,12212.59375,29860.337890625,9535.1533203125,25851.7265625,3788.47119140625,5573.431640625,6671.74658203125,6752.80908203125,4351.13916015625,12101.3330078125,-1069.7047119140625,6897.44970703125,0.0,20300.546875,3921.985595703125,22474.923828125,17418.06640625,7103.2841796875,9477.138671875,20812.353515625,27204.35546875,18223.126953125,16795.0,18801.689453125,4488.626953125,26372.2734375,-2261.002685546875,0.0,414.0535888671875,11582.375,3841.718017578125,23309.388671875,14303.525390625,12344.51953125,21934.509765625,6927.64892578125,11542.6376953125,6016.095703125,930.627197265625,20597.77734375,6764.72998046875,14563.4013671875,9259.3828125,6234.64599609375,9695.689453125,9959.5380859375,746.2501220703125,7460.912109375,797.9075317382812,13984.83984375,3886.222900390625,7065.931640625,1486.1424560546875,8931.16015625,2730.6875,21510.919921875,2424.717041015625,15033.0859375,1549.720703125,7367.92919921875,23855.3671875,18760.36328125,10832.150390625,-0.0,-47649.54296875,17333.826171875,3670.8515625,0.0,6264.05078125,0.0,0.0
12881.755859375,12209.4150390625,29847.62109375,9524.822265625,25847.75390625,3783.702880859375,5571.04736328125,6667.77294921875,6759.16650390625,4344.78125,12082.2587890625,-1074.4730224609375,6887.91259765625,0.0,20298.162109375,3914.0380859375,22469.361328125,17411.708984375,7099.310546875,9477.9326171875,20805.994140625,27197.203125,18221.537109375,16788.640625,18785.0,4484.6533203125,26365.916015625,-2264.181884765625,0.0,403.7221374511719,11576.8115234375,3836.155029296875,23302.236328125,14296.3720703125,12338.9560546875,21927.357421875,6922.880859375,11537.869140625,6016.095703125,925.8588256835938,20588.240234375,6756.78271484375,14560.22265625,9256.2041015625,6236.2353515625,9690.125,9946.0283203125,735.918701171875,7453.759765625,796.3180541992188,13987.2236328125,3879.0703125,7066.7265625,1477.400390625,8927.185546875,2725.9189453125,21504.560546875,2417.564453125,15034.67578125,1542.5682373046875,7364.75,23849.806640625,18758.7734375,10834.5341796875,-0.0,-47652.72265625,17346.541015625,3659.72509765625,0.0,6253.71923828125,0.0,0.0
12893.6767578125,12225.310546875,29869.080078125,9545.4853515625,25873.18359375,3809.13427734375,5597.2734375,6690.025390625,6795.724609375,4372.5966796875,12101.3330078125,-1052.220703125,6906.986328125,0.0,20319.62109375,3937.880126953125,22491.61328125,17432.37109375,7123.15234375,9508.927734375,20829.04296875,27218.66015625,18246.96875,16810.89453125,18800.89453125,4511.67431640625,26393.732421875,-2240.340087890625,0.0,422.7956237792969,11599.0634765625,3857.612548828125,23324.490234375,14317.830078125,12362.7978515625,21950.40234375,6948.3125,11561.7109375,6038.34765625,945.72705078125,20610.490234375,6779.82958984375,14585.654296875,9278.45703125,6266.43505859375,9712.37890625,9965.1025390625,756.5816040039062,7474.42236328125,821.7493896484375,14011.8603515625,3902.117431640625,7094.5419921875,1502.037109375,8947.0546875,2750.5556640625,21518.072265625,2440.611572265625,15061.6962890625,1567.99951171875,7387.796875,23873.6484375,18785.0,10875.861328125,-0.0,-47628.0859375,17360.052734375,3680.38818359375,0.0,6274.38232421875,0.0,0.0
12940.56640625,12263.45703125,29905.638671875,9586.0166015625,25911.33203125,3848.075927734375,5633.8310546875,6728.17236328125,6844.99755859375,4409.94873046875,12128.353515625,-1013.2789306640625,6922.880859375,0.0,20353.794921875,3974.437744140625,22528.171875,17471.3125,7163.68359375,9551.0478515625,20865.599609375,27257.6015625,18287.5,16850.62890625,18832.68359375,4549.8212890625,26427.111328125,-2201.398193359375,0.0,463.3267822265625,11638.0048828125,3894.170166015625,23359.45703125,14355.1826171875,12400.150390625,21990.140625,6986.45947265625,11600.6533203125,6077.28955078125,975.1319580078125,20648.638671875,6820.36083984375,14624.595703125,9319.7822265625,6306.17138671875,9749.73046875,9980.2021484375,790.7549438476562,7506.2119140625,862.280517578125,14047.623046875,3941.05908203125,7126.33154296875,1543.3629150390625,8962.94921875,2802.212890625,21541.119140625,2481.142822265625,15102.2275390625,1601.3780517578125,7423.5595703125,23912.587890625,18825.53125,10928.3134765625,-0.0,-47589.140625,17368.79296875,3696.28271484375,0.0,6283.12451171875,0.0,0.0
12972.3544921875,12278.556640625,29912.791015625,9592.3740234375,25917.6875,3856.81787109375,5642.57275390625,6740.88818359375,6858.5078125,4424.25390625,12133.916015625,-997.3843994140625,6922.08642578125,0.0,20362.53515625,3995.1005859375,22536.119140625,17480.849609375,7170.8359375,9564.55859375,20871.162109375,27267.13671875,18296.2421875,16860.9609375,18835.068359375,4553.0,26432.671875,-2187.887939453125,0.0,470.4793395996094,11644.36328125,3903.706787109375,23367.404296875,14362.3349609375,12408.09765625,22000.470703125,6995.201171875,11610.984375,6081.26318359375,964.800537109375,20654.201171875,6828.30810546875,14633.337890625,9329.3193359375,6315.7080078125,9764.03515625,9980.99609375,792.3444213867188,7511.7744140625,872.6119995117188,14057.9541015625,3956.95361328125,7124.7421875,1552.10498046875,8966.9228515625,2804.59716796875,21547.4765625,2499.42138671875,15110.1748046875,1618.8621826171875,7433.09619140625,23920.53515625,18833.478515625,10945.796875,-0.0,-47566.890625,17374.357421875,3724.892822265625,0.0,6311.73486328125,0.0,0.0
12937.38671875,12272.994140625,29900.869140625,9578.8642578125,25904.177734375,3843.3076171875,5633.0361328125,6732.9404296875,6852.14990234375,4419.4853515625,12134.7109375,-1005.3316650390625,6911.75439453125,0.0,20357.767578125,3987.153564453125,22526.58203125,17472.90234375,7163.68359375,9556.611328125,20859.2421875,27256.01171875,18287.5,16853.013671875,18828.7109375,4537.900390625,26423.931640625,-2195.835205078125,0.0,458.55841064453125,11632.4423828125,3894.170166015625,23355.484375,14350.4140625,12398.560546875,21990.93359375,6987.25390625,11602.2421875,6067.7529296875,963.2110595703125,20639.1015625,6815.59228515625,14623.005859375,9320.5771484375,6306.96630859375,9756.087890625,9988.1484375,774.065673828125,7499.05908203125,859.8963623046875,14049.212890625,3949.006591796875,7105.66845703125,1540.18408203125,8960.564453125,2802.212890625,21541.9140625,2494.653076171875,15103.8173828125,1616.47802734375,7421.17529296875,23912.587890625,18823.146484375,10942.6181640625,-0.0,-47574.8359375,17376.7421875,3722.5087890625,0.0,6310.14501953125,0.0,0.0
12942.9501953125,12272.1982421875,29904.841796875,9581.248046875,25909.7421875,3841.718017578125,5637.8046875,6733.7353515625,6852.14990234375,4420.2802734375,12136.2998046875,-1006.921142578125,6910.9599609375,0.0,20358.5625,3986.358642578125,22527.376953125,17473.697265625,7166.8623046875,9556.611328125,20861.625,27256.806640625,18292.26953125,16855.3984375,18846.98828125,4536.310546875,26430.2890625,-2196.6298828125,0.0,460.1478576660156,11634.0322265625,3893.37548828125,23354.689453125,14352.00390625,12401.740234375,21991.73046875,6989.6376953125,11604.626953125,6070.93212890625,975.9266967773438,20644.6640625,6815.59228515625,14627.7744140625,9318.98828125,6309.3505859375,9757.677734375,9991.328125,774.8603515625,7507.00634765625,855.9227294921875,14051.5966796875,3950.595947265625,7100.900390625,1541.7734375,8966.1279296875,2806.186767578125,21538.734375,2492.268798828125,15105.4072265625,1618.8621826171875,7424.3544921875,23917.357421875,18823.94140625,10942.6181640625,-0.0,-47578.01953125,17381.509765625,3727.277099609375,0.0,6309.3505859375,0.0,0.0
12935.001953125,12266.6357421875,29900.07421875,9582.8369140625,25905.767578125,3840.128662109375,5639.39404296875,6728.96728515625,6852.14990234375,4417.1015625,12126.763671875,-1014.07373046875,6899.03857421875,0.0,20357.767578125,3979.2060546875,22518.634765625,17470.517578125,7162.88916015625,9555.0224609375,20859.2421875,27253.626953125,18289.884765625,16852.220703125,18837.451171875,4535.51611328125,26432.671875,-2203.7822265625,0.0,457.763671875,11630.8525390625,3884.63330078125,23348.33203125,14345.6455078125,12398.560546875,21987.755859375,6985.66455078125,11602.2421875,6034.3740234375,971.9530639648438,20640.69140625,6811.61865234375,14626.185546875,9315.80859375,6307.7607421875,9755.2939453125,9965.896484375,782.8076782226562,7497.46923828125,848.7701416015625,14054.775390625,3944.23828125,7079.4423828125,1539.3892822265625,8960.564453125,2795.060302734375,21518.865234375,2488.29541015625,15108.5849609375,1609.325439453125,7414.81787109375,23914.97265625,18822.3515625,10943.4130859375,-0.0,-47578.01953125,17382.302734375,3723.303466796875,0.0,6305.37646484375,0.0,0.0
12929.439453125,12272.1982421875,29904.841796875,9586.8115234375,25907.357421875,3843.3076171875,5648.13623046875,6729.76171875,6859.302734375,4419.4853515625,12129.1474609375,-1006.921142578125,6906.19140625,0.0,20364.919921875,3980.0009765625,22522.607421875,17477.669921875,7166.0673828125,9558.201171875,20864.009765625,27257.6015625,18294.65234375,16855.3984375,18824.736328125,4540.28466796875,26437.44140625,-2201.398193359375,0.0,462.53204345703125,11636.416015625,3887.017578125,23355.484375,14349.6201171875,12403.3291015625,21990.93359375,6991.2275390625,11604.626953125,6032.78515625,976.721435546875,20641.484375,6817.18212890625,14631.748046875,9320.5771484375,6315.7080078125,9756.8828125,9977.0234375,792.3444213867188,7496.6748046875,850.359619140625,14065.1064453125,3945.827392578125,7077.8525390625,1541.7734375,8958.9755859375,2795.855224609375,21529.9921875,2492.268798828125,15113.353515625,1607.7359619140625,7408.4599609375,23919.740234375,18826.326171875,10945.796875,-0.0,-47565.30078125,17374.357421875,3720.91943359375,0.0,6302.9921875,0.0,0.0
12926.2607421875,12272.994140625,29905.638671875,9582.04296875,25912.126953125,3848.075927734375,5646.546875,6731.3515625,6859.302734375,4421.86962890625,12133.12109375,-1002.1527709960938,6911.75439453125,0.0,20364.919921875,3985.563720703125,22526.58203125,17481.646484375,7167.6572265625,9556.611328125,20866.39453125,27259.19140625,18297.830078125,16859.373046875,18827.119140625,4541.8740234375,26434.263671875,-2199.013916015625,0.0,468.09515380859375,11640.3896484375,3892.580810546875,23359.45703125,14352.798828125,12406.5087890625,21994.91015625,6992.81689453125,11607.0107421875,6080.46875,979.900390625,20646.25390625,6818.771484375,14634.1328125,9322.9609375,6317.29736328125,9758.47265625,9996.0966796875,803.4705810546875,7507.80126953125,855.1279907226562,14061.927734375,3949.801025390625,7097.72119140625,1541.7734375,8962.154296875,2801.418212890625,21547.4765625,2493.063720703125,15111.763671875,1614.09375,7412.43359375,23921.33203125,18827.119140625,10945.0029296875,-0.0,-47563.71484375,17367.205078125,3732.84033203125,0.0,6315.7080078125,0.0,0.0
12924.6708984375,12257.8935546875,29888.94921875,9563.763671875,25894.642578125,3833.770751953125,5619.52587890625,6714.662109375,6844.99755859375,4399.61767578125,12118.021484375,-1022.815673828125,6906.19140625,0.0,20353.794921875,3964.90087890625,22510.6875,17464.16015625,7148.583984375,9537.537109375,20848.115234375,27242.501953125,18281.140625,16843.4765625,18813.609375,4523.59521484375,26415.982421875,-2214.90869140625,0.0,453.7900390625,11622.111328125,3877.480712890625,23341.974609375,14337.69921875,12388.2294921875,21978.220703125,6971.359375,11589.52734375,6074.9052734375,965.59521484375,20628.771484375,6802.876953125,14612.6748046875,9306.271484375,6296.634765625,9740.98828125,9984.17578125,789.960205078125,7502.23779296875,841.6175537109375,14030.93359375,3929.93310546875,7092.15771484375,1526.6737060546875,8959.7705078125,2784.72900390625,21543.501953125,2473.1953125,15095.8701171875,1594.2255859375,7395.744140625,23901.462890625,18807.251953125,10929.90234375,-0.0,-47589.140625,17362.435546875,3707.408935546875,0.0,6287.892578125,0.0,0.0
12931.82421875,12247.5625,29881.0,9555.81640625,25888.28515625,3825.823486328125,5618.73095703125,6711.48291015625,6841.818359375,4398.02783203125,12108.4853515625,-1027.5841064453125,6906.19140625,0.0,20356.974609375,3965.69580078125,22503.53515625,17457.0078125,7143.0205078125,9532.76953125,20840.16796875,27235.349609375,18275.580078125,16835.53125,18801.689453125,4514.85302734375,26420.751953125,-2218.88232421875,0.0,443.45855712890625,11615.7529296875,3869.533447265625,23333.23046875,14329.7509765625,12381.87109375,21971.861328125,6966.5908203125,11583.9638671875,6052.65283203125,959.2374267578125,20620.02734375,6796.51904296875,14608.701171875,9302.298828125,6291.8662109375,9737.0146484375,9979.4072265625,778.8340454101562,7498.26416015625,829.6966552734375,14037.2919921875,3927.548828125,7082.62109375,1521.9052734375,8947.0546875,2776.78173828125,21537.939453125,2471.60595703125,15097.458984375,1597.404541015625,7388.591796875,23894.310546875,18801.689453125,10921.1611328125,-0.0,-47593.91015625,17352.103515625,3720.91943359375,0.0,6301.40283203125,0.0,0.0
12940.56640625,12231.66796875,29867.490234375,9545.4853515625,25877.15625,3814.697265625,5610.7841796875,6701.9462890625,6834.666015625,4391.67041015625,12100.537109375,-1037.120849609375,6899.83349609375,0.0,20341.873046875,3956.95361328125,22490.025390625,17448.267578125,7131.89453125,9522.4384765625,20830.630859375,27227.40234375,18266.8359375,16824.404296875,18794.537109375,4502.1376953125,26408.830078125,-2231.597900390625,0.0,435.5112609863281,11606.216796875,3856.023193359375,23322.900390625,14318.625,12372.3349609375,21961.53125,6956.25927734375,11574.427734375,6034.3740234375,948.1112060546875,20607.3125,6786.98193359375,14598.369140625,9291.171875,6283.12451171875,9726.68359375,9966.69140625,766.1183471679688,7480.7802734375,815.3915405273438,14026.958984375,3917.21728515625,7091.36328125,1514.752685546875,8937.5185546875,2771.218505859375,21536.349609375,2464.453369140625,15083.1533203125,1586.2783203125,7388.591796875,23886.361328125,18791.357421875,10916.392578125,-0.0,-47597.08984375,17352.103515625,3709.79296875,0.0,6304.58203125,0.0,0.0
12936.591796875,12227.6943359375,29853.185546875,9536.7431640625,25863.6484375,3801.981689453125,5592.5048828125,6685.2568359375,6824.33447265625,4369.41748046875,12093.384765625,-1049.8365478515625,6887.11767578125,0.0,20318.03125,3931.5224609375,22479.693359375,17435.55078125,7117.58935546875,9505.7490234375,20818.7109375,27216.275390625,18253.326171875,16810.89453125,18785.0,4491.80615234375,26385.783203125,-2246.69775390625,0.0,425.9745178222656,11595.8857421875,3844.89697265625,23310.18359375,14308.29296875,12362.0029296875,21948.814453125,6941.15966796875,11559.3271484375,6030.40087890625,937.7797241210938,20596.185546875,6775.06103515625,14579.2958984375,9277.6611328125,6266.43505859375,9708.404296875,9946.8232421875,751.0185546875,7464.0908203125,799.4969482421875,14003.9130859375,3893.37548828125,7095.3369140625,1506.0106201171875,8925.59765625,2757.708251953125,21525.224609375,2450.1484375,15059.3115234375,1558.4627685546875,7390.97607421875,23872.8515625,18777.052734375,10902.8818359375,-0.0,-47610.59765625,17360.052734375,3662.904052734375,0.0,6250.5400390625,0.0,0.0
12948.5126953125,12245.97265625,29872.259765625,9557.40625,25882.720703125,3820.26025390625,5607.60498046875,6697.177734375,6829.10302734375,4372.5966796875,12102.921875,-1030.7630615234375,6902.2177734375,0.0,20331.541015625,3937.085693359375,22497.177734375,17452.240234375,7131.099609375,9508.1328125,20836.98828125,27236.9375,18269.220703125,16826.787109375,18808.046875,4516.44287109375,26407.2421875,-2233.982177734375,0.0,445.8427429199219,11618.1376953125,3859.996826171875,23328.462890625,14328.95703125,12380.2822265625,21968.68359375,6956.25927734375,11574.427734375,6039.9375,952.8795776367188,20616.849609375,6795.724609375,14597.5751953125,9291.966796875,6276.76611328125,9715.556640625,9963.5126953125,768.5025634765625,7492.701171875,822.5440673828125,14019.0126953125,3903.706787109375,7110.43701171875,1527.4683837890625,8947.849609375,2772.80810546875,21527.609375,2454.916748046875,15068.8486328125,1563.2310791015625,7406.87060546875,23887.953125,18786.587890625,10894.9345703125,-0.0,-47591.52734375,17360.845703125,3668.46728515625,0.0,6241.00341796875,0.0,0.0
12958.0498046875,12261.8671875,29891.33203125,9576.4794921875,25901.0,3843.3076171875,5629.0625,6721.814453125,6847.3818359375,4401.20703125,12116.4326171875,-1010.894775390625,6907.78125,0.0,20345.845703125,3965.69580078125,22515.455078125,17473.697265625,7154.146484375,9532.76953125,20856.857421875,27256.806640625,18289.08984375,16849.8359375,18819.966796875,4540.28466796875,26423.13671875,-2208.55078125,0.0,464.9162292480469,11634.826171875,3877.480712890625,23345.15234375,14349.6201171875,12399.35546875,21990.140625,6976.12744140625,11597.4736328125,6055.037109375,968.774169921875,20633.5390625,6815.59228515625,14616.6484375,9316.603515625,6296.634765625,9743.373046875,9980.99609375,791.5496826171875,7503.82763671875,851.9490356445312,14039.67578125,3930.7275390625,7110.43701171875,1544.952392578125,8953.412109375,2801.418212890625,21534.76171875,2477.1689453125,15091.1015625,1593.430908203125,7420.380859375,23908.615234375,18808.046875,10921.955078125,-0.0,-47569.2734375,17371.97265625,3701.845947265625,0.0,6274.38232421875,0.0,0.0
12946.9228515625,12256.3046875,29883.384765625,9562.96875,25893.052734375,3832.18115234375,5624.29443359375,6713.8671875,6842.61328125,4398.02783203125,12110.07421875,-1024.4051513671875,6906.986328125,0.0,20348.23046875,3960.132568359375,22505.91796875,17464.95703125,7146.19970703125,9533.564453125,20849.705078125,27246.474609375,18280.34765625,16841.888671875,18812.021484375,4522.80029296875,26415.982421875,-2220.4716796875,0.0,445.8427429199219,11625.2900390625,3865.559814453125,23336.41015625,14339.2880859375,12391.408203125,21979.80859375,6971.359375,11588.732421875,6045.50048828125,955.2637939453125,20627.974609375,6802.08203125,14610.291015625,9307.0673828125,6293.45556640625,9737.8095703125,9970.6650390625,779.6287841796875,7490.31689453125,836.0545043945312,14037.2919921875,3921.190673828125,7093.74755859375,1529.057861328125,8950.2333984375,2783.934326171875,21533.169921875,2473.1953125,15093.4853515625,1587.072998046875,7402.89697265625,23903.05078125,18802.484375,10925.1337890625,-0.0,-47579.60546875,17368.79296875,3693.8984375,0.0,6264.05078125,0.0,0.0
12962.818359375,12274.5830078125,29898.484375,9575.6845703125,25912.919921875,3845.691650390625,5637.8046875,6728.96728515625,6857.71337890625,4416.30712890625,12094.1796875,-1006.921142578125,6922.880859375,0.0,20356.974609375,3980.0009765625,22521.814453125,17479.26171875,7161.29931640625,9551.8427734375,20865.599609375,27261.576171875,18294.65234375,16856.193359375,18841.42578125,4537.900390625,26422.341796875,-2206.16650390625,0.0,461.7373046875,11640.3896484375,3879.864990234375,23351.51171875,14353.5927734375,12408.09765625,21994.11328125,6985.66455078125,11603.83203125,6063.779296875,971.1583251953125,20644.6640625,6816.38720703125,14626.185546875,9320.5771484375,6306.96630859375,9753.7041015625,9978.6123046875,794.7285766601562,7510.97998046875,847.9754028320312,14048.4169921875,3938.6748046875,7113.61572265625,1541.7734375,8974.0751953125,2798.239501953125,21541.9140625,2490.679443359375,15102.2275390625,1604.5570068359375,7416.4072265625,23919.740234375,18818.37890625,10946.591796875,-0.0,-47564.5078125,17370.3828125,3715.356201171875,0.0,6289.48193359375,0.0,0.0
12987.4541015625,12303.193359375,29931.86328125,9609.0634765625,25944.708984375,3883.0439453125,5668.798828125,6765.5244140625,6887.91259765625,4456.04345703125,12137.8896484375,-972.747802734375,6937.98046875,0.0,20376.83984375,4021.32666015625,22555.193359375,17512.640625,7196.267578125,9589.1953125,20896.59375,27294.158203125,18328.82421875,16891.95703125,18870.830078125,4574.45751953125,26450.953125,-2168.01953125,0.0,494.3211669921875,11673.767578125,3912.448974609375,23383.298828125,14386.1767578125,12439.88671875,22029.08203125,7017.45361328125,11638.80078125,6089.21044921875,1007.7158203125,20673.275390625,6849.765625,14660.3583984375,9356.33984375,6337.166015625,9790.26171875,10006.427734375,828.9019165039062,7533.232421875,887.7118530273438,14076.232421875,3976.027099609375,7145.40478515625,1575.94677734375,9002.685546875,2830.028564453125,21549.06640625,2528.031494140625,15130.837890625,1644.29345703125,7448.1962890625,23952.326171875,18854.140625,10986.328125,-0.0,-47530.3359375,17390.251953125,3764.62939453125,0.0,6340.3447265625,0.0,0.0
12969.1767578125,12282.53125,29898.484375,9582.8369140625,25913.71484375,3862.380859375,5647.34130859375,6743.2724609375,6860.8916015625,4435.38037109375,12141.8642578125,-995.000244140625,6899.83349609375,0.0,20357.767578125,3995.8955078125,22532.14453125,17488.798828125,7173.22021484375,9564.55859375,20868.77734375,27271.90625,18304.982421875,16872.8828125,18817.583984375,4551.41064453125,26435.8515625,-2187.093017578125,0.0,470.4793395996094,11649.92578125,3890.9912109375,23357.072265625,14361.541015625,12414.455078125,22007.623046875,6994.40625,11616.5478515625,6086.03125,982.2845458984375,20642.28125,6825.923828125,14638.900390625,9334.8818359375,6314.11865234375,9770.3935546875,9967.486328125,803.4705810546875,7491.90673828125,870.227783203125,14056.365234375,3956.1591796875,7120.76806640625,1556.07861328125,8951.8232421875,2807.776123046875,21526.814453125,2503.39501953125,15105.4072265625,1626.0146484375,7421.97021484375,23931.662109375,18831.888671875,10960.1025390625,-0.0,-47554.96875,17387.072265625,3744.76123046875,0.0,6322.06591796875,0.0,0.0
12934.2080078125,12257.099609375,29884.1796875,9558.9951171875,25898.615234375,3841.718017578125,5634.6259765625,6723.40380859375,6838.6396484375,4415.51220703125,12135.505859375,-1021.2262573242188,6886.3232421875,0.0,20350.615234375,3978.4111328125,22508.302734375,17469.724609375,7156.53076171875,9543.8955078125,20850.5,27251.244140625,18287.5,16853.80859375,18800.099609375,4532.33740234375,26425.51953125,-2204.5771484375,0.0,446.6374816894531,11628.46875,3864.76513671875,23338.794921875,14337.69921875,12395.3818359375,21988.55078125,6979.306640625,11599.8583984375,6034.3740234375,957.64794921875,20623.20703125,6804.46630859375,14624.595703125,9317.3984375,6297.4296875,9752.1142578125,9941.2607421875,777.2445678710938,7477.6015625,854.333251953125,14047.623046875,3937.880126953125,7085.00537109375,1527.4683837890625,8927.9814453125,2790.2919921875,21526.814453125,2484.321533203125,15095.07421875,1607.7359619140625,7393.3603515625,23914.97265625,18815.19921875,10937.849609375,-0.0,-47577.22265625,17379.125,3717.740234375,0.0,6307.7607421875,0.0,0.0
12931.82421875,12263.45703125,29884.1796875,9566.943359375,25901.0,3841.718017578125,5629.857421875,6722.60888671875,6832.28173828125,4409.154296875,12141.068359375,-1017.2525634765625,6896.65478515625,0.0,20343.462890625,3976.82177734375,22512.27734375,17471.3125,7154.94140625,9539.921875,20852.884765625,27252.83203125,18285.91015625,16853.013671875,18807.251953125,4537.900390625,26411.21484375,-2204.5771484375,0.0,445.0480041503906,11631.6484375,3869.533447265625,23343.5625,14340.0830078125,12397.765625,21990.93359375,6978.51171875,11599.0634765625,6035.1689453125,962.4163208007812,20625.591796875,6808.43994140625,14619.033203125,9317.3984375,6291.8662109375,9748.935546875,9971.458984375,781.2182006835938,7496.6748046875,853.5385131835938,14037.2919921875,3936.290771484375,7096.1318359375,1529.057861328125,8943.0810546875,2795.060302734375,21531.58203125,2486.705810546875,15087.1279296875,1603.7623291015625,7402.89697265625,23913.3828125,18814.40625,10926.7236328125,-0.0,-47570.0703125,17368.79296875,3708.99853515625,0.0,6287.892578125,0.0,0.0
12935.7978515625,12276.1728515625,29892.921875,9578.8642578125,25912.919921875,3848.075927734375,5633.0361328125,6728.96728515625,6836.25537109375,4413.9228515625,12147.4267578125,-1003.7421875,6908.57568359375,0.0,20345.845703125,3978.4111328125,22524.9921875,17478.466796875,7162.09423828125,9548.6640625,20863.21484375,27263.1640625,18293.0625,16861.7578125,18827.916015625,4543.46337890625,26428.69921875,-2201.398193359375,0.0,456.1742248535156,11640.3896484375,3882.2490234375,23352.3046875,14351.208984375,12407.302734375,21998.8828125,6984.86962890625,11604.626953125,6063.779296875,973.5425415039062,20637.51171875,6814.0029296875,14623.80078125,9320.5771484375,6296.634765625,9754.498046875,9996.0966796875,793.13916015625,7522.90087890625,853.5385131835938,14038.8798828125,3941.85400390625,7119.1787109375,1541.7734375,8966.9228515625,2797.444580078125,21541.9140625,2491.47412109375,15088.7177734375,1606.146484375,7421.17529296875,23922.919921875,18820.76171875,10934.6708984375,-0.0,-47555.76171875,17370.3828125,3710.587646484375,0.0,6273.587890625,0.0,0.0
12937.38671875,12291.2724609375,29912.791015625,9593.9638671875,25934.376953125,3862.380859375,5654.49365234375,6744.06689453125,6846.5869140625,4424.25390625,12151.400390625,-985.4635009765625,6924.47021484375,0.0,20364.126953125,3990.33203125,22540.888671875,17495.951171875,7178.783203125,9559.791015625,20880.69921875,27279.853515625,18310.546875,16876.85546875,18843.015625,4557.7685546875,26454.92578125,-2189.477294921875,0.0,473.6582336425781,11659.462890625,3895.759521484375,23367.404296875,14369.4873046875,12424.7861328125,22016.3671875,7002.353515625,11620.521484375,6078.08447265625,988.642333984375,20654.201171875,6829.8974609375,14647.6435546875,9333.29296875,6313.32421875,9770.3935546875,10004.837890625,806.6495361328125,7526.07958984375,867.0488891601562,14061.1337890625,3956.95361328125,7134.27880859375,1556.873291015625,8964.5390625,2809.365478515625,21555.423828125,2504.189697265625,15107.791015625,1615.6832275390625,7434.68603515625,23941.19921875,18835.86328125,10946.591796875,-0.0,-47538.28125,17371.177734375,3716.945556640625,0.0,6275.1767578125,0.0,0.0
12942.1552734375,12284.119140625,29902.458984375,9588.400390625,25916.099609375,3859.2021484375,5645.751953125,6742.4775390625,6838.6396484375,4426.63818359375,12145.8369140625,-998.1790771484375,6921.29150390625,0.0,20358.5625,3992.71630859375,22534.529296875,17491.181640625,7171.630859375,9558.201171875,20871.95703125,27275.880859375,18301.009765625,16872.8828125,18825.53125,4557.7685546875,26436.646484375,-2189.477294921875,0.0,468.09515380859375,11653.10546875,3887.812255859375,23359.45703125,14361.541015625,12416.044921875,22011.59765625,6993.61181640625,11618.1376953125,6070.13720703125,978.3109130859375,20643.076171875,6824.33447265625,14635.7216796875,9330.9091796875,6305.37646484375,9768.0087890625,9993.712890625,802.6759033203125,7498.26416015625,871.0225219726562,14052.390625,3958.543212890625,7121.56298828125,1551.3101806640625,8957.3857421875,2806.9814453125,21544.298828125,2501.010986328125,15101.4326171875,1619.6568603515625,7424.3544921875,23935.63671875,18832.68359375,10944.20703125,-0.0,-47547.0234375,17370.3828125,3727.277099609375,0.0,6291.8662109375,0.0,0.0
12928.6455078125,12255.509765625,29873.052734375,9559.791015625,25883.515625,3833.770751953125,5615.55224609375,6716.25146484375,6806.8505859375,4399.61767578125,12118.81640625,-1025.199951171875,6906.19140625,0.0,20333.92578125,3966.490234375,22506.71484375,17464.16015625,7143.8154296875,9529.5908203125,20844.140625,27247.271484375,18272.400390625,16845.068359375,18805.662109375,4532.33740234375,26397.705078125,-2213.319091796875,0.0,438.690185546875,11624.4951171875,3860.79150390625,23330.84765625,14333.724609375,12386.6396484375,21986.166015625,6965.00146484375,11589.52734375,6040.73193359375,947.3164672851562,20617.642578125,6798.1083984375,14602.34375,9306.271484375,6276.76611328125,9739.3994140625,9962.7177734375,774.8603515625,7478.39599609375,850.359619140625,14023.78125,3929.93310546875,7090.568359375,1525.0841064453125,8939.90234375,2780.75537109375,21523.634765625,2473.1953125,15076.796875,1591.84130859375,7397.33349609375,23905.435546875,18804.07421875,10914.802734375,-0.0,-47573.25,17366.41015625,3702.640625,0.0,6267.2294921875,0.0,0.0
12927.849609375,12242.0,29864.310546875,9546.2802734375,25876.36328125,3817.876220703125,5602.04150390625,6700.35693359375,6790.1611328125,4380.5439453125,12106.1005859375,-1037.91552734375,6892.68115234375,0.0,20325.978515625,3948.211669921875,22496.380859375,17449.85546875,7128.71533203125,9511.3115234375,20834.603515625,27234.5546875,18259.68359375,16830.763671875,18800.099609375,4518.8271484375,26385.783203125,-2233.982177734375,0.0,425.1798095703125,11613.369140625,3852.84423828125,23323.693359375,14320.2138671875,12375.513671875,21974.244140625,6949.9013671875,11574.427734375,6029.60595703125,936.9849853515625,20608.90234375,6786.1875,14592.01171875,9290.3779296875,6263.255859375,9721.9150390625,9945.2333984375,762.939453125,7475.21728515625,832.8755493164062,14013.44921875,3910.859619140625,7088.1845703125,1513.9580078125,8931.16015625,2762.4765625,21520.45703125,2454.916748046875,15065.669921875,1575.152099609375,7388.591796875,23893.513671875,18788.1796875,10890.166015625,-0.0,-47587.5546875,17358.4609375,3681.9775390625,0.0,6252.92431640625,0.0,0.0
12935.7978515625,12244.3837890625,29870.66796875,9548.6640625,25884.310546875,3816.286865234375,5605.220703125,6698.76708984375,6788.57177734375,4382.13330078125,12113.25390625,-1036.3260498046875,6893.47607421875,0.0,20331.541015625,3949.006591796875,22501.150390625,17453.03515625,7130.3046875,9511.3115234375,20840.16796875,27236.142578125,18261.2734375,16831.556640625,18806.45703125,4518.0322265625,26401.677734375,-2237.160888671875,0.0,426.7692565917969,11618.1376953125,3857.612548828125,23327.669921875,14323.3935546875,12381.87109375,21974.244140625,6953.08056640625,11574.427734375,6033.57958984375,940.1639404296875,20616.0546875,6786.1875,14598.369140625,9289.58203125,6266.43505859375,9723.50390625,9953.181640625,763.7341918945312,7485.54833984375,828.107177734375,14017.4228515625,3909.269775390625,7101.69482421875,1513.1632080078125,8939.90234375,2771.218505859375,21522.83984375,2456.506103515625,15067.259765625,1575.94677734375,7395.744140625,23895.10546875,18788.97265625,10890.9609375,-0.0,-47585.171875,17359.255859375,3687.540771484375,0.0,6258.48779296875,0.0,0.0
12958.0498046875,12267.4306640625,29893.716796875,9567.7373046875,25907.357421875,3835.3603515625,5624.29443359375,6717.8408203125,6808.43994140625,4402.001953125,12143.453125,-1022.0209350585938,6914.138671875,0.0,20349.8203125,3962.516845703125,22521.814453125,17473.697265625,7147.7890625,9532.76953125,20861.625,27256.806640625,18281.9375,16848.24609375,18827.916015625,4536.310546875,26422.341796875,-2219.677001953125,0.0,445.0480041503906,11639.5947265625,3877.480712890625,23349.126953125,14343.26171875,12404.1240234375,21993.318359375,6971.359375,11591.1171875,6051.8583984375,960.826904296875,20639.896484375,6803.67138671875,14619.033203125,9307.0673828125,6284.7138671875,9740.98828125,9971.458984375,778.039306640625,7502.23779296875,842.4122924804688,14037.2919921875,3925.164794921875,7115.99951171875,1529.057861328125,8958.9755859375,2787.907958984375,21539.529296875,2470.81103515625,15088.7177734375,1592.6361083984375,7416.4072265625,23914.1796875,18808.046875,10914.802734375,-0.0,-47574.04296875,17363.23046875,3697.077392578125,0.0,6267.2294921875,0.0,0.0
12956.4599609375,12283.3251953125,29903.25390625,9579.658203125,25914.509765625,3844.89697265625,5633.8310546875,6729.76171875,6818.771484375,4415.51220703125,12144.248046875,-1006.1264038085938,6918.9072265625,0.0,20360.947265625,3976.82177734375,22532.14453125,17484.029296875,7158.12060546875,9546.2802734375,20871.95703125,27266.34375,18290.677734375,16860.9609375,18831.095703125,4543.46337890625,26430.2890625,-2206.16650390625,0.0,459.3531188964844,11649.1318359375,3886.222900390625,23358.6640625,14354.388671875,12412.865234375,22003.650390625,6982.4853515625,11603.83203125,6052.65283203125,978.3109130859375,20646.25390625,6814.7978515625,14628.5693359375,9315.013671875,6295.04541015625,9752.9091796875,9976.2275390625,785.1918334960938,7502.23779296875,853.5385131835938,14046.828125,3937.880126953125,7121.56298828125,1539.3892822265625,8955.7958984375,2799.828857421875,21545.091796875,2485.1162109375,15100.638671875,1605.351806640625,7428.328125,23925.3046875,18819.173828125,10927.517578125,-0.0,-47557.35546875,17381.509765625,3712.971923828125,0.0,6280.740234375,0.0,0.0
12935.001953125,12272.994140625,29893.716796875,9576.4794921875,25901.0,3836.94970703125,5631.44677734375,6726.5830078125,6816.38720703125,4414.71728515625,12137.8896484375,-1005.3316650390625,6906.986328125,0.0,20356.177734375,3972.848388671875,22522.607421875,17475.287109375,7153.35205078125,9547.07421875,20861.625,27260.78125,18283.525390625,16854.60546875,18824.736328125,4529.158203125,26429.494140625,-2212.5244140625,0.0,449.02166748046875,11641.1845703125,3876.68603515625,23351.51171875,14345.6455078125,12402.5341796875,21995.703125,6976.92236328125,11599.8583984375,6046.294921875,967.1846923828125,20629.564453125,6806.8505859375,14620.6220703125,9311.8349609375,6291.8662109375,9749.73046875,9976.2275390625,775.6550903320312,7490.31689453125,844.0017700195312,14046.033203125,3934.701416015625,7115.205078125,1533.031494140625,8947.849609375,2793.47119140625,21527.609375,2483.52685546875,15099.048828125,1601.3780517578125,7421.97021484375,23918.947265625,18816.7890625,10936.259765625,-0.0,-47554.17578125,17387.072265625,3702.640625,0.0,6277.56103515625,0.0,0.0
12969.1767578125,12307.9619140625,29931.068359375,9613.8310546875,25938.353515625,3872.71240234375,5668.798828125,6762.345703125,6857.71337890625,4454.4541015625,12173.65234375,-968.774169921875,6931.623046875,0.0,20385.583984375,4010.995361328125,22559.166015625,17511.048828125,7190.7041015625,9590.78515625,20896.59375,27297.337890625,18318.494140625,16890.3671875,18858.11328125,4560.947265625,26467.642578125,-2175.172119140625,0.0,486.3739013671875,11677.7421875,3912.448974609375,23387.2734375,14383.79296875,12438.296875,22034.64453125,7013.4794921875,11638.0048828125,6092.3896484375,998.973876953125,20665.326171875,6841.818359375,14657.974609375,9347.59765625,6330.01318359375,9787.876953125,10022.322265625,815.3915405273438,7524.490234375,878.9698486328125,14084.9755859375,3973.642822265625,7147.7890625,1575.152099609375,8988.380859375,2822.081298828125,21547.4765625,2518.494873046875,15135.60546875,1642.7039794921875,7459.322265625,23955.50390625,18854.9375,10988.7119140625,-0.0,-47512.84765625,17391.046875,3738.4033203125,0.0,6322.86083984375,0.0,0.0
12984.275390625,12310.345703125,29933.453125,9613.8310546875,25942.326171875,3875.891357421875,5673.5673828125,6763.93505859375,6854.5341796875,4457.63232421875,12174.447265625,-971.1583251953125,6940.36474609375,0.0,20391.146484375,4014.174072265625,22559.9609375,17515.0234375,7191.4990234375,9591.5791015625,20899.7734375,27298.927734375,18320.083984375,16893.544921875,18855.73046875,4566.5107421875,26466.845703125,-2173.582763671875,0.0,487.16864013671875,11680.9208984375,3913.24365234375,23388.86328125,14388.5615234375,12441.4755859375,22036.234375,7015.86376953125,11639.5947265625,6111.462890625,999.7686157226562,20669.302734375,6845.79248046875,14661.1533203125,9348.392578125,6330.80810546875,9791.056640625,10030.26953125,823.3388061523438,7530.84814453125,884.532958984375,14091.33203125,3976.027099609375,7146.19970703125,1580.7152099609375,8995.533203125,2820.49169921875,21566.548828125,2512.13720703125,15137.1953125,1647.472412109375,7460.1171875,23957.09375,18856.525390625,10987.91796875,-0.0,-47515.23046875,17385.482421875,3747.1455078125,0.0,6336.37109375,0.0,0.0
12978.712890625,12303.98828125,29921.53125,9599.5263671875,25926.431640625,3865.559814453125,5647.34130859375,6748.8349609375,6829.8974609375,4440.943359375,12160.9375,-984.668701171875,6935.5966796875,0.0,20375.251953125,3997.484619140625,22548.041015625,17499.923828125,7175.6044921875,9568.5322265625,20886.263671875,27287.80078125,18303.39453125,16880.03515625,18843.015625,4559.35791015625,26442.208984375,-2187.093017578125,0.0,476.837158203125,11667.4111328125,3903.706787109375,23376.94140625,14376.640625,12426.3759765625,22021.9296875,6995.99609375,11622.111328125,6097.15771484375,989.4371337890625,20658.970703125,6833.07666015625,14641.28515625,9335.6767578125,6308.5556640625,9775.9560546875,10017.5546875,809.8284301757812,7517.337890625,873.40673828125,14056.365234375,3961.721923828125,7142.2255859375,1572.767822265625,8987.5859375,2814.9287109375,21568.140625,2504.984619140625,15114.943359375,1629.98828125,7449.78564453125,23941.19921875,18837.451171875,10960.896484375,-0.0,-47529.5390625,17383.09765625,3732.84033203125,0.0,6322.86083984375,0.0,0.0
12962.0234375,12284.9150390625,29900.869140625,9578.068359375,25911.33203125,3843.3076171875,5626.6787109375,6726.5830078125,6807.6455078125,4414.71728515625,12143.453125,-1002.1527709960938,6926.0595703125,0.0,20361.7421875,3975.232666015625,22529.759765625,17479.26171875,7155.736328125,9544.6904296875,20868.77734375,27267.13671875,18285.91015625,16858.578125,18835.068359375,4540.28466796875,26427.904296875,-2208.55078125,0.0,457.763671875,11648.3369140625,3884.63330078125,23360.251953125,14356.7724609375,12408.892578125,22001.265625,6976.12744140625,11599.8583984375,6070.13720703125,971.9530639648438,20643.869140625,6811.61865234375,14621.4169921875,9313.423828125,6288.68701171875,9752.9091796875,9989.73828125,788.3707885742188,7508.595703125,849.5648803710938,14037.2919921875,3940.26416015625,7139.04736328125,1552.10498046875,8970.896484375,2795.060302734375,21558.603515625,2484.321533203125,15095.07421875,1605.351806640625,7430.71240234375,23922.125,18814.40625,10929.90234375,-0.0,-47547.0234375,17372.765625,3709.79296875,0.0,6295.83984375,0.0,0.0
12945.333984375,12269.0205078125,29884.97265625,9559.791015625,25901.794921875,3817.08154296875,5613.16845703125,6701.9462890625,6785.392578125,4381.33837890625,12117.2265625,-1019.6367797851562,6914.93359375,0.0,20343.462890625,3947.416748046875,22513.0703125,17464.16015625,7134.27880859375,9514.4912109375,20853.677734375,27248.859375,18273.1953125,16837.916015625,18834.271484375,4517.2373046875,26418.3671875,-2233.1875,0.0,439.48492431640625,11632.4423828125,3869.533447265625,23341.974609375,14337.69921875,12396.1767578125,21980.603515625,6957.84912109375,11579.1962890625,6051.0634765625,949.70068359375,20627.974609375,6790.9560546875,14609.49609375,9291.171875,6268.8193359375,9727.478515625,9960.333984375,774.8603515625,7499.05908203125,824.9282836914062,14026.958984375,3915.6279296875,7127.92041015625,1529.057861328125,8959.7705078125,2766.4501953125,21541.119140625,2459.68505859375,15077.5908203125,1575.152099609375,7414.02294921875,23903.84765625,18792.947265625,10893.3447265625,-0.0,-47564.5078125,17365.61328125,3672.440673828125,0.0,6248.15625,0.0,0.0
12936.591796875,12270.609375,29881.0,9562.96875,25899.41015625,3818.6708984375,5610.7841796875,6698.76708984375,6786.1875,4375.77587890625,12102.921875,-1018.8421020507812,6909.37060546875,0.0,20337.10546875,3942.6484375,22510.6875,17464.16015625,7131.099609375,9509.72265625,20852.884765625,27247.271484375,18272.400390625,16837.119140625,18833.478515625,4517.2373046875,26414.39453125,-2234.77685546875,0.0,441.0743713378906,11632.4423828125,3867.944091796875,23338.0,14338.4931640625,12394.587890625,21979.013671875,6956.25927734375,11576.0166015625,6050.2685546875,948.9059448242188,20624.796875,6790.1611328125,14609.49609375,9288.7880859375,6268.8193359375,9721.9150390625,9952.3857421875,780.4234619140625,7495.08544921875,824.133544921875,14024.5751953125,3912.448974609375,7120.76806640625,1527.4683837890625,8958.9755859375,2769.629150390625,21530.787109375,2457.30078125,15073.6171875,1568.794189453125,7410.84423828125,23903.05078125,18790.564453125,10888.576171875,-0.0,-47562.9140625,17362.435546875,3666.0830078125,0.0,6231.466796875,0.0,0.0
12935.7978515625,12283.3251953125,29895.3046875,9583.6328125,25905.767578125,3838.5390625,5623.49951171875,6713.8671875,6807.6455078125,4395.6435546875,12129.943359375,-1010.894775390625,6913.34375,0.0,20351.41015625,3960.927490234375,22525.787109375,17477.669921875,7145.40478515625,9528.7958984375,20864.009765625,27261.576171875,18285.91015625,16850.62890625,18830.298828125,4541.0791015625,26423.931640625,-2217.292724609375,0.0,454.5847473144531,11645.953125,3879.864990234375,23352.3046875,14353.5927734375,12408.892578125,21994.11328125,6968.97509765625,11591.1171875,6071.7265625,967.1846923828125,20632.744140625,6807.6455078125,14619.033203125,9306.271484375,6284.7138671875,9737.8095703125,9967.486328125,794.7285766601562,7495.08544921875,844.0017700195312,14035.7021484375,3930.7275390625,7131.89453125,1544.952392578125,8966.1279296875,2787.907958984375,21540.32421875,2470.0166015625,15091.1015625,1587.072998046875,7421.17529296875,23917.357421875,18804.869140625,10913.212890625,-0.0,-47552.5859375,17364.8203125,3687.540771484375,0.0,6264.84521484375,0.0,0.0
12931.029296875,12288.09375,29907.2265625,9601.1162109375,25912.126953125,3850.4599609375,5633.0361328125,6722.60888671875,6817.9765625,4405.1806640625,12140.2744140625,-1000.5632934570312,6914.138671875,0.0,20360.150390625,3971.258544921875,22532.939453125,17486.4140625,7154.146484375,9539.126953125,20868.77734375,27270.31640625,18294.65234375,16860.166015625,18830.298828125,4549.0263671875,26427.111328125,-2207.756103515625,0.0,460.9425964355469,11652.310546875,3887.017578125,23358.6640625,14363.1298828125,12416.044921875,22003.650390625,6975.33251953125,11600.6533203125,6078.87890625,968.774169921875,20639.896484375,6821.15576171875,14625.3896484375,9318.1923828125,6294.25048828125,9748.1416015625,9986.5595703125,797.11279296875,7500.6484375,856.7174072265625,14044.4443359375,3938.6748046875,7124.7421875,1555.283935546875,8971.69140625,2793.47119140625,21544.298828125,2477.963623046875,15101.4326171875,1598.993896484375,7423.5595703125,23923.71484375,18812.814453125,10928.3134765625,-0.0,-47546.2265625,17366.41015625,3698.666748046875,0.0,6282.32958984375,0.0,0.0
12960.43359375,12306.373046875,29935.041015625,9619.3955078125,25939.146484375,3873.50732421875,5656.8779296875,6750.4248046875,6855.3291015625,4439.35400390625,12164.1162109375,-969.5689086914062,6935.5966796875,0.0,20379.224609375,3999.868896484375,22559.166015625,17515.0234375,7178.783203125,9576.4794921875,20895.798828125,27298.1328125,18323.263671875,16887.1875,18850.16796875,4566.5107421875,26450.953125,-2179.145751953125,0.0,483.1949768066406,11680.9208984375,3914.0380859375,23384.888671875,14390.9453125,12443.8603515625,22029.08203125,6999.1748046875,11627.673828125,6082.05810546875,991.8212890625,20666.91796875,6846.5869140625,14651.6162109375,9344.4189453125,6323.65576171875,9776.751953125,10016.7587890625,819.3651733398438,7526.87451171875,877.38037109375,14068.2861328125,3968.080078125,7134.27880859375,1576.7415771484375,8993.1484375,2817.31298828125,21556.21875,2511.34228515625,15123.6845703125,1631.577880859375,7440.2490234375,23952.326171875,18843.015625,10978.380859375,-0.0,-47513.64453125,17389.455078125,3729.6611328125,0.0,6307.7607421875,0.0,0.0
12993.0185546875,12300.80859375,29939.015625,9615.4208984375,25947.888671875,3880.659912109375,5664.03076171875,6756.78271484375,6864.07080078125,4444.9169921875,12173.65234375,-966.3899536132812,6937.185546875,0.0,20383.19921875,4003.0478515625,22567.11328125,17522.970703125,7185.93603515625,9580.453125,20902.953125,27303.6953125,18331.208984375,16893.544921875,18861.29296875,4571.27880859375,26462.873046875,-2172.787841796875,0.0,483.9897155761719,11688.0732421875,3921.190673828125,23393.630859375,14396.5078125,12451.8076171875,22037.029296875,7006.3271484375,11634.826171875,6100.33642578125,990.2318725585938,20674.0703125,6854.5341796875,14658.7685546875,9349.982421875,6330.01318359375,9781.51953125,10014.375,817.7757568359375,7538.79541015625,877.38037109375,14074.6435546875,3972.848388671875,7135.0732421875,1572.767822265625,9001.095703125,2823.670654296875,21551.451171875,2518.494873046875,15126.0693359375,1633.9620361328125,7448.1962890625,23958.68359375,18846.98828125,10985.5341796875,-0.0,-47507.28515625,17396.607421875,3729.6611328125,0.0,6307.7607421875,0.0,0.0
12981.8916015625,12272.994140625,29921.53125,9601.1162109375,25927.224609375,3863.175537109375,5648.93115234375,6734.52978515625,6850.560546875,4425.048828125,12153.78515625,-991.8212890625,6912.54931640625,0.0,20376.046875,3980.79541015625,22547.244140625,17503.103515625,7165.27294921875,9559.791015625,20882.287109375,27283.826171875,18313.7265625,16872.087890625,18842.220703125,4554.58984375,26454.130859375,-2194.24560546875,0.0,458.55841064453125,11668.205078125,3898.9384765625,23371.37890625,14377.4345703125,12431.14453125,22016.3671875,6986.45947265625,11614.958984375,6082.85302734375,975.9266967773438,20655.791015625,6834.666015625,14642.875,9330.9091796875,6314.9130859375,9763.2412109375,9997.685546875,796.3180541992188,7523.6953125,859.1016235351562,14064.3115234375,3950.595947265625,7137.45751953125,1547.3365478515625,8970.1015625,2800.62353515625,21542.70703125,2492.268798828125,15113.353515625,1610.1201171875,7433.89111328125,23938.814453125,18827.119140625,10969.638671875,-0.0,-47535.1015625,17387.8671875,3706.6142578125,0.0,6287.09814453125,0.0,0.0
12969.970703125,12274.5830078125,29910.40625,9596.34765625,25917.6875,3856.81787109375,5637.8046875,6725.7880859375,6844.99755859375,4414.71728515625,12135.505859375,-995.000244140625,6904.60205078125,0.0,20364.126953125,3974.437744140625,22538.50390625,17495.951171875,7156.53076171875,9549.458984375,20874.341796875,27276.673828125,18305.779296875,16864.935546875,18829.50390625,4552.20556640625,26446.18359375,-2201.398193359375,0.0,456.96893310546875,11661.052734375,3891.785888671875,23361.841796875,14370.2822265625,12422.40234375,22008.419921875,6976.12744140625,11606.216796875,6076.49462890625,986.2581787109375,20645.4609375,6826.71875,14633.337890625,9325.3447265625,6305.37646484375,9755.2939453125,9984.9697265625,795.5233154296875,7507.80126953125,855.1279907226562,14054.775390625,3941.05908203125,7151.7626953125,1546.5418701171875,8957.3857421875,2795.855224609375,21535.5546875,2484.321533203125,15101.4326171875,1604.5570068359375,7433.89111328125,23928.484375,18816.7890625,10960.896484375,-0.0,-47535.89453125,17380.71484375,3705.8193359375,0.0,6285.5087890625,0.0,0.0
12976.3291015625,12289.68359375,29907.2265625,9595.5537109375,25918.484375,3861.58642578125,5636.21533203125,6728.17236328125,6850.560546875,4415.51220703125,12133.12109375,-989.4371337890625,6903.80712890625,0.0,20359.357421875,3973.642822265625,22543.271484375,17498.333984375,7159.7099609375,9551.8427734375,20876.7265625,27279.05859375,18309.751953125,16868.91015625,18835.86328125,4554.58984375,26440.62109375,-2199.013916015625,0.0,465.7109680175781,11665.0263671875,3900.52783203125,23364.224609375,14374.255859375,12427.1708984375,22011.59765625,6976.12744140625,11608.6005859375,6089.21044921875,994.2054443359375,20644.6640625,6831.4873046875,14630.158203125,9330.11328125,6305.37646484375,9755.2939453125,9977.0234375,796.3180541992188,7500.6484375,863.0752563476562,14050.0068359375,3942.6484375,7157.32568359375,1548.926025390625,8959.7705078125,2797.444580078125,21540.32421875,2481.9375,15101.4326171875,1605.351806640625,7445.017578125,23930.8671875,18819.173828125,10964.8701171875,-0.0,-47528.7421875,17388.662109375,3693.103759765625,0.0,6279.150390625,0.0,0.0
12985.0703125,12305.5771484375,29913.583984375,9596.34765625,25928.01953125,3867.1494140625,5645.751953125,6734.52978515625,6856.12353515625,4419.4853515625,12140.2744140625,-987.84765625,6915.72802734375,0.0,20364.919921875,3980.0009765625,22547.244140625,17502.30859375,7162.88916015625,9555.81640625,20880.69921875,27283.033203125,18315.314453125,16875.267578125,18842.220703125,4555.38427734375,26446.978515625,-2191.861328125,0.0,468.09515380859375,11669.794921875,3906.091064453125,23370.583984375,14376.640625,12436.70703125,22016.3671875,6983.2802734375,11614.958984375,6093.18408203125,990.2318725585938,20649.43359375,6832.28173828125,14641.28515625,9335.6767578125,6312.529296875,9759.2666015625,9989.73828125,803.4705810546875,7515.74853515625,870.227783203125,14061.1337890625,3949.801025390625,7146.19970703125,1552.899658203125,8968.5126953125,2805.39208984375,21553.0390625,2489.884521484375,15107.791015625,1608.5306396484375,7437.0703125,23938.021484375,18823.146484375,10964.076171875,-0.0,-47523.9765625,17387.072265625,3699.461669921875,0.0,6279.150390625,0.0,0.0
12988.25,12314.3193359375,29911.19921875,9591.5791015625,25921.6640625,3864.76513671875,5642.57275390625,6736.9140625,6860.8916015625,4421.0751953125,12149.810546875,-986.2581787109375,6922.880859375,0.0,20368.099609375,3982.38525390625,22543.271484375,17501.51171875,7162.09423828125,9559.791015625,20875.931640625,27283.033203125,18313.7265625,16874.470703125,18832.68359375,4553.794921875,26434.263671875,-2189.477294921875,0.0,469.6846008300781,11665.8212890625,3902.117431640625,23366.609375,14373.4619140625,12434.3232421875,22016.3671875,6982.4853515625,11616.5478515625,6066.16357421875,989.4371337890625,20643.076171875,6829.8974609375,14637.310546875,9336.4716796875,6314.9130859375,9760.8564453125,9997.685546875,805.06005859375,7516.54296875,868.6383666992188,14056.365234375,3951.390625,7154.94140625,1556.873291015625,8974.8701171875,2806.9814453125,21557.80859375,2493.8583984375,15110.9697265625,1611.7095947265625,7434.68603515625,23937.224609375,18826.326171875,10974.4072265625,-0.0,-47522.3828125,17386.27734375,3707.408935546875,0.0,6287.892578125,0.0,0.0
13015.2705078125,12334.982421875,29925.50390625,9610.6533203125,25931.994140625,3883.0439453125,5650.5205078125,6755.98779296875,6879.1708984375,4442.533203125,12186.3681640625,-958.4426879882812,6937.98046875,0.0,20379.224609375,4004.63720703125,22563.138671875,17518.998046875,7178.783203125,9579.658203125,20891.03125,27300.515625,18327.236328125,16892.751953125,18850.9609375,4572.8681640625,26441.416015625,-2169.609130859375,0.0,489.55279541015625,11682.5107421875,3922.780517578125,23385.68359375,14394.1240234375,12447.0400390625,22033.056640625,6995.201171875,11633.2373046875,6100.33642578125,1007.7158203125,20658.970703125,6847.3818359375,14642.0791015625,9353.955078125,6330.80810546875,9781.51953125,10016.7587890625,828.9019165039062,7522.90087890625,886.9171142578125,14059.5439453125,3972.053466796875,7188.3203125,1579.125732421875,8997.123046875,2828.43896484375,21570.5234375,2516.905517578125,15122.890625,1633.167236328125,7468.859375,23953.119140625,18843.015625,10996.6591796875,-0.0,-47494.5703125,17395.01953125,3732.04541015625,0.0,6313.32421875,0.0,0.0
13014.4755859375,12323.0615234375,29924.7109375,9604.294921875,25933.583984375,3882.2490234375,5654.49365234375,6755.193359375,6878.3759765625,4442.533203125,12183.9833984375,-961.62158203125,6929.23876953125,0.0,20376.83984375,4001.458740234375,22558.37109375,17516.61328125,7177.98876953125,9578.068359375,20890.236328125,27296.54296875,18327.236328125,16891.16015625,18857.3203125,4571.27880859375,26443.80078125,-2169.609130859375,0.0,487.16864013671875,11680.1259765625,3919.6015625,23381.7109375,14390.1513671875,12446.244140625,22029.08203125,6993.61181640625,11632.4423828125,6097.9521484375,998.1790771484375,20661.353515625,6843.408203125,14643.6689453125,9353.1611328125,6328.423828125,9780.724609375,9996.890625,825.7230224609375,7517.337890625,888.506591796875,14064.3115234375,3971.258544921875,7179.578125,1577.5362548828125,8985.99609375,2822.8759765625,21560.98828125,2512.13720703125,15122.890625,1631.577880859375,7471.2431640625,23953.119140625,18842.220703125,10996.6591796875,-0.0,-47495.36328125,17396.607421875,3727.277099609375,0.0,6309.3505859375,0.0,0.0
12994.607421875,12312.7294921875,29918.3515625,9597.9375,25924.841796875,3878.275634765625,5650.5205078125,6750.4248046875,6878.3759765625,4440.14892578125,12174.447265625,-971.1583251953125,6933.21240234375,0.0,20377.63671875,3999.074462890625,22550.423828125,17510.255859375,7175.6044921875,9577.2744140625,20883.083984375,27288.595703125,18320.87890625,16886.392578125,18853.345703125,4564.9208984375,26442.208984375,-2173.582763671875,0.0,477.63189697265625,11672.1796875,3909.269775390625,23373.76171875,14379.8193359375,12440.681640625,22024.3125,6990.4326171875,11629.263671875,6078.08447265625,987.0529174804688,20654.201171875,6838.6396484375,14636.5166015625,9349.982421875,6325.2451171875,9777.5458984375,9989.73828125,814.5968017578125,7526.07958984375,888.506591796875,14065.9013671875,3967.28515625,7165.27294921875,1573.5626220703125,8985.2021484375,2812.544677734375,21561.78125,2506.573974609375,15121.30078125,1629.98828125,7464.0908203125,23946.76171875,18839.041015625,10999.8388671875,-0.0,-47501.72265625,17403.76171875,3725.687744140625,0.0,6307.7607421875,0.0,0.0
12967.5869140625,12314.3193359375,29915.96875,9597.142578125,25920.072265625,3874.302001953125,5647.34130859375,6748.8349609375,6878.3759765625,4440.14892578125,12164.91015625,-971.9530639648438,6925.2646484375,0.0,20375.251953125,4000.663818359375,22546.44921875,17507.87109375,7173.22021484375,9578.8642578125,20879.904296875,27287.005859375,18316.904296875,16883.21484375,18839.8359375,4563.33154296875,26437.44140625,-2175.172119140625,0.0,475.2477111816406,11669.794921875,3902.117431640625,23369.7890625,14378.23046875,12435.9130859375,22022.724609375,6987.25390625,11626.083984375,6065.36865234375,985.4635009765625,20648.638671875,6836.25537109375,14633.337890625,9348.392578125,6324.4501953125,9777.5458984375,10000.0693359375,813.00732421875,7522.90087890625,886.1223754882812,14061.927734375,3967.28515625,7153.35205078125,1575.152099609375,8979.6376953125,2814.1337890625,21557.01171875,2510.547607421875,15120.505859375,1630.7830810546875,7460.912109375,23943.58203125,18837.451171875,11003.8115234375,-0.0,-47501.72265625,17409.32421875,3720.12451171875,0.0,6308.5556640625,0.0,0.0
12954.87109375,12308.7568359375,29910.40625,9589.9892578125,25912.919921875,3868.73876953125,5641.7783203125,6744.06689453125,6869.63427734375,4432.99609375,12160.1416015625,-971.1583251953125,6910.16552734375,0.0,20368.89453125,3995.8955078125,22541.681640625,17501.51171875,7166.0673828125,9570.1220703125,20873.546875,27281.443359375,18312.134765625,16878.447265625,18825.53125,4560.15234375,26430.2890625,-2179.9404296875,0.0,470.4793395996094,11663.4365234375,3898.9384765625,23366.609375,14371.8720703125,12430.3505859375,22015.572265625,6981.69091796875,11621.31640625,6076.49462890625,979.900390625,20639.896484375,6831.4873046875,14628.5693359375,9342.830078125,6318.09228515625,9772.77734375,9996.890625,808.239013671875,7503.82763671875,878.1751098632812,14055.5693359375,3964.90087890625,7154.146484375,1569.5889892578125,8970.896484375,2815.723388671875,21548.271484375,2507.368896484375,15114.943359375,1626.0146484375,7454.55419921875,23939.609375,18833.478515625,10994.275390625,-0.0,-47504.90234375,17402.171875,3720.12451171875,0.0,6306.17138671875,0.0,0.0
12979.5078125,12311.140625,29917.55859375,9593.9638671875,25924.841796875,3874.302001953125,5649.7255859375,6747.24560546875,6872.0185546875,4436.1748046875,12175.2421875,-970.3636474609375,6920.49658203125,0.0,20374.45703125,3997.484619140625,22547.244140625,17507.87109375,7172.42578125,9572.505859375,20881.494140625,27289.390625,18321.671875,16884.8046875,18839.041015625,4565.7158203125,26440.62109375,-2176.76171875,0.0,473.6582336425781,11670.58984375,3904.501708984375,23374.556640625,14378.23046875,12439.88671875,22023.51953125,6990.4326171875,11626.8798828125,6086.826171875,983.0792846679688,20648.638671875,6837.0498046875,14637.310546875,9346.802734375,6323.65576171875,9775.9560546875,10008.017578125,811.4179077148438,7514.95361328125,880.5592651367188,14062.72265625,3966.490234375,7166.8623046875,1570.3836669921875,8978.84375,2817.31298828125,21555.423828125,2505.779296875,15121.30078125,1628.39892578125,7459.322265625,23947.556640625,18839.8359375,10992.6865234375,-0.0,-47504.109375,17398.9921875,3727.277099609375,0.0,6306.96630859375,0.0,0.0
12982.6865234375,12307.1669921875,29919.1484375,9593.9638671875,25932.7890625,3871.917724609375,5656.08349609375,6748.8349609375,6872.81298828125,4437.7646484375,12169.6787109375,-973.5425415039062,6929.23876953125,0.0,20378.431640625,3995.1005859375,22548.833984375,17512.640625,7174.01513671875,9576.4794921875,20884.671875,27290.978515625,18325.646484375,16887.1875,18847.783203125,4562.53662109375,26450.15625,-2182.32470703125,0.0,473.6582336425781,11673.767578125,3902.912109375,23376.146484375,14379.8193359375,12444.6552734375,22027.4921875,6995.201171875,11627.673828125,6081.26318359375,982.2845458984375,20654.99609375,6836.25537109375,14645.2587890625,9346.0078125,6328.423828125,9775.9560546875,10002.4541015625,807.4442749023438,7526.07958984375,874.2014770507812,14069.080078125,3964.90087890625,7154.94140625,1567.99951171875,8985.2021484375,2814.9287109375,21560.98828125,2503.39501953125,15125.2744140625,1626.0146484375,7457.7333984375,23949.94140625,18844.60546875,10995.0703125,-0.0,-47506.4921875,17399.787109375,3722.5087890625,0.0,6304.58203125,0.0,0.0
12976.3291015625,12301.6044921875,29907.2265625,9587.60546875,25922.45703125,3863.970458984375,5648.93115234375,6744.06689453125,6864.07080078125,4430.6123046875,12137.095703125,-974.3372802734375,6911.75439453125,0.0,20372.8671875,3987.153564453125,22540.888671875,17507.076171875,7169.24658203125,9570.1220703125,20877.51953125,27284.623046875,18320.87890625,16880.830078125,18828.7109375,4553.0,26442.208984375,-2185.503662109375,0.0,465.7109680175781,11666.615234375,3895.759521484375,23366.609375,14371.0771484375,12439.091796875,22021.134765625,6988.84326171875,11622.9052734375,6073.31591796875,975.9266967773438,20644.6640625,6827.51318359375,14638.1064453125,9339.650390625,6321.271484375,9771.1875,9978.6123046875,799.4969482421875,7508.595703125,867.0488891601562,14062.72265625,3958.543212890625,7146.994140625,1562.4364013671875,8959.7705078125,2814.9287109375,21553.833984375,2498.626708984375,15116.5322265625,1621.246337890625,7450.58056640625,23945.966796875,18838.248046875,10989.5068359375,-0.0,-47505.6953125,17395.01953125,3712.971923828125,0.0,6299.81396484375,0.0,0.0
12994.607421875,12309.55078125,29922.326171875,9596.34765625,25934.376953125,3874.302001953125,5656.08349609375,6754.3984375,6861.6865234375,4434.58544921875,12149.810546875,-966.3899536132812,6918.1123046875,0.0,20376.83984375,3992.71630859375,22552.013671875,17518.998046875,7177.1943359375,9570.916015625,20887.056640625,27294.158203125,18328.82421875,16890.3671875,18838.248046875,4560.947265625,26448.568359375,-2177.556396484375,0.0,472.863525390625,11676.947265625,3904.501708984375,23377.736328125,14380.6142578125,12448.62890625,22029.876953125,6995.99609375,11629.263671875,6080.46875,983.0792846679688,20658.173828125,6837.0498046875,14646.0537109375,9346.802734375,6326.03955078125,9778.3408203125,9990.533203125,806.6495361328125,7517.337890625,876.5856323242188,14067.490234375,3966.490234375,7174.81005859375,1572.767822265625,8970.1015625,2818.107666015625,21558.603515625,2503.39501953125,15118.1220703125,1626.8094482421875,7459.322265625,23954.7109375,18843.80859375,10985.5341796875,-0.0,-47498.54296875,17393.431640625,3723.303466796875,0.0,6307.7607421875,0.0,0.0
12993.0185546875,12307.1669921875,29921.53125,9597.9375,25939.94140625,3874.302001953125,5656.08349609375,6753.603515625,6852.94482421875,4430.6123046875,12146.6318359375,-970.3636474609375,6919.7021484375,0.0,20373.662109375,3991.921875,22551.21875,17518.998046875,7177.1943359375,9566.1474609375,20891.82421875,27295.748046875,18328.82421875,16892.751953125,18846.193359375,4563.33154296875,26453.3359375,-2179.145751953125,0.0,471.2740478515625,11678.5361328125,3903.706787109375,23379.326171875,14381.408203125,12450.2177734375,22030.671875,6996.79052734375,11630.8525390625,6074.9052734375,981.4898071289062,20663.73828125,6836.25537109375,14649.2314453125,9348.392578125,6325.2451171875,9779.1357421875,9985.7646484375,805.06005859375,7526.87451171875,879.7645263671875,14065.9013671875,3966.490234375,7174.01513671875,1569.5889892578125,8968.5126953125,2811.749755859375,21556.21875,2500.21630859375,15114.1484375,1625.219970703125,7459.322265625,23956.298828125,18841.42578125,10972.8173828125,-0.0,-47505.6953125,17393.431640625,3717.740234375,0.0,6296.634765625,0.0,0.0
12988.25,12304.783203125,29915.96875,9596.34765625,25940.736328125,3876.68603515625,5660.05712890625,6754.3984375,6851.35498046875,4433.79052734375,12139.4794921875,-971.1583251953125,6918.1123046875,0.0,20376.83984375,3990.33203125,22550.423828125,17522.17578125,7177.98876953125,9570.916015625,20892.619140625,27297.337890625,18331.208984375,16893.544921875,18843.80859375,4564.12646484375,26454.130859375,-2179.145751953125,0.0,468.8898620605469,11680.1259765625,3902.117431640625,23378.53125,14381.408203125,12451.8076171875,22033.849609375,6999.1748046875,11634.0322265625,6070.13720703125,981.4898071289062,20664.533203125,6837.0498046875,14651.6162109375,9348.392578125,6323.65576171875,9782.314453125,9975.43359375,804.2653198242188,7524.490234375,886.9171142578125,14070.669921875,3965.69580078125,7158.9150390625,1567.204833984375,8965.3330078125,2813.33935546875,21557.01171875,2497.037109375,15118.9169921875,1623.6304931640625,7456.14404296875,23958.68359375,18846.193359375,10977.5859375,-0.0,-47504.109375,17395.814453125,3710.587646484375,0.0,6293.45556640625,0.0,0.0
12984.275390625,12306.373046875,29915.173828125,9594.7578125,25936.76171875,3875.0966796875,5660.85205078125,6756.78271484375,6851.35498046875,4438.55908203125,12149.810546875,-966.3899536132812,6917.31787109375,0.0,20380.81640625,3991.126953125,22550.423828125,17522.970703125,7181.16748046875,9575.6845703125,20890.236328125,27296.54296875,18328.82421875,16895.13671875,18847.783203125,4561.7421875,26453.3359375,-2175.172119140625,0.0,469.6846008300781,11678.5361328125,3902.912109375,23375.353515625,14379.8193359375,12451.0126953125,22032.26171875,6999.9697265625,11634.826171875,6069.34228515625,981.4898071289062,20656.5859375,6835.46044921875,14650.8212890625,9349.1865234375,6323.65576171875,9785.4931640625,9975.43359375,805.06005859375,7521.3115234375,884.532958984375,14073.8486328125,3968.87451171875,7154.94140625,1567.99951171875,8970.1015625,2814.9287109375,21560.19140625,2500.21630859375,15123.6845703125,1625.219970703125,7456.9384765625,23958.68359375,18850.16796875,10986.328125,-0.0,-47496.95703125,17395.814453125,3709.79296875,0.0,6302.19775390625,0.0,0.0
12980.3017578125,12314.3193359375,29921.53125,9601.1162109375,25936.76171875,3877.480712890625,5663.236328125,6758.3720703125,6849.765625,4441.73828125,12156.962890625,-956.0584716796875,6921.29150390625,0.0,20380.81640625,3998.279541015625,22556.78125,17522.970703125,7183.5517578125,9578.068359375,20894.208984375,27299.72265625,18328.82421875,16898.314453125,18855.73046875,4561.7421875,26454.92578125,-2171.9931640625,0.0,472.863525390625,11681.7158203125,3908.475341796875,23380.12109375,14386.1767578125,12454.1923828125,22037.029296875,7002.353515625,11636.416015625,6071.7265625,987.0529174804688,20656.5859375,6837.0498046875,14652.4111328125,9352.3662109375,6324.4501953125,9789.466796875,9988.1484375,809.8284301757812,7519.72216796875,882.9434814453125,14073.0546875,3973.642822265625,7162.09423828125,1575.94677734375,8978.048828125,2811.749755859375,21564.166015625,2508.9580078125,15118.1220703125,1631.577880859375,7460.912109375,23961.86328125,18853.345703125,10987.1220703125,-0.0,-47486.62109375,17391.83984375,3708.99853515625,0.0,6300.6083984375,0.0,0.0
