14145.3740234375,14012.654296875,31716.029296875,11377.3349609375,27558.802734375,5400.9755859375,7305.1455078125,8327.1669921875,8156.2998046875,5931.0595703125,14742.21484375,-243.98167419433594,8315.24609375,0.0,21895.56640625,5443.89111328125,24174.0546875,19117.990234375,8790.4931640625,10619.9580078125,22412.142578125,28853.416015625,19996.9609375,18649.1015625,20482.541015625,6223.52001953125,28159.619140625,-379.0855407714844,0.0,1326.402099609375,13302.9619140625,5624.29443359375,24983.087890625,15789.6669921875,14185.111328125,23632.048828125,8289.814453125,13248.1259765625,7479.98583984375,3139.177978515625,22168.16015625,8522.669921875,16117.8916015625,10855.1982421875,7937.7490234375,11367.7978515625,11372.56640625,1774.6290283203125,9078.9794921875,2562.205078125,15625.158203125,5691.05126953125,7715.22509765625,2265.771240234375,10235.3095703125,3943.443359375,23080.5078125,3739.197998046875,16452.470703125,2911.885498046875,9015.4013671875,25576.75,20447.572265625,11708.736328125,-0.0,-45444.96484375,18428.9609375,4740.55615234375,0.0,7414.02294921875,0.0,0.0
14139.0166015625,14007.8857421875,31717.6171875,11368.591796875,27554.03515625,5384.28662109375,7287.6611328125,8299.3505859375,8108.61572265625,5850.7919921875,14745.39453125,-224.90818786621094,8326.37109375,0.0,21875.69921875,5418.45947265625,24169.287109375,19106.0703125,8769.03515625,10550.81640625,22408.166015625,28843.083984375,19985.041015625,18631.6171875,20488.896484375,6210.80419921875,28154.0546875,-396.569580078125,0.0,1338.322998046875,13294.2197265625,5621.115234375,24978.318359375,15782.5146484375,14177.9580078125,23617.744140625,8271.53515625,13223.4892578125,7480.7802734375,3129.641357421875,22166.5703125,8506.775390625,16107.5595703125,10835.330078125,7909.93408203125,11327.2666015625,11370.181640625,1765.09228515625,9076.595703125,2547.89990234375,15606.8798828125,5661.646484375,7712.8408203125,2267.360595703125,10243.2568359375,3949.006591796875,23074.9453125,3728.072021484375,16419.88671875,2849.896728515625,9016.1962890625,25562.4453125,20411.810546875,11636.416015625,-0.0,-45443.375,18409.09375,4723.072265625,0.0,7345.67626953125,0.0,0.0
14133.453125,13988.017578125,31711.26171875,11359.0556640625,27541.318359375,5364.41796875,7264.6142578125,8277.0986328125,8083.18408203125,5827.7451171875,14743.8046875,-243.18695068359375,8339.087890625,0.0,21848.677734375,5394.61767578125,24157.365234375,19094.1484375,8748.3720703125,10530.154296875,22397.8359375,28827.986328125,19969.14453125,18613.337890625,20489.693359375,6194.11474609375,28115.11328125,-421.2061462402344,0.0,1319.24951171875,13281.5048828125,5609.1943359375,24968.783203125,15770.59375,14162.8583984375,23603.439453125,8251.6669921875,13204.4150390625,7471.2431640625,3100.236083984375,22158.623046875,8493.2646484375,16085.306640625,10816.2568359375,7887.68115234375,11305.0146484375,11364.619140625,1743.634521484375,9057.521484375,2519.289794921875,15576.6806640625,5640.9833984375,7704.8935546875,2246.69775390625,10255.97265625,3927.548828125,23070.970703125,3704.22998046875,16392.865234375,2824.465576171875,9005.0693359375,25546.55078125,20389.556640625,11638.0048828125,-0.0,-45452.1171875,18393.197265625,4707.97216796875,0.0,7317.06640625,0.0,0.0
14139.0166015625,13984.0439453125,31718.4140625,11363.029296875,27551.650390625,5366.00732421875,7274.15087890625,8287.4296875,8103.05322265625,5854.765625,14747.779296875,-244.77639770507812,8339.8818359375,0.0,21859.009765625,5401.77001953125,24162.134765625,19102.095703125,8760.29296875,10552.40625,22404.193359375,28833.546875,19977.091796875,18619.6953125,20503.998046875,6196.4990234375,28130.212890625,-414.84832763671875,0.0,1317.6600341796875,13287.0673828125,5611.57861328125,24975.935546875,15774.568359375,14169.2158203125,23609.00390625,8261.2041015625,13215.5419921875,7477.6015625,3112.1572265625,22168.16015625,8498.828125,16097.2275390625,10822.61328125,7900.3974609375,11320.908203125,11371.771484375,1745.2239990234375,9068.6484375,2520.879150390625,15591.7802734375,5651.3154296875,7696.15185546875,2246.69775390625,10264.7138671875,3928.34326171875,23067.79296875,3708.20361328125,16406.376953125,2846.7177734375,9002.685546875,25553.703125,20402.2734375,11659.462890625,-0.0,-45448.94140625,18406.708984375,4707.177734375,0.0,7341.703125,0.0,0.0
14146.1689453125,13992.7861328125,31727.154296875,11371.771484375,27560.392578125,5369.1865234375,7288.4560546875,8294.58203125,8127.689453125,5862.712890625,14758.1103515625,-239.2133026123047,8325.5771484375,0.0,21873.31640625,5404.94921875,24171.671875,19110.837890625,8768.2412109375,10567.505859375,22412.142578125,28841.49609375,19986.62890625,18624.46484375,20512.73828125,6200.47216796875,28150.876953125,-414.84832763671875,0.0,1320.8388671875,13294.2197265625,5621.115234375,24984.677734375,15781.720703125,14177.9580078125,23616.15625,8273.125,13221.900390625,7487.9326171875,3124.872802734375,22176.900390625,8505.185546875,16110.73828125,10825.79296875,7915.4970703125,11327.2666015625,11387.666015625,1749.992431640625,9077.3896484375,2524.05810546875,15613.23828125,5653.69921875,7701.71484375,2256.234375,10245.640625,3929.13818359375,23063.818359375,3718.53515625,16427.041015625,2849.10205078125,9011.427734375,25561.650390625,20413.3984375,11670.58984375,-0.0,-45450.52734375,18419.423828125,4707.177734375,0.0,7343.2919921875,0.0,0.0
14135.04296875,13998.349609375,31716.029296875,11370.181640625,27550.0625,5365.212890625,7285.27685546875,8285.83984375,8134.04736328125,5859.53369140625,14747.779296875,-244.77639770507812,8321.6025390625,0.0,21875.69921875,5398.59130859375,24164.517578125,19100.5078125,8761.087890625,10566.7109375,22404.193359375,28836.7265625,19977.888671875,18618.90234375,20480.951171875,6198.08837890625,28136.572265625,-426.7692565917969,0.0,1317.6600341796875,13287.8623046875,5617.9365234375,24975.935546875,15777.74609375,14168.421875,23610.591796875,8266.7666015625,13213.9521484375,7477.6015625,3123.283447265625,22163.390625,8498.828125,16103.5859375,10818.640625,7913.9072265625,11320.908203125,11374.15625,1749.992431640625,9066.263671875,2520.08447265625,15613.23828125,5641.7783203125,7705.6884765625,2259.41357421875,10234.515625,3918.01220703125,23075.73828125,3719.329833984375,16427.041015625,2845.923095703125,9009.837890625,25555.29296875,20410.21875,11669.0,-0.0,-45461.65625,18415.451171875,4701.6142578125,0.0,7343.2919921875,0.0,0.0
14130.2744140625,14004.70703125,31709.671875,11363.029296875,27535.7578125,5358.85498046875,7263.8193359375,8276.3037109375,8123.71533203125,5858.7392578125,14745.39453125,-265.4393615722656,8319.21875,0.0,21863.779296875,5392.2333984375,24157.365234375,19090.17578125,8748.3720703125,10560.353515625,22393.068359375,28827.189453125,19965.171875,18607.775390625,20468.234375,6191.73046875,28111.935546875,-430.7428894042969,0.0,1316.8653564453125,13280.708984375,5613.16845703125,24967.98828125,15768.208984375,14155.705078125,23604.234375,8253.2568359375,13203.62109375,7472.0380859375,3124.872802734375,22152.265625,8495.6484375,16082.12890625,10810.6923828125,7897.2177734375,11313.755859375,11355.876953125,1753.1712646484375,9047.9853515625,2508.9580078125,15583.0380859375,5633.8310546875,7706.4833984375,2254.64501953125,10254.3828125,3910.859619140625,23079.712890625,3703.435302734375,16411.939453125,2845.12841796875,9004.275390625,25543.37109375,20399.09375,11663.4365234375,-0.0,-45488.67578125,18409.88671875,4703.20361328125,0.0,7349.64990234375,0.0,0.0
14135.837890625,14011.0654296875,31709.671875,11367.00390625,27534.166015625,5361.23876953125,7260.640625,8281.0712890625,8122.9208984375,5863.5078125,14743.0107421875,-271.79718017578125,8321.6025390625,0.0,21861.39453125,5400.9755859375,24158.16015625,19092.560546875,8749.9619140625,10561.943359375,22395.453125,28828.779296875,19962.787109375,18608.5703125,20469.82421875,6193.31982421875,28116.703125,-426.7692565917969,0.0,1313.6864013671875,13282.298828125,5613.962890625,24969.578125,15772.1845703125,14158.08984375,23607.412109375,8250.873046875,13204.4150390625,7473.62744140625,3101.031005859375,22154.650390625,8498.828125,16078.94921875,10816.2568359375,7895.62890625,11315.345703125,11349.5185546875,1753.1712646484375,9044.806640625,2510.547607421875,15579.064453125,5637.8046875,7704.8935546875,2247.492431640625,10235.3095703125,3923.574951171875,23075.73828125,3704.22998046875,16411.939453125,2851.486328125,9005.0693359375,25544.166015625,20401.478515625,11666.615234375,-0.0,-45483.11328125,18411.478515625,4719.0986328125,0.0,7353.6240234375,0.0,0.0
14139.8115234375,14002.3232421875,31708.080078125,11347.134765625,27542.11328125,5354.08642578125,7270.17724609375,8278.6875,8126.89501953125,5862.712890625,14743.0107421875,-254.31314086914062,8315.24609375,0.0,21864.572265625,5395.41259765625,24154.185546875,19090.970703125,8749.1669921875,10562.7373046875,22397.041015625,28821.626953125,19968.3515625,18607.775390625,20480.15625,6172.6572265625,28134.1875,-432.3323669433594,0.0,1290.6392822265625,13277.5302734375,5606.015625,24965.60546875,15765.8251953125,14158.884765625,23603.439453125,8254.05078125,13204.4150390625,7476.01171875,3096.2626953125,22160.2109375,8485.3173828125,16089.28125,10813.0771484375,7900.3974609375,11314.5517578125,11362.2353515625,1730.1241455078125,9059.90625,2501.010986328125,15590.9853515625,5633.0361328125,7712.04638671875,2233.982177734375,10237.693359375,3907.680419921875,23064.61328125,3698.666748046875,16416.70703125,2848.307373046875,9001.8916015625,25542.578125,20402.2734375,11665.8212890625,-0.0,-45470.3984375,18410.68359375,4715.91943359375,0.0,7349.64990234375,0.0,0.0
14141.400390625,13996.7607421875,31700.134765625,11347.9296875,27533.373046875,5354.88134765625,7272.5615234375,8276.3037109375,8132.45751953125,5861.12353515625,14735.8583984375,-259.8762512207031,8301.7353515625,0.0,21868.546875,5389.0546875,24149.41796875,19088.5859375,8747.578125,10564.3271484375,22389.09375,28820.037109375,19966.759765625,18606.185546875,20471.4140625,6175.041015625,28138.16015625,-436.3059997558594,0.0,1287.4603271484375,13271.9677734375,5603.63134765625,24956.068359375,15761.8525390625,14152.52734375,23600.259765625,8254.05078125,13204.4150390625,7492.701171875,3105.004638671875,22146.701171875,8484.5224609375,16089.28125,10813.0771484375,7903.57568359375,11312.1669921875,11354.287109375,1726.1505126953125,9051.1640625,2504.189697265625,15595.75390625,5630.65185546875,7711.251953125,2233.982177734375,10243.2568359375,3903.706787109375,23063.818359375,3691.51416015625,16420.68359375,2846.7177734375,9000.3017578125,25540.986328125,20401.478515625,11665.0263671875,-0.0,-45479.13671875,18412.271484375,4704.79345703125,0.0,7346.47119140625,0.0,0.0
14145.3740234375,14007.091796875,31695.365234375,11355.08203125,27523.8359375,5358.060546875,7266.998046875,8276.3037109375,8130.8681640625,5862.712890625,14725.525390625,-254.31314086914062,8296.171875,0.0,21864.572265625,5394.61767578125,24147.033203125,19088.5859375,8747.578125,10562.7373046875,22381.94140625,28821.626953125,19963.58203125,18606.185546875,20449.162109375,6185.373046875,28115.908203125,-433.92181396484375,0.0,1304.9443359375,13270.3779296875,5605.220703125,24951.298828125,15761.056640625,14148.552734375,23599.466796875,8252.4619140625,13205.2109375,7476.806640625,3108.18359375,22135.576171875,8489.291015625,16082.12890625,10813.8720703125,7901.19189453125,11311.3720703125,11348.724609375,1738.8662109375,9028.9111328125,2516.110595703125,15593.369140625,5634.6259765625,7712.04638671875,2246.69775390625,10238.48828125,3910.859619140625,23064.61328125,3700.25634765625,16418.298828125,2849.10205078125,9006.6591796875,25540.986328125,20401.478515625,11661.052734375,-0.0,-45479.13671875,18406.708984375,4708.76708984375,0.0,7351.23974609375,0.0,0.0
14135.837890625,14003.9130859375,31690.59765625,11354.287109375,27517.4765625,5346.93408203125,7254.28271484375,8270.740234375,8123.71533203125,5858.7392578125,14731.8837890625,-242.39222717285156,8318.423828125,0.0,21859.009765625,5391.43896484375,24141.470703125,19077.458984375,8742.0146484375,10557.96875,22375.583984375,28813.6796875,19954.83984375,18599.033203125,20452.341796875,6177.42529296875,28105.578125,-439.48492431640625,0.0,1306.5338134765625,13263.2255859375,5598.86328125,24949.708984375,15757.083984375,14142.1953125,23595.4921875,8245.30859375,13197.2626953125,7456.9384765625,3108.18359375,22132.396484375,8480.548828125,16068.6171875,10803.5400390625,7892.44921875,11308.9873046875,11352.6982421875,1739.660888671875,9043.216796875,2509.7529296875,15580.654296875,5628.267578125,7707.27783203125,2241.134765625,10246.4365234375,3906.8857421875,23070.970703125,3696.28271484375,16410.3515625,2844.333740234375,9000.3017578125,25536.21875,20395.12109375,11659.462890625,-0.0,-45471.19140625,18400.349609375,4708.76708984375,0.0,7351.23974609375,0.0,0.0
14131.86328125,14003.9130859375,31696.95703125,11357.466796875,27530.193359375,5354.08642578125,7259.845703125,8277.0986328125,8127.689453125,5864.30224609375,14738.2421875,-248.75006103515625,8321.6025390625,0.0,21863.779296875,5397.001953125,24147.033203125,19078.25390625,8745.193359375,10561.943359375,22383.53125,28816.857421875,19961.9921875,18603.005859375,20469.82421875,6187.7568359375,28119.8828125,-433.92181396484375,0.0,1304.9443359375,13267.19921875,5601.2470703125,24955.2734375,15760.263671875,14149.3486328125,23600.259765625,8250.873046875,13202.03125,7464.0908203125,3112.951904296875,22145.11328125,8486.9072265625,16077.3603515625,10807.5146484375,7896.42333984375,11314.5517578125,11363.82421875,1743.634521484375,9055.931640625,2518.494873046875,15582.244140625,5631.44677734375,7706.4833984375,2238.75048828125,10254.3828125,3908.475341796875,23072.560546875,3698.666748046875,16413.53125,2849.10205078125,9000.3017578125,25540.193359375,20399.09375,11659.462890625,-0.0,-45469.6015625,18402.734375,4706.3828125,0.0,7352.8291015625,0.0,0.0
14127.095703125,13996.7607421875,31692.982421875,11358.2607421875,27532.578125,5357.265625,7263.8193359375,8279.482421875,8130.07373046875,5869.0703125,14734.2685546875,-257.4920654296875,8306.5029296875,0.0,21864.572265625,5396.20751953125,24148.623046875,19084.611328125,8748.3720703125,10568.30078125,22382.736328125,28820.037109375,19963.58203125,18606.185546875,20459.494140625,6190.14111328125,28119.087890625,-429.1534423828125,0.0,1308.91796875,13268.7880859375,5601.2470703125,24955.2734375,15760.263671875,14150.142578125,23602.64453125,8255.640625,13205.2109375,7460.1171875,3116.130859375,22142.728515625,8490.8798828125,16082.12890625,10810.6923828125,7900.3974609375,11316.935546875,11355.08203125,1743.634521484375,9040.83203125,2520.08447265625,15587.806640625,5634.6259765625,7706.4833984375,2243.518798828125,10243.2568359375,3914.8330078125,23070.970703125,3697.8720703125,16418.298828125,2851.486328125,9001.095703125,25541.783203125,20404.658203125,11663.4365234375,-0.0,-45475.9609375,18405.119140625,4703.99853515625,0.0,7353.6240234375,0.0,0.0
14123.1220703125,13980.865234375,31678.67578125,11347.134765625,27519.068359375,5349.31787109375,7255.8720703125,8274.71484375,8122.12646484375,5864.30224609375,14724.7314453125,-260.6709899902344,8304.9130859375,0.0,21861.39453125,5390.64404296875,24138.29296875,19080.638671875,8742.8095703125,10564.3271484375,22373.19921875,28811.296875,19953.25,18599.033203125,20446.77734375,6176.63037109375,28109.55078125,-437.1007385253906,0.0,1304.9443359375,13258.45703125,5592.5048828125,24944.146484375,15751.5205078125,14141.400390625,23595.4921875,8249.283203125,13199.646484375,7455.34912109375,3107.388671875,22131.6015625,8480.548828125,16073.384765625,10806.7197265625,7895.62890625,11312.1669921875,11337.59765625,1732.50830078125,9027.322265625,2514.521240234375,15581.4482421875,5630.65185546875,7701.71484375,2238.75048828125,10232.130859375,3906.8857421875,23067.79296875,3693.8984375,16417.50390625,2847.512451171875,8990.7646484375,25537.013671875,20400.681640625,11662.642578125,-0.0,-45481.5234375,18404.326171875,4700.8193359375,0.0,7348.85546875,0.0,0.0
14128.6845703125,13976.0966796875,31668.345703125,11342.3662109375,27509.53125,5345.3447265625,7248.7197265625,8267.5615234375,8112.58984375,5857.1494140625,14719.962890625,-268.6182556152344,8314.4501953125,0.0,21857.419921875,5386.67041015625,24131.93359375,19073.486328125,8736.451171875,10557.1748046875,22366.841796875,28806.52734375,19943.71484375,18594.265625,20452.341796875,6171.06787109375,28101.603515625,-443.45855712890625,0.0,1296.9970703125,13252.89453125,5586.1474609375,24937.787109375,15746.751953125,14135.04296875,23591.517578125,8242.1298828125,13193.2900390625,7454.55419921875,3104.2099609375,22126.0390625,8481.34375,16064.6435546875,10799.5673828125,7886.09228515625,11305.0146484375,11326.47265625,1729.3294677734375,9036.8583984375,2509.7529296875,15574.2958984375,5627.47314453125,7696.94677734375,2233.1875,10233.7197265625,3890.196533203125,23063.818359375,3688.33544921875,16411.146484375,2841.15478515625,8980.43359375,25530.65625,20395.12109375,11649.92578125,-0.0,-45490.265625,18398.76171875,4691.28271484375,0.0,7338.52392578125,0.0,0.0
14141.400390625,13997.5546875,31685.830078125,11357.466796875,27523.8359375,5361.23876953125,7258.25634765625,8277.892578125,8116.56298828125,5866.6865234375,14734.2685546875,-257.4920654296875,8319.21875,0.0,21863.779296875,5397.001953125,24145.4453125,19085.408203125,8748.3720703125,10566.7109375,22380.3515625,28823.216796875,19957.224609375,18606.185546875,20462.671875,6189.34619140625,28112.73046875,-429.1534423828125,0.0,1291.4339599609375,13267.994140625,5601.2470703125,24952.09375,15761.8525390625,14148.552734375,23606.619140625,8252.4619140625,13204.4150390625,7472.8330078125,3112.951904296875,22136.369140625,8502.80078125,16075.76953125,10810.6923828125,7894.0390625,11315.345703125,11344.75,1738.8662109375,9050.369140625,2524.852783203125,15583.0380859375,5637.8046875,7708.86767578125,2243.518798828125,10241.66796875,3896.55419921875,23069.380859375,3694.693359375,16416.70703125,2850.691650390625,8992.3544921875,25543.37109375,20403.06640625,11650.7216796875,-0.0,-45477.55078125,18404.326171875,4700.8193359375,0.0,7348.060546875,0.0,0.0
14130.2744140625,14008.681640625,31692.1875,11355.876953125,27530.193359375,5361.23876953125,7263.02490234375,8281.8671875,8118.947265625,5870.66015625,14729.5,-247.16058349609375,8314.4501953125,0.0,21866.1640625,5401.77001953125,24143.853515625,19084.611328125,8750.755859375,10570.685546875,22380.3515625,28819.2421875,19961.19921875,18605.390625,20464.26171875,6186.9619140625,28121.470703125,-425.1798095703125,0.0,1305.739013671875,13268.7880859375,5601.2470703125,24953.68359375,15761.8525390625,14151.732421875,23607.412109375,8254.845703125,13206.0048828125,7477.6015625,3110.56787109375,22141.138671875,8490.8798828125,16082.921875,10813.8720703125,7897.2177734375,11319.3193359375,11347.9296875,1740.45556640625,9054.3427734375,2525.6474609375,15588.6015625,5640.9833984375,7703.30419921875,2252.260986328125,10239.283203125,3906.8857421875,23070.970703125,3697.8720703125,16419.88671875,2857.04931640625,8998.7119140625,25545.755859375,20405.451171875,11661.052734375,-0.0,-45469.6015625,18409.09375,4710.3564453125,0.0,7356.80224609375,0.0,0.0
14119.9423828125,14007.091796875,31689.005859375,11353.4931640625,27528.60546875,5357.265625,7263.8193359375,8278.6875,8121.3310546875,5869.865234375,14722.34765625,-253.5184326171875,8309.681640625,0.0,21866.1640625,5399.3857421875,24140.67578125,19082.228515625,8748.3720703125,10573.8642578125,22377.171875,28815.26953125,19959.607421875,18602.212890625,20460.287109375,6187.7568359375,28120.67578125,-430.7428894042969,0.0,1304.149658203125,13263.2255859375,5595.68408203125,24947.32421875,15756.2880859375,14146.9638671875,23603.439453125,8251.6669921875,13202.826171875,7464.0908203125,3104.2099609375,22137.166015625,8484.5224609375,16081.3330078125,10810.6923828125,7896.42333984375,11317.7294921875,11344.75,1739.660888671875,9052.75390625,2520.879150390625,15587.806640625,5636.21533203125,7690.58837890625,2250.67138671875,10234.515625,3906.8857421875,23069.380859375,3693.103759765625,16419.091796875,2853.870361328125,8994.73828125,25542.578125,20404.658203125,11673.767578125,-0.0,-45480.7265625,18407.50390625,4707.97216796875,0.0,7356.0078125,0.0,0.0
14119.1484375,13999.14453125,31685.830078125,11355.876953125,27526.220703125,5355.67626953125,7259.05078125,8277.892578125,8119.7421875,5871.45458984375,14728.705078125,-257.4920654296875,8304.119140625,0.0,21862.1875,5399.3857421875,24141.470703125,19082.228515625,8745.98828125,10573.8642578125,22376.37890625,28815.26953125,19957.224609375,18599.828125,20461.876953125,6184.578125,28115.11328125,-437.1007385253906,0.0,1296.2022705078125,13262.4306640625,5596.47900390625,24946.53125,15756.2880859375,14145.3740234375,23602.64453125,8250.873046875,13200.4423828125,7455.34912109375,3107.388671875,22134.78125,8484.5224609375,16078.94921875,10808.30859375,7894.0390625,11316.140625,11351.1083984375,1742.0450439453125,9045.6005859375,2513.7265625,15583.0380859375,5635.42041015625,7692.17822265625,2246.69775390625,10229.7470703125,3903.706787109375,23063.818359375,3694.693359375,16415.9140625,2856.254638671875,8993.1484375,25540.986328125,20401.478515625,11666.615234375,-0.0,-45482.3203125,18401.94140625,4708.76708984375,0.0,7354.41845703125,0.0,0.0
14117.55859375,13991.9921875,31685.830078125,11361.439453125,27521.451171875,5350.11279296875,7255.8720703125,8276.3037109375,8104.64208984375,5869.865234375,14735.0625,-255.10787963867188,8307.2978515625,0.0,21857.419921875,5402.56494140625,24140.67578125,19073.486328125,8743.603515625,10561.1484375,22373.19921875,28816.064453125,19951.662109375,18595.853515625,20453.134765625,6186.16748046875,28111.138671875,-439.48492431640625,0.0,1293.818115234375,13260.046875,5596.47900390625,24944.94140625,15758.6728515625,14141.400390625,23600.259765625,8246.8984375,13198.05859375,7453.759765625,3108.978271484375,22130.80859375,8487.701171875,16075.76953125,10805.9248046875,7888.4765625,11312.9619140625,11353.4931640625,1745.2239990234375,9039.2431640625,2508.9580078125,15578.26953125,5637.01025390625,7695.35693359375,2245.903076171875,10239.283203125,3905.29638671875,23059.845703125,3699.461669921875,16407.966796875,2860.228271484375,8989.9697265625,25537.80859375,20396.708984375,11647.5419921875,-0.0,-45480.7265625,18396.376953125,4710.3564453125,0.0,7358.39208984375,0.0,0.0
14120.73828125,13994.3759765625,31685.830078125,11365.4140625,27519.068359375,5347.728515625,7255.8720703125,8275.5087890625,8101.46337890625,5867.4814453125,14738.2421875,-259.0815124511719,8315.24609375,0.0,21861.39453125,5401.77001953125,24143.060546875,19073.486328125,8742.0146484375,10557.1748046875,22373.994140625,28817.654296875,19950.8671875,18596.6484375,20449.162109375,6187.7568359375,28111.138671875,-437.1007385253906,0.0,1300.970703125,13260.046875,5598.068359375,24946.53125,15762.6474609375,14139.8115234375,23601.0546875,8248.48828125,13198.05859375,7459.322265625,3111.362548828125,22130.01171875,8490.8798828125,16076.564453125,10805.1298828125,7886.88671875,11314.5517578125,11357.466796875,1746.8134765625,9042.421875,2514.521240234375,15582.244140625,5637.01025390625,7690.58837890625,2245.903076171875,10240.078125,3910.064697265625,23065.408203125,3698.666748046875,16408.76171875,2855.4599609375,8992.3544921875,25538.603515625,20395.9140625,11639.5947265625,-0.0,-45484.703125,18397.966796875,4704.79345703125,0.0,7356.0078125,0.0,0.0
14111.201171875,13994.3759765625,31688.212890625,11356.6708984375,27519.068359375,5342.96044921875,7252.693359375,8272.330078125,8091.9267578125,5863.5078125,14752.546875,-260.6709899902344,8306.5029296875,0.0,21856.626953125,5399.3857421875,24139.0859375,19074.28125,8740.4248046875,10557.1748046875,22373.994140625,28812.884765625,19948.482421875,18592.67578125,20457.109375,6173.45166015625,28107.9609375,-440.2796325683594,0.0,1296.9970703125,13258.45703125,5595.68408203125,24945.736328125,15757.87890625,14137.427734375,23597.875,8245.30859375,13195.673828125,7463.29638671875,3106.593994140625,22134.78125,8482.9326171875,16074.9755859375,10802.74609375,7883.7080078125,11311.3720703125,11365.4140625,1734.0977783203125,9042.421875,2508.9580078125,15578.26953125,5633.0361328125,7693.767578125,2231.597900390625,10242.4619140625,3895.759521484375,23063.818359375,3695.488037109375,16407.171875,2853.07568359375,8990.7646484375,25534.62890625,20393.529296875,11637.2109375,-0.0,-45486.2890625,18397.966796875,4696.84619140625,0.0,7356.0078125,0.0,0.0
14111.201171875,13991.9921875,31687.419921875,11352.6982421875,27519.068359375,5342.16552734375,7250.30908203125,8270.740234375,8083.9794921875,5864.30224609375,14748.5732421875,-277.36029052734375,8315.24609375,0.0,21851.857421875,5398.59130859375,24134.318359375,19071.8984375,8737.24609375,10555.5849609375,22369.2265625,28811.296875,19945.302734375,18591.0859375,20461.08203125,6173.45166015625,28105.578125,-441.8691101074219,0.0,1286.66552734375,13253.6884765625,5590.12060546875,24943.3515625,15750.7265625,14135.837890625,23594.697265625,8244.5146484375,13193.2900390625,7462.50146484375,3097.057373046875,22131.6015625,8479.7548828125,16074.1806640625,10801.15625,7881.32373046875,11308.9873046875,11361.439453125,1722.1768798828125,9046.3955078125,2506.573974609375,15573.501953125,5631.44677734375,7700.919921875,2230.80322265625,10244.0517578125,3890.196533203125,23066.998046875,3692.30908203125,16403.994140625,2853.07568359375,8985.2021484375,25532.24609375,20391.94140625,11634.0322265625,-0.0,-45493.44140625,18397.173828125,4699.22998046875,0.0,7352.8291015625,0.0,0.0
14113.5859375,13993.5810546875,31681.060546875,11352.6982421875,27519.861328125,5346.1396484375,7255.0771484375,8273.9189453125,8088.748046875,5869.865234375,14719.1689453125,-269.4129943847656,8326.37109375,0.0,21857.419921875,5398.59130859375,24133.5234375,19067.921875,8741.2197265625,10562.7373046875,22367.634765625,28810.501953125,19946.89453125,18594.265625,20453.9296875,6175.041015625,28119.8828125,-438.690185546875,0.0,1293.0234375,13255.2783203125,5588.53125,24942.556640625,15751.5205078125,14135.837890625,23597.08203125,8250.0771484375,13197.2626953125,7462.50146484375,3094.673095703125,22128.423828125,8482.9326171875,16078.94921875,10804.3359375,7887.68115234375,11315.345703125,11345.5458984375,1722.9715576171875,9050.369140625,2506.573974609375,15580.654296875,5637.01025390625,7695.35693359375,2238.75048828125,10231.3359375,3898.9384765625,23070.177734375,3695.488037109375,16409.5546875,2856.254638671875,8987.5859375,25533.041015625,20399.09375,11640.3896484375,-0.0,-45487.87890625,18402.734375,4708.76708984375,0.0,7359.9814453125,0.0,0.0
14120.73828125,13988.8125,31688.212890625,11341.572265625,27523.041015625,5346.93408203125,7255.0771484375,8275.5087890625,8087.95263671875,5871.45458984375,14733.4736328125,-265.4393615722656,8321.6025390625,0.0,21856.626953125,5397.001953125,24135.908203125,19072.69140625,8742.0146484375,10563.533203125,22373.994140625,28812.08984375,19946.89453125,18593.46875,20462.671875,6166.29931640625,28111.138671875,-440.2796325683594,0.0,1287.4603271484375,13256.8671875,5592.5048828125,24944.146484375,15753.111328125,14135.04296875,23600.259765625,8250.873046875,13198.05859375,7464.8857421875,3093.87841796875,22136.369140625,8481.34375,16077.3603515625,10804.3359375,7886.88671875,11316.935546875,11352.6982421875,1711.845458984375,9050.369140625,2502.600341796875,15579.064453125,5635.42041015625,7698.5361328125,2229.213623046875,10241.66796875,3894.96484375,23063.818359375,3693.8984375,16411.939453125,2855.4599609375,8989.9697265625,25535.42578125,20400.681640625,11641.9794921875,-0.0,-45488.67578125,18401.94140625,4706.3828125,0.0,7356.80224609375,0.0,0.0
14120.73828125,13976.8916015625,31685.830078125,11339.1875,27516.68359375,5342.16552734375,7249.51416015625,8271.53515625,8083.9794921875,5868.27587890625,14730.2939453125,-280.5391845703125,8306.5029296875,0.0,21851.857421875,5391.43896484375,24134.318359375,19069.513671875,8738.8349609375,10561.943359375,22370.814453125,28806.52734375,19942.91796875,18590.291015625,20455.51953125,6166.29931640625,28094.44921875,-444.2532958984375,0.0,1284.2813720703125,13252.89453125,5592.5048828125,24940.966796875,15750.7265625,14130.2744140625,23595.4921875,8245.30859375,13194.083984375,7460.912109375,3093.87841796875,22132.396484375,8473.396484375,16068.6171875,10802.74609375,7881.32373046875,11312.1669921875,11349.5185546875,1714.2296142578125,9036.8583984375,2503.39501953125,15573.501953125,5630.65185546875,7695.35693359375,2219.677001953125,10240.078125,3886.222900390625,23051.896484375,3688.33544921875,16407.966796875,2849.896728515625,8984.40625,25529.861328125,20395.9140625,11641.9794921875,-0.0,-45503.77734375,18401.146484375,4702.4091796875,0.0,7351.23974609375,0.0,0.0
14119.1484375,13972.9189453125,31689.005859375,11351.1083984375,27516.68359375,5335.8076171875,7251.8984375,8268.3564453125,8083.18408203125,5867.4814453125,14723.1416015625,-285.30755615234375,8297.7607421875,0.0,21856.626953125,5392.2333984375,24136.701171875,19069.513671875,8737.24609375,10562.7373046875,22373.19921875,28807.322265625,19942.125,18589.49609375,20451.544921875,6173.45166015625,28107.166015625,-446.6374816894531,0.0,1285.870849609375,13253.6884765625,5594.0947265625,24944.146484375,15752.3154296875,14131.86328125,23594.697265625,8246.8984375,13194.083984375,7461.70654296875,3094.673095703125,22135.576171875,8474.1904296875,16072.591796875,10797.1826171875,7882.1181640625,11312.1669921875,11348.724609375,1723.766357421875,9041.626953125,2508.9580078125,15578.26953125,5631.44677734375,7696.94677734375,2219.677001953125,10228.1572265625,3889.401611328125,23055.076171875,3689.130126953125,16410.3515625,2850.691650390625,8982.0224609375,25530.65625,20396.708984375,11640.3896484375,-0.0,-45509.33984375,18402.734375,4703.20361328125,0.0,7352.8291015625,0.0,0.0
14112.7900390625,13968.9443359375,31700.927734375,11356.6708984375,27530.193359375,5339.78125,7257.46142578125,8272.330078125,8085.568359375,5873.04443359375,14731.8837890625,-283.7181091308594,8313.65625,0.0,21860.599609375,5398.59130859375,24141.470703125,19075.87109375,8742.0146484375,10566.7109375,22382.736328125,28814.474609375,19949.27734375,18592.67578125,20471.4140625,6173.45166015625,28118.291015625,-444.2532958984375,0.0,1282.69189453125,13261.6357421875,5597.2734375,24952.888671875,15759.4677734375,14140.60546875,23601.0546875,8254.05078125,13199.646484375,7454.55419921875,3094.673095703125,22148.291015625,8479.7548828125,16083.7177734375,10800.361328125,7886.09228515625,11316.935546875,11363.029296875,1724.56103515625,9055.931640625,2512.13720703125,15583.0380859375,5634.6259765625,7694.5625,2218.08740234375,10239.283203125,3888.60693359375,23066.203125,3695.488037109375,16413.53125,2855.4599609375,8977.25390625,25538.603515625,20401.478515625,11639.5947265625,-0.0,-45506.953125,18404.326171875,4703.99853515625,0.0,7352.0341796875,0.0,0.0
14104.8427734375,13970.5341796875,31698.54296875,11351.1083984375,27519.861328125,5334.21826171875,7247.1298828125,8273.125,8080.80029296875,5870.66015625,14735.8583984375,-290.87066650390625,8312.861328125,0.0,21850.267578125,5397.796875,24139.0859375,19070.306640625,8737.24609375,10566.7109375,22378.763671875,28812.08984375,19941.330078125,18588.701171875,20459.494140625,6167.09375,28100.80859375,-449.8163757324219,0.0,1275.5394287109375,13260.046875,5594.0947265625,24949.708984375,15757.083984375,14135.837890625,23597.08203125,8246.1044921875,13193.2900390625,7449.78564453125,3092.2890625,22141.93359375,8475.7802734375,16069.412109375,10794.798828125,7877.349609375,11312.9619140625,11366.2080078125,1718.2032470703125,9034.474609375,2504.984619140625,15569.52734375,5630.65185546875,7684.23095703125,2214.90869140625,10234.515625,3883.0439453125,23070.177734375,3689.130126953125,16407.966796875,2856.254638671875,8970.896484375,25533.833984375,20397.50390625,11636.416015625,-0.0,-45514.8984375,18401.146484375,4710.3564453125,0.0,7351.23974609375,0.0,0.0
14108.021484375,13981.66015625,31699.33984375,11350.314453125,27519.861328125,5336.6025390625,7247.9248046875,8276.3037109375,8077.62158203125,5876.22314453125,14739.0361328125,-286.89703369140625,8309.681640625,0.0,21854.2421875,5401.77001953125,24143.853515625,19072.69140625,8739.630859375,10569.095703125,22381.94140625,28814.474609375,19942.125,18591.0859375,20455.51953125,6169.47802734375,28100.013671875,-448.2269287109375,0.0,1273.1552734375,13261.6357421875,5597.2734375,24953.68359375,15757.083984375,14138.2216796875,23601.849609375,8248.48828125,13197.2626953125,7460.1171875,3089.110107421875,22143.521484375,8478.1650390625,16071.796875,10797.9775390625,7878.939453125,11316.935546875,11367.7978515625,1716.61376953125,9034.474609375,2504.984619140625,15572.70703125,5633.8310546875,7684.23095703125,2220.4716796875,10229.7470703125,3882.2490234375,23066.203125,3691.51416015625,16410.3515625,2862.612548828125,8978.048828125,25537.013671875,20403.06640625,11638.0048828125,-0.0,-45513.3125,18400.349609375,4717.5087890625,0.0,7356.80224609375,0.0,0.0
14114.3798828125,13982.455078125,31705.6953125,11351.9033203125,27534.166015625,5338.98681640625,7256.66650390625,8279.482421875,8071.26318359375,5878.607421875,14749.3681640625,-282.128662109375,8323.1923828125,0.0,21861.39453125,5403.35986328125,24147.828125,19079.84375,8743.603515625,10570.685546875,22390.68359375,28817.654296875,19950.072265625,18594.265625,20475.38671875,6168.68359375,28113.5234375,-444.2532958984375,0.0,1278.7183837890625,13265.609375,5601.2470703125,24958.453125,15761.8525390625,14148.552734375,23606.619140625,8256.435546875,13201.236328125,7471.2431640625,3100.236083984375,22156.23828125,8479.7548828125,16082.12890625,10802.74609375,7882.91259765625,11319.3193359375,11377.3349609375,1726.9453125,9059.111328125,2506.573974609375,15581.4482421875,5634.6259765625,7693.767578125,2221.2666015625,10253.5888671875,3879.0703125,23068.5859375,3692.30908203125,16414.32421875,2863.4072265625,8981.2275390625,25542.578125,20406.24609375,11634.826171875,-0.0,-45509.33984375,18401.146484375,4711.94580078125,0.0,7356.0078125,0.0,0.0
14109.611328125,13978.4814453125,31704.109375,11349.5185546875,27533.373046875,5337.39697265625,7255.8720703125,8277.892578125,8063.31640625,5877.01806640625,14744.599609375,-279.7444763183594,8317.6298828125,0.0,21857.419921875,5404.94921875,24143.853515625,19079.05078125,8745.193359375,10570.685546875,22388.30078125,28814.474609375,19946.09765625,18594.265625,20471.4140625,6166.29931640625,28111.935546875,-444.2532958984375,0.0,1292.228759765625,13263.2255859375,5598.86328125,24955.2734375,15759.4677734375,14146.9638671875,23603.439453125,8254.845703125,13201.236328125,7464.8857421875,3102.620361328125,22155.443359375,8475.7802734375,16082.921875,10801.951171875,7882.1181640625,11319.3193359375,11378.12890625,1733.3031005859375,9055.1376953125,2504.189697265625,15578.26953125,5635.42041015625,7688.2041015625,2214.90869140625,10244.8466796875,3881.45458984375,23064.61328125,3693.103759765625,16414.32421875,2859.433349609375,8977.25390625,25541.783203125,20405.451171875,11628.46875,-0.0,-45505.36328125,18399.556640625,4710.3564453125,0.0,7356.0078125,0.0,0.0
14107.2275390625,13980.0712890625,31702.517578125,11355.876953125,27527.013671875,5340.576171875,7255.8720703125,8277.0986328125,8058.5478515625,5877.01806640625,14739.8310546875,-276.5655517578125,8307.2978515625,0.0,21852.65234375,5401.77001953125,24140.67578125,19075.07421875,8743.603515625,10569.8896484375,22385.12109375,28813.6796875,19944.509765625,18593.46875,20464.26171875,6167.09375,28113.5234375,-441.8691101074219,0.0,1292.228759765625,13261.6357421875,5597.2734375,24952.888671875,15756.2880859375,14142.990234375,23602.64453125,8253.2568359375,13201.236328125,7464.8857421875,3084.341796875,22148.291015625,8474.986328125,16079.744140625,10801.15625,7880.5283203125,11317.7294921875,11373.3603515625,1731.713623046875,9044.0107421875,2508.16357421875,15579.859375,5633.8310546875,7698.5361328125,2214.114013671875,10228.1572265625,3884.63330078125,23051.896484375,3696.28271484375,16412.734375,2858.638671875,8982.0224609375,25540.193359375,20403.861328125,11626.083984375,-0.0,-45505.36328125,18399.556640625,4711.94580078125,0.0,7356.0078125,0.0,0.0
14099.2802734375,13993.5810546875,31711.26171875,11371.771484375,27546.087890625,5354.88134765625,7272.5615234375,8288.224609375,8067.29052734375,5886.5546875,14750.95703125,-265.4393615722656,8324.7822265625,0.0,21865.3671875,5412.896484375,24150.212890625,19085.408203125,8756.3203125,10581.0166015625,22397.8359375,28824.01171875,19959.607421875,18605.390625,20496.845703125,6183.783203125,28135.77734375,-431.5376281738281,0.0,1293.818115234375,13271.9677734375,5605.220703125,24964.013671875,15765.0322265625,14155.705078125,23617.744140625,8269.9462890625,13212.36328125,7473.62744140625,3101.031005859375,22163.390625,8487.701171875,16100.40625,10814.6669921875,7891.65478515625,11328.0615234375,11374.9501953125,1741.2503662109375,9067.8525390625,2524.852783203125,15598.93359375,5644.16259765625,7706.4833984375,2230.80322265625,10240.078125,3895.759521484375,23051.896484375,3705.8193359375,16424.65625,2868.175537109375,8993.1484375,25552.908203125,20414.98828125,11634.0322265625,-0.0,-45490.265625,18406.708984375,4724.6611328125,0.0,7367.13427734375,0.0,0.0
14109.611328125,14004.70703125,31719.20703125,11381.30859375,27556.419921875,5368.3916015625,7286.07177734375,8297.7607421875,8076.03173828125,5892.91259765625,14753.341796875,-248.75006103515625,8321.6025390625,0.0,21875.69921875,5420.04931640625,24160.54296875,19095.740234375,8769.03515625,10589.7587890625,22407.373046875,28836.7265625,19970.736328125,18616.517578125,20501.61328125,6197.2939453125,28139.75,-418.82196044921875,0.0,1304.9443359375,13282.298828125,5609.1943359375,24971.962890625,15775.3623046875,14167.6259765625,23628.869140625,8280.27734375,13222.6943359375,7474.42236328125,3125.66748046875,22172.1328125,8501.2119140625,16114.7119140625,10826.587890625,7904.3701171875,11336.8037109375,11371.771484375,1754.7607421875,9078.185546875,2541.5419921875,15614.033203125,5652.904296875,7696.15185546875,2245.903076171875,10232.130859375,3909.269775390625,23067.79296875,3717.740234375,16435.78125,2875.328125,9006.6591796875,25564.828125,20425.3203125,11638.80078125,-0.0,-45479.13671875,18411.478515625,4728.63525390625,0.0,7370.31298828125,0.0,0.0
14108.021484375,13991.1962890625,31698.54296875,11373.3603515625,27537.345703125,5359.6494140625,7266.20361328125,8287.4296875,8063.31640625,5881.7861328125,14723.1416015625,-253.5184326171875,8297.7607421875,0.0,21862.984375,5413.69091796875,24149.41796875,19082.228515625,8756.3203125,10578.6328125,22392.2734375,28825.6015625,19953.25,18606.185546875,20475.38671875,6193.31982421875,28109.55078125,-427.5639953613281,0.0,1304.149658203125,13271.1728515625,5600.45263671875,24956.861328125,15768.208984375,14152.52734375,23617.744140625,8265.177734375,13209.9794921875,7462.50146484375,3115.336181640625,22153.853515625,8495.6484375,16095.638671875,10818.640625,7888.4765625,11325.6767578125,11349.5185546875,1753.1712646484375,9044.806640625,2533.5947265625,15589.396484375,5643.36767578125,7684.23095703125,2240.340087890625,10226.5673828125,3906.091064453125,23071.765625,3712.17724609375,16419.091796875,2864.201904296875,8996.3271484375,25552.908203125,20413.3984375,11624.4951171875,-0.0,-45486.2890625,18404.326171875,4717.5087890625,0.0,7358.39208984375,0.0,0.0
14084.1796875,13985.6337890625,31692.1875,11371.771484375,27530.193359375,5355.67626953125,7253.48828125,8283.4560546875,8052.9853515625,5876.22314453125,14700.8896484375,-255.90261840820312,8302.529296875,0.0,21859.009765625,5412.1015625,24143.853515625,19075.87109375,8749.9619140625,10571.4794921875,22384.32421875,28821.626953125,19945.302734375,18599.828125,20462.671875,6191.73046875,28106.37109375,-430.7428894042969,0.0,1303.3548583984375,13264.01953125,5594.88916015625,24951.298828125,15765.8251953125,14145.3740234375,23613.771484375,8258.025390625,13204.4150390625,7462.50146484375,3108.18359375,22149.0859375,8491.67578125,16084.5126953125,10814.6669921875,7879.73388671875,11322.498046875,11348.724609375,1753.1712646484375,9038.4482421875,2530.415771484375,15574.2958984375,5640.1884765625,7676.283203125,2233.982177734375,10244.0517578125,3910.064697265625,23071.765625,3712.971923828125,16411.939453125,2862.612548828125,8985.99609375,25545.755859375,20409.42578125,11616.5478515625,-0.0,-45489.47265625,18397.173828125,4714.330078125,0.0,7353.6240234375,0.0,0.0
14084.1796875,13983.25,31697.75,11374.15625,27534.9609375,5357.265625,7262.22998046875,8286.6357421875,8053.77978515625,5881.7861328125,14707.248046875,-259.0815124511719,8308.0927734375,0.0,21863.779296875,5414.48583984375,24147.828125,19077.458984375,8755.5244140625,10575.4541015625,22387.50390625,28823.216796875,19948.482421875,18603.005859375,20463.466796875,6194.11474609375,28115.11328125,-428.35870361328125,0.0,1296.2022705078125,13267.19921875,5597.2734375,24956.068359375,15766.62109375,14146.9638671875,23616.94921875,8265.177734375,13208.3896484375,7474.42236328125,3110.56787109375,22148.291015625,8493.2646484375,16090.8701171875,10816.2568359375,7885.296875,11326.47265625,11363.82421875,1753.1712646484375,9045.6005859375,2532.800048828125,15583.0380859375,5645.751953125,7680.25732421875,2235.571533203125,10234.515625,3910.064697265625,23067.79296875,3714.5615234375,16419.091796875,2869.76513671875,8986.791015625,25549.73046875,20413.3984375,11617.3427734375,-0.0,-45490.265625,18400.349609375,4719.89306640625,0.0,7360.7763671875,0.0,0.0
14099.2802734375,13981.66015625,31696.95703125,11374.15625,27534.9609375,5362.03369140625,7267.79296875,8291.4033203125,8058.5478515625,5888.14404296875,14727.115234375,-254.31314086914062,8312.06640625,0.0,21863.779296875,5424.8173828125,24148.623046875,19081.43359375,8760.29296875,10582.6064453125,22388.30078125,28825.6015625,19952.455078125,18606.98046875,20464.26171875,6199.677734375,28122.267578125,-424.38507080078125,0.0,1294.6129150390625,13268.7880859375,5599.65771484375,24955.2734375,15767.416015625,14148.552734375,23620.12890625,8271.53515625,13214.7470703125,7476.806640625,3116.130859375,22145.11328125,8495.6484375,16097.2275390625,10821.8193359375,7888.4765625,11331.240234375,11365.4140625,1750.787109375,9044.0107421875,2538.36328125,15588.6015625,5650.5205078125,7688.9990234375,2239.545166015625,10241.66796875,3913.24365234375,23063.818359375,3720.91943359375,16423.06640625,2870.5595703125,8986.791015625,25553.703125,20418.16796875,11623.7001953125,-0.0,-45485.49609375,18408.298828125,4726.2509765625,0.0,7367.13427734375,0.0,0.0
14111.201171875,13984.83984375,31699.33984375,11376.5400390625,27540.525390625,5362.82861328125,7270.9716796875,8291.4033203125,8056.16357421875,5890.5283203125,14739.0361328125,-255.10787963867188,8308.8876953125,0.0,21864.572265625,5424.0224609375,24148.623046875,19082.228515625,8761.8828125,10584.1953125,22389.09375,28826.39453125,19954.83984375,18606.185546875,20461.876953125,6200.47216796875,28131.802734375,-425.9745178222656,0.0,1301.765380859375,13267.994140625,5600.45263671875,24956.068359375,15769.0048828125,14151.732421875,23621.716796875,8274.71484375,13215.5419921875,7472.8330078125,3119.3095703125,22149.880859375,8498.0322265625,16103.5859375,10820.2294921875,7889.27099609375,11332.8291015625,11362.2353515625,1753.1712646484375,9044.0107421875,2538.36328125,15592.5751953125,5651.3154296875,7683.43603515625,2242.72412109375,10246.4365234375,3910.859619140625,23064.61328125,3719.329833984375,16423.06640625,2872.149169921875,8977.25390625,25556.087890625,20421.345703125,11623.7001953125,-0.0,-45491.85546875,18406.708984375,4728.63525390625,0.0,7367.13427734375,0.0,0.0
14116.763671875,13984.0439453125,31693.775390625,11378.12890625,27535.7578125,5358.85498046875,7270.9716796875,8287.4296875,8052.9853515625,5887.349609375,14735.0625,-254.31314086914062,8292.1982421875,0.0,21862.984375,5414.48583984375,24143.060546875,19078.25390625,8758.7041015625,10582.6064453125,22383.53125,28822.421875,19949.27734375,18602.212890625,20446.77734375,6197.2939453125,28116.703125,-429.1534423828125,0.0,1300.970703125,13262.4306640625,5597.2734375,24948.916015625,15764.236328125,14146.9638671875,23616.15625,8272.330078125,13212.36328125,7473.62744140625,3118.51513671875,22142.728515625,8496.443359375,16100.40625,10814.6669921875,7886.88671875,11328.8564453125,11356.6708984375,1750.787109375,9032.08984375,2538.36328125,15592.5751953125,5644.16259765625,7673.10498046875,2239.545166015625,10223.388671875,3907.680419921875,23063.025390625,3714.5615234375,16420.68359375,2868.97021484375,8975.6650390625,25552.115234375,20417.37109375,11622.111328125,-0.0,-45488.67578125,18405.9140625,4726.2509765625,0.0,7367.92919921875,0.0,0.0
14111.201171875,13978.4814453125,31685.03515625,11359.8505859375,27528.60546875,5356.470703125,7261.43505859375,8285.0458984375,8052.9853515625,5883.37548828125,14731.8837890625,-258.28680419921875,8302.529296875,0.0,21859.8046875,5413.69091796875,24136.701171875,19071.1015625,8753.140625,10578.6328125,22377.96875,28816.857421875,19942.125,18598.23828125,20449.95703125,6198.8828125,28104.78125,-430.7428894042969,0.0,1291.4339599609375,13255.2783203125,5594.0947265625,24943.3515625,15757.083984375,14141.400390625,23612.181640625,8266.7666015625,13207.5947265625,7463.29638671875,3118.51513671875,22135.576171875,8490.8798828125,16090.8701171875,10810.6923828125,7880.5283203125,11326.47265625,11360.6455078125,1746.8134765625,9041.626953125,2535.97900390625,15583.0380859375,5639.39404296875,7675.48876953125,2220.4716796875,10227.3623046875,3910.859619140625,23066.203125,3711.382568359375,16417.50390625,2863.4072265625,8975.6650390625,25547.345703125,20411.810546875,11616.5478515625,-0.0,-45484.703125,18404.326171875,4726.2509765625,0.0,7367.92919921875,0.0,0.0
14111.201171875,13981.66015625,31687.419921875,11372.56640625,27528.60546875,5364.41796875,7257.46142578125,8289.814453125,8056.16357421875,5886.5546875,14729.5,-251.928955078125,8307.2978515625,0.0,21859.8046875,5419.25439453125,24141.470703125,19074.28125,8756.3203125,10581.810546875,22379.556640625,28822.421875,19945.302734375,18601.41796875,20452.341796875,6206.83056640625,28111.138671875,-422.7956237792969,0.0,1306.5338134765625,13260.841796875,5598.86328125,24947.32421875,15765.8251953125,14144.580078125,23618.5390625,8268.3564453125,13210.7734375,7461.70654296875,3117.720458984375,22139.548828125,8502.0068359375,16087.6904296875,10817.845703125,7882.91259765625,11330.4453125,11365.4140625,1759.529052734375,9044.806640625,2541.5419921875,15579.859375,5644.16259765625,7688.2041015625,2226.034912109375,10224.978515625,3918.806640625,23067.79296875,3717.740234375,16417.50390625,2868.175537109375,8979.6376953125,25550.5234375,20414.193359375,11618.1376953125,-0.0,-45475.9609375,18405.119140625,4727.84033203125,0.0,7370.31298828125,0.0,0.0
14105.6376953125,13972.123046875,31685.03515625,11376.5400390625,27523.041015625,5361.23876953125,7259.05078125,8288.224609375,8057.75341796875,5888.93896484375,14723.9375,-258.28680419921875,8316.0400390625,0.0,21862.1875,5423.22802734375,24136.701171875,19070.306640625,8756.3203125,10584.1953125,22375.583984375,28819.2421875,19943.71484375,18599.828125,20449.95703125,6194.11474609375,28110.345703125,-423.59033203125,0.0,1302.5601806640625,13257.6630859375,5595.68408203125,24943.3515625,15763.44140625,14139.8115234375,23616.15625,8267.5615234375,13209.9794921875,7453.759765625,3112.1572265625,22135.576171875,8496.443359375,16085.306640625,10817.845703125,7884.50244140625,11330.4453125,11361.439453125,1756.3502197265625,9048.779296875,2538.36328125,15583.0380859375,5646.546875,7688.9990234375,2219.677001953125,10225.7724609375,3912.448974609375,23068.5859375,3721.714111328125,16418.298828125,2873.738525390625,8970.896484375,25547.345703125,20415.783203125,11622.111328125,-0.0,-45481.5234375,18408.298828125,4734.1982421875,0.0,7374.28662109375,0.0,0.0
14092.921875,13959.408203125,31674.701171875,11366.2080078125,27510.32421875,5349.31787109375,7247.9248046875,8275.5087890625,8051.3955078125,5879.40234375,14720.7578125,-272.5919189453125,8310.4775390625,0.0,21853.447265625,5412.896484375,24123.19140625,19057.591796875,8745.193359375,10575.4541015625,22362.8671875,28806.52734375,19931.79296875,18587.11328125,20445.189453125,6183.783203125,28095.24609375,-434.716552734375,0.0,1293.818115234375,13246.5361328125,5582.96826171875,24929.841796875,15750.7265625,14127.890625,23604.234375,8255.640625,13198.8525390625,7448.9912109375,3100.236083984375,22126.0390625,8482.138671875,16075.76953125,10806.7197265625,7874.9658203125,11320.908203125,11352.6982421875,1738.8662109375,9041.626953125,2528.031494140625,15572.70703125,5638.599609375,7684.23095703125,2210.14013671875,10230.541015625,3903.706787109375,23060.640625,3710.587646484375,16409.5546875,2862.612548828125,8954.20703125,25536.21875,20404.658203125,11611.779296875,-0.0,-45500.59375,18397.173828125,4724.6611328125,0.0,7366.33935546875,0.0,0.0
14094.51171875,13957.818359375,31665.962890625,11348.724609375,27502.37890625,5345.3447265625,7238.38818359375,8270.740234375,8047.42138671875,5875.4287109375,14721.552734375,-271.00244140625,8296.171875,0.0,21847.08984375,5408.12841796875,24116.833984375,19052.029296875,8738.8349609375,10571.4794921875,22355.71484375,28799.375,19923.052734375,18580.755859375,20430.087890625,6182.98876953125,28087.296875,-439.48492431640625,0.0,1292.228759765625,13239.3837890625,5577.4052734375,24922.689453125,15743.57421875,14119.1484375,23597.875,8248.48828125,13192.494140625,7446.60693359375,3085.136474609375,22117.296875,8479.7548828125,16066.232421875,10801.15625,7868.607421875,11313.755859375,11347.9296875,1722.9715576171875,9022.5537109375,2525.6474609375,15566.3486328125,5633.8310546875,7686.615234375,2210.934814453125,10224.978515625,3894.170166015625,23051.896484375,3708.20361328125,16404.787109375,2857.04931640625,8948.6435546875,25529.06640625,20400.681640625,11607.0107421875,-0.0,-45503.77734375,18385.251953125,4715.12451171875,0.0,7358.39208984375,0.0,0.0
14106.4326171875,13969.7392578125,31677.0859375,11355.876953125,27510.32421875,5345.3447265625,7245.54052734375,8273.9189453125,8057.75341796875,5880.99169921875,14732.6787109375,-260.6709899902344,8297.7607421875,0.0,21855.83203125,5415.28076171875,24123.986328125,19056.796875,8742.8095703125,10578.6328125,22362.8671875,28807.322265625,19930.205078125,18584.728515625,20440.419921875,6186.9619140625,28099.21875,-433.1270751953125,0.0,1293.0234375,13245.7421875,5584.55810546875,24930.634765625,15747.546875,14124.7109375,23603.439453125,8254.845703125,13198.05859375,7454.55419921875,3086.725830078125,22123.65625,8482.9326171875,16073.384765625,10802.74609375,7874.9658203125,11320.1142578125,11356.6708984375,1725.355712890625,9033.6796875,2527.23681640625,15573.501953125,5637.8046875,7699.33056640625,2216.498046875,10233.7197265625,3898.143798828125,23061.43359375,3714.5615234375,16413.53125,2861.02294921875,8968.5126953125,25533.041015625,20405.451171875,11618.931640625,-0.0,-45501.390625,18393.994140625,4719.0986328125,0.0,7362.36572265625,0.0,0.0
14120.73828125,13988.017578125,31689.005859375,11366.2080078125,27523.8359375,5353.2919921875,7256.66650390625,8285.83984375,8076.8271484375,5900.85986328125,14743.0107421875,-247.955322265625,8314.4501953125,0.0,21869.341796875,5431.17529296875,24135.908203125,19067.921875,8751.5517578125,10591.34765625,22375.583984375,28817.654296875,19942.91796875,18595.853515625,20457.109375,6202.8564453125,28115.908203125,-423.59033203125,0.0,1308.91796875,13255.2783203125,5595.68408203125,24941.763671875,15757.87890625,14137.427734375,23613.771484375,8265.177734375,13207.5947265625,7466.47509765625,3101.82568359375,22135.576171875,8494.853515625,16086.1015625,10815.4609375,7886.88671875,11334.4189453125,11367.7978515625,1738.8662109375,9050.369140625,2539.95263671875,15587.0126953125,5651.3154296875,7708.07275390625,2236.3662109375,10230.541015625,3910.859619140625,23074.9453125,3724.09814453125,16429.423828125,2880.096435546875,8993.1484375,25544.166015625,20418.16796875,11638.80078125,-0.0,-45488.67578125,18412.271484375,4739.76123046875,0.0,7378.26025390625,0.0,0.0
14129.4794921875,13995.96484375,31696.16015625,11382.1025390625,27529.3984375,5361.23876953125,7258.25634765625,8292.1982421875,8077.62158203125,5904.83349609375,14749.3681640625,-245.57113647460938,8322.3984375,0.0,21868.546875,5435.943359375,24143.060546875,19074.28125,8754.73046875,10592.142578125,22382.736328125,28820.833984375,19945.302734375,18599.828125,20465.0546875,6211.5986328125,28118.291015625,-416.4377746582031,0.0,1320.8388671875,13264.01953125,5602.04150390625,24948.916015625,15769.0048828125,14143.7841796875,23619.333984375,8268.3564453125,13212.36328125,7476.806640625,3116.130859375,22144.318359375,8502.0068359375,16090.8701171875,10823.4091796875,7888.4765625,11336.0087890625,11374.15625,1756.3502197265625,9054.3427734375,2549.4892578125,15589.396484375,5656.08349609375,7718.404296875,2256.234375,10238.48828125,3915.6279296875,23073.35546875,3728.86669921875,16431.013671875,2884.86474609375,9005.0693359375,25547.345703125,20419.755859375,11634.0322265625,-0.0,-45479.13671875,18419.423828125,4742.1455078125,0.0,7387.00244140625,0.0,0.0
14122.3271484375,13994.3759765625,31694.572265625,11382.1025390625,27523.8359375,5361.23876953125,7250.30908203125,8288.224609375,8075.2373046875,5899.2705078125,14743.0107421875,-245.57113647460938,8320.80859375,0.0,21862.1875,5430.38037109375,24139.0859375,19070.306640625,8749.9619140625,10587.375,22379.556640625,28820.833984375,19938.9453125,18596.6484375,20457.90234375,6209.21484375,28103.986328125,-417.2325134277344,0.0,1318.4547119140625,13261.6357421875,5597.2734375,24945.736328125,15766.62109375,14139.0166015625,23615.359375,8262.7939453125,13208.3896484375,7471.2431640625,3114.541259765625,22140.34375,8498.828125,16082.12890625,10821.8193359375,7882.1181640625,11329.650390625,11367.7978515625,1757.939697265625,9047.1904296875,2550.2841796875,15581.4482421875,5652.10986328125,7712.04638671875,2249.876708984375,10240.078125,3914.8330078125,23066.203125,3725.687744140625,16422.271484375,2879.3017578125,9002.685546875,25543.37109375,20412.603515625,11626.8798828125,-0.0,-45480.7265625,18417.8359375,4730.224609375,0.0,7383.8232421875,0.0,0.0
14108.8173828125,13979.275390625,31691.390625,11378.12890625,27523.041015625,5358.060546875,7245.54052734375,8284.2509765625,8076.8271484375,5886.5546875,14742.21484375,-244.77639770507812,8324.7822265625,0.0,21862.1875,5425.61181640625,24135.908203125,19065.5390625,8742.8095703125,10577.04296875,22376.37890625,28816.857421875,19934.97265625,18589.49609375,20459.494140625,6206.03564453125,28095.24609375,-420.41143798828125,0.0,1313.6864013671875,13256.8671875,5594.0947265625,24944.146484375,15763.44140625,14135.04296875,23612.181640625,8256.435546875,13202.03125,7470.44873046875,3108.18359375,22140.34375,8494.853515625,16078.94921875,10817.05078125,7878.14404296875,11322.498046875,11369.3876953125,1755.5555419921875,9047.1904296875,2543.131591796875,15576.6806640625,5646.546875,7704.8935546875,2230.80322265625,10232.92578125,3917.21728515625,23065.408203125,3728.072021484375,16419.091796875,2871.354248046875,8994.73828125,25540.193359375,20404.658203125,11616.5478515625,-0.0,-45482.3203125,18416.24609375,4733.40380859375,0.0,7372.697265625,0.0,0.0
14114.3798828125,13984.0439453125,31692.982421875,11377.3349609375,27524.62890625,5353.2919921875,7245.54052734375,8285.83984375,8080.005859375,5884.17041015625,14751.751953125,-254.31314086914062,8327.9609375,0.0,21861.39453125,5428.791015625,24137.49609375,19057.591796875,8742.8095703125,10575.4541015625,22377.171875,28811.296875,19936.5625,18587.908203125,20463.466796875,6198.08837890625,28100.80859375,-421.2061462402344,0.0,1312.8916015625,13256.0732421875,5596.47900390625,24946.53125,15762.6474609375,14135.04296875,23610.591796875,8255.640625,13202.03125,7485.54833984375,3109.77294921875,22142.728515625,8491.67578125,16078.94921875,10816.2568359375,7878.939453125,11324.8828125,11375.7451171875,1751.581787109375,9049.5751953125,2535.18408203125,15575.8857421875,5647.34130859375,7707.27783203125,2216.498046875,10232.92578125,3914.0380859375,23063.025390625,3731.250732421875,16419.091796875,2870.5595703125,8989.1748046875,25539.3984375,20403.06640625,11619.7275390625,-0.0,-45480.7265625,18413.06640625,4742.1455078125,0.0,7374.28662109375,0.0,0.0
14115.9697265625,13991.1962890625,31695.365234375,11370.9765625,27520.65625,5353.2919921875,7243.15625,8283.4560546875,8078.416015625,5880.99169921875,14758.904296875,-255.90261840820312,8322.3984375,0.0,21860.599609375,5435.943359375,24132.728515625,19046.46484375,8743.603515625,10572.2744140625,22376.37890625,28808.912109375,19934.97265625,18587.11328125,20459.494140625,6197.2939453125,28102.3984375,-421.2061462402344,0.0,1308.123291015625,13252.89453125,5596.47900390625,24944.146484375,15757.87890625,14131.0693359375,23607.412109375,8254.05078125,13202.03125,7479.98583984375,3104.2099609375,22141.138671875,8491.67578125,16077.3603515625,10819.435546875,7875.76025390625,11323.29296875,11371.771484375,1744.42919921875,9049.5751953125,2539.95263671875,15574.2958984375,5649.7255859375,7703.30419921875,2215.703369140625,10248.8203125,3907.680419921875,23063.818359375,3729.6611328125,16415.9140625,2869.76513671875,8982.8173828125,25536.21875,20400.681640625,11610.1904296875,-0.0,-45479.13671875,18410.68359375,4741.3505859375,0.0,7365.544921875,0.0,0.0
14112.7900390625,13984.0439453125,31692.1875,11375.7451171875,27519.068359375,5357.265625,7241.56689453125,8277.892578125,8072.85302734375,5868.27587890625,14744.599609375,-253.5184326171875,8309.681640625,0.0,21858.21484375,5425.61181640625,24131.93359375,19044.876953125,8741.2197265625,10562.7373046875,22373.994140625,28810.501953125,19933.3828125,18585.5234375,20457.90234375,6206.83056640625,28099.21875,-422.7956237792969,0.0,1312.8916015625,13252.89453125,5594.0947265625,24940.966796875,15760.263671875,14131.0693359375,23607.412109375,8251.6669921875,13198.8525390625,7472.8330078125,3100.236083984375,22138.75390625,8494.853515625,16074.9755859375,10817.845703125,7874.17138671875,11316.140625,11361.439453125,1748.4029541015625,9044.806640625,2548.694580078125,15573.501953125,5647.34130859375,7693.767578125,2228.4189453125,10236.1044921875,3913.24365234375,23060.640625,3720.12451171875,16412.734375,2858.638671875,8985.2021484375,25534.62890625,20397.50390625,11598.26953125,-0.0,-45484.703125,18406.708984375,4738.96630859375,0.0,7344.0869140625,0.0,0.0
14110.40625,13980.865234375,31691.390625,11376.5400390625,27517.4765625,5356.470703125,7243.951171875,8277.0986328125,8072.05859375,5871.45458984375,14749.3681640625,-264.6446228027344,8297.7607421875,0.0,21858.21484375,5413.69091796875,24131.93359375,19044.080078125,8740.4248046875,10565.9169921875,22373.994140625,28810.501953125,19931.79296875,18583.138671875,20455.51953125,6209.21484375,28104.78125,-430.7428894042969,0.0,1310.5074462890625,13252.89453125,5591.71044921875,24939.37890625,15759.4677734375,14130.2744140625,23605.82421875,8251.6669921875,13195.673828125,7474.42236328125,3098.64697265625,22137.9609375,8496.443359375,16074.9755859375,10810.6923828125,7874.9658203125,11316.935546875,11364.619140625,1743.634521484375,9039.2431640625,2549.4892578125,15576.6806640625,5644.95703125,7702.50927734375,2226.034912109375,10231.3359375,3916.42236328125,23048.71875,3714.5615234375,16417.50390625,2861.02294921875,8986.791015625,25532.24609375,20398.298828125,11604.626953125,-0.0,-45500.59375,18405.119140625,4731.01953125,0.0,7348.85546875,0.0,0.0
14106.4326171875,13979.275390625,31688.212890625,11375.7451171875,27518.271484375,5350.90771484375,7249.51416015625,8277.892578125,8079.21142578125,5880.197265625,14745.39453125,-267.82354736328125,8304.9130859375,0.0,21864.572265625,5412.896484375,24130.34375,19040.90234375,8742.0146484375,10575.4541015625,22372.404296875,28808.1171875,19933.3828125,18581.548828125,20457.90234375,6197.2939453125,28112.73046875,-433.92181396484375,0.0,1306.5338134765625,13250.509765625,5590.12060546875,24937.787109375,15755.4951171875,14128.6845703125,23606.619140625,8256.435546875,13194.87890625,7468.859375,3101.031005859375,22134.78125,8491.67578125,16081.3330078125,10805.1298828125,7879.73388671875,11318.5244140625,11362.2353515625,1740.45556640625,9042.421875,2541.5419921875,15587.0126953125,5642.57275390625,7701.71484375,2219.677001953125,10237.693359375,3905.29638671875,23047.12890625,3710.587646484375,16425.451171875,2861.817626953125,8981.2275390625,25532.24609375,20401.478515625,11615.7529296875,-0.0,-45504.5703125,18412.271484375,4711.94580078125,0.0,7357.59716796875,0.0,0.0
14096.1005859375,13977.6865234375,31678.67578125,11370.9765625,27512.708984375,5344.5498046875,7250.30908203125,8273.9189453125,8079.21142578125,5884.96533203125,14727.115234375,-266.23406982421875,8308.0927734375,0.0,21862.984375,5413.69091796875,24123.986328125,19036.134765625,8738.8349609375,10577.837890625,22366.841796875,28802.552734375,19930.205078125,18578.37109375,20439.625,6188.55126953125,28101.603515625,-439.48492431640625,0.0,1298.5865478515625,13244.9462890625,5582.173828125,24930.634765625,15751.5205078125,14123.9169921875,23601.0546875,8254.05078125,13191.7001953125,7460.912109375,3097.057373046875,22126.0390625,8484.5224609375,16078.94921875,10801.951171875,7876.5556640625,11316.935546875,11353.4931640625,1731.713623046875,9038.4482421875,2530.415771484375,15589.396484375,5638.599609375,7688.9990234375,2210.934814453125,10217.826171875,3892.580810546875,23057.4609375,3706.6142578125,16425.451171875,2863.4072265625,8972.4853515625,25528.2734375,20402.2734375,11618.931640625,-0.0,-45506.953125,18412.271484375,4703.99853515625,0.0,7364.75,0.0,0.0
14098.4853515625,13980.0712890625,31681.060546875,11365.4140625,27513.50390625,5333.423828125,7236.00390625,8268.3564453125,8073.6474609375,5880.99169921875,14731.08984375,-271.79718017578125,8288.224609375,0.0,21858.21484375,5406.53857421875,24120.80859375,19031.3671875,8731.6826171875,10574.658203125,22367.634765625,28799.375,19924.640625,18573.603515625,20453.9296875,6176.63037109375,28088.09375,-450.6111145019531,0.0,1291.4339599609375,13240.9736328125,5578.99462890625,24929.046875,15748.3427734375,14121.5322265625,23597.08203125,8246.1044921875,13186.931640625,7459.322265625,3089.90478515625,22129.216796875,8477.3701171875,16071.0009765625,10795.59375,7867.0185546875,11311.3720703125,11362.2353515625,1726.9453125,9043.216796875,2512.931884765625,15567.9384765625,5628.267578125,7692.17822265625,2212.5244140625,10213.8515625,3879.864990234375,23066.998046875,3695.488037109375,16418.298828125,2861.02294921875,8971.69140625,25521.9140625,20396.708984375,11615.7529296875,-0.0,-45516.4921875,18409.09375,4710.3564453125,0.0,7363.955078125,0.0,0.0
14099.2802734375,13976.8916015625,31677.0859375,11359.0556640625,27512.708984375,5330.24462890625,7232.0302734375,8264.3828125,8068.87890625,5878.607421875,14727.91015625,-278.1549987792969,8297.7607421875,0.0,21859.009765625,5400.1806640625,24118.423828125,19028.1875,8729.298828125,10570.685546875,22362.07421875,28797.78515625,19920.66796875,18570.423828125,20456.314453125,6171.8623046875,28100.013671875,-454.5847473144531,0.0,1285.076171875,13242.5625,5577.4052734375,24928.251953125,15744.3671875,14121.5322265625,23594.697265625,8243.7197265625,13182.1630859375,7452.96484375,3090.699462890625,22130.80859375,8473.396484375,16069.412109375,10792.4150390625,7864.63427734375,11307.3984375,11355.08203125,1726.9453125,9041.626953125,2504.984619140625,15566.3486328125,5622.705078125,7682.6416015625,2215.703369140625,10228.951171875,3875.0966796875,23066.998046875,3689.130126953125,16416.70703125,2856.254638671875,8970.1015625,25521.119140625,20394.326171875,11611.779296875,-0.0,-45518.875,18405.9140625,4705.587890625,0.0,7359.1865234375,0.0,0.0
14098.4853515625,13974.5078125,31675.498046875,11361.439453125,27512.708984375,5336.6025390625,7236.00390625,8265.9716796875,8061.7265625,5879.40234375,14724.7314453125,-281.33392333984375,8299.3505859375,0.0,21859.009765625,5406.53857421875,24121.603515625,19032.955078125,8730.888671875,10569.095703125,22363.662109375,28801.759765625,19923.052734375,18571.21875,20442.009765625,6176.63037109375,28107.9609375,-450.6111145019531,0.0,1289.0498046875,13243.357421875,5579.78955078125,24929.046875,15746.751953125,14122.3271484375,23598.671875,8246.1044921875,13183.7529296875,7450.58056640625,3089.110107421875,22128.423828125,8479.7548828125,16073.384765625,10795.59375,7865.4287109375,11308.9873046875,11347.134765625,1734.0977783203125,9037.654296875,2516.110595703125,15571.1171875,5625.08935546875,7678.66748046875,2217.292724609375,10224.978515625,3879.864990234375,23062.228515625,3690.7197265625,16415.119140625,2859.433349609375,8969.306640625,25524.296875,20395.9140625,11607.806640625,-0.0,-45526.02734375,18404.326171875,4706.3828125,0.0,7359.1865234375,0.0,0.0
14095.306640625,13980.865234375,31680.267578125,11364.619140625,27515.888671875,5339.78125,7235.208984375,8265.9716796875,8056.16357421875,5881.7861328125,14735.0625,-277.36029052734375,8304.119140625,0.0,21853.447265625,5407.33349609375,24123.986328125,19036.134765625,8730.09375,10567.505859375,22369.2265625,28802.552734375,19924.640625,18571.21875,20446.77734375,6176.63037109375,28098.42578125,-447.43218994140625,0.0,1291.4339599609375,13241.767578125,5581.37890625,24932.2265625,15750.7265625,14125.5068359375,23601.0546875,8248.48828125,13185.341796875,7452.96484375,3075.599609375,22131.6015625,8481.34375,16073.384765625,10797.1826171875,7863.044921875,11308.193359375,11357.466796875,1734.0977783203125,9038.4482421875,2523.26318359375,15568.7333984375,5625.8837890625,7680.25732421875,2222.855712890625,10222.5947265625,3883.0439453125,23056.666015625,3693.8984375,16410.3515625,2861.817626953125,8970.1015625,25525.09375,20393.529296875,11605.421875,-0.0,-45521.2578125,18395.58203125,4707.177734375,0.0,7352.8291015625,0.0,0.0
14100.0751953125,13980.865234375,31692.982421875,11371.771484375,27529.3984375,5346.93408203125,7244.74560546875,8272.330078125,8058.5478515625,5886.5546875,14747.779296875,-264.6446228027344,8320.013671875,0.0,21859.8046875,5413.69091796875,24131.93359375,19044.876953125,8738.041015625,10573.8642578125,22379.556640625,28812.08984375,19934.97265625,18578.37109375,20459.494140625,6183.783203125,28108.755859375,-446.6374816894531,0.0,1301.765380859375,13252.89453125,5587.73681640625,24940.966796875,15757.87890625,14135.837890625,23611.38671875,8256.435546875,13192.494140625,7460.912109375,3090.699462890625,22145.90625,8491.67578125,16086.1015625,10805.1298828125,7869.40283203125,11313.755859375,11374.15625,1738.0714111328125,9049.5751953125,2532.00537109375,15579.859375,5629.857421875,7691.38330078125,2217.292724609375,10234.515625,3885.42822265625,23058.255859375,3703.435302734375,16417.50390625,2866.5859375,8973.28125,25533.833984375,20399.888671875,11610.984375,-0.0,-45502.1875,18401.94140625,4720.68798828125,0.0,7356.80224609375,0.0,0.0
14097.6904296875,13968.150390625,31693.775390625,11366.2080078125,27532.578125,5348.5234375,7246.33544921875,8269.9462890625,8050.60107421875,5874.6337890625,14746.189453125,-274.1813659667969,8310.4775390625,0.0,21860.599609375,5412.896484375,24131.140625,19045.671875,8736.451171875,10566.7109375,22380.3515625,28812.08984375,19934.97265625,18578.37109375,20453.134765625,6190.14111328125,28118.291015625,-448.2269287109375,0.0,1286.66552734375,13254.4833984375,5585.3525390625,24943.3515625,15757.083984375,14135.837890625,23611.38671875,8259.6142578125,13189.3154296875,7458.52783203125,3096.2626953125,22149.880859375,8494.0595703125,16092.458984375,10801.951171875,7866.22314453125,11310.5771484375,11371.771484375,1730.9189453125,9044.0107421875,2528.826416015625,15585.4228515625,5625.8837890625,7681.8466796875,2196.6298828125,10240.078125,3875.0966796875,23059.048828125,3708.20361328125,16415.9140625,2857.04931640625,8972.4853515625,25535.42578125,20395.9140625,11605.421875,-0.0,-45502.98046875,18404.326171875,4721.48291015625,0.0,7348.060546875,0.0,0.0
14100.0751953125,13967.3544921875,31693.775390625,11367.00390625,27528.60546875,5350.11279296875,7244.74560546875,8265.9716796875,8049.01123046875,5867.4814453125,14741.4208984375,-284.5128479003906,8299.3505859375,0.0,21857.419921875,5412.896484375,24130.34375,19040.107421875,8734.0673828125,10564.3271484375,22377.96875,28812.08984375,19930.205078125,18576.78125,20446.77734375,6197.2939453125,28095.24609375,-451.4058532714844,0.0,1286.66552734375,13253.6884765625,5586.1474609375,24943.3515625,15758.6728515625,14133.453125,23610.591796875,8256.435546875,13186.13671875,7455.34912109375,3097.85205078125,22146.701171875,8494.0595703125,16087.6904296875,10798.771484375,7862.25048828125,11305.0146484375,11369.3876953125,1729.3294677734375,9029.7060546875,2527.23681640625,15579.859375,5621.115234375,7681.0517578125,2199.013916015625,10238.48828125,3885.42822265625,23057.4609375,3710.587646484375,16412.734375,2855.4599609375,8973.28125,25534.62890625,20393.529296875,11598.26953125,-0.0,-45511.72265625,18402.734375,4720.68798828125,0.0,7344.0869140625,0.0,0.0
14094.51171875,13966.560546875,31691.390625,11356.6708984375,27518.271484375,5322.29736328125,7228.8515625,8254.05078125,8041.85888671875,5860.32861328125,14743.8046875,-282.9233703613281,8302.529296875,0.0,21852.65234375,5405.744140625,24121.603515625,19024.212890625,8722.94140625,10561.1484375,22369.2265625,28797.78515625,19918.283203125,18564.06640625,20459.494140625,6176.63037109375,28085.708984375,-461.7373046875,0.0,1289.844482421875,13242.5625,5578.99462890625,24935.404296875,15746.751953125,14122.3271484375,23594.697265625,8242.9248046875,13175.0107421875,7451.37548828125,3079.573486328125,22139.548828125,8468.6279296875,16071.0009765625,10785.26171875,7852.71337890625,11295.4775390625,11370.9765625,1715.8189697265625,9033.6796875,2510.547607421875,15564.7587890625,5609.9892578125,7690.58837890625,2200.603515625,10241.66796875,3887.812255859375,23055.87109375,3705.8193359375,16408.76171875,2846.7177734375,8966.9228515625,25522.708984375,20385.583984375,11589.52734375,-0.0,-45521.2578125,18401.94140625,4711.94580078125,0.0,7338.52392578125,0.0,0.0
14084.9755859375,13964.17578125,31685.03515625,11353.4931640625,27512.708984375,5321.5029296875,7231.2353515625,8254.845703125,8049.8056640625,5870.66015625,14734.2685546875,-283.7181091308594,8308.0927734375,0.0,21860.599609375,5403.35986328125,24117.62890625,19023.41796875,8723.7353515625,10569.8896484375,22364.458984375,28796.1953125,19915.103515625,18564.06640625,20455.51953125,6172.6572265625,28098.42578125,-463.3267822265625,0.0,1280.3077392578125,13238.5888671875,5573.431640625,24928.251953125,15741.9833984375,14118.353515625,23593.107421875,8244.5146484375,13175.0107421875,7451.37548828125,3061.29443359375,22127.62890625,8468.6279296875,16069.412109375,10785.26171875,7855.89208984375,11298.65625,11359.0556640625,1712.64013671875,9036.8583984375,2510.547607421875,15571.912109375,5612.37353515625,7691.38330078125,2197.424560546875,10236.1044921875,3873.50732421875,23060.640625,3699.461669921875,16415.9140625,2851.486328125,8963.744140625,25521.119140625,20389.556640625,11602.2421875,-0.0,-45526.8203125,18407.50390625,4714.330078125,0.0,7357.59716796875,0.0,0.0
14077.822265625,13968.9443359375,31687.419921875,11351.9033203125,27506.3515625,5319.91357421875,7230.4404296875,8251.6669921875,8050.60107421875,5871.45458984375,14739.0361328125,-290.075927734375,8320.013671875,0.0,21859.8046875,5397.796875,24116.0390625,19023.41796875,8720.5576171875,10569.095703125,22362.8671875,28793.8125,19911.130859375,18560.88671875,20461.876953125,6167.888671875,28094.44921875,-468.09515380859375,0.0,1279.5130615234375,13237.7939453125,5574.2265625,24927.45703125,15741.9833984375,14115.9697265625,23593.107421875,8244.5146484375,13173.4208984375,7456.9384765625,3069.24169921875,22130.80859375,8467.833984375,16067.0283203125,10781.2880859375,7857.48193359375,11297.06640625,11367.00390625,1712.64013671875,9047.1904296875,2508.16357421875,15574.2958984375,5609.9892578125,7679.46240234375,2199.808837890625,10228.951171875,3863.970458984375,23059.845703125,3686.745849609375,16415.9140625,2849.896728515625,8962.94921875,25518.736328125,20387.96875,11601.4482421875,-0.0,-45530.00390625,18410.68359375,4714.330078125,0.0,7361.57080078125,0.0,0.0
14067.490234375,13975.302734375,31687.419921875,11359.0556640625,27503.171875,5317.529296875,7218.51953125,8245.30859375,8038.68017578125,5865.09716796875,14734.2685546875,-290.87066650390625,8320.013671875,0.0,21844.705078125,5393.0283203125,24112.859375,19016.265625,8712.609375,10556.3798828125,22358.89453125,28789.04296875,19903.978515625,18553.734375,20461.876953125,6167.888671875,28079.3515625,-472.06878662109375,0.0,1281.897216796875,13231.4365234375,5575.81591796875,24925.07421875,15741.1904296875,14110.40625,23589.9296875,8234.9775390625,13167.8583984375,7464.8857421875,3085.136474609375,22130.01171875,8464.654296875,16059.080078125,10775.7255859375,7845.56103515625,11289.9140625,11351.9033203125,1726.1505126953125,9039.2431640625,2509.7529296875,15556.8125,5605.220703125,7652.44140625,2201.398193359375,10236.8994140625,3864.76513671875,23060.640625,3680.38818359375,16401.609375,2842.744140625,8958.1806640625,25512.376953125,20377.63671875,11585.552734375,-0.0,-45533.97265625,18405.119140625,4714.330078125,0.0,7352.0341796875,0.0,0.0
14073.0546875,13969.7392578125,31685.03515625,11360.6455078125,27506.3515625,5316.734375,7222.49365234375,8246.1044921875,8038.68017578125,5865.89208984375,14733.4736328125,-285.30755615234375,8312.861328125,0.0,21846.294921875,5394.61767578125,24116.833984375,19016.265625,8713.404296875,10555.5849609375,22361.279296875,28791.427734375,19907.15625,18555.322265625,20457.90234375,6165.50439453125,28085.708984375,-472.06878662109375,0.0,1281.897216796875,13232.2314453125,5581.37890625,24929.841796875,15741.9833984375,14111.201171875,23589.9296875,8235.7724609375,13167.0634765625,7449.78564453125,3078.778564453125,22131.6015625,8463.0654296875,16060.6708984375,10776.51953125,7845.56103515625,11291.50390625,11351.9033203125,1729.3294677734375,9040.83203125,2499.42138671875,15556.8125,5606.81005859375,7668.33642578125,2201.398193359375,10248.8203125,3867.1494140625,23063.025390625,3685.156494140625,16400.01953125,2845.12841796875,8946.259765625,25511.583984375,20377.63671875,11582.375,-0.0,-45530.00390625,18404.326171875,4715.12451171875,0.0,7357.59716796875,0.0,0.0
14079.4111328125,13956.2294921875,31683.4453125,11349.5185546875,27503.966796875,5311.9658203125,7220.90380859375,8243.7197265625,8031.52734375,5865.09716796875,14743.0107421875,-286.102294921875,8304.119140625,0.0,21846.294921875,5394.61767578125,24117.62890625,19016.265625,8711.0205078125,10551.6123046875,22359.689453125,28788.248046875,19907.15625,18554.529296875,20453.134765625,6158.35205078125,28092.861328125,-477.63189697265625,0.0,1273.1552734375,13232.2314453125,5583.76318359375,24929.046875,15738.0107421875,14110.40625,23588.337890625,8236.5673828125,13165.4736328125,7456.14404296875,3076.394287109375,22130.80859375,8459.0908203125,16063.0546875,10774.1357421875,7844.765625,11287.5302734375,11367.7978515625,1726.1505126953125,9038.4482421875,2484.321533203125,15559.1962890625,5606.015625,7693.767578125,2183.9140625,10235.3095703125,3863.175537109375,23061.43359375,3686.745849609375,16396.841796875,2844.333740234375,8940.6962890625,25509.19921875,20373.662109375,11585.552734375,-0.0,-45530.00390625,18401.94140625,4706.3828125,0.0,7362.36572265625,0.0,0.0
14077.02734375,13939.5400390625,31672.318359375,11352.6982421875,27492.046875,5314.35009765625,7209.77783203125,8240.5400390625,8021.1953125,5859.53369140625,14721.552734375,-291.6654052734375,8281.8671875,0.0,21833.578125,5397.796875,24111.271484375,19012.29296875,8704.662109375,10540.4853515625,22351.7421875,28785.86328125,19900.798828125,18550.5546875,20437.240234375,6162.3251953125,28078.556640625,-478.4266052246094,0.0,1277.1287841796875,13225.078125,5574.2265625,24917.125,15736.421875,14103.2529296875,23586.75,8229.4150390625,13161.5,7463.29638671875,3081.16259765625,22115.70703125,8463.0654296875,16053.5185546875,10770.95703125,7836.81884765625,11282.76171875,11355.08203125,1730.9189453125,9020.96484375,2492.268798828125,15549.66015625,5604.42578125,7688.9990234375,2171.9931640625,10194.7783203125,3864.76513671875,23044.744140625,3687.540771484375,16384.125,2844.333740234375,8946.259765625,25506.01953125,20366.509765625,11579.990234375,-0.0,-45534.76953125,18391.609375,4706.3828125,0.0,7359.9814453125,0.0,0.0
14081.7958984375,13941.12890625,31664.37109375,11353.4931640625,27484.89453125,5313.55517578125,7206.5986328125,8238.15625,8026.75927734375,5855.560546875,14718.373046875,-299.6126708984375,8290.6083984375,0.0,21828.810546875,5397.796875,24104.119140625,19004.345703125,8702.2783203125,10542.869140625,22344.58984375,28781.890625,19897.619140625,18547.376953125,20425.3203125,6163.1201171875,28067.4296875,-480.0160827636719,0.0,1282.69189453125,13220.310546875,5567.07373046875,24908.384765625,15733.2421875,14099.2802734375,23581.982421875,8227.0302734375,13156.7314453125,7458.52783203125,3077.189208984375,22106.966796875,8460.6806640625,16046.3662109375,10770.95703125,7836.0244140625,11281.1728515625,11351.1083984375,1727.739990234375,9011.427734375,2493.8583984375,15547.275390625,5601.2470703125,7682.6416015625,2178.35107421875,10213.0576171875,3859.2021484375,23041.56640625,3685.951171875,16381.740234375,2840.35986328125,8950.2333984375,25503.634765625,20365.71484375,11584.7587890625,-0.0,-45541.125,18391.609375,4703.99853515625,0.0,7358.39208984375,0.0,0.0
14087.359375,13954.6396484375,31670.73046875,11351.9033203125,27497.609375,5316.734375,7215.34130859375,8242.9248046875,8045.037109375,5861.12353515625,14738.2421875,-290.87066650390625,8309.681640625,0.0,21839.9375,5400.1806640625,24106.501953125,19007.525390625,8708.63671875,10554.7900390625,22349.357421875,28782.685546875,19907.15625,18550.5546875,20443.59765625,6164.70947265625,28073.787109375,-474.4529724121094,0.0,1286.66552734375,13226.66796875,5569.4580078125,24915.537109375,15734.8310546875,14107.2275390625,23588.337890625,8233.3876953125,13161.5,7448.1962890625,3078.778564453125,22120.4765625,8462.26953125,16056.6962890625,10777.314453125,7845.56103515625,11286.7353515625,11365.4140625,1726.9453125,9030.5009765625,2499.42138671875,15556.017578125,5606.015625,7681.8466796875,2182.32470703125,10255.177734375,3859.996826171875,23051.103515625,3689.130126953125,16394.45703125,2842.744140625,8958.9755859375,25509.19921875,20372.072265625,11599.0634765625,-0.0,-45536.359375,18401.146484375,4705.587890625,0.0,7356.80224609375,0.0,0.0
14080.20703125,13948.28125,31665.962890625,11343.9560546875,27496.814453125,5315.939453125,7216.93017578125,8240.5400390625,8055.369140625,5860.32861328125,14728.705078125,-301.2021484375,8300.1455078125,0.0,21843.115234375,5394.61767578125,24100.939453125,19004.345703125,8707.8408203125,10557.1748046875,22347.76953125,28777.91796875,19907.15625,18547.376953125,20442.009765625,6159.14697265625,28075.376953125,-477.63189697265625,0.0,1277.923583984375,13224.2841796875,5564.689453125,24911.5625,15732.4462890625,14103.2529296875,23585.955078125,8231.00390625,13159.1162109375,7448.1962890625,3082.752197265625,22118.091796875,8459.8857421875,16057.4912109375,10774.1357421875,7847.9453125,11284.3515625,11355.876953125,1721.382080078125,9029.7060546875,2494.653076171875,15556.8125,5603.63134765625,7675.48876953125,2177.556396484375,10229.7470703125,3848.075927734375,23051.103515625,3680.38818359375,16400.814453125,2843.5390625,8952.6171875,25506.01953125,20370.484375,11602.2421875,-0.0,-45541.921875,18405.119140625,4709.56201171875,0.0,7350.44482421875,0.0,0.0
14078.6171875,13939.5400390625,31661.193359375,11347.134765625,27496.01953125,5318.32373046875,7214.54638671875,8238.15625,8064.11083984375,5858.7392578125,14717.5791015625,-313.91778564453125,8297.7607421875,0.0,21843.115234375,5385.0810546875,24098.5546875,19003.548828125,8704.662109375,10557.96875,22346.177734375,28779.505859375,19908.74609375,18547.376953125,20438.03515625,6162.3251953125,28075.376953125,-480.810791015625,0.0,1274.74462890625,13222.6943359375,5561.5107421875,24907.58984375,15731.6533203125,14103.2529296875,23585.955078125,8231.00390625,13159.1162109375,7449.78564453125,3080.3681640625,22114.119140625,8461.4755859375,16058.287109375,10774.9296875,7851.91845703125,11282.76171875,11349.5185546875,1719.792724609375,9026.52734375,2498.626708984375,15558.40234375,5600.45263671875,7677.078125,2179.9404296875,10214.646484375,3844.89697265625,23052.693359375,3673.235595703125,16403.994140625,2841.949462890625,8947.849609375,25503.634765625,20371.279296875,11600.6533203125,-0.0,-45554.63671875,18406.708984375,4709.56201171875,0.0,7351.23974609375,0.0,0.0
14079.4111328125,13945.1025390625,31659.603515625,11353.4931640625,27496.01953125,5325.47607421875,7218.51953125,8246.8984375,8080.005859375,5869.865234375,14722.34765625,-309.1494140625,8297.7607421875,0.0,21847.08984375,5398.59130859375,24101.734375,19005.93359375,8709.4306640625,10567.505859375,22346.177734375,28783.48046875,19911.923828125,18552.14453125,20422.935546875,6167.888671875,28077.759765625,-469.6846008300781,0.0,1280.3077392578125,13224.2841796875,5563.89453125,24909.177734375,15734.8310546875,14105.6376953125,23590.72265625,8234.18359375,13166.2685546875,7448.1962890625,3080.3681640625,22111.734375,8467.833984375,16059.875,10783.671875,7859.07080078125,11289.9140625,11348.724609375,1719.792724609375,9024.9375,2509.7529296875,15562.375,5610.7841796875,7677.078125,2184.708740234375,10221.798828125,3856.81787109375,23052.693359375,3685.156494140625,16409.5546875,2851.486328125,8953.412109375,25506.01953125,20377.63671875,11614.1630859375,-0.0,-45551.4609375,18408.298828125,4723.072265625,0.0,7367.92919921875,0.0,0.0
14073.0546875,13953.8447265625,31664.37109375,11354.287109375,27494.4296875,5323.091796875,7221.69873046875,8251.6669921875,8095.900390625,5877.81298828125,14722.34765625,-301.9968566894531,8300.9404296875,0.0,21855.03515625,5408.12841796875,24105.70703125,19005.140625,8712.609375,10575.4541015625,22347.76953125,28782.685546875,19916.693359375,18552.14453125,20425.3203125,6162.3251953125,28080.14453125,-465.7109680175781,0.0,1285.076171875,13225.078125,5566.27880859375,24909.97265625,15736.421875,14107.2275390625,23590.72265625,8236.5673828125,13169.4482421875,7446.60693359375,3089.90478515625,22114.912109375,8468.6279296875,16060.6708984375,10786.056640625,7866.22314453125,11294.6826171875,11354.287109375,1721.382080078125,9025.7333984375,2504.984619140625,15568.7333984375,5616.3466796875,7674.69384765625,2185.503662109375,10226.5673828125,3863.175537109375,23053.48828125,3690.7197265625,16416.70703125,2860.228271484375,8955.001953125,25507.609375,20381.609375,11625.2900390625,-0.0,-45549.87109375,18409.88671875,4731.81396484375,0.0,7375.8759765625,0.0,0.0
14068.2861328125,13955.43359375,31665.1640625,11355.08203125,27493.634765625,5321.5029296875,7220.109375,8248.48828125,8095.900390625,5873.8388671875,14702.4794921875,-302.7915954589844,8294.58203125,0.0,21850.267578125,5405.744140625,24102.529296875,19003.548828125,8710.2255859375,10571.4794921875,22346.177734375,28780.302734375,19915.8984375,18548.96484375,20431.677734375,6162.3251953125,28076.966796875,-468.09515380859375,0.0,1277.923583984375,13223.4892578125,5564.689453125,24906.0,15734.8310546875,14104.8427734375,23589.9296875,8234.9775390625,13165.4736328125,7444.22314453125,3093.083740234375,22116.501953125,8467.833984375,16058.287109375,10781.2880859375,7863.044921875,11290.7099609375,11342.3662109375,1711.0506591796875,9026.52734375,2500.21630859375,15566.3486328125,5613.962890625,7659.59423828125,2179.145751953125,10218.6201171875,3859.996826171875,23048.71875,3689.130126953125,16415.9140625,2858.638671875,8953.412109375,25505.224609375,20376.83984375,11620.521484375,-0.0,-45547.484375,18408.298828125,4727.84033203125,0.0,7367.92919921875,0.0,0.0
14057.1591796875,13941.923828125,31658.01171875,11351.9033203125,27493.634765625,5320.7080078125,7214.54638671875,8243.7197265625,8091.13232421875,5861.91796875,14688.96875,-318.6861572265625,8285.83984375,0.0,21845.5,5398.59130859375,24096.169921875,18999.576171875,8705.45703125,10563.533203125,22341.41015625,28778.7109375,19914.30859375,18545.78515625,20432.47265625,6158.35205078125,28080.939453125,-473.6582336425781,0.0,1263.618408203125,13219.515625,5556.7421875,24900.435546875,15730.857421875,14100.869140625,23586.75,8231.798828125,13159.9111328125,7434.68603515625,3080.3681640625,22111.734375,8469.421875,16057.4912109375,10778.109375,7859.07080078125,11285.94140625,11322.498046875,1691.9771728515625,9023.3486328125,2496.242431640625,15564.7587890625,5607.60498046875,7648.4677734375,2164.8408203125,10198.751953125,3845.691650390625,23034.4140625,3685.951171875,16411.939453125,2850.691650390625,8944.6708984375,25502.046875,20372.072265625,11602.2421875,-0.0,-45553.84375,18401.94140625,4719.0986328125,0.0,7352.8291015625,0.0,0.0
14033.3173828125,13935.56640625,31656.42578125,11346.33984375,27499.994140625,5320.7080078125,7222.49365234375,8244.5146484375,8092.72119140625,5861.91796875,14690.55859375,-316.3019714355469,8289.01953125,0.0,21847.08984375,5399.3857421875,24098.5546875,19002.755859375,8707.8408203125,10563.533203125,22343.79296875,28780.302734375,19915.8984375,18547.376953125,20442.009765625,6154.37841796875,28089.681640625,-476.04241943359375,0.0,1261.2342529296875,13221.900390625,5557.537109375,24903.615234375,15731.6533203125,14104.8427734375,23587.544921875,8234.9775390625,13159.1162109375,7424.3544921875,3061.29443359375,22112.52734375,8467.0380859375,16065.439453125,10778.904296875,7863.83935546875,11285.94140625,11320.1142578125,1690.3876953125,9030.5009765625,2495.44775390625,15575.091796875,5607.60498046875,7653.236328125,2162.45654296875,10208.2890625,3841.718017578125,23031.234375,3685.951171875,16412.734375,2847.512451171875,8931.16015625,25502.046875,20372.8671875,11597.4736328125,-0.0,-45554.63671875,18398.76171875,4719.0986328125,0.0,7353.6240234375,0.0,0.0
14066.6962890625,13926.029296875,31671.5234375,11363.029296875,27507.939453125,5333.423828125,7236.798828125,8256.435546875,8110.20556640625,5882.5810546875,14723.1416015625,-309.1494140625,8298.556640625,0.0,21860.599609375,5408.9228515625,24108.88671875,19014.677734375,8720.5576171875,10581.810546875,22354.125,28785.86328125,19927.025390625,18556.1171875,20447.572265625,6162.3251953125,28089.681640625,-465.7109680175781,0.0,1265.2078857421875,13230.6416015625,5565.484375,24915.537109375,15741.9833984375,14115.9697265625,23594.697265625,8247.693359375,13171.83203125,7433.89111328125,3060.5,22122.859375,8468.6279296875,16077.3603515625,10790.0302734375,7876.5556640625,11300.24609375,11348.724609375,1699.1297607421875,9038.4482421875,2503.39501953125,15590.1904296875,5619.52587890625,7671.51513671875,2161.661865234375,10224.1826171875,3849.665283203125,23051.896484375,3695.488037109375,16428.62890625,2860.228271484375,8933.5439453125,25511.583984375,20387.171875,11625.2900390625,-0.0,-45547.484375,18415.451171875,4730.224609375,0.0,7375.8759765625,0.0,0.0
14077.822265625,13910.134765625,31669.140625,11371.771484375,27498.404296875,5329.4501953125,7221.69873046875,8251.6669921875,8100.6689453125,5876.22314453125,14731.08984375,-316.3019714355469,8292.9921875,0.0,21853.447265625,5405.744140625,24104.9140625,19008.318359375,8713.404296875,10574.658203125,22349.357421875,28782.685546875,19918.283203125,18551.349609375,20421.345703125,6162.3251953125,28074.583984375,-465.7109680175781,0.0,1261.2342529296875,13223.4892578125,5564.689453125,24910.767578125,15738.0107421875,14106.4326171875,23590.72265625,8238.9521484375,13167.0634765625,7445.81201171875,3077.98388671875,22116.501953125,8467.0380859375,16061.4638671875,10789.2353515625,7864.63427734375,11293.8876953125,11351.1083984375,1704.69287109375,9026.52734375,2504.189697265625,15564.7587890625,5614.75732421875,7665.9521484375,2156.8935546875,10215.44140625,3836.155029296875,23059.048828125,3693.8984375,16418.298828125,2855.4599609375,8931.16015625,25505.224609375,20381.609375,11624.4951171875,-0.0,-45550.6640625,18416.24609375,4727.84033203125,0.0,7367.92919921875,0.0,0.0
14076.232421875,13907.75,31674.701171875,11382.8974609375,27502.37890625,5322.29736328125,7217.72509765625,8248.48828125,8087.158203125,5868.27587890625,14730.2939453125,-313.91778564453125,8285.83984375,0.0,21847.08984375,5404.94921875,24108.091796875,19002.755859375,8710.2255859375,10564.3271484375,22354.125,28785.86328125,19915.8984375,18548.169921875,20428.5,6167.888671875,28083.32421875,-464.1214904785156,0.0,1269.976318359375,13227.462890625,5567.07373046875,24918.71484375,15741.9833984375,14107.2275390625,23589.9296875,8236.5673828125,13162.294921875,7467.27001953125,3083.546875,22123.65625,8468.6279296875,16060.6708984375,10786.056640625,7859.8662109375,11290.7099609375,11357.466796875,1717.4085693359375,9031.2958984375,2506.573974609375,15560.7861328125,5609.9892578125,7666.74658203125,2163.251220703125,10214.646484375,3841.718017578125,23056.666015625,3693.8984375,16407.966796875,2849.896728515625,8931.16015625,25502.046875,20376.83984375,11607.806640625,-0.0,-45553.046875,18405.119140625,4729.4296875,0.0,7359.9814453125,0.0,0.0
14080.20703125,13930.7978515625,31681.853515625,11386.0771484375,27512.708984375,5325.47607421875,7230.4404296875,8254.05078125,8094.310546875,5876.22314453125,14733.4736328125,-305.97052001953125,8300.9404296875,0.0,21855.03515625,5412.1015625,24116.0390625,19008.318359375,8718.9677734375,10570.685546875,22362.8671875,28790.6328125,19926.228515625,18552.14453125,20442.8046875,6175.8359375,28100.80859375,-457.763671875,0.0,1283.4866943359375,13235.41015625,5575.81591796875,24928.251953125,15750.7265625,14118.353515625,23597.875,8246.1044921875,13170.2421875,7487.9326171875,3093.083740234375,22133.19140625,8476.5751953125,16075.76953125,10790.0302734375,7870.197265625,11297.06640625,11367.00390625,1733.3031005859375,9043.216796875,2517.7001953125,15575.8857421875,5615.55224609375,7677.873046875,2175.172119140625,10220.2099609375,3858.4072265625,23059.845703125,3704.22998046875,16415.9140625,2855.4599609375,8937.5185546875,25509.9921875,20385.583984375,11599.8583984375,-0.0,-45545.1015625,18408.298828125,4732.60888671875,0.0,7367.92919921875,0.0,0.0
14077.02734375,13948.28125,31685.830078125,11378.12890625,27515.888671875,5329.4501953125,7230.4404296875,8256.435546875,8087.95263671875,5878.607421875,14735.0625,-303.5863342285156,8300.9404296875,0.0,21846.294921875,5416.0751953125,24116.833984375,19012.29296875,8721.3515625,10568.30078125,22363.662109375,28792.22265625,19926.228515625,18554.529296875,20442.8046875,6176.63037109375,28103.193359375,-457.763671875,0.0,1285.870849609375,13236.205078125,5582.173828125,24925.8671875,15753.111328125,14119.9423828125,23599.466796875,8246.8984375,13172.626953125,7477.6015625,3097.85205078125,22136.369140625,8478.958984375,16078.1533203125,10791.619140625,7868.607421875,11300.24609375,11370.181640625,1738.0714111328125,9035.26953125,2521.673828125,15574.2958984375,5617.1416015625,7678.66748046875,2179.9404296875,10217.0302734375,3862.380859375,23044.744140625,3708.20361328125,16410.3515625,2857.843994140625,8947.849609375,25512.376953125,20385.583984375,11599.8583984375,-0.0,-45539.5390625,18405.119140625,4732.60888671875,0.0,7370.31298828125,0.0,0.0
14069.875,13951.4609375,31675.498046875,11360.6455078125,27509.53125,5320.7080078125,7226.46728515625,8252.4619140625,8080.80029296875,5884.96533203125,14722.34765625,-309.1494140625,8289.01953125,0.0,21842.322265625,5409.7177734375,24111.271484375,19007.525390625,8717.3779296875,10569.095703125,22358.099609375,28785.86328125,19920.66796875,18548.96484375,20427.703125,6166.29931640625,28086.50390625,-469.6846008300781,0.0,1275.5394287109375,13229.052734375,5577.4052734375,24919.509765625,15742.7783203125,14111.201171875,23592.314453125,8242.9248046875,13170.2421875,7459.322265625,3091.494384765625,22126.0390625,8471.01171875,16073.384765625,10783.671875,7864.63427734375,11298.65625,11358.2607421875,1728.53466796875,9020.1689453125,2515.31591796875,15568.7333984375,5613.962890625,7673.10498046875,2174.37744140625,10201.13671875,3859.2021484375,23040.771484375,3700.25634765625,16406.376953125,2864.201904296875,8951.0283203125,25506.814453125,20382.404296875,11600.6533203125,-0.0,-45550.6640625,18403.529296875,4728.63525390625,0.0,7381.439453125,0.0,0.0
14075.4384765625,13945.1025390625,31672.318359375,11355.08203125,27508.736328125,5319.11865234375,7229.64599609375,8250.0771484375,8079.21142578125,5880.197265625,14719.962890625,-313.1230773925781,8297.7607421875,0.0,21845.5,5405.744140625,24107.298828125,19002.755859375,8717.3779296875,10569.8896484375,22355.71484375,28782.685546875,19921.4609375,18547.376953125,20421.345703125,6162.3251953125,28077.759765625,-472.06878662109375,0.0,1271.5657958984375,13226.66796875,5572.63720703125,24917.921875,15738.8056640625,14110.40625,23591.517578125,8246.1044921875,13167.8583984375,7451.37548828125,3071.6259765625,22125.244140625,8465.44921875,16075.76953125,10783.671875,7866.22314453125,11296.2724609375,11357.466796875,1729.3294677734375,9026.52734375,2513.7265625,15571.912109375,5611.57861328125,7671.51513671875,2163.251220703125,10201.13671875,3852.84423828125,23043.951171875,3691.51416015625,16408.76171875,2861.817626953125,8950.2333984375,25507.609375,20382.404296875,11595.8857421875,-0.0,-45555.4296875,18401.94140625,4730.224609375,0.0,7384.6181640625,0.0,0.0
14088.9482421875,13949.076171875,31681.853515625,11367.7978515625,27515.888671875,5330.24462890625,7231.2353515625,8257.2294921875,8084.77392578125,5877.81298828125,14733.4736328125,-306.7652282714844,8317.6298828125,0.0,21849.474609375,5413.69091796875,24115.244140625,19010.701171875,8724.5302734375,10572.2744140625,22365.251953125,28789.837890625,19927.025390625,18556.1171875,20441.212890625,6173.45166015625,28080.939453125,-458.55841064453125,0.0,1280.3077392578125,13235.41015625,5578.99462890625,24923.482421875,15744.3671875,14116.763671875,23601.849609375,8250.873046875,13174.2158203125,7457.7333984375,3078.778564453125,22139.548828125,8474.1904296875,16078.94921875,10793.208984375,7867.81298828125,11301.8349609375,11367.7978515625,1730.9189453125,9051.958984375,2527.23681640625,15571.1171875,5621.91015625,7676.283203125,2158.48291015625,10221.798828125,3859.2021484375,23053.48828125,3701.051025390625,16412.734375,2861.817626953125,8946.259765625,25515.556640625,20387.96875,11597.4736328125,-0.0,-45539.5390625,18398.76171875,4734.9931640625,0.0,7374.28662109375,0.0,0.0
14099.2802734375,13965.765625,31688.212890625,11383.6923828125,27519.861328125,5345.3447265625,7232.82470703125,8265.9716796875,8082.3896484375,5877.01806640625,14731.08984375,-295.6390380859375,8318.423828125,0.0,21851.857421875,5423.22802734375,24124.78125,19020.23828125,8730.09375,10573.0693359375,22373.19921875,28799.375,19930.998046875,18566.44921875,20442.009765625,6200.47216796875,28091.271484375,-441.8691101074219,0.0,1300.970703125,13243.357421875,5589.326171875,24931.431640625,15757.87890625,14123.1220703125,23610.591796875,8257.2294921875,13182.9580078125,7462.50146484375,3104.2099609375,22144.318359375,8490.8798828125,16080.5380859375,10805.1298828125,7870.197265625,11307.3984375,11369.3876953125,1738.8662109375,9044.806640625,2547.10498046875,15573.501953125,5632.24169921875,7681.8466796875,2173.582763671875,10223.388671875,3875.891357421875,23061.43359375,3724.892822265625,16411.939453125,2860.228271484375,8945.46484375,25524.296875,20392.736328125,11591.1171875,-0.0,-45524.4375,18398.76171875,4742.1455078125,0.0,7348.85546875,0.0,0.0
14100.0751953125,13975.302734375,31691.390625,11390.845703125,27512.708984375,5350.11279296875,7237.59326171875,8272.330078125,8084.77392578125,5890.5283203125,14739.0361328125,-283.7181091308594,8312.861328125,0.0,21853.447265625,5430.38037109375,24127.1640625,19024.212890625,8734.8623046875,10581.0166015625,22371.611328125,28804.14453125,19930.205078125,18571.21875,20453.9296875,6202.8564453125,28087.296875,-439.48492431640625,0.0,1304.149658203125,13244.15234375,5591.71044921875,24934.611328125,15758.6728515625,14123.9169921875,23613.771484375,8260.4091796875,13189.3154296875,7463.29638671875,3107.388671875,22138.75390625,8496.443359375,16080.5380859375,10808.30859375,7874.17138671875,11314.5517578125,11371.771484375,1736.4820556640625,9040.83203125,2547.10498046875,15577.4755859375,5636.21533203125,7683.43603515625,2184.708740234375,10237.693359375,3879.864990234375,23063.025390625,3736.813720703125,16412.734375,2870.5595703125,8953.412109375,25528.2734375,20400.681640625,11593.5009765625,-0.0,-45515.69921875,18397.966796875,4753.271484375,0.0,7364.75,0.0,0.0
14092.1279296875,13972.9189453125,31686.623046875,11388.4609375,27505.556640625,5342.96044921875,7234.41455078125,8273.9189453125,8082.3896484375,5898.4755859375,14740.6259765625,-281.33392333984375,8298.556640625,0.0,21852.65234375,5434.3544921875,24121.603515625,19025.0078125,8734.0673828125,10582.6064453125,22366.046875,28801.759765625,19926.228515625,18568.833984375,20448.365234375,6187.7568359375,28081.736328125,-443.45855712890625,0.0,1292.228759765625,13240.9736328125,5586.1474609375,24930.634765625,15753.111328125,14115.9697265625,23610.591796875,8258.8193359375,13186.931640625,7460.912109375,3098.64697265625,22131.6015625,8488.49609375,16074.9755859375,10804.3359375,7871.787109375,11318.5244140625,11364.619140625,1729.3294677734375,9040.83203125,2540.747314453125,15575.8857421875,5634.6259765625,7680.25732421875,2192.65625,10231.3359375,3872.71240234375,23045.5390625,3737.608642578125,16413.53125,2879.3017578125,8957.3857421875,25527.4765625,20402.2734375,11584.7587890625,-0.0,-45513.3125,18401.146484375,4758.8349609375,0.0,7386.20751953125,0.0,0.0
14090.5380859375,13966.560546875,31690.59765625,11397.998046875,27512.708984375,5346.1396484375,7236.798828125,8275.5087890625,8076.03173828125,5888.93896484375,14744.599609375,-288.4864807128906,8290.6083984375,0.0,21852.65234375,5434.3544921875,24125.576171875,19030.5703125,8734.0673828125,10582.6064453125,22370.814453125,28804.14453125,19928.61328125,18569.626953125,20451.544921875,6190.14111328125,28092.06640625,-439.48492431640625,0.0,1294.6129150390625,13243.357421875,5587.73681640625,24933.814453125,15759.4677734375,14119.1484375,23611.38671875,8260.4091796875,13187.7255859375,7463.29638671875,3101.82568359375,22140.34375,8490.8798828125,16080.5380859375,10807.5146484375,7871.787109375,11316.935546875,11364.619140625,1742.83984375,9047.1904296875,2539.157958984375,15578.26953125,5638.599609375,7679.46240234375,2206.96142578125,10224.978515625,3870.328125,23042.359375,3736.813720703125,16413.53125,2872.149169921875,8961.3603515625,25528.2734375,20402.2734375,11591.9111328125,-0.0,-45518.08203125,18404.326171875,4741.3505859375,0.0,7380.64453125,0.0,0.0
14081.0009765625,13960.998046875,31691.390625,11397.998046875,27519.068359375,5338.98681640625,7239.9775390625,8273.9189453125,8068.87890625,5886.5546875,14746.9833984375,-287.6917419433594,8307.2978515625,0.0,21857.419921875,5429.5859375,24124.78125,19026.59765625,8734.0673828125,10581.0166015625,22371.611328125,28800.169921875,19928.61328125,18567.244140625,20457.90234375,6182.19384765625,28107.9609375,-445.0480041503906,0.0,1295.4075927734375,13242.5625,5588.53125,24933.01953125,15757.87890625,14119.1484375,23607.412109375,8261.998046875,13186.931640625,7464.0908203125,3105.79931640625,22144.318359375,8485.3173828125,16087.6904296875,10804.3359375,7868.607421875,11316.935546875,11370.181640625,1749.1976318359375,9063.8798828125,2530.415771484375,15584.6279296875,5635.42041015625,7676.283203125,2196.6298828125,10222.5947265625,3877.480712890625,23055.076171875,3728.072021484375,16415.119140625,2868.97021484375,8954.20703125,25525.888671875,20403.06640625,11589.52734375,-0.0,-45518.875,18401.146484375,4711.94580078125,0.0,7373.49169921875,0.0,0.0
14068.2861328125,13941.12890625,31675.498046875,11367.00390625,27501.583984375,5315.939453125,7224.8779296875,8253.2568359375,8052.9853515625,5867.4814453125,14739.0361328125,-298.8179626464844,8303.32421875,0.0,21845.5,5399.3857421875,24109.681640625,19005.140625,8716.5830078125,10569.095703125,22356.509765625,28782.685546875,19908.74609375,18547.376953125,20442.8046875,6166.29931640625,28088.09375,-469.6846008300781,0.0,1277.923583984375,13224.2841796875,5575.81591796875,24916.330078125,15738.8056640625,14102.458984375,23589.9296875,8245.30859375,13169.4482421875,7453.759765625,3093.083740234375,22128.423828125,8460.6806640625,16068.6171875,10778.109375,7853.5078125,11299.451171875,11363.029296875,1726.1505126953125,9036.064453125,2515.31591796875,15569.52734375,5612.37353515625,7671.51513671875,2169.609130859375,10217.826171875,3854.433837890625,23057.4609375,3694.693359375,16405.58203125,2847.512451171875,8937.5185546875,25506.814453125,20387.171875,11582.375,-0.0,-45544.30859375,18393.994140625,4692.07763671875,0.0,7352.0341796875,0.0,0.0
14065.9013671875,13933.181640625,31665.1640625,11351.1083984375,27483.3046875,5302.42919921875,7207.3935546875,8238.15625,8038.68017578125,5856.35498046875,14731.8837890625,-317.8914489746094,8293.7880859375,0.0,21835.962890625,5378.72314453125,24101.734375,18991.62890625,8703.072265625,10561.943359375,22343.79296875,28771.55859375,19891.26171875,18533.865234375,20426.908203125,6157.55712890625,28062.662109375,-488.7580871582031,0.0,1275.5394287109375,13214.7470703125,5567.07373046875,24909.177734375,15728.4736328125,14091.33203125,23580.392578125,8231.00390625,13158.3212890625,7445.017578125,3082.752197265625,22114.912109375,8452.7333984375,16049.54296875,10764.5986328125,7840.79248046875,11286.7353515625,11355.876953125,1721.382080078125,9009.837890625,2501.010986328125,15551.2490234375,5594.88916015625,7673.10498046875,2166.43017578125,10201.9306640625,3836.155029296875,23051.103515625,3667.67236328125,16396.841796875,2830.8232421875,8934.3388671875,25494.89453125,20376.046875,11586.3486328125,-0.0,-45575.30078125,18394.7890625,4700.02490234375,0.0,7351.23974609375,0.0,0.0
14055.5693359375,13933.9765625,31660.396484375,11351.9033203125,27481.71484375,5296.0712890625,7203.419921875,8234.9775390625,8029.9375,5859.53369140625,14719.962890625,-313.1230773925781,8288.224609375,0.0,21831.193359375,5380.3125,24094.58203125,18989.244140625,8698.3037109375,10562.7373046875,22339.8203125,28768.380859375,19884.109375,18529.892578125,20426.115234375,6149.60986328125,28057.09765625,-495.91064453125,0.0,1270.77099609375,13209.9794921875,5561.5107421875,24903.615234375,15723.705078125,14087.359375,23575.625,8228.619140625,13152.7587890625,7436.275390625,3074.804931640625,22112.52734375,8447.169921875,16046.3662109375,10759.830078125,7835.22900390625,11285.1455078125,11343.9560546875,1710.2559814453125,9014.6064453125,2489.884521484375,15548.0703125,5590.91552734375,7664.3623046875,2154.50927734375,10194.7783203125,3833.770751953125,23041.56640625,3661.314697265625,16392.865234375,2834.796875,8933.5439453125,25490.125,20372.8671875,11579.1962890625,-0.0,-45582.453125,18394.7890625,4700.8193359375,0.0,7350.44482421875,0.0,0.0
14063.517578125,13945.1025390625,31668.345703125,11368.591796875,27492.046875,5314.35009765625,7208.1884765625,8246.1044921875,8018.81103515625,5863.5078125,14719.1689453125,-313.1230773925781,8300.1455078125,0.0,21831.193359375,5395.41259765625,24104.9140625,18997.19140625,8704.662109375,10560.353515625,22350.15234375,28782.685546875,19890.466796875,18540.224609375,20438.03515625,6171.8623046875,28061.072265625,-481.60552978515625,0.0,1276.3341064453125,13219.515625,5569.4580078125,24913.15234375,15736.421875,14094.51171875,23588.337890625,8234.18359375,13159.9111328125,7444.22314453125,3082.752197265625,22122.859375,8468.6279296875,16054.3115234375,10772.5458984375,7836.0244140625,11290.7099609375,11347.134765625,1723.766357421875,9031.2958984375,2505.779296875,15548.865234375,5602.83642578125,7666.74658203125,2160.072265625,10201.9306640625,3844.89697265625,23045.5390625,3684.36181640625,16389.689453125,2843.5390625,8949.439453125,25498.072265625,20376.046875,11564.890625,-0.0,-45573.7109375,18393.197265625,4710.3564453125,0.0,7356.80224609375,0.0,0.0
14074.6435546875,13953.8447265625,31681.060546875,11382.8974609375,27506.3515625,5329.4501953125,7215.34130859375,8258.025390625,8017.22216796875,5872.24951171875,14743.0107421875,-310.7388916015625,8316.833984375,0.0,21834.373046875,5412.1015625,24116.833984375,19005.93359375,8714.9931640625,10565.1220703125,22362.8671875,28792.22265625,19900.798828125,18552.14453125,20462.671875,6180.6044921875,28075.376953125,-467.3004150390625,0.0,1277.1287841796875,13229.8466796875,5577.4052734375,24925.07421875,15747.546875,14107.2275390625,23601.0546875,8242.9248046875,13171.037109375,7456.14404296875,3093.083740234375,22137.166015625,8484.5224609375,16065.439453125,10786.8505859375,7841.5869140625,11298.65625,11365.4140625,1733.3031005859375,9047.1904296875,2520.879150390625,15556.8125,5613.962890625,7681.8466796875,2168.814453125,10238.48828125,3858.4072265625,23050.30859375,3708.20361328125,16391.27734375,2853.870361328125,8957.3857421875,25509.19921875,20383.19921875,11570.4541015625,-0.0,-45559.40625,18397.173828125,4729.4296875,0.0,7364.75,0.0,0.0
14070.669921875,13947.4873046875,31669.93359375,11363.82421875,27492.841796875,5313.55517578125,7203.419921875,8250.0771484375,8013.24853515625,5865.09716796875,14737.447265625,-298.8179626464844,8311.271484375,0.0,21828.015625,5405.744140625,24104.119140625,18997.19140625,8706.251953125,10558.7646484375,22350.15234375,28780.302734375,19891.26171875,18541.017578125,20442.009765625,6157.55712890625,28064.25,-473.6582336425781,0.0,1281.897216796875,13218.720703125,5570.2529296875,24913.15234375,15732.4462890625,14096.896484375,23589.134765625,8235.7724609375,13162.294921875,7447.4013671875,3083.546875,22122.859375,8457.5009765625,16055.107421875,10776.51953125,7835.22900390625,11290.7099609375,11356.6708984375,1722.9715576171875,9024.1435546875,2505.779296875,15548.0703125,5604.42578125,7674.69384765625,2175.967041015625,10213.8515625,3848.075927734375,23039.18359375,3705.8193359375,16384.125,2846.7177734375,8950.2333984375,25500.455078125,20375.251953125,11568.0693359375,-0.0,-45553.84375,18393.197265625,4723.86669921875,0.0,7358.39208984375,0.0,0.0
14070.669921875,13948.28125,31668.345703125,11369.3876953125,27489.662109375,5322.29736328125,7204.21435546875,8249.283203125,8021.1953125,5867.4814453125,14739.8310546875,-300.40740966796875,8304.119140625,0.0,21828.015625,5400.9755859375,24104.9140625,18998.78125,8707.8408203125,10561.943359375,22349.357421875,28780.302734375,19892.056640625,18544.9921875,20432.47265625,6171.06787109375,28064.25,-472.863525390625,0.0,1288.255126953125,13217.92578125,5571.04736328125,24910.767578125,15734.8310546875,14095.306640625,23589.9296875,8234.9775390625,13161.5,7447.4013671875,3085.136474609375,22120.4765625,8463.0654296875,16055.107421875,10780.494140625,7838.40869140625,11290.7099609375,11355.08203125,1730.1241455078125,9020.96484375,2511.34228515625,15548.865234375,5602.04150390625,7673.10498046875,2184.708740234375,10218.6201171875,3851.254638671875,23037.591796875,3697.077392578125,16388.09765625,2844.333740234375,8947.0546875,25502.046875,20374.45703125,11568.0693359375,-0.0,-45549.87109375,18395.58203125,4715.12451171875,0.0,7357.59716796875,0.0,0.0
14068.2861328125,13950.6650390625,31665.1640625,11369.3876953125,27492.046875,5323.091796875,7208.98291015625,8250.0771484375,8033.1162109375,5873.04443359375,14728.705078125,-301.9968566894531,8309.681640625,0.0,21835.16796875,5402.56494140625,24101.734375,18997.19140625,8708.63671875,10565.1220703125,22346.177734375,28779.505859375,19896.03125,18543.40234375,20434.85546875,6169.47802734375,28074.583984375,-478.4266052246094,0.0,1292.228759765625,13216.3359375,5570.2529296875,24907.58984375,15734.8310546875,14096.1005859375,23590.72265625,8236.5673828125,13161.5,7442.63330078125,3085.136474609375,22118.88671875,8466.244140625,16060.6708984375,10781.2880859375,7843.97119140625,11293.09375,11343.9560546875,1726.1505126953125,9033.6796875,2511.34228515625,15556.8125,5604.42578125,7665.1572265625,2179.145751953125,10234.515625,3849.665283203125,23047.923828125,3687.540771484375,16391.27734375,2850.691650390625,8947.849609375,25502.83984375,20376.83984375,11575.2216796875,-0.0,-45551.4609375,18398.76171875,4715.91943359375,0.0,7371.107421875,0.0,0.0
14064.3115234375,13949.076171875,31661.193359375,11365.4140625,27481.71484375,5319.11865234375,7204.21435546875,8242.9248046875,8038.68017578125,5864.30224609375,14726.3212890625,-307.5599670410156,8292.9921875,0.0,21831.193359375,5399.3857421875,24095.376953125,18988.451171875,8702.2783203125,10561.1484375,22339.025390625,28773.150390625,19892.056640625,18537.044921875,20424.5234375,6173.45166015625,28066.634765625,-480.0160827636719,0.0,1277.1287841796875,13209.9794921875,5562.3056640625,24898.84765625,15730.0625,14088.154296875,23585.955078125,8228.619140625,13155.142578125,7437.86474609375,3076.394287109375,22110.939453125,8466.244140625,16053.5185546875,10777.314453125,7840.79248046875,11283.556640625,11347.9296875,1718.2032470703125,9019.375,2511.34228515625,15552.0439453125,5601.2470703125,7657.2099609375,2165.63525390625,10225.7724609375,3849.665283203125,23043.15625,3685.156494140625,16388.892578125,2845.12841796875,8940.6962890625,25495.6875,20370.484375,11569.6591796875,-0.0,-45557.81640625,18397.173828125,4712.740234375,0.0,7363.955078125,0.0,0.0
14057.1591796875,13941.12890625,31652.451171875,11355.876953125,27470.587890625,5311.1708984375,7191.4990234375,8234.18359375,8035.50048828125,5850.7919921875,14717.5791015625,-311.5335998535156,8282.6611328125,0.0,21824.041015625,5391.43896484375,24085.044921875,18980.50390625,8691.1513671875,10550.81640625,22328.6953125,28763.61328125,19880.9296875,18528.302734375,20411.810546875,6165.50439453125,28051.53515625,-485.57916259765625,0.0,1271.5657958984375,13199.646484375,5553.5634765625,24889.310546875,15722.1162109375,14076.232421875,23574.033203125,8219.0830078125,13145.6064453125,7428.328125,3068.447021484375,22099.017578125,8456.70703125,16042.390625,10768.5732421875,7829.666015625,11271.6357421875,11344.75,1711.845458984375,9000.3017578125,2504.984619140625,15540.9169921875,5594.0947265625,7652.44140625,2164.8408203125,10201.9306640625,3845.691650390625,23034.4140625,3683.567138671875,16379.3564453125,2832.41259765625,8932.75,25482.177734375,20356.974609375,11561.7109375,-0.0,-45562.58203125,18390.01953125,4707.177734375,0.0,7349.64990234375,0.0,0.0
14047.623046875,13930.7978515625,31642.9140625,11341.572265625,27465.025390625,5299.25,7184.3466796875,8227.0302734375,8027.5537109375,5845.228515625,14713.6044921875,-308.3547058105469,8275.5087890625,0.0,21819.2734375,5389.84912109375,24074.712890625,18966.994140625,8683.9990234375,10542.869140625,22317.568359375,28753.28125,19874.572265625,18518.765625,20407.041015625,6153.58349609375,28047.5625,-488.7580871582031,0.0,1268.3868408203125,13188.521484375,5545.6162109375,24880.568359375,15710.1953125,14067.490234375,23563.703125,8211.1357421875,13137.658203125,7421.17529296875,3059.705078125,22093.455078125,8443.9912109375,16036.8291015625,10759.0361328125,7824.103515625,11266.8671875,11335.2138671875,1703.1033935546875,8998.7119140625,2498.626708984375,15534.560546875,5589.326171875,7649.2626953125,2158.48291015625,10205.109375,3838.5390625,23028.849609375,3681.182861328125,16372.2041015625,2830.8232421875,8924.0078125,25472.640625,20351.41015625,11559.3271484375,-0.0,-45559.40625,18386.044921875,4707.97216796875,0.0,7345.67626953125,0.0,0.0
14051.5966796875,13934.771484375,31645.298828125,11345.5458984375,27469.0,5307.19775390625,7188.3203125,8228.619140625,8030.73193359375,5846.0234375,14713.6044921875,-303.5863342285156,8265.9716796875,0.0,21819.2734375,5390.64404296875,24077.09765625,18966.197265625,8684.7939453125,10544.458984375,22319.158203125,28755.6640625,19877.751953125,18521.943359375,20407.8359375,6158.35205078125,28061.8671875,-483.1949768066406,0.0,1270.77099609375,13190.1103515625,5548.79541015625,24882.951171875,15711.7841796875,14069.875,23566.880859375,8214.314453125,13140.0419921875,7425.1494140625,3061.29443359375,22095.837890625,8451.9384765625,16040.8017578125,10765.3935546875,7825.6923828125,11268.4560546875,11337.59765625,1708.66650390625,8995.533203125,2508.16357421875,15539.328125,5591.71044921875,7656.41552734375,2162.45654296875,10210.6728515625,3839.333740234375,23014.544921875,3684.36181640625,16372.9990234375,2834.796875,8929.5703125,25475.8203125,20351.41015625,11564.095703125,-0.0,-45559.40625,18387.63671875,4708.76708984375,0.0,7344.88134765625,0.0,0.0
14050.8017578125,13930.0029296875,31646.888671875,11347.9296875,27478.537109375,5310.37646484375,7201.0361328125,8231.00390625,8042.6533203125,5852.38134765625,14714.400390625,-315.50726318359375,8258.8193359375,0.0,21828.015625,5393.0283203125,24077.892578125,18972.5546875,8688.767578125,10552.40625,22322.3359375,28758.048828125,19884.904296875,18525.123046875,20411.810546875,6164.70947265625,28079.3515625,-481.60552978515625,0.0,1276.3341064453125,13190.9052734375,5550.384765625,24883.748046875,15713.373046875,14074.6435546875,23570.85546875,8222.2626953125,13144.810546875,7425.94384765625,3058.11572265625,22099.8125,8454.3232421875,16051.927734375,10769.3671875,7833.64013671875,11271.6357421875,11337.59765625,1710.2559814453125,8998.7119140625,2512.931884765625,15554.427734375,5593.2998046875,7655.62060546875,2158.48291015625,10202.7255859375,3840.92333984375,23008.982421875,3687.540771484375,16384.125,2834.796875,8929.5703125,25480.58984375,20357.767578125,11572.837890625,-0.0,-45571.328125,18393.197265625,4711.1513671875,0.0,7347.265625,0.0,0.0
14051.5966796875,13928.4130859375,31649.2734375,11347.134765625,27484.89453125,5307.19775390625,7208.98291015625,8228.619140625,8045.037109375,5850.7919921875,14716.7841796875,-318.6861572265625,8265.9716796875,0.0,21835.962890625,5392.2333984375,24077.09765625,18973.349609375,8690.357421875,10552.40625,22323.927734375,28757.25390625,19888.876953125,18523.53515625,20426.115234375,6162.3251953125,28069.814453125,-489.55279541015625,0.0,1277.923583984375,13192.494140625,5548.79541015625,24886.130859375,15711.7841796875,14079.4111328125,23569.265625,8226.2353515625,13142.4267578125,7428.328125,3056.526123046875,22103.787109375,8450.3486328125,16060.6708984375,10764.5986328125,7837.61328125,11270.0458984375,11338.3935546875,1709.461181640625,9016.990234375,2504.984619140625,15569.52734375,5589.326171875,7654.82568359375,2155.303955078125,10178.0888671875,3842.512939453125,23028.0546875,3685.156494140625,16390.482421875,2827.644287109375,8927.185546875,25481.3828125,20358.5625,11572.04296875,-0.0,-45568.1484375,18395.58203125,4711.1513671875,0.0,7350.44482421875,0.0,0.0
14042.0595703125,13917.287109375,31633.376953125,11332.03515625,27457.873046875,5288.9189453125,7178.783203125,8215.109375,8029.9375,5837.28173828125,14704.86328125,-322.6598205566406,8273.125,0.0,21820.86328125,5384.28662109375,24061.998046875,18948.712890625,8672.873046875,10538.8955078125,22307.23828125,28739.771484375,19866.625,18504.4609375,20400.681640625,6141.66259765625,28031.66796875,-506.2420959472656,0.0,1266.79736328125,13175.8046875,5533.6953125,24870.23828125,15697.4794921875,14058.7490234375,23554.9609375,8203.1884765625,13123.3525390625,7417.2021484375,3043.015625,22084.712890625,8432.865234375,16029.6767578125,10749.4990234375,7817.7451171875,11254.9462890625,11324.087890625,1695.1561279296875,9009.837890625,2485.1162109375,15534.560546875,5577.4052734375,7648.4677734375,2140.998779296875,10178.0888671875,3830.591796875,23038.38671875,3679.59326171875,16374.587890625,2818.90234375,8916.8544921875,25464.693359375,20340.28515625,11556.943359375,-0.0,-45568.1484375,18388.4296875,4699.22998046875,0.0,7336.9345703125,0.0,0.0
14036.49609375,13910.134765625,31627.017578125,11326.47265625,27450.720703125,5283.35546875,7162.88916015625,8208.751953125,8025.9638671875,5834.8974609375,14705.658203125,-326.6334533691406,8278.6875,0.0,21814.50390625,5378.72314453125,24056.435546875,18939.97265625,8663.3369140625,10535.716796875,22302.46875,28731.822265625,19854.703125,18497.30859375,20390.3515625,6136.89404296875,28030.873046875,-512.5999755859375,0.0,1258.0552978515625,13169.4482421875,5528.9267578125,24865.46875,15690.3271484375,14050.8017578125,23547.013671875,8192.0625,13115.40625,7410.84423828125,3036.657958984375,22078.35546875,8428.0966796875,16014.576171875,10743.1416015625,7807.41357421875,11248.5888671875,11316.935546875,1684.8245849609375,9001.8916015625,2481.9375,15509.12890625,5571.84228515625,7642.1103515625,2137.025146484375,10209.083984375,3822.64453125,23042.359375,3674.0302734375,16368.23046875,2817.31298828125,8910.4970703125,25454.36328125,20333.130859375,11556.1484375,-0.0,-45575.30078125,18388.4296875,4702.4091796875,0.0,7337.72900390625,0.0,0.0
14030.138671875,13907.75,31628.609375,11322.498046875,27458.66796875,5280.1767578125,7170.8359375,8206.3671875,8032.32177734375,5833.3076171875,14704.068359375,-331.4018249511719,8265.177734375,0.0,21821.65625,5367.59716796875,24054.845703125,18939.97265625,8664.130859375,10538.1015625,22300.87890625,28730.234375,19859.47265625,18497.30859375,20399.09375,6132.9208984375,28045.177734375,-515.7788696289062,0.0,1253.2869873046875,13167.0634765625,5525.74755859375,24863.87890625,15688.73828125,14053.98046875,23542.24609375,8196.8310546875,13114.611328125,7408.4599609375,3034.27392578125,22082.328125,8424.123046875,16026.4970703125,10739.1669921875,7812.97705078125,11246.9990234375,11316.140625,1678.466796875,9005.8642578125,2477.963623046875,15523.43359375,5566.27880859375,7634.9580078125,2137.025146484375,10208.2890625,3809.928955078125,23035.20703125,3664.49365234375,16375.3837890625,2811.749755859375,8906.5234375,25454.36328125,20335.515625,11560.1220703125,-0.0,-45584.83984375,18390.814453125,4695.2568359375,0.0,7335.3447265625,0.0,0.0
14035.7021484375,13910.134765625,31633.376953125,11328.0615234375,27469.79296875,5284.94482421875,7183.5517578125,8211.1357421875,8042.6533203125,5836.48681640625,14704.86328125,-330.6070861816406,8270.740234375,0.0,21829.60546875,5369.1865234375,24059.61328125,18943.9453125,8672.078125,10545.25390625,22308.826171875,28735.796875,19868.21484375,18501.28125,20405.451171875,6140.86767578125,28061.8671875,-511.80523681640625,0.0,1257.2606201171875,13173.4208984375,5530.51611328125,24869.44140625,15693.505859375,14060.337890625,23550.19140625,8205.5732421875,13121.7646484375,7411.638671875,3041.426513671875,22089.48046875,8430.48046875,16040.0068359375,10743.1416015625,7820.923828125,11251.767578125,11323.29296875,1687.208740234375,9014.6064453125,2485.9111328125,15539.328125,5571.84228515625,7641.3154296875,2139.409423828125,10188.419921875,3809.928955078125,23038.38671875,3664.49365234375,16384.125,2814.1337890625,8907.318359375,25460.720703125,20341.873046875,11563.30078125,-0.0,-45582.453125,18391.609375,4692.07763671875,0.0,7331.37109375,0.0,0.0
