14104.8427734375,13982.455078125,31940.14453125,11289.1201171875,27595.361328125,5726.01953125,7482.3701171875,8573.5322265625,8277.892578125,6144.841796875,15577.4755859375,-1016.4578857421875,8323.9873046875,0.0,22085.5078125,5709.330078125,24248.7578125,19294.419921875,8998.7119140625,11013.3486328125,22478.103515625,28838.31640625,20384.7890625,18809.63671875,20553.26953125,6322.86083984375,28196.970703125,-219.3450927734375,0.0,1037.120849609375,13333.95703125,6045.50048828125,25028.38671875,15855.630859375,14297.9619140625,23730.595703125,8660.1572265625,13430.9130859375,7725.556640625,3314.018310546875,22288.95703125,8734.0673828125,16185.4423828125,11147.658203125,8122.9208984375,11550.5859375,11402.7666015625,1540.18408203125,9308.6552734375,2692.54052734375,15890.5986328125,5864.30224609375,7422.76513671875,1674.4931640625,10296.50390625,3874.302001953125,23303.828125,3724.892822265625,16724.267578125,3196.3984375,9106.0,25746.822265625,20678.837890625,11851.787109375,-0.0,-45281.25,18836.65625,4278.81884765625,0.0,7128.71533203125,0.0,0.0
14104.048828125,13972.9189453125,31936.962890625,11285.94140625,27592.181640625,5722.8408203125,7480.7802734375,8566.3798828125,8277.0986328125,6140.0732421875,15574.2958984375,-1025.199951171875,8325.5771484375,0.0,22087.09765625,5704.5615234375,24244.78515625,19292.83203125,8995.533203125,11010.96484375,22474.130859375,28833.546875,20383.19921875,18806.45703125,20550.091796875,6317.29736328125,28193.79296875,-220.93455505371094,0.0,1033.94189453125,13329.1884765625,6043.9111328125,25022.826171875,15852.451171875,14294.783203125,23727.41796875,8655.388671875,13427.734375,7725.556640625,3311.634033203125,22284.984375,8726.1201171875,16183.0576171875,11143.6845703125,8122.12646484375,11545.8173828125,11406.7392578125,1533.031494140625,9311.8349609375,2689.361572265625,15891.3935546875,5859.53369140625,7421.97021484375,1672.1090087890625,10303.65625,3866.354736328125,23310.98046875,3721.714111328125,16723.474609375,3186.86181640625,9101.2314453125,25743.642578125,20675.66015625,11847.8134765625,-0.0,-45288.40234375,18836.65625,4278.0244140625,0.0,7124.7421875,0.0,0.0
14088.154296875,13953.8447265625,31924.248046875,11271.6357421875,27585.029296875,5714.8935546875,7479.98583984375,8561.611328125,8291.4033203125,6144.841796875,15557.6064453125,-1034.736572265625,8316.833984375,0.0,22095.044921875,5697.4091796875,24229.685546875,19282.5,8991.55859375,11019.70703125,22464.59375,28821.626953125,20376.83984375,18800.099609375,20541.349609375,6301.40283203125,28196.17578125,-229.6765594482422,0.0,1017.2525634765625,13318.0615234375,6028.81103515625,25010.109375,15838.146484375,14283.6572265625,23719.46875,8651.416015625,13422.171875,7712.04638671875,3288.5869140625,22273.859375,8714.9931640625,16177.49609375,11135.7373046875,8126.89501953125,11545.0224609375,11394.0234375,1502.831787109375,9306.271484375,2677.440673828125,15894.5712890625,5853.97119140625,7411.638671875,1649.061767578125,10286.171875,3852.84423828125,23314.158203125,3712.971923828125,16734.599609375,3187.656494140625,9089.310546875,25737.28515625,20678.837890625,11881.1923828125,-0.0,-45298.73828125,18846.98828125,4265.30859375,0.0,7131.099609375,0.0,0.0
14073.8486328125,13947.4873046875,31919.478515625,11270.0458984375,27581.056640625,5709.330078125,7478.39599609375,8558.4326171875,8313.65625,6151.19921875,15548.865234375,-1044.2734375,8312.06640625,0.0,22098.22265625,5688.66748046875,24224.123046875,19276.9375,8990.7646484375,11032.421875,22459.029296875,28815.26953125,20373.662109375,18793.7421875,20539.759765625,6295.83984375,28183.4609375,-238.4185791015625,0.0,1011.6895141601562,13311.7041015625,6021.658203125,25002.95703125,15833.3779296875,14278.888671875,23713.908203125,8649.03125,13418.197265625,7703.30419921875,3275.07666015625,22269.884765625,8711.814453125,16171.13671875,11130.173828125,8130.8681640625,11544.2275390625,11383.6923828125,1494.0897216796875,9294.3505859375,2668.698486328125,15893.7783203125,5846.818359375,7399.7177734375,1638.7303466796875,10277.4306640625,3845.691650390625,23311.7734375,3694.693359375,16745.7265625,3189.245849609375,9076.595703125,25732.517578125,20679.6328125,11910.59765625,-0.0,-45309.06640625,18849.373046875,4241.46630859375,0.0,7137.45751953125,0.0,0.0
14068.2861328125,13945.8974609375,31915.50390625,11256.53515625,27576.2890625,5698.9990234375,7467.27001953125,8546.51171875,8301.7353515625,6142.45751953125,15548.865234375,-1059.373291015625,8312.861328125,0.0,22082.328125,5672.77294921875,24216.17578125,19268.990234375,8981.2275390625,11019.70703125,22454.26171875,28806.52734375,20368.099609375,18781.8203125,20541.349609375,6285.5087890625,28166.771484375,-251.928955078125,0.0,998.1790771484375,13304.55078125,6013.71142578125,24997.392578125,15826.2255859375,14272.5302734375,23704.37109375,8636.3154296875,13405.482421875,7700.919921875,3263.950439453125,22265.91015625,8701.4833984375,16161.6005859375,11118.2529296875,8118.947265625,11533.1015625,11378.12890625,1495.67919921875,9293.556640625,2654.3935546875,15880.2666015625,5832.51318359375,7388.591796875,1631.577880859375,10275.0458984375,3830.591796875,23305.416015625,3673.235595703125,16725.0625,3180.50390625,9066.263671875,25722.185546875,20665.326171875,11896.29296875,-0.0,-45328.140625,18827.119140625,4227.9560546875,0.0,7138.25244140625,0.0,0.0
14083.3857421875,13953.8447265625,31923.455078125,11258.125,27584.234375,5701.38330078125,7470.44873046875,8547.3056640625,8289.814453125,6138.4833984375,15557.6064453125,-1046.6575927734375,8323.1923828125,0.0,22078.35546875,5678.33544921875,24220.943359375,19274.552734375,8980.43359375,11007.7861328125,22461.4140625,28811.296875,20373.662109375,18784.205078125,20550.091796875,6295.04541015625,28183.4609375,-250.33950805664062,0.0,1003.7421875,13310.115234375,6017.68505859375,25004.544921875,15830.1982421875,14278.888671875,23705.958984375,8639.4951171875,13408.6611328125,7707.27783203125,3272.6923828125,22276.244140625,8703.8681640625,16168.7529296875,11121.4326171875,8118.15283203125,11530.716796875,11390.845703125,1503.62646484375,9311.0400390625,2657.572509765625,15881.8564453125,5835.69189453125,7393.3603515625,1639.5250244140625,10291.7353515625,3839.333740234375,23309.388671875,3681.9775390625,16713.142578125,3180.50390625,9077.3896484375,25725.365234375,20662.943359375,11873.2451171875,-0.0,-45320.1953125,18819.173828125,4236.6982421875,0.0,7140.63623046875,0.0,0.0
14104.8427734375,13971.3291015625,31945.705078125,11290.7099609375,27604.8984375,5722.8408203125,7483.958984375,8567.9697265625,8292.1982421875,6150.404296875,15577.4755859375,-1026.789306640625,8337.498046875,0.0,22088.685546875,5705.3564453125,24243.197265625,19295.21484375,8997.9169921875,11010.169921875,22481.283203125,28835.138671875,20391.94140625,18805.662109375,20563.6015625,6329.21826171875,28196.970703125,-228.0871124267578,0.0,1032.3524169921875,13332.3671875,6039.9375,25023.619140625,15855.630859375,14297.16796875,23729.80078125,8654.5947265625,13427.734375,7723.96728515625,3298.91845703125,22297.701171875,8734.8623046875,16184.6484375,11142.8896484375,8129.279296875,11548.201171875,11414.6875,1522.699951171875,9326.9345703125,2687.77197265625,15894.5712890625,5857.9443359375,7412.43359375,1664.16162109375,10302.861328125,3872.71240234375,23318.92578125,3710.587646484375,16719.5,3199.577392578125,9102.02734375,25742.849609375,20677.248046875,11866.0927734375,-0.0,-45294.76171875,18835.068359375,4265.30859375,0.0,7153.35205078125,0.0,0.0
14101.6640625,13967.3544921875,31938.552734375,11287.5302734375,27599.333984375,5722.8408203125,7479.98583984375,8566.3798828125,8281.0712890625,6150.404296875,15570.3232421875,-1030.7630615234375,8331.1396484375,0.0,22083.91796875,5705.3564453125,24242.400390625,19292.83203125,8994.73828125,11003.017578125,22476.515625,28832.75390625,20387.96875,18800.89453125,20554.06640625,6322.06591796875,28187.43359375,-228.0871124267578,0.0,1031.5577392578125,13328.392578125,6039.142578125,25020.44140625,15855.630859375,14292.3994140625,23729.005859375,8649.826171875,13423.7607421875,7723.1728515625,3300.5078125,22290.548828125,8734.0673828125,16179.8798828125,11142.8896484375,8122.9208984375,11545.0224609375,11410.712890625,1515.54736328125,9315.80859375,2693.335205078125,15887.4189453125,5857.1494140625,7414.81787109375,1664.16162109375,10290.1455078125,3863.175537109375,23310.98046875,3706.6142578125,16713.142578125,3200.3720703125,9100.4375,25740.46484375,20673.275390625,11864.5029296875,-0.0,-45293.96875,18835.86328125,4273.255859375,0.0,7154.146484375,0.0,0.0
14087.359375,13957.818359375,31924.248046875,11274.0205078125,27584.234375,5712.50927734375,7471.2431640625,8555.2529296875,8277.0986328125,6142.45751953125,15563.1708984375,-1040.2998046875,8319.21875,0.0,22079.9453125,5690.2568359375,24232.865234375,19284.8828125,8983.6123046875,10995.865234375,22463.798828125,28823.216796875,20375.251953125,18790.564453125,20534.9921875,6307.7607421875,28181.076171875,-236.82911682128906,0.0,1026.789306640625,13316.4716796875,6028.81103515625,25009.314453125,15843.7099609375,14280.478515625,23718.67578125,8641.083984375,13416.607421875,7711.251953125,3286.99755859375,22274.65234375,8720.5576171875,16171.9326171875,11133.353515625,8114.97412109375,11534.6904296875,11398.7919921875,1517.136962890625,9300.708984375,2686.977294921875,15881.8564453125,5846.818359375,7405.28125,1648.26708984375,10290.9404296875,3846.486328125,23303.03125,3692.30908203125,16710.7578125,3190.835205078125,9089.310546875,25730.927734375,20665.326171875,11853.376953125,-0.0,-45312.24609375,18833.478515625,4264.513671875,0.0,7145.40478515625,0.0,0.0
14088.154296875,13960.2021484375,31923.455078125,11276.404296875,27583.44140625,5713.30419921875,7472.0380859375,8559.2265625,8280.27734375,6144.841796875,15567.9384765625,-1042.6839599609375,8327.1669921875,0.0,22081.533203125,5697.4091796875,24230.48046875,19283.294921875,8984.40625,10997.455078125,22463.798828125,28822.421875,20374.45703125,18792.947265625,20534.197265625,6305.37646484375,28186.640625,-230.47129821777344,0.0,1026.789306640625,13314.087890625,6024.04248046875,25006.9296875,15840.5302734375,14280.478515625,23717.083984375,8642.673828125,13417.4033203125,7711.251953125,3279.050048828125,22271.474609375,8716.5830078125,16171.9326171875,11134.1474609375,8114.1787109375,11537.0751953125,11401.970703125,1520.3157958984375,9295.1455078125,2690.951171875,15883.4453125,5851.5869140625,7410.04931640625,1634.7567138671875,10311.603515625,3848.87060546875,23296.673828125,3705.8193359375,16713.142578125,3192.4248046875,9086.9267578125,25732.517578125,20665.326171875,11852.58203125,-0.0,-45309.06640625,18834.271484375,4265.30859375,0.0,7139.841796875,0.0,0.0
14084.1796875,13964.17578125,31920.2734375,11274.814453125,27585.029296875,5713.30419921875,7476.806640625,8558.4326171875,8278.6875,6148.81494140625,15553.6337890625,-1037.91552734375,8316.833984375,0.0,22081.533203125,5700.58837890625,24223.328125,19275.34765625,8985.2021484375,11000.6328125,22459.826171875,28816.857421875,20374.45703125,18792.947265625,20534.9921875,6306.96630859375,28201.73828125,-231.26602172851562,0.0,1026.789306640625,13309.3193359375,6018.47998046875,25003.751953125,15834.1728515625,14279.68359375,23714.701171875,8645.0576171875,13416.607421875,7705.6884765625,3274.28173828125,22270.6796875,8713.404296875,16176.7001953125,11134.1474609375,8114.97412109375,11540.25390625,11392.4345703125,1521.9052734375,9291.966796875,2686.977294921875,15889.009765625,5853.97119140625,7409.25439453125,1637.9356689453125,10304.451171875,3856.81787109375,23288.7265625,3714.5615234375,16713.9375,3194.014404296875,9086.1318359375,25732.517578125,20666.91796875,11858.1455078125,-0.0,-45297.14453125,18835.86328125,4268.4873046875,0.0,7138.25244140625,0.0,0.0
14086.564453125,13968.150390625,31917.888671875,11271.6357421875,27583.44140625,5706.94580078125,7480.7802734375,8555.2529296875,8283.4560546875,6151.19921875,15551.2490234375,-1031.5577392578125,8304.9130859375,0.0,22083.125,5699.79345703125,24220.943359375,19272.169921875,8985.2021484375,11004.607421875,22455.056640625,28814.474609375,20375.251953125,18790.564453125,20528.634765625,6302.9921875,28196.17578125,-236.03439331054688,0.0,1030.7630615234375,13306.140625,6017.68505859375,25000.572265625,15833.3779296875,14278.888671875,23713.111328125,8646.6474609375,13418.9921875,7704.09912109375,3274.28173828125,22269.08984375,8710.2255859375,16179.8798828125,11131.763671875,8118.15283203125,11541.84375,11383.6923828125,1526.6737060546875,9283.224609375,2672.67236328125,15896.162109375,5854.765625,7408.4599609375,1645.8829345703125,10282.9931640625,3856.81787109375,23284.75390625,3714.5615234375,16718.70703125,3194.014404296875,9086.9267578125,25731.72265625,20670.890625,11865.2978515625,-0.0,-45293.171875,18837.451171875,4274.84521484375,0.0,7134.27880859375,0.0,0.0
14091.33203125,13958.61328125,31915.50390625,11267.662109375,27578.671875,5702.97265625,7477.6015625,8556.048828125,8285.83984375,6155.1728515625,15554.427734375,-1036.3260498046875,8315.24609375,0.0,22083.125,5698.9990234375,24218.55859375,19270.578125,8984.40625,11006.9912109375,22453.466796875,28811.296875,20373.662109375,18788.1796875,20534.9921875,6298.22412109375,28171.5390625,-238.4185791015625,0.0,1029.96826171875,13305.3466796875,6016.89013671875,24998.1875,15830.1982421875,14274.9150390625,23709.931640625,8644.263671875,13417.4033203125,7708.86767578125,3273.487060546875,22268.294921875,8707.8408203125,16174.31640625,11128.5849609375,8118.15283203125,11540.25390625,11383.6923828125,1517.931640625,9297.5302734375,2663.135498046875,15891.3935546875,5853.97119140625,7412.43359375,1645.088134765625,10283.7880859375,3853.638916015625,23303.828125,3711.382568359375,16718.70703125,3194.014404296875,9086.9267578125,25729.337890625,20670.890625,11878.013671875,-0.0,-45298.73828125,18839.8359375,4275.64013671875,0.0,7132.68896484375,0.0,0.0
14089.7431640625,13949.87109375,31918.685546875,11259.71484375,27577.876953125,5702.97265625,7466.47509765625,8556.048828125,8297.7607421875,6166.29931640625,15563.96484375,-1041.88916015625,8320.80859375,0.0,22084.712890625,5698.9990234375,24216.970703125,19268.193359375,8983.6123046875,11021.296875,22453.466796875,28808.912109375,20370.484375,18788.97265625,20547.708984375,6296.634765625,28167.56640625,-240.80276489257812,0.0,1025.99462890625,13304.55078125,6015.30078125,24998.982421875,15828.609375,14271.736328125,23710.728515625,8639.4951171875,13418.197265625,7707.27783203125,3269.513427734375,22267.5,8707.8408203125,16163.1904296875,11128.5849609375,8114.97412109375,11545.8173828125,11387.666015625,1505.2159423828125,9314.2197265625,2666.314453125,15871.5244140625,5854.765625,7414.02294921875,1634.7567138671875,10293.32421875,3845.691650390625,23316.541015625,3707.408935546875,16720.294921875,3202.756103515625,9086.9267578125,25726.953125,20670.890625,11906.6240234375,-0.0,-45299.53125,18844.60546875,4266.10302734375,0.0,7146.19970703125,0.0,0.0
14081.0009765625,13946.6923828125,31917.095703125,11257.3310546875,27580.26171875,5705.3564453125,7466.47509765625,8559.2265625,8296.171875,6179.8095703125,15563.1708984375,-1046.6575927734375,8316.833984375,0.0,22089.48046875,5700.58837890625,24213.791015625,19270.578125,8985.99609375,11025.26953125,22454.26171875,28809.705078125,20371.279296875,18789.767578125,20550.091796875,6297.4296875,28178.69140625,-240.80276489257812,0.0,1026.789306640625,13304.55078125,6012.91650390625,24997.392578125,15825.4296875,14273.326171875,23710.728515625,8641.083984375,13418.9921875,7702.50927734375,3267.129150390625,22268.294921875,8707.8408203125,16164.779296875,11130.173828125,8117.3583984375,11551.3798828125,11385.28125,1506.0106201171875,9315.80859375,2671.877685546875,15874.7041015625,5855.560546875,7402.89697265625,1634.7567138671875,10280.609375,3840.128662109375,23312.568359375,3698.666748046875,16721.08984375,3213.087890625,9084.5419921875,25727.748046875,20674.0703125,11889.9345703125,-0.0,-45308.2734375,18840.630859375,4261.3349609375,0.0,7170.8359375,0.0,0.0
14070.669921875,13946.6923828125,31913.91796875,11252.5625,27581.056640625,5702.177734375,7470.44873046875,8558.4326171875,8289.01953125,6181.39892578125,15553.6337890625,-1053.015380859375,8328.755859375,0.0,22087.892578125,5699.79345703125,24212.99609375,19267.400390625,8984.40625,11021.296875,22450.2890625,28806.52734375,20372.072265625,18788.1796875,20542.14453125,6291.8662109375,28188.228515625,-244.77639770507812,0.0,1014.868408203125,13302.1669921875,6006.55908203125,24993.419921875,15821.45703125,14271.736328125,23706.75390625,8641.87890625,13415.8134765625,7702.50927734375,3263.950439453125,22265.115234375,8703.8681640625,16167.958984375,11129.37890625,8117.3583984375,11550.5859375,11380.513671875,1500.4476318359375,9317.3984375,2671.082763671875,15881.0615234375,5853.97119140625,7387.00244140625,1635.551513671875,10275.0458984375,3832.18115234375,23310.18359375,3692.30908203125,16720.294921875,3216.2666015625,9078.9794921875,25728.544921875,20672.48046875,11877.21875,-0.0,-45327.34765625,18836.65625,4270.87158203125,0.0,7187.525390625,0.0,0.0
14078.6171875,13958.61328125,31917.095703125,11260.509765625,27574.697265625,5698.2041015625,7455.34912109375,8546.51171875,8250.873046875,6136.09912109375,15553.6337890625,-1046.6575927734375,8337.498046875,0.0,22064.05078125,5691.05126953125,24213.791015625,19265.015625,8971.69140625,10976.791015625,22447.904296875,28805.732421875,20361.7421875,18780.232421875,20533.404296875,6292.6611328125,28171.5390625,-249.54476928710938,0.0,1016.4578857421875,13302.9619140625,6010.5322265625,24992.625,15826.2255859375,14269.3515625,23705.1640625,8630.7529296875,13405.482421875,7709.662109375,3267.924072265625,22264.322265625,8703.8681640625,16157.626953125,11121.4326171875,8094.310546875,11529.1279296875,11383.6923828125,1502.831787109375,9297.5302734375,2663.93017578125,15860.3994140625,5840.46044921875,7393.3603515625,1643.498779296875,10289.3515625,3838.5390625,23307.005859375,3693.103759765625,16690.095703125,3184.4775390625,9086.1318359375,25721.392578125,20651.81640625,11836.6884765625,-0.0,-45320.98828125,18826.326171875,4274.05029296875,0.0,7152.5576171875,0.0,0.0
14076.232421875,13957.0234375,31917.888671875,11263.6884765625,27573.109375,5691.05126953125,7448.1962890625,8536.974609375,8235.7724609375,6114.6416015625,15558.40234375,-1045.068115234375,8322.3984375,0.0,22057.69140625,5683.10400390625,24212.99609375,19261.041015625,8966.1279296875,10962.486328125,22449.494140625,28804.14453125,20356.177734375,18773.875,20530.224609375,6285.5087890625,28162.001953125,-254.31314086914062,0.0,1014.07373046875,13299.783203125,6010.5322265625,24993.419921875,15823.8408203125,14266.9677734375,23701.986328125,8625.189453125,13399.9189453125,7691.38330078125,3267.129150390625,22263.52734375,8699.8935546875,16152.8583984375,11113.484375,8083.9794921875,11518.7958984375,11390.845703125,1505.2159423828125,9284.8134765625,2649.625,15853.2470703125,5830.12890625,7398.12841796875,1644.29345703125,10293.32421875,3838.5390625,23301.443359375,3691.51416015625,16682.1484375,3169.377685546875,9085.337890625,25717.416015625,20643.076171875,11828.740234375,-0.0,-45320.1953125,18830.298828125,4267.6923828125,0.0,7127.92041015625,0.0,0.0
14069.875,13949.076171875,31916.30078125,11267.662109375,27585.029296875,5688.66748046875,7458.52783203125,8537.76953125,8248.48828125,6125.76806640625,15562.375,-1046.6575927734375,8317.6298828125,0.0,22068.0234375,5674.3623046875,24212.201171875,19265.810546875,8970.896484375,10976.791015625,22452.673828125,28804.9375,20361.7421875,18774.66796875,20537.376953125,6277.56103515625,28177.103515625,-259.0815124511719,0.0,1014.868408203125,13299.783203125,6011.3271484375,24994.21484375,15823.8408203125,14271.736328125,23702.779296875,8630.7529296875,13403.892578125,7696.15185546875,3263.15576171875,22268.294921875,8695.919921875,16164.779296875,11111.8955078125,8092.72119140625,11523.564453125,11391.6396484375,1506.0106201171875,9297.5302734375,2644.06201171875,15864.3720703125,5826.1552734375,7398.12841796875,1637.140869140625,10285.3779296875,3831.386474609375,23303.828125,3680.38818359375,16694.068359375,3170.967041015625,9080.5693359375,25719.80078125,20651.021484375,11850.1982421875,-0.0,-45320.98828125,18835.068359375,4253.3876953125,0.0,7135.0732421875,0.0,0.0
14067.490234375,13939.5400390625,31909.1484375,11265.2783203125,27581.849609375,5691.05126953125,7461.70654296875,8544.1279296875,8259.6142578125,6144.841796875,15556.8125,-1051.4259033203125,8312.861328125,0.0,22071.99609375,5675.1572265625,24210.611328125,19266.60546875,8974.8701171875,10995.0703125,22450.2890625,28804.14453125,20360.947265625,18777.84765625,20535.787109375,6283.12451171875,28177.103515625,-259.0815124511719,0.0,1010.894775390625,13298.98828125,6008.1484375,24992.625,15820.6611328125,14269.3515625,23705.1640625,8633.931640625,13407.8662109375,7697.7412109375,3263.15576171875,22263.52734375,8695.1259765625,16163.984375,11115.8681640625,8097.4892578125,11530.716796875,11378.12890625,1509.1895751953125,9299.9140625,2646.4462890625,15866.7568359375,5827.7451171875,7398.12841796875,1622.8358154296875,10267.8935546875,3824.23388671875,23303.03125,3674.824951171875,16700.42578125,3182.09326171875,9076.595703125,25720.595703125,20658.970703125,11887.55078125,-0.0,-45330.5234375,18836.65625,4250.20849609375,0.0,7153.35205078125,0.0,0.0
14071.46484375,13944.30859375,31910.736328125,11261.3037109375,27576.2890625,5694.23046875,7459.322265625,8548.1005859375,8262.7939453125,6151.994140625,15552.0439453125,-1055.3995361328125,8303.32421875,0.0,22070.408203125,5680.7197265625,24212.99609375,19267.400390625,8976.4599609375,10998.2490234375,22451.08203125,28804.14453125,20360.947265625,18781.8203125,20533.404296875,6288.68701171875,28165.974609375,-259.0815124511719,0.0,1010.1000366210938,13298.98828125,6012.12158203125,24995.0078125,15820.6611328125,14267.76171875,23705.958984375,8634.7265625,13409.455078125,7702.50927734375,3274.28173828125,22265.91015625,8699.8935546875,16156.83203125,11119.0478515625,8098.28466796875,11533.896484375,11374.9501953125,1515.54736328125,9299.9140625,2648.830322265625,15863.5771484375,5828.53955078125,7401.3076171875,1630.7830810546875,10249.6142578125,3821.849853515625,23299.8515625,3677.209228515625,16701.220703125,3188.451171875,9082.158203125,25722.98046875,20659.765625,11880.3974609375,-0.0,-45339.26953125,18839.8359375,4254.18212890625,0.0,7158.12060546875,0.0,0.0
14072.2587890625,13948.28125,31910.736328125,11258.125,27581.056640625,5687.87255859375,7459.322265625,8548.1005859375,8258.025390625,6145.63623046875,15553.6337890625,-1043.4786376953125,8324.7822265625,0.0,22070.408203125,5687.87255859375,24212.201171875,19268.193359375,8974.8701171875,10991.0966796875,22451.876953125,28803.34765625,20360.150390625,18780.232421875,20527.83984375,6282.32958984375,28170.744140625,-259.0815124511719,0.0,1021.2262573242188,13297.3984375,6010.5322265625,24995.0078125,15818.27734375,14269.3515625,23703.57421875,8634.7265625,13407.8662109375,7704.09912109375,3268.71875,22269.08984375,8691.1513671875,16160.01171875,11115.8681640625,8095.900390625,11529.9228515625,11382.8974609375,1514.752685546875,9303.0927734375,2647.240966796875,15865.16796875,5828.53955078125,7402.10205078125,1641.9093017578125,10285.3779296875,3835.3603515625,23301.443359375,3682.7724609375,16702.017578125,3185.272216796875,9081.36328125,25722.185546875,20658.970703125,11845.4296875,-0.0,-45325.7578125,18840.630859375,4259.7451171875,0.0,7143.0205078125,0.0,0.0
14074.6435546875,13951.4609375,31909.943359375,11267.662109375,27583.44140625,5695.02490234375,7460.1171875,8549.6904296875,8250.0771484375,6142.45751953125,15552.837890625,-1039.5050048828125,8323.1923828125,0.0,22070.408203125,5691.84619140625,24216.970703125,19274.552734375,8974.8701171875,10985.5341796875,22455.8515625,28811.296875,20360.947265625,18781.8203125,20538.96484375,6293.45556640625,28173.923828125,-250.33950805664062,0.0,1029.96826171875,13302.9619140625,6011.3271484375,24999.77734375,15824.63671875,14273.326171875,23710.728515625,8636.3154296875,13408.6611328125,7711.251953125,3265.539794921875,22272.267578125,8699.8935546875,16164.779296875,11120.63671875,8095.900390625,11532.306640625,11382.1025390625,1520.3157958984375,9306.271484375,2657.572509765625,15867.5517578125,5834.1025390625,7407.6650390625,1646.6776123046875,10299.6826171875,3844.89697265625,23300.6484375,3693.8984375,16701.220703125,3186.06689453125,9083.748046875,25723.775390625,20658.173828125,11831.919921875,-0.0,-45313.04296875,18841.42578125,4278.0244140625,0.0,7139.841796875,0.0,0.0
14070.669921875,13954.6396484375,31909.1484375,11274.814453125,27574.697265625,5699.79345703125,7458.52783203125,8551.2802734375,8250.873046875,6151.19921875,15555.22265625,-1033.147216796875,8312.861328125,0.0,22068.818359375,5693.435546875,24216.17578125,19276.142578125,8973.28125,10990.3017578125,22454.26171875,28812.08984375,20358.5625,18785.0,20528.634765625,6299.81396484375,28166.771484375,-242.39222717285156,0.0,1030.7630615234375,13302.1669921875,6009.7373046875,24997.392578125,15827.814453125,14270.94140625,23714.701171875,8635.5205078125,13411.044921875,7700.125,3270.308349609375,22261.142578125,8707.046875,16159.2158203125,11126.2001953125,8095.10498046875,11533.896484375,11377.3349609375,1521.9052734375,9284.8134765625,2666.314453125,15863.5771484375,5839.666015625,7407.6650390625,1645.8829345703125,10293.32421875,3851.254638671875,23297.46875,3703.435302734375,16702.810546875,3192.4248046875,9079.7734375,25722.98046875,20660.55859375,11839.072265625,-0.0,-45304.296875,18844.60546875,4289.150390625,0.0,7150.96826171875,0.0,0.0
14062.72265625,13957.0234375,31914.7109375,11283.556640625,27581.849609375,5707.74072265625,7460.912109375,8559.2265625,8245.30859375,6157.55712890625,15547.275390625,-1024.4051513671875,8307.2978515625,0.0,22066.435546875,5703.76708984375,24220.943359375,19280.91015625,8979.6376953125,10994.275390625,22459.029296875,28820.833984375,20362.53515625,18792.15234375,20527.83984375,6307.7607421875,28165.974609375,-234.44493103027344,0.0,1032.3524169921875,13310.115234375,6013.71142578125,24999.77734375,15834.1728515625,14274.9150390625,23722.6484375,8638.69921875,13418.197265625,7693.767578125,3275.871337890625,22264.322265625,8713.404296875,16164.779296875,11133.353515625,8095.900390625,11541.84375,11377.3349609375,1523.4947509765625,9284.01953125,2675.056396484375,15861.98828125,5849.20263671875,7389.38671875,1641.1146240234375,10283.7880859375,3859.2021484375,23295.083984375,3711.382568359375,16698.041015625,3201.166748046875,9078.9794921875,25730.1328125,20665.326171875,11840.6611328125,-0.0,-45294.76171875,18839.041015625,4297.89208984375,0.0,7161.29931640625,0.0,0.0
14069.080078125,13963.3818359375,31921.0703125,11293.09375,27590.59375,5717.27734375,7465.6806640625,8567.173828125,8246.8984375,6165.50439453125,15554.427734375,-1022.0209350585938,8308.8876953125,0.0,22065.638671875,5713.30419921875,24228.890625,19289.65234375,8987.5859375,11000.6328125,22466.18359375,28829.57421875,20370.484375,18800.099609375,20535.787109375,6317.29736328125,28171.5390625,-227.29237365722656,0.0,1040.2998046875,13317.267578125,6019.2744140625,25009.314453125,15842.119140625,14284.451171875,23732.185546875,8645.8525390625,13426.14453125,7704.09912109375,3277.460693359375,22273.859375,8721.3515625,16174.31640625,11140.505859375,8103.05322265625,11550.5859375,11382.8974609375,1533.826171875,9293.556640625,2682.208984375,15867.5517578125,5857.9443359375,7388.591796875,1651.446044921875,10286.966796875,3866.354736328125,23295.87890625,3716.945556640625,16698.837890625,3209.114013671875,9086.9267578125,25739.669921875,20672.48046875,11853.376953125,-0.0,-45297.14453125,18838.248046875,4307.4287109375,0.0,7170.8359375,0.0,0.0
14069.080078125,13953.0498046875,31921.86328125,11289.1201171875,27593.771484375,5718.86669921875,7470.44873046875,8569.55859375,8254.05078125,6171.06787109375,15554.427734375,-1023.6104736328125,8320.80859375,0.0,22071.203125,5714.8935546875,24229.685546875,19294.419921875,8990.7646484375,11009.3759765625,22466.978515625,28829.57421875,20373.662109375,18801.689453125,20542.14453125,6315.7080078125,28181.076171875,-222.5240020751953,0.0,1037.120849609375,13317.267578125,6020.0693359375,25009.314453125,15842.119140625,14286.041015625,23735.365234375,8649.826171875,13430.1181640625,7715.22509765625,3275.871337890625,22278.626953125,8722.146484375,16179.0849609375,11141.2998046875,8107.8212890625,11554.55859375,11382.8974609375,1532.2366943359375,9304.6826171875,2683.003662109375,15874.7041015625,5862.712890625,7387.00244140625,1651.446044921875,10289.3515625,3866.354736328125,23298.263671875,3723.303466796875,16709.962890625,3211.498291015625,9084.5419921875,25743.642578125,20677.248046875,11858.1455078125,-0.0,-45306.68359375,18843.015625,4306.63427734375,0.0,7176.3994140625,0.0,0.0
14065.1064453125,13955.43359375,31921.86328125,11291.50390625,27596.951171875,5719.66162109375,7472.8330078125,8572.7373046875,8253.2568359375,6173.45166015625,15548.865234375,-1017.2525634765625,8319.21875,0.0,22075.970703125,5714.0986328125,24230.48046875,19299.189453125,8993.1484375,11009.3759765625,22466.978515625,28829.57421875,20375.251953125,18804.869140625,20538.96484375,6316.5029296875,28187.43359375,-216.96090698242188,0.0,1039.5050048828125,13318.8564453125,6022.453125,25007.724609375,15842.9150390625,14288.42578125,23737.75,8651.416015625,13433.296875,7713.6357421875,3287.792236328125,22278.626953125,8723.7353515625,16182.2646484375,11144.478515625,8108.61572265625,11557.73828125,11384.4873046875,1533.031494140625,9303.8876953125,2687.77197265625,15877.8818359375,5867.4814453125,7376.6708984375,1657.0091552734375,10277.4306640625,3871.123046875,23302.236328125,3721.714111328125,16713.142578125,3215.471923828125,9084.5419921875,25742.849609375,20679.6328125,11850.1982421875,-0.0,-45294.76171875,18842.220703125,4297.89208984375,0.0,7179.578125,0.0,0.0
14062.72265625,13968.9443359375,31929.015625,11292.2978515625,27600.130859375,5724.43017578125,7479.98583984375,8576.7109375,8267.5615234375,6182.19384765625,15548.865234375,-1014.868408203125,8310.4775390625,0.0,22083.91796875,5717.27734375,24233.66015625,19307.13671875,9000.3017578125,11019.70703125,22472.5390625,28835.138671875,20380.01953125,18808.841796875,20544.529296875,6318.88720703125,28191.408203125,-216.1661834716797,0.0,1042.6839599609375,13322.830078125,6024.04248046875,25013.2890625,15845.298828125,14292.3994140625,23741.72265625,8656.978515625,13438.861328125,7698.5361328125,3290.970947265625,22283.396484375,8727.7099609375,16187.0322265625,11149.2470703125,8118.15283203125,11561.7109375,11391.6396484375,1536.21044921875,9301.5029296875,2687.77197265625,15885.0341796875,5873.04443359375,7384.6181640625,1664.16162109375,10279.01953125,3874.302001953125,23306.2109375,3717.740234375,16721.8828125,3221.82958984375,9085.337890625,25748.412109375,20687.580078125,11861.32421875,-0.0,-45291.5859375,18850.9609375,4298.68701171875,0.0,7184.3466796875,0.0,0.0
14054.775390625,13970.5341796875,31930.607421875,11289.9140625,27599.333984375,5723.63525390625,7480.7802734375,8572.7373046875,8281.8671875,6181.39892578125,15536.9443359375,-1016.4578857421875,8316.833984375,0.0,22087.892578125,5710.125,24228.890625,19304.751953125,9000.3017578125,11028.44921875,22471.74609375,28835.138671875,20379.224609375,18807.251953125,20544.529296875,6318.09228515625,28187.43359375,-221.72927856445312,0.0,1042.6839599609375,13320.4462890625,6015.30078125,25010.904296875,15843.7099609375,14291.6044921875,23743.310546875,8656.1845703125,13437.271484375,7688.9990234375,3282.229248046875,22282.599609375,8726.9140625,16186.2373046875,11146.86328125,8126.89501953125,11560.1220703125,11389.255859375,1533.826171875,9302.298828125,2685.387939453125,15888.2138671875,5871.45458984375,7383.0283203125,1660.9827880859375,10271.8671875,3870.328125,23308.595703125,3708.99853515625,16729.83203125,3217.061279296875,9084.5419921875,25748.412109375,20688.375,11872.451171875,-0.0,-45293.96875,18854.9375,4289.150390625,0.0,7176.3994140625,0.0,0.0
14050.0068359375,13955.43359375,31921.86328125,11285.1455078125,27590.59375,5717.27734375,7473.62744140625,8567.9697265625,8289.814453125,6179.0146484375,15527.4072265625,-1025.199951171875,8305.708984375,0.0,22084.712890625,5703.76708984375,24222.533203125,19295.21484375,8995.533203125,11033.2177734375,22462.208984375,28830.369140625,20371.279296875,18800.099609375,20532.607421875,6313.32421875,28171.5390625,-226.49765014648438,0.0,1033.94189453125,13313.29296875,6006.55908203125,25002.16015625,15836.5576171875,14285.2470703125,23738.54296875,8651.416015625,13429.32421875,7692.97265625,3274.28173828125,22273.859375,8722.146484375,16179.0849609375,11141.2998046875,8125.30517578125,11556.1484375,11383.6923828125,1527.4683837890625,9291.966796875,2682.208984375,15883.4453125,5865.09716796875,7383.8232421875,1652.24072265625,10264.7138671875,3863.970458984375,23302.236328125,3705.024658203125,16731.419921875,3213.88232421875,9075.80078125,25742.0546875,20686.78515625,11884.3720703125,-0.0,-45301.12109375,18851.7578125,4286.76611328125,0.0,7167.6572265625,0.0,0.0
14052.390625,13947.4873046875,31915.50390625,11291.50390625,27592.181640625,5719.66162109375,7476.01171875,8571.9423828125,8289.01953125,6186.9619140625,15526.6123046875,-1022.0209350585938,8312.06640625,0.0,22085.5078125,5710.919921875,24222.533203125,19299.189453125,8996.3271484375,11034.806640625,22463.00390625,28831.958984375,20375.251953125,18802.484375,20540.556640625,6316.5029296875,28173.12890625,-222.5240020751953,0.0,1034.736572265625,13314.087890625,6006.55908203125,25002.16015625,15838.146484375,14286.041015625,23740.92578125,8653.7998046875,13431.7080078125,7705.6884765625,3274.28173828125,22270.6796875,8723.7353515625,16179.8798828125,11144.478515625,8126.89501953125,11556.943359375,11386.87109375,1529.8525390625,9295.9404296875,2687.77197265625,15884.2412109375,5870.66015625,7390.18115234375,1660.1881103515625,10279.01953125,3870.328125,23302.236328125,3711.382568359375,16732.216796875,3217.856201171875,9077.3896484375,25743.642578125,20688.375,11893.908203125,-0.0,-45295.5546875,18848.578125,4297.09765625,0.0,7177.1943359375,0.0,0.0
14057.9541015625,13944.30859375,31913.12109375,11295.4775390625,27592.9765625,5722.8408203125,7478.39599609375,8572.7373046875,8286.6357421875,6182.19384765625,15531.380859375,-1020.4315185546875,8308.0927734375,0.0,22083.125,5710.125,24224.916015625,19307.931640625,8997.9169921875,11028.44921875,22464.59375,28835.138671875,20377.63671875,18805.662109375,20533.404296875,6321.271484375,28177.103515625,-220.93455505371094,0.0,1038.710205078125,13316.4716796875,6012.12158203125,25002.95703125,15839.7353515625,14287.630859375,23745.6953125,8655.388671875,13432.5029296875,7707.27783203125,3268.71875,22272.267578125,8727.7099609375,16183.0576171875,11145.2744140625,8128.48388671875,11556.1484375,11384.4873046875,1525.87890625,9292.76171875,2690.15625,15884.2412109375,5870.66015625,7394.15478515625,1660.1881103515625,10273.45703125,3870.328125,23297.46875,3708.20361328125,16729.83203125,3214.677001953125,9085.337890625,25746.02734375,20689.16796875,11877.21875,-0.0,-45296.3515625,18850.16796875,4293.12353515625,0.0,7165.27294921875,0.0,0.0
14069.080078125,13954.6396484375,31924.248046875,11309.783203125,27604.8984375,5743.50341796875,7485.54833984375,8586.2470703125,8274.71484375,6184.578125,15548.0703125,-996.5896606445312,8309.681640625,0.0,22083.125,5730.78759765625,24238.427734375,19320.646484375,9007.4541015625,11016.5283203125,22477.30859375,28849.443359375,20390.3515625,18818.37890625,20534.9921875,6342.72900390625,28192.201171875,-201.0663299560547,0.0,1056.989013671875,13330.77734375,6028.0166015625,25014.876953125,15854.0400390625,14301.140625,23761.591796875,8664.130859375,13443.62890625,7723.1728515625,3279.050048828125,22282.599609375,8745.98828125,16196.5693359375,11162.7578125,8130.8681640625,11565.685546875,11396.408203125,1546.5418701171875,9293.556640625,2713.998046875,15889.009765625,5886.5546875,7402.10205078125,1672.9036865234375,10281.4033203125,3898.143798828125,23291.90625,3732.04541015625,16723.474609375,3228.1875,9098.84765625,25758.744140625,20695.52734375,11840.6611328125,-0.0,-45270.91796875,18847.783203125,4323.32373046875,0.0,7178.783203125,0.0,0.0
14071.46484375,13963.3818359375,31929.015625,11313.755859375,27611.255859375,5749.06689453125,7490.31689453125,8586.2470703125,8273.125,6184.578125,15551.2490234375,-993.4107055664062,8303.32421875,0.0,22086.302734375,5734.76171875,24242.400390625,19323.03125,9010.6328125,11009.3759765625,22478.8984375,28851.828125,20395.9140625,18819.966796875,20538.96484375,6347.49755859375,28201.73828125,-196.29795837402344,0.0,1056.1943359375,13336.3408203125,6030.40087890625,25017.26171875,15859.603515625,14305.115234375,23763.1796875,8667.3095703125,13446.8076171875,7725.556640625,3284.61328125,22284.189453125,8752.345703125,16204.515625,11163.552734375,8134.841796875,11566.4794921875,11402.7666015625,1543.3629150390625,9295.1455078125,2715.587646484375,15895.3662109375,5888.14404296875,7402.89697265625,1676.0826416015625,10273.45703125,3899.7333984375,23295.083984375,3738.4033203125,16725.859375,3227.392822265625,9094.0791015625,25761.126953125,20696.322265625,11831.1240234375,-0.0,-45266.9453125,18846.98828125,4330.47607421875,0.0,7183.5517578125,0.0,0.0
14067.490234375,13964.970703125,31925.837890625,11302.630859375,27608.87109375,5737.9404296875,7492.701171875,8581.4794921875,8284.2509765625,6180.6044921875,15552.0439453125,-1002.9474487304688,8304.9130859375,0.0,22090.27734375,5722.8408203125,24237.6328125,19321.44140625,9006.6591796875,11012.5537109375,22475.71875,28845.46875,20394.326171875,18813.609375,20538.171875,6334.78173828125,28192.99609375,-205.83470153808594,0.0,1046.6575927734375,13329.982421875,6020.86376953125,25013.2890625,15855.630859375,14302.73046875,23757.615234375,8667.3095703125,13442.833984375,7718.404296875,3286.20263671875,22283.396484375,8745.98828125,16204.515625,11153.220703125,8137.22607421875,11563.30078125,11401.970703125,1531.4420166015625,9290.3779296875,2702.0771484375,15900.9306640625,5880.99169921875,7402.89697265625,1672.1090087890625,10271.8671875,3882.2490234375,23291.90625,3729.6611328125,16734.599609375,3218.65087890625,9083.748046875,25757.947265625,20693.9375,11843.044921875,-0.0,-45275.6875,18850.16796875,4309.0185546875,0.0,7174.01513671875,0.0,0.0
14075.4384765625,13981.66015625,31939.345703125,11311.3720703125,27608.076171875,5739.5302734375,7490.31689453125,8584.658203125,8288.224609375,6184.578125,15562.375,-994.2054443359375,8328.755859375,0.0,22087.892578125,5726.01953125,24243.197265625,19327.798828125,9011.427734375,11015.732421875,22481.283203125,28849.443359375,20396.708984375,18816.7890625,20549.296875,6336.37109375,28190.61328125,-203.4505157470703,0.0,1057.78369140625,13334.7509765625,6029.60595703125,25021.234375,15861.1923828125,14305.115234375,23762.384765625,8665.720703125,13445.2177734375,7727.14599609375,3298.91845703125,22291.341796875,8744.3994140625,16202.130859375,11157.9892578125,8138.81591796875,11566.4794921875,11409.9189453125,1548.926025390625,9311.0400390625,2705.256103515625,15896.162109375,5885.759765625,7411.638671875,1680.0562744140625,10290.1455078125,3891.785888671875,23290.31640625,3738.4033203125,16730.626953125,3223.419189453125,9093.2841796875,25761.126953125,20697.1171875,11848.609375,-0.0,-45262.17578125,18845.400390625,4307.4287109375,0.0,7176.3994140625,0.0,0.0
14079.4111328125,13981.66015625,31934.578125,11314.5517578125,27611.255859375,5738.7353515625,7489.5224609375,8584.658203125,8288.224609375,6184.578125,15555.22265625,-995.000244140625,8334.3193359375,0.0,22085.5078125,5726.814453125,24240.8125,19325.4140625,9009.837890625,11014.9384765625,22482.076171875,28847.853515625,20399.09375,18815.19921875,20548.501953125,6335.57666015625,28188.228515625,-202.65579223632812,0.0,1056.989013671875,13333.1611328125,6028.0166015625,25019.646484375,15855.630859375,14303.525390625,23760.794921875,8664.130859375,13442.833984375,7727.94091796875,3294.94482421875,22290.548828125,8742.8095703125,16201.337890625,11157.1953125,8140.40478515625,11565.685546875,11405.150390625,1560.846923828125,9315.80859375,2701.282470703125,15896.955078125,5885.759765625,7409.25439453125,1676.0826416015625,10283.7880859375,3897.34912109375,23303.828125,3736.813720703125,16726.65234375,3225.803466796875,9097.2587890625,25758.744140625,20696.322265625,11852.58203125,-0.0,-45260.58984375,18842.220703125,4310.60791015625,0.0,7178.783203125,0.0,0.0
14073.8486328125,13963.3818359375,31925.837890625,11306.603515625,27607.283203125,5732.37744140625,7481.5751953125,8579.890625,8292.1982421875,6179.0146484375,15545.685546875,-1006.1264038085938,8316.833984375,0.0,22083.91796875,5722.8408203125,24232.068359375,19318.26171875,9001.8916015625,11010.96484375,22475.71875,28839.111328125,20395.12109375,18807.251953125,20546.1171875,6330.01318359375,28175.51171875,-208.21888732910156,0.0,1047.4522705078125,13326.0087890625,6017.68505859375,25010.109375,15848.478515625,14297.16796875,23754.4375,8656.1845703125,13437.271484375,7720.78857421875,3287.792236328125,22284.984375,8736.451171875,16195.7744140625,11153.220703125,8136.431640625,11559.3271484375,11400.3818359375,1554.4891357421875,9312.6298828125,2696.51416015625,15883.4453125,5880.197265625,7398.92333984375,1664.16162109375,10271.072265625,3894.170166015625,23316.541015625,3735.224365234375,16725.859375,3220.240234375,9088.5166015625,25750.794921875,20689.16796875,11850.9931640625,-0.0,-45266.15234375,18843.015625,4309.81298828125,0.0,7165.27294921875,0.0,0.0
14070.669921875,13964.17578125,31925.041015625,11302.630859375,27600.923828125,5728.40380859375,7472.8330078125,8574.326171875,8299.3505859375,6173.45166015625,15540.123046875,-1010.1000366210938,8311.271484375,0.0,22086.302734375,5714.8935546875,24227.30078125,19315.083984375,8997.123046875,11014.1435546875,22470.15625,28833.546875,20392.736328125,18802.484375,20542.14453125,6326.833984375,28177.896484375,-214.57672119140625,0.0,1044.2734375,13319.6513671875,6012.91650390625,25006.13671875,15847.6826171875,14293.98828125,23750.462890625,8651.416015625,13432.5029296875,7713.6357421875,3279.050048828125,22280.216796875,8736.451171875,16188.62109375,11150.8369140625,8132.45751953125,11552.9697265625,11401.1767578125,1549.720703125,9305.4775390625,2694.1298828125,15876.29296875,5872.24951171875,7393.3603515625,1656.21435546875,10273.45703125,3891.785888671875,23318.92578125,3730.4560546875,16729.83203125,3209.114013671875,9087.7216796875,25746.822265625,20684.400390625,11859.734375,-0.0,-45270.91796875,18845.400390625,4293.91845703125,0.0,7146.19970703125,0.0,0.0
14071.46484375,13965.765625,31921.86328125,11302.630859375,27596.951171875,5726.01953125,7478.39599609375,8571.9423828125,8314.4501953125,6177.42529296875,15530.5859375,-1014.07373046875,8314.4501953125,0.0,22092.66015625,5708.53564453125,24224.123046875,19311.904296875,8997.123046875,11022.8857421875,22468.56640625,28832.75390625,20395.12109375,18799.3046875,20535.787109375,6322.06591796875,28180.28125,-220.93455505371094,0.0,1042.6839599609375,13317.267578125,6012.12158203125,25003.751953125,15842.9150390625,14290.015625,23748.080078125,8652.2099609375,13430.1181640625,7710.45703125,3279.844970703125,22275.447265625,8730.09375,16189.4169921875,11147.658203125,8140.40478515625,11552.9697265625,11394.818359375,1548.13134765625,9300.708984375,2689.361572265625,15886.625,5865.89208984375,7397.33349609375,1652.24072265625,10280.609375,3880.659912109375,23314.953125,3718.53515625,16741.751953125,3208.3193359375,9081.36328125,25744.4375,20687.580078125,11871.6552734375,-0.0,-45281.25,18854.140625,4283.5869140625,0.0,7150.96826171875,0.0,0.0
14070.669921875,13964.17578125,31922.65625,11301.8349609375,27600.923828125,5727.609375,7483.16455078125,8576.7109375,8320.013671875,6186.9619140625,15528.2021484375,-1019.6367797851562,8313.65625,0.0,22095.837890625,5714.8935546875,24226.5078125,19315.876953125,9001.095703125,11024.474609375,22469.361328125,28834.34375,20400.681640625,18804.869140625,20537.376953125,6322.06591796875,28182.6640625,-218.5503692626953,0.0,1040.2998046875,13319.6513671875,6013.71142578125,25005.33984375,15843.7099609375,14291.6044921875,23752.0546875,8657.7734375,13434.0927734375,7712.04638671875,3278.25537109375,22277.83203125,8727.7099609375,16194.978515625,11150.04296875,8143.58447265625,11558.533203125,11395.61328125,1547.3365478515625,9303.8876953125,2689.361572265625,15889.802734375,5868.27587890625,7404.486328125,1651.446044921875,10280.609375,3874.302001953125,23314.158203125,3717.740234375,16748.904296875,3218.65087890625,9082.158203125,25750.001953125,20693.9375,11862.9140625,-0.0,-45291.5859375,18859.705078125,4301.0712890625,0.0,7175.6044921875,0.0,0.0
14058.7490234375,13960.998046875,31917.888671875,11294.6826171875,27600.130859375,5725.22509765625,7480.7802734375,8576.7109375,8318.423828125,6189.34619140625,15527.4072265625,-1029.1734619140625,8310.4775390625,0.0,22093.455078125,5717.27734375,24221.73828125,19312.701171875,9000.3017578125,11023.6806640625,22465.38671875,28829.57421875,20399.09375,18802.484375,20538.96484375,6319.681640625,28181.87109375,-217.75563049316406,0.0,1035.5313720703125,13317.267578125,6006.55908203125,25000.572265625,15841.326171875,14288.42578125,23749.669921875,8655.388671875,13432.5029296875,7706.4833984375,3270.308349609375,22276.244140625,8725.3251953125,16194.978515625,11149.2470703125,8139.6103515625,11560.9169921875,11392.4345703125,1540.18408203125,9303.8876953125,2690.15625,15889.802734375,5870.66015625,7395.744140625,1645.8829345703125,10271.072265625,3867.944091796875,23308.595703125,3720.91943359375,16744.931640625,3221.034912109375,9078.185546875,25745.234375,20691.552734375,11866.88671875,-0.0,-45301.9140625,18853.345703125,4309.0185546875,0.0,7185.93603515625,0.0,0.0
14048.4169921875,13962.5859375,31913.91796875,11286.7353515625,27598.5390625,5716.482421875,7476.01171875,8567.173828125,8312.06640625,6188.55126953125,15520.2548828125,-1033.147216796875,8312.06640625,0.0,22088.685546875,5704.5615234375,24214.5859375,19306.341796875,8994.73828125,11021.296875,22461.4140625,28824.01171875,20393.529296875,18794.537109375,20543.734375,6310.14501953125,28181.076171875,-229.6765594482422,0.0,1028.3787841796875,13309.3193359375,6000.20068359375,24995.8046875,15834.1728515625,14285.2470703125,23744.10546875,8650.6201171875,13426.14453125,7702.50927734375,3267.129150390625,22275.447265625,8718.1728515625,16191.005859375,11140.505859375,8134.841796875,11553.7646484375,11390.0498046875,1532.2366943359375,9307.861328125,2679.82470703125,15887.4189453125,5861.12353515625,7388.591796875,1645.088134765625,10271.8671875,3853.638916015625,23306.2109375,3703.435302734375,16738.572265625,3215.471923828125,9075.005859375,25740.46484375,20685.1953125,11888.3447265625,-0.0,-45319.3984375,18853.345703125,4285.1767578125,0.0,7188.3203125,0.0,0.0
14042.0595703125,13954.6396484375,31907.55859375,11279.5830078125,27590.59375,5706.94580078125,7470.44873046875,8559.2265625,8304.9130859375,6179.8095703125,15521.0498046875,-1038.710205078125,8313.65625,0.0,22084.712890625,5694.23046875,24206.638671875,19299.189453125,8985.99609375,11015.732421875,22451.876953125,28815.26953125,20386.376953125,18784.205078125,20530.224609375,6300.6083984375,28179.486328125,-240.00804138183594,0.0,1016.4578857421875,13301.3720703125,5993.84326171875,24987.0625,15825.4296875,14275.7099609375,23736.953125,8641.87890625,13418.9921875,7694.5625,3262.36083984375,22265.91015625,8708.63671875,16184.6484375,11133.353515625,8128.48388671875,11545.0224609375,11382.1025390625,1525.0841064453125,9301.5029296875,2669.493408203125,15882.650390625,5851.5869140625,7384.6181640625,1647.472412109375,10281.4033203125,3845.691650390625,23306.2109375,3687.540771484375,16732.216796875,3206.72998046875,9071.0322265625,25732.517578125,20676.455078125,11889.9345703125,-0.0,-45334.5,18853.345703125,4266.8974609375,0.0,7181.16748046875,0.0,0.0
14056.365234375,13946.6923828125,31906.765625,11279.5830078125,27587.4140625,5704.5615234375,7472.0380859375,8556.8427734375,8308.0927734375,6171.06787109375,15530.5859375,-1037.120849609375,8314.4501953125,0.0,22088.685546875,5690.2568359375,24207.43359375,19299.189453125,8984.40625,11011.759765625,22450.2890625,28813.6796875,20386.376953125,18781.8203125,20530.224609375,6295.83984375,28179.486328125,-242.39222717285156,0.0,1014.868408203125,13301.3720703125,5993.84326171875,24987.85546875,15825.4296875,14274.9150390625,23734.5703125,8639.4951171875,13417.4033203125,7696.15185546875,3259.9765625,22261.9375,8709.4306640625,16183.853515625,11131.763671875,8128.48388671875,11542.6376953125,11377.3349609375,1522.699951171875,9298.32421875,2666.314453125,15881.0615234375,5849.20263671875,7391.77099609375,1640.31982421875,10284.5830078125,3848.87060546875,23306.2109375,3687.540771484375,16733.8046875,3201.166748046875,9069.4423828125,25727.748046875,20673.275390625,11872.451171875,-0.0,-45325.7578125,18853.345703125,4268.4873046875,0.0,7166.8623046875,0.0,0.0
14077.822265625,13960.998046875,31920.2734375,11295.4775390625,27597.74609375,5715.68798828125,7472.0380859375,8563.201171875,8299.3505859375,6167.09375,15546.4814453125,-1018.04736328125,8306.5029296875,0.0,22083.91796875,5698.2041015625,24220.943359375,19306.341796875,8986.791015625,11003.017578125,22463.00390625,28826.39453125,20392.736328125,18790.564453125,20541.349609375,6311.73486328125,28181.076171875,-231.26602172851562,0.0,1029.96826171875,13311.7041015625,6008.94287109375,25000.572265625,15837.3505859375,14284.451171875,23745.6953125,8642.673828125,13423.7607421875,7707.27783203125,3272.6923828125,22274.65234375,8720.5576171875,16190.2099609375,11141.2998046875,8128.48388671875,11545.8173828125,11391.6396484375,1534.620849609375,9306.271484375,2677.440673828125,15880.2666015625,5857.1494140625,7408.4599609375,1650.6513671875,10283.7880859375,3866.354736328125,23303.828125,3699.461669921875,16724.267578125,3205.140380859375,9082.953125,25734.90234375,20675.66015625,11848.609375,-0.0,-45304.296875,18838.248046875,4289.9453125,0.0,7169.24658203125,0.0,0.0
14080.20703125,13961.7919921875,31929.015625,11306.603515625,27607.283203125,5726.01953125,7479.98583984375,8571.9423828125,8316.0400390625,6181.39892578125,15552.0439453125,-1015.6631469726562,8302.529296875,0.0,22089.48046875,5711.71435546875,24228.095703125,19314.2890625,8995.533203125,11017.322265625,22470.951171875,28833.546875,20402.2734375,18798.509765625,20551.681640625,6322.86083984375,28191.408203125,-218.5503692626953,0.0,1036.3260498046875,13317.267578125,6015.30078125,25007.724609375,15846.09375,14293.193359375,23755.232421875,8652.2099609375,13431.7080078125,7717.609375,3282.229248046875,22283.396484375,8730.888671875,16198.9541015625,11150.8369140625,8140.40478515625,11556.1484375,11402.7666015625,1543.3629150390625,9315.80859375,2691.745849609375,15889.802734375,5869.0703125,7408.4599609375,1657.8038330078125,10289.3515625,3878.275634765625,23306.2109375,3711.382568359375,16733.01171875,3217.856201171875,9090.1064453125,25741.2578125,20684.400390625,11870.861328125,-0.0,-45293.96875,18846.193359375,4304.25,0.0,7183.5517578125,0.0,0.0
14070.669921875,13953.8447265625,31920.2734375,11296.2724609375,27604.103515625,5720.45654296875,7480.7802734375,8567.173828125,8320.013671875,6181.39892578125,15542.5068359375,-1024.4051513671875,8316.0400390625,0.0,22096.634765625,5710.919921875,24220.1484375,19305.546875,8992.3544921875,11021.296875,22461.4140625,28826.39453125,20398.298828125,18792.15234375,20538.171875,6314.9130859375,28200.9453125,-222.5240020751953,0.0,1025.199951171875,13310.115234375,6008.1484375,24999.77734375,15837.3505859375,14287.630859375,23748.875,8649.826171875,13427.734375,7713.6357421875,3271.8974609375,22275.447265625,8725.3251953125,16198.9541015625,11147.658203125,8141.99462890625,11551.3798828125,11395.61328125,1525.0841064453125,9310.2451171875,2685.387939453125,15893.7783203125,5865.09716796875,7398.92333984375,1650.6513671875,10278.224609375,3865.559814453125,23314.953125,3708.99853515625,16736.984375,3216.2666015625,9085.337890625,25738.080078125,20682.8125,11891.5244140625,-0.0,-45303.50390625,18850.9609375,4295.5078125,0.0,7172.42578125,0.0,0.0
14056.365234375,13945.8974609375,31899.61328125,11274.814453125,27588.208984375,5701.38330078125,7464.8857421875,8548.8955078125,8304.9130859375,6160.736328125,15522.6396484375,-1035.5313720703125,8306.5029296875,0.0,22084.712890625,5691.05126953125,24204.25390625,19290.447265625,8974.8701171875,11003.8115234375,22444.724609375,28811.296875,20383.19921875,18773.875,20517.5078125,6295.04541015625,28185.048828125,-243.98167419433594,0.0,1008.5106201171875,13295.8095703125,5992.25390625,24982.294921875,15822.251953125,14270.94140625,23733.7734375,8633.931640625,13409.455078125,7697.7412109375,3259.181884765625,22257.169921875,8706.251953125,16183.853515625,11126.9951171875,8125.30517578125,11532.306640625,11376.5400390625,1502.831787109375,9284.8134765625,2667.109130859375,15879.47265625,5845.228515625,7383.8232421875,1641.9093017578125,10256.767578125,3845.691650390625,23306.2109375,3691.51416015625,16727.447265625,3196.3984375,9074.2109375,25723.775390625,20665.326171875,11866.0927734375,-0.0,-45320.1953125,18836.65625,4274.05029296875,0.0,7146.19970703125,0.0,0.0
14066.6962890625,13960.2021484375,31913.12109375,11283.556640625,27588.208984375,5707.74072265625,7463.29638671875,8551.2802734375,8297.7607421875,6157.55712890625,15538.533203125,-1018.04736328125,8326.37109375,0.0,22082.328125,5695.81982421875,24216.17578125,19298.39453125,8977.25390625,10998.2490234375,22454.26171875,28820.037109375,20385.583984375,18777.052734375,20535.787109375,6306.17138671875,28169.154296875,-238.4185791015625,0.0,1019.6367797851562,13305.3466796875,6003.3798828125,24992.625,15833.3779296875,14276.5048828125,23742.517578125,8634.7265625,13412.634765625,7699.33056640625,3271.8974609375,22265.115234375,8715.7890625,16180.673828125,11129.37890625,8122.12646484375,11532.306640625,11397.2021484375,1523.4947509765625,9291.171875,2672.67236328125,15876.29296875,5846.0234375,7402.10205078125,1657.0091552734375,10279.01953125,3860.79150390625,23310.98046875,3700.25634765625,16723.474609375,3195.603515625,9082.158203125,25728.544921875,20666.123046875,11856.5556640625,-0.0,-45305.09375,18837.451171875,4284.3818359375,0.0,7149.37841796875,0.0,0.0
14077.822265625,13966.560546875,31925.041015625,11295.4775390625,27594.56640625,5714.8935546875,7460.912109375,8557.6376953125,8269.9462890625,6163.1201171875,15552.837890625,-1006.1264038085938,8335.908203125,0.0,22075.970703125,5701.38330078125,24224.123046875,19306.341796875,8979.6376953125,10983.1494140625,22463.00390625,28827.986328125,20389.556640625,18783.41015625,20554.06640625,6317.29736328125,28170.744140625,-229.6765594482422,0.0,1026.789306640625,13314.087890625,6012.91650390625,25002.16015625,15842.119140625,14282.8623046875,23750.462890625,8636.3154296875,13416.607421875,7714.43017578125,3281.434326171875,22275.447265625,8726.9140625,16182.2646484375,11135.7373046875,8114.97412109375,11536.2802734375,11411.5078125,1540.18408203125,9311.0400390625,2680.619384765625,15869.935546875,5851.5869140625,7414.02294921875,1660.9827880859375,10298.0927734375,3874.302001953125,23313.36328125,3708.99853515625,16703.60546875,3205.935302734375,9086.9267578125,25733.3125,20664.533203125,11848.609375,-0.0,-45291.5859375,18833.478515625,4297.89208984375,0.0,7176.3994140625,0.0,0.0
14083.3857421875,13967.3544921875,31925.041015625,11301.8349609375,27598.5390625,5718.072265625,7460.1171875,8560.021484375,8262.7939453125,6163.9150390625,15555.22265625,-1001.3580322265625,8331.1396484375,0.0,22070.408203125,5703.76708984375,24225.7109375,19308.724609375,8979.6376953125,10981.5595703125,22464.59375,28830.369140625,20391.146484375,18784.205078125,20550.88671875,6320.4765625,28177.103515625,-226.49765014648438,0.0,1032.3524169921875,13316.4716796875,6015.30078125,25003.751953125,15846.8876953125,14284.451171875,23752.0546875,8637.9052734375,13416.607421875,7719.19873046875,3283.818603515625,22277.83203125,8728.50390625,16186.2373046875,11137.326171875,8110.20556640625,11537.869140625,11412.302734375,1544.952392578125,9309.451171875,2681.414306640625,15866.7568359375,5855.560546875,7418.79150390625,1655.419677734375,10291.7353515625,3878.275634765625,23308.595703125,3712.971923828125,16696.453125,3209.114013671875,9089.310546875,25734.10546875,20662.943359375,11843.044921875,-0.0,-45281.25,18827.119140625,4301.8662109375,0.0,7176.3994140625,0.0,0.0
14082.5908203125,13965.765625,31925.041015625,11305.0146484375,27599.333984375,5719.66162109375,7459.322265625,8557.6376953125,8260.4091796875,6159.94140625,15556.8125,-998.1790771484375,8331.1396484375,0.0,22069.61328125,5706.1513671875,24226.5078125,19306.341796875,8977.25390625,10978.380859375,22463.798828125,28830.369140625,20391.146484375,18781.8203125,20551.681640625,6322.86083984375,28178.69140625,-224.90818786621094,0.0,1037.91552734375,13317.267578125,6016.095703125,25003.751953125,15848.478515625,14284.451171875,23750.462890625,8633.931640625,13417.4033203125,7716.814453125,3282.229248046875,22277.83203125,8727.7099609375,16188.62109375,11139.7099609375,8109.41015625,11536.2802734375,11410.712890625,1544.952392578125,9311.8349609375,2686.1826171875,15867.5517578125,5854.765625,7421.17529296875,1656.21435546875,10295.708984375,3878.275634765625,23307.80078125,3717.740234375,16696.453125,3206.72998046875,9092.490234375,25733.3125,20660.55859375,11831.1240234375,-0.0,-45278.07421875,18826.326171875,4307.4287109375,0.0,7168.45166015625,0.0,0.0
14085.76953125,13968.9443359375,31928.22265625,11311.3720703125,27603.30859375,5721.2509765625,7459.322265625,8556.048828125,8256.435546875,6158.35205078125,15559.1962890625,-995.000244140625,8336.703125,0.0,22068.0234375,5708.53564453125,24228.890625,19306.341796875,8978.84375,10972.0234375,22466.978515625,28831.958984375,20393.529296875,18784.205078125,20556.44921875,6325.2451171875,28178.69140625,-223.31874084472656,0.0,1040.2998046875,13316.4716796875,6017.68505859375,25004.544921875,15849.271484375,14286.041015625,23752.0546875,8633.931640625,13418.197265625,7716.02001953125,3281.434326171875,22281.01171875,8732.478515625,16189.4169921875,11140.505859375,8107.8212890625,11536.2802734375,11411.5078125,1548.13134765625,9315.013671875,2691.745849609375,15865.9609375,5855.560546875,7421.97021484375,1663.366943359375,10306.8349609375,3879.0703125,23308.595703125,3718.53515625,16694.068359375,3205.935302734375,9094.8740234375,25734.10546875,20658.173828125,11823.9716796875,-0.0,-45277.27734375,18822.3515625,4310.60791015625,0.0,7166.0673828125,0.0,0.0
14086.564453125,13966.560546875,31933.78515625,11324.8828125,27608.87109375,5728.40380859375,7465.6806640625,8563.9951171875,8272.330078125,6168.68359375,15566.3486328125,-996.5896606445312,8339.8818359375,0.0,22074.380859375,5714.8935546875,24232.865234375,19314.2890625,8986.791015625,10984.73828125,22473.3359375,28840.69921875,20400.681640625,18790.564453125,20558.833984375,6330.01318359375,28185.048828125,-220.1398162841797,0.0,1041.094482421875,13322.0361328125,6021.658203125,25010.904296875,15858.0146484375,14292.3994140625,23760.0,8641.083984375,13424.5556640625,7716.02001953125,3286.20263671875,22287.369140625,8739.630859375,16197.36328125,11146.86328125,8116.56298828125,11545.8173828125,11413.09765625,1552.899658203125,9318.1923828125,2698.8984375,15872.3203125,5864.30224609375,7414.81787109375,1663.366943359375,10308.4248046875,3882.2490234375,23311.7734375,3722.5087890625,16703.60546875,3217.061279296875,9098.84765625,25742.0546875,20666.91796875,11842.2509765625,-0.0,-45281.25,18829.50390625,4314.58154296875,0.0,7172.42578125,0.0,0.0
14076.232421875,13953.0498046875,31926.6328125,11318.5244140625,27600.923828125,5718.86669921875,7460.1171875,8556.048828125,8269.150390625,6164.70947265625,15559.9912109375,-1018.8421020507812,8331.9345703125,0.0,22071.203125,5702.97265625,24225.7109375,19308.724609375,8979.6376953125,10982.3544921875,22463.798828125,28831.958984375,20392.736328125,18781.8203125,20550.88671875,6318.09228515625,28179.486328125,-232.85548400878906,0.0,1026.789306640625,13316.4716796875,6012.12158203125,25004.544921875,15849.271484375,14286.041015625,23750.462890625,8634.7265625,13415.8134765625,7716.02001953125,3272.6923828125,22279.419921875,8729.298828125,16192.5947265625,11137.326171875,8111.0,11536.2802734375,11411.5078125,1539.3892822265625,9310.2451171875,2686.1826171875,15869.935546875,5854.765625,7404.486328125,1647.472412109375,10306.041015625,3864.76513671875,23303.828125,3706.6142578125,16702.810546875,3208.3193359375,9089.310546875,25731.72265625,20660.55859375,11841.4560546875,-0.0,-45301.9140625,18829.50390625,4293.91845703125,0.0,7170.8359375,0.0,0.0
14064.3115234375,13957.818359375,31925.837890625,11310.5771484375,27601.71875,5710.125,7460.1171875,8549.6904296875,8272.330078125,6160.736328125,15554.427734375,-1031.5577392578125,8339.087890625,0.0,22071.203125,5689.46240234375,24220.1484375,19303.1640625,8977.25390625,10983.1494140625,22462.208984375,28825.6015625,20390.3515625,18777.052734375,20552.4765625,6309.3505859375,28183.4609375,-243.18695068359375,0.0,1018.8421020507812,13313.29296875,6007.353515625,25002.95703125,15843.7099609375,14283.6572265625,23745.6953125,8632.3427734375,13411.83984375,7717.609375,3248.8505859375,22277.83203125,8721.3515625,16194.185546875,11128.5849609375,8111.79443359375,11529.9228515625,11409.123046875,1530.647216796875,9314.2197265625,2671.877685546875,15872.3203125,5845.228515625,7396.5390625,1642.7039794921875,10303.65625,3852.84423828125,23306.2109375,3689.130126953125,16704.400390625,3197.98779296875,9084.5419921875,25730.927734375,20659.765625,11847.01953125,-0.0,-45317.01171875,18829.50390625,4277.2294921875,0.0,7170.04150390625,0.0,0.0
14062.72265625,13964.970703125,31927.42578125,11307.3984375,27604.103515625,5708.53564453125,7464.0908203125,8547.3056640625,8276.3037109375,6160.736328125,15559.9912109375,-1032.3524169921875,8337.498046875,0.0,22075.17578125,5687.078125,24222.533203125,19307.13671875,8978.84375,10983.9443359375,22463.798828125,28827.189453125,20392.736328125,18777.84765625,20549.296875,6314.11865234375,28189.0234375,-245.57113647460938,0.0,1017.2525634765625,13314.8828125,6010.5322265625,25004.544921875,15846.09375,14283.6572265625,23748.080078125,8633.13671875,13411.83984375,7719.99365234375,3261.566162109375,22277.83203125,8722.94140625,16196.5693359375,11127.7890625,8114.1787109375,11533.896484375,11416.2763671875,1529.057861328125,9318.98828125,2670.2880859375,15873.9091796875,5842.8447265625,7399.7177734375,1648.26708984375,10295.708984375,3855.228515625,23313.36328125,3685.156494140625,16709.169921875,3196.3984375,9086.9267578125,25734.90234375,20660.55859375,11854.171875,-0.0,-45315.42578125,18834.271484375,4285.1767578125,0.0,7164.478515625,0.0,0.0
14071.46484375,13970.5341796875,31933.78515625,11308.193359375,27609.666015625,5719.66162109375,7468.859375,8556.048828125,8280.27734375,6167.09375,15563.1708984375,-1018.8421020507812,8332.7294921875,0.0,22079.1484375,5697.4091796875,24232.068359375,19315.083984375,8983.6123046875,10990.3017578125,22468.56640625,28835.931640625,20397.50390625,18785.794921875,20558.833984375,6322.06591796875,28190.61328125,-230.47129821777344,0.0,1034.736572265625,13322.0361328125,6019.2744140625,25010.904296875,15854.8359375,14290.015625,23757.615234375,8638.69921875,13419.787109375,7727.94091796875,3288.5869140625,22287.369140625,8731.6826171875,16200.5419921875,11137.326171875,8118.947265625,11540.25390625,11417.8662109375,1544.1575927734375,9321.3720703125,2687.77197265625,15879.47265625,5849.9970703125,7407.6650390625,1670.51953125,10299.6826171875,3865.559814453125,23313.36328125,3699.461669921875,16713.9375,3203.551025390625,9090.900390625,25739.669921875,20665.326171875,11854.9658203125,-0.0,-45304.296875,18839.041015625,4300.2763671875,0.0,7169.24658203125,0.0,0.0
14077.822265625,13960.998046875,31932.193359375,11302.630859375,27610.4609375,5716.482421875,7468.859375,8556.8427734375,8277.892578125,6163.9150390625,15561.5810546875,-1018.8421020507812,8331.9345703125,0.0,22077.560546875,5695.81982421875,24230.48046875,19309.521484375,8981.2275390625,10989.5068359375,22467.771484375,28831.958984375,20395.9140625,18782.615234375,20554.06640625,6317.29736328125,28187.43359375,-229.6765594482422,0.0,1034.736572265625,13317.267578125,6018.47998046875,25007.724609375,15850.8623046875,14288.42578125,23755.232421875,8638.69921875,13417.4033203125,7726.35107421875,3286.20263671875,22288.1640625,8726.9140625,16198.9541015625,11137.326171875,8118.15283203125,11537.869140625,11413.8916015625,1547.3365478515625,9319.7822265625,2691.745849609375,15877.0888671875,5846.818359375,7414.81787109375,1664.16162109375,10301.2724609375,3864.76513671875,23310.18359375,3702.640625,16713.142578125,3202.756103515625,9087.7216796875,25735.697265625,20664.533203125,11849.4033203125,-0.0,-45311.44921875,18839.041015625,4283.5869140625,0.0,7169.24658203125,0.0,0.0
14083.3857421875,13959.408203125,31935.375,11297.8623046875,27608.87109375,5714.0986328125,7467.27001953125,8553.6640625,8270.740234375,6163.1201171875,15558.40234375,-1018.8421020507812,8328.755859375,0.0,22075.970703125,5691.84619140625,24227.30078125,19308.724609375,8980.43359375,10984.73828125,22470.15625,28828.779296875,20393.529296875,18778.642578125,20547.708984375,6312.529296875,28185.048828125,-236.03439331054688,0.0,1032.3524169921875,13318.0615234375,6018.47998046875,25008.51953125,15850.0673828125,14286.8359375,23752.84765625,8635.5205078125,13414.2236328125,7710.45703125,3280.6396484375,22289.75390625,8723.7353515625,16198.9541015625,11134.1474609375,8115.7685546875,11534.6904296875,11414.6875,1545.7471923828125,9317.3984375,2684.59326171875,15876.29296875,5842.8447265625,7421.97021484375,1654.625,10302.06640625,3862.380859375,23307.80078125,3697.8720703125,16708.375,3200.3720703125,9091.6953125,25734.10546875,20661.353515625,11849.4033203125,-0.0,-45309.859375,18830.298828125,4274.05029296875,0.0,7171.630859375,0.0,0.0
14084.1796875,13957.0234375,31923.455078125,11297.8623046875,27607.283203125,5711.71435546875,7466.47509765625,8552.07421875,8275.5087890625,6164.70947265625,15546.4814453125,-1025.199951171875,8331.9345703125,0.0,22078.35546875,5691.84619140625,24224.916015625,19308.724609375,8978.048828125,10987.91796875,22466.18359375,28828.779296875,20392.736328125,18777.052734375,20546.1171875,6309.3505859375,28186.640625,-241.5974884033203,0.0,1029.1734619140625,13314.8828125,6016.095703125,25006.13671875,15847.6826171875,14286.041015625,23752.0546875,8635.5205078125,13413.4296875,7713.6357421875,3273.487060546875,22282.599609375,8718.9677734375,16200.5419921875,11132.5576171875,8118.947265625,11535.4853515625,11405.150390625,1540.978759765625,9312.6298828125,2675.056396484375,15877.0888671875,5844.43408203125,7424.3544921875,1654.625,10300.4765625,3858.4072265625,23307.005859375,3694.693359375,16709.962890625,3199.577392578125,9088.5166015625,25731.72265625,20661.353515625,11859.734375,-0.0,-45310.65625,18835.068359375,4276.4345703125,0.0,7176.3994140625,0.0,0.0
14083.3857421875,13959.408203125,31925.041015625,11301.041015625,27609.666015625,5717.27734375,7472.0380859375,8558.4326171875,8283.4560546875,6168.68359375,15556.017578125,-1019.6367797851562,8330.3447265625,0.0,22078.35546875,5704.5615234375,24227.30078125,19311.904296875,8983.6123046875,10991.890625,22468.56640625,28832.75390625,20399.09375,18782.615234375,20552.4765625,6313.32421875,28196.970703125,-233.65020751953125,0.0,1025.99462890625,13318.8564453125,6016.89013671875,25007.724609375,15850.0673828125,14290.8095703125,23758.412109375,8641.87890625,13418.197265625,7719.19873046875,3275.871337890625,22281.01171875,8722.146484375,16208.490234375,11140.505859375,8124.5107421875,11540.25390625,11409.9189453125,1537.7998046875,9313.423828125,2685.387939453125,15882.650390625,5852.38134765625,7423.5595703125,1656.21435546875,10305.2451171875,3860.79150390625,23301.443359375,3701.845947265625,16714.73046875,3204.345703125,9091.6953125,25739.669921875,20666.91796875,11859.734375,-0.0,-45306.68359375,18839.041015625,4287.56103515625,0.0,7182.7568359375,0.0,0.0
14088.154296875,13968.9443359375,31935.375,11304.2197265625,27618.408203125,5723.63525390625,7480.7802734375,8565.5849609375,8289.814453125,6175.041015625,15563.1708984375,-1012.4841918945312,8326.37109375,0.0,22080.740234375,5714.8935546875,24234.453125,19317.46875,8993.943359375,10996.6591796875,22475.71875,28839.90625,20409.42578125,18792.15234375,20555.654296875,6317.29736328125,28204.123046875,-226.49765014648438,0.0,1032.3524169921875,13325.21484375,6022.453125,25012.4921875,15856.4248046875,14297.9619140625,23765.564453125,8649.826171875,13426.14453125,7725.556640625,3290.17626953125,22288.1640625,8729.298828125,16215.642578125,11146.068359375,8130.8681640625,11546.611328125,11416.2763671875,1543.3629150390625,9312.6298828125,2689.361572265625,15889.802734375,5861.12353515625,7427.53369140625,1668.13525390625,10306.041015625,3865.559814453125,23299.05859375,3708.20361328125,16717.115234375,3211.498291015625,9098.052734375,25747.6171875,20672.48046875,11865.2978515625,-0.0,-45298.73828125,18837.451171875,4297.89208984375,0.0,7180.37255859375,0.0,0.0
14084.9755859375,13972.9189453125,31934.578125,11305.0146484375,27621.587890625,5726.814453125,7487.9326171875,8567.9697265625,8297.7607421875,6175.041015625,15555.22265625,-1006.1264038085938,8322.3984375,0.0,22087.892578125,5710.125,24236.837890625,19317.46875,8997.9169921875,11000.6328125,22477.30859375,28841.49609375,20414.193359375,18795.33203125,20556.44921875,6322.06591796875,28197.765625,-224.11346435546875,0.0,1037.120849609375,13328.392578125,6020.86376953125,25012.4921875,15858.80859375,14299.5517578125,23767.947265625,8653.0048828125,13430.9130859375,7724.76171875,3287.792236328125,22289.75390625,8733.2724609375,16222.0,11148.453125,8138.81591796875,11548.201171875,11412.302734375,1547.3365478515625,9311.8349609375,2691.745849609375,15897.7509765625,5861.91796875,7423.5595703125,1678.466796875,10297.298828125,3872.71240234375,23299.8515625,3714.5615234375,16727.447265625,3214.677001953125,9096.462890625,25749.20703125,20676.455078125,11866.0927734375,-0.0,-45288.40234375,18840.630859375,4301.0712890625,0.0,7173.22021484375,0.0,0.0
14082.5908203125,13971.3291015625,31932.193359375,11301.041015625,27616.0234375,5723.63525390625,7484.75390625,8565.5849609375,8302.529296875,6171.06787109375,15556.8125,-1009.3053588867188,8329.55078125,0.0,22090.27734375,5703.76708984375,24235.248046875,19316.673828125,8994.73828125,11001.427734375,22474.923828125,28838.31640625,20411.013671875,18792.15234375,20563.6015625,6321.271484375,28190.61328125,-225.7029266357422,0.0,1034.736572265625,13324.419921875,6019.2744140625,25013.2890625,15855.630859375,14296.3720703125,23765.564453125,8650.6201171875,13426.9404296875,7723.96728515625,3286.99755859375,22292.13671875,8732.478515625,16216.4365234375,11146.068359375,8139.6103515625,11545.8173828125,11410.712890625,1544.1575927734375,9330.11328125,2687.77197265625,15893.7783203125,5857.1494140625,7421.97021484375,1672.9036865234375,10301.2724609375,3871.123046875,23310.18359375,3715.356201171875,16729.83203125,3209.114013671875,9099.642578125,25747.6171875,20675.66015625,11863.708984375,-0.0,-45286.81640625,18843.80859375,4301.8662109375,0.0,7163.68359375,0.0,0.0
14081.7958984375,13966.560546875,31928.22265625,11296.2724609375,27611.255859375,5720.45654296875,7476.806640625,8562.4052734375,8307.2978515625,6175.041015625,15555.22265625,-1019.6367797851562,8337.498046875,0.0,22088.685546875,5702.97265625,24230.48046875,19314.2890625,8990.7646484375,11006.9912109375,22470.951171875,28833.546875,20405.451171875,18788.97265625,20559.62890625,6314.9130859375,28191.408203125,-228.8818359375,0.0,1023.6104736328125,13319.6513671875,6016.095703125,25010.109375,15851.65625,14292.3994140625,23760.0,8646.6474609375,13422.9658203125,7722.3779296875,3283.818603515625,22288.1640625,8725.3251953125,16206.8994140625,11145.2744140625,8135.63623046875,11546.611328125,11409.123046875,1539.3892822265625,9330.9091796875,2681.414306640625,15885.830078125,5857.9443359375,7419.5859375,1660.1881103515625,10306.8349609375,3863.970458984375,23322.10546875,3713.766845703125,16730.626953125,3211.498291015625,9096.462890625,25742.849609375,20675.66015625,11876.423828125,-0.0,-45299.53125,18849.373046875,4310.60791015625,0.0,7170.8359375,0.0,0.0
14075.4384765625,13952.2548828125,31923.455078125,11291.50390625,27602.513671875,5712.50927734375,7464.8857421875,8557.6376953125,8296.171875,6168.68359375,15551.2490234375,-1021.2262573242188,8330.3447265625,0.0,22071.203125,5695.81982421875,24224.123046875,19304.751953125,8980.43359375,10997.455078125,22463.798828125,28826.39453125,20395.12109375,18779.435546875,20552.4765625,6308.5556640625,28172.333984375,-234.44493103027344,0.0,1021.2262573242188,13312.4990234375,6008.94287109375,25002.95703125,15842.119140625,14281.2724609375,23753.642578125,8637.1103515625,13416.607421875,7712.04638671875,3275.871337890625,22279.419921875,8714.9931640625,16196.5693359375,11138.1220703125,8126.89501953125,11538.6650390625,11409.9189453125,1537.7998046875,9308.6552734375,2678.2353515625,15869.935546875,5849.20263671875,7414.02294921875,1646.6776123046875,10299.6826171875,3860.79150390625,23313.36328125,3706.6142578125,16714.73046875,3204.345703125,9086.9267578125,25734.90234375,20667.7109375,11869.271484375,-0.0,-45305.890625,18838.248046875,4304.25,0.0,7174.01513671875,0.0,0.0
14080.20703125,13955.43359375,31931.400390625,11281.1728515625,27608.076171875,5715.68798828125,7468.859375,8561.611328125,8295.376953125,6174.24609375,15556.017578125,-1025.199951171875,8329.55078125,0.0,22073.587890625,5699.79345703125,24227.30078125,19305.546875,8985.2021484375,10999.8388671875,22468.56640625,28831.958984375,20402.2734375,18781.02734375,20556.44921875,6310.93994140625,28183.4609375,-233.65020751953125,0.0,1022.0209350585938,13317.267578125,6014.505859375,25006.9296875,15846.09375,14287.630859375,23760.0,8642.673828125,13422.9658203125,7716.814453125,3285.407958984375,22285.779296875,8719.76171875,16204.515625,11140.505859375,8129.279296875,11545.8173828125,11418.66015625,1540.18408203125,9313.423828125,2680.619384765625,15875.498046875,5853.97119140625,7417.9970703125,1653.0355224609375,10302.06640625,3858.4072265625,23302.236328125,3704.22998046875,16715.52734375,3212.29296875,9090.900390625,25740.46484375,20672.48046875,11870.861328125,-0.0,-45311.44921875,18843.80859375,4298.68701171875,0.0,7185.93603515625,0.0,0.0
14077.822265625,13953.0498046875,31929.015625,11283.556640625,27607.283203125,5713.30419921875,7470.44873046875,8558.4326171875,8295.376953125,6171.8623046875,15556.017578125,-1032.3524169921875,8320.013671875,0.0,22074.380859375,5695.81982421875,24224.916015625,19305.546875,8984.40625,10997.455078125,22468.56640625,28828.779296875,20399.888671875,18778.642578125,20550.091796875,6310.14501953125,28192.201171875,-236.03439331054688,0.0,1014.868408203125,13314.8828125,6010.5322265625,25003.751953125,15843.7099609375,14287.630859375,23757.615234375,8641.083984375,13421.3759765625,7714.43017578125,3283.818603515625,22283.396484375,8717.3779296875,16206.8994140625,11137.326171875,8127.689453125,11544.2275390625,11416.2763671875,1537.005126953125,9308.6552734375,2679.82470703125,15882.650390625,5849.9970703125,7413.228515625,1654.625,10303.65625,3856.023193359375,23291.111328125,3697.8720703125,16717.115234375,3209.114013671875,9087.7216796875,25738.875,20671.685546875,11870.861328125,-0.0,-45320.1953125,18842.220703125,4287.56103515625,0.0,7180.37255859375,0.0,0.0
14077.02734375,13960.2021484375,31930.607421875,11300.24609375,27608.076171875,5722.8408203125,7476.806640625,8562.4052734375,8300.9404296875,6171.06787109375,15549.66015625,-1020.4315185546875,8312.861328125,0.0,22078.35546875,5700.58837890625,24228.890625,19311.904296875,8989.1748046875,10999.0439453125,22469.361328125,28835.138671875,20403.06640625,18786.587890625,20547.708984375,6321.271484375,28185.84375,-227.29237365722656,0.0,1026.789306640625,13319.6513671875,6012.12158203125,25006.13671875,15851.65625,14290.8095703125,23766.359375,8645.0576171875,13424.5556640625,7717.609375,3280.6396484375,22283.396484375,8727.7099609375,16210.875,11146.068359375,8133.251953125,11545.0224609375,11410.712890625,1542.5682373046875,9309.451171875,2691.745849609375,15892.1875,5858.7392578125,7410.84423828125,1664.16162109375,10290.1455078125,3867.944091796875,23299.8515625,3705.8193359375,16723.474609375,3209.114013671875,9090.900390625,25742.0546875,20674.86328125,11867.6826171875,-0.0,-45305.09375,18842.220703125,4290.73974609375,0.0,7174.01513671875,0.0,0.0
14074.6435546875,13964.17578125,31930.607421875,11314.5517578125,27610.4609375,5738.7353515625,7472.0380859375,8572.7373046875,8296.171875,6174.24609375,15542.5068359375,-1007.7158203125,8323.1923828125,0.0,22076.765625,5713.30419921875,24233.66015625,19319.853515625,8992.3544921875,10997.455078125,22474.130859375,28843.87890625,20405.451171875,18792.947265625,20546.1171875,6337.9609375,28180.28125,-214.57672119140625,0.0,1033.94189453125,13326.0087890625,6016.095703125,25011.697265625,15858.80859375,14293.193359375,23774.3046875,8644.263671875,13431.7080078125,7716.814453125,3284.61328125,22286.57421875,8742.8095703125,16210.875,11157.1953125,8130.8681640625,11550.5859375,11399.5869140625,1552.10498046875,9315.80859375,2706.845458984375,15877.8818359375,5867.4814453125,7402.10205078125,1676.0826416015625,10278.224609375,3874.302001953125,23314.953125,3719.329833984375,16718.70703125,3215.471923828125,9094.8740234375,25746.02734375,20676.455078125,11860.5302734375,-0.0,-45290.78515625,18843.015625,4305.83935546875,0.0,7174.81005859375,0.0,0.0
14071.46484375,13959.408203125,31929.015625,11311.3720703125,27609.666015625,5737.9404296875,7463.29638671875,8574.326171875,8290.6083984375,6175.041015625,15542.5068359375,-1010.894775390625,8327.9609375,0.0,22072.79296875,5718.86669921875,24233.66015625,19322.236328125,8989.1748046875,10995.865234375,22475.71875,28845.46875,20401.478515625,18791.357421875,20550.88671875,6336.37109375,28181.87109375,-210.6030731201172,0.0,1029.1734619140625,13325.21484375,6015.30078125,25010.109375,15858.0146484375,14293.98828125,23774.3046875,8641.87890625,13432.5029296875,7712.8408203125,3284.61328125,22287.369140625,8740.4248046875,16205.310546875,11156.3994140625,8126.89501953125,11552.1748046875,11397.998046875,1549.720703125,9319.7822265625,2708.43505859375,15865.16796875,5873.8388671875,7398.92333984375,1667.340576171875,10282.9931640625,3877.480712890625,23312.568359375,3727.277099609375,16713.9375,3219.445556640625,9091.6953125,25746.02734375,20675.66015625,11859.734375,-0.0,-45293.171875,18841.42578125,4313.787109375,0.0,7173.22021484375,0.0,0.0
14065.9013671875,13961.7919921875,31927.42578125,11305.80859375,27608.076171875,5726.814453125,7464.8857421875,8571.9423828125,8288.224609375,6175.041015625,15536.1494140625,-1007.7158203125,8324.7822265625,0.0,22071.99609375,5717.27734375,24231.275390625,19316.673828125,8988.380859375,10995.865234375,22470.15625,28838.31640625,20400.681640625,18786.587890625,20550.88671875,6326.833984375,28184.255859375,-212.19253540039062,0.0,1033.147216796875,13321.240234375,6012.12158203125,25007.724609375,15854.8359375,14291.6044921875,23769.537109375,8641.083984375,13429.32421875,7712.04638671875,3283.818603515625,22284.189453125,8728.50390625,16206.1064453125,11153.220703125,8127.689453125,11552.1748046875,11404.35546875,1547.3365478515625,9320.5771484375,2699.69287109375,15869.140625,5871.45458984375,7397.33349609375,1657.0091552734375,10286.171875,3883.0439453125,23305.416015625,3729.6611328125,16713.142578125,3219.445556640625,9090.1064453125,25744.4375,20675.66015625,11854.9658203125,-0.0,-45291.5859375,18842.220703125,4313.787109375,0.0,7170.8359375,0.0,0.0
14063.517578125,13957.818359375,31921.0703125,11301.8349609375,27599.333984375,5724.43017578125,7460.912109375,8568.763671875,8285.0458984375,6174.24609375,15536.1494140625,-1009.3053588867188,8316.833984375,0.0,22068.0234375,5715.68798828125,24227.30078125,19313.494140625,8986.791015625,10995.865234375,22463.798828125,28835.931640625,20394.326171875,18782.615234375,20538.96484375,6322.86083984375,28167.56640625,-215.37144470214844,0.0,1027.5841064453125,13318.0615234375,6005.76416015625,25001.3671875,15849.271484375,14284.451171875,23767.15234375,8637.1103515625,13426.9404296875,7707.27783203125,3279.050048828125,22275.447265625,8727.7099609375,16198.9541015625,11151.6318359375,8123.71533203125,11549.7900390625,11406.7392578125,1548.13134765625,9306.271484375,2694.924560546875,15863.5771484375,5869.0703125,7403.69189453125,1646.6776123046875,10280.609375,3877.480712890625,23300.6484375,3727.277099609375,16711.552734375,3216.2666015625,9084.5419921875,25739.669921875,20673.275390625,11854.171875,-0.0,-45289.9921875,18841.42578125,4312.197265625,0.0,7170.04150390625,0.0,0.0
14065.9013671875,13957.818359375,31921.0703125,11304.2197265625,27597.74609375,5726.814453125,7460.912109375,8571.9423828125,8285.0458984375,6175.041015625,15544.0966796875,-1014.07373046875,8318.423828125,0.0,22065.638671875,5718.86669921875,24226.5078125,19315.876953125,8987.5859375,10999.8388671875,22463.00390625,28839.111328125,20394.326171875,18783.41015625,20538.171875,6323.65576171875,28166.771484375,-214.57672119140625,0.0,1030.7630615234375,13318.0615234375,6008.1484375,24999.77734375,15850.0673828125,14282.8623046875,23771.126953125,8642.673828125,13429.32421875,7708.86767578125,3269.513427734375,22273.064453125,8730.888671875,16198.158203125,11152.4267578125,8122.9208984375,11552.9697265625,11410.712890625,1551.3101806640625,9299.119140625,2698.103759765625,15865.16796875,5870.66015625,7407.6650390625,1649.8565673828125,10288.5556640625,3878.275634765625,23297.46875,3732.04541015625,16713.142578125,3220.240234375,9081.36328125,25740.46484375,20676.455078125,11857.3505859375,-0.0,-45287.609375,18844.60546875,4308.2236328125,0.0,7174.81005859375,0.0,0.0
14058.7490234375,13953.8447265625,31915.50390625,11299.451171875,27600.130859375,5722.8408203125,7460.912109375,8571.1474609375,8286.6357421875,6175.8359375,15540.123046875,-1014.868408203125,8317.6298828125,0.0,22070.408203125,5717.27734375,24223.328125,19313.494140625,8986.791015625,11002.22265625,22460.619140625,28834.34375,20391.94140625,18781.8203125,20535.787109375,6321.271484375,28169.951171875,-217.75563049316406,0.0,1025.199951171875,13315.677734375,6003.3798828125,24996.599609375,15846.8876953125,14282.0673828125,23767.947265625,8649.03125,13426.14453125,7705.6884765625,3267.924072265625,22271.474609375,8726.1201171875,16198.9541015625,11148.453125,8122.12646484375,11553.7646484375,11401.1767578125,1544.952392578125,9306.271484375,2696.51416015625,15866.7568359375,5867.4814453125,7393.3603515625,1651.446044921875,10286.171875,3878.275634765625,23299.05859375,3728.072021484375,16715.52734375,3221.034912109375,9075.005859375,25738.875,20677.248046875,11863.708984375,-0.0,-45295.5546875,18844.60546875,4300.2763671875,0.0,7173.22021484375,0.0,0.0
14045.23828125,13940.333984375,31900.40625,11289.1201171875,27590.59375,5711.71435546875,7455.34912109375,8562.4052734375,8284.2509765625,6172.6572265625,15517.87109375,-1021.2262573242188,8296.966796875,0.0,22068.0234375,5708.53564453125,24210.611328125,19300.779296875,8979.6376953125,11001.427734375,22447.904296875,28822.421875,20383.19921875,18771.490234375,20517.5078125,6310.93994140625,28163.591796875,-227.29237365722656,0.0,1014.868408203125,13303.7568359375,5989.07470703125,24984.677734375,15835.76171875,14271.736328125,23757.615234375,8645.0576171875,13417.4033203125,7691.38330078125,3263.950439453125,22259.5546875,8713.404296875,16193.3896484375,11137.326171875,8117.3583984375,11547.40625,11375.7451171875,1533.031494140625,9291.171875,2688.56689453125,15861.1923828125,5858.7392578125,7376.6708984375,1642.7039794921875,10264.7138671875,3871.123046875,23291.90625,3713.766845703125,16713.9375,3212.29296875,9063.0849609375,25728.544921875,20670.095703125,11866.88671875,-0.0,-45305.09375,18837.451171875,4289.9453125,0.0,7170.04150390625,0.0,0.0
14038.8798828125,13936.3603515625,31898.021484375,11288.3251953125,27592.9765625,5709.330078125,7458.52783203125,8562.4052734375,8282.6611328125,6174.24609375,15504.3603515625,-1025.99462890625,8296.171875,0.0,22070.408203125,5704.5615234375,24207.43359375,19299.189453125,8979.6376953125,11005.4013671875,22448.697265625,28820.833984375,20381.609375,18770.6953125,20529.427734375,6309.3505859375,28169.154296875,-229.6765594482422,0.0,1012.4841918945312,13301.3720703125,5982.716796875,24983.087890625,15832.58203125,14271.736328125,23756.02734375,8646.6474609375,13417.4033203125,7686.615234375,3262.36083984375,22261.9375,8712.609375,16194.185546875,11134.9423828125,8118.15283203125,11545.8173828125,11371.771484375,1532.2366943359375,9288.7880859375,2686.1826171875,15865.9609375,5857.9443359375,7374.28662109375,1640.31982421875,10259.1513671875,3860.79150390625,23294.291015625,3708.20361328125,16718.70703125,3210.70361328125,9060.7001953125,25728.544921875,20671.685546875,11870.861328125,-0.0,-45309.859375,18838.248046875,4289.150390625,0.0,7168.45166015625,0.0,0.0
14042.8544921875,13943.5126953125,31909.943359375,11299.451171875,27601.71875,5718.86669921875,7466.47509765625,8569.55859375,8284.2509765625,6180.6044921875,15513.896484375,-1014.868408203125,8308.0927734375,0.0,22076.765625,5713.30419921875,24216.970703125,19311.109375,8985.99609375,11008.580078125,22459.826171875,28828.779296875,20388.76171875,18779.435546875,20542.939453125,6320.4765625,28178.69140625,-222.5240020751953,0.0,1022.815673828125,13310.115234375,5990.6640625,24992.625,15842.9150390625,14278.888671875,23765.564453125,8653.0048828125,13426.14453125,7695.35693359375,3271.8974609375,22272.267578125,8722.94140625,16200.5419921875,11143.6845703125,8122.9208984375,11553.7646484375,11387.666015625,1544.952392578125,9293.556640625,2694.1298828125,15874.7041015625,5866.6865234375,7384.6181640625,1655.419677734375,10272.662109375,3865.559814453125,23302.236328125,3718.53515625,16726.65234375,3221.034912109375,9071.0322265625,25736.490234375,20679.6328125,11869.271484375,-0.0,-45301.12109375,18849.373046875,4306.63427734375,0.0,7174.81005859375,0.0,0.0
14047.623046875,13944.30859375,31909.943359375,11301.8349609375,27589.001953125,5716.482421875,7458.52783203125,8564.7900390625,8268.3564453125,6173.45166015625,15524.228515625,-1010.894775390625,8308.8876953125,0.0,22068.818359375,5711.71435546875,24217.763671875,19309.521484375,8981.2275390625,10999.8388671875,22455.8515625,28829.57421875,20381.609375,18777.052734375,20535.787109375,6323.65576171875,28165.974609375,-224.11346435546875,0.0,1025.99462890625,13306.935546875,5990.6640625,24993.419921875,15842.119140625,14274.1201171875,23763.974609375,8649.03125,13422.9658203125,7694.5625,3271.10302734375,22268.294921875,8724.5302734375,16190.2099609375,11142.8896484375,8113.38427734375,11548.99609375,11394.818359375,1548.13134765625,9292.76171875,2694.1298828125,15863.5771484375,5864.30224609375,7385.41259765625,1656.21435546875,10271.072265625,3869.533447265625,23299.05859375,3719.329833984375,16716.322265625,3215.471923828125,9071.0322265625,25734.10546875,20675.66015625,11856.5556640625,-0.0,-45299.53125,18843.80859375,4309.0185546875,0.0,7169.24658203125,0.0,0.0
14058.7490234375,13960.2021484375,31922.65625,11316.935546875,27603.30859375,5725.22509765625,7465.6806640625,8572.7373046875,8264.3828125,6179.8095703125,15543.3017578125,-996.5896606445312,8319.21875,0.0,22074.380859375,5722.8408203125,24228.890625,19315.876953125,8989.9697265625,11003.8115234375,22466.978515625,28843.083984375,20387.171875,18785.794921875,20554.861328125,6334.78173828125,28173.923828125,-213.78199768066406,0.0,1037.91552734375,13317.267578125,6000.20068359375,25004.544921875,15850.8623046875,14284.451171875,23773.51171875,8658.568359375,13431.7080078125,7708.07275390625,3275.871337890625,22282.599609375,8733.2724609375,16201.337890625,11150.8369140625,8116.56298828125,11556.943359375,11410.712890625,1552.10498046875,9311.0400390625,2704.46142578125,15869.935546875,5873.04443359375,7393.3603515625,1664.9564208984375,10284.5830078125,3887.812255859375,23304.62109375,3732.04541015625,16718.70703125,3221.034912109375,9081.36328125,25742.849609375,20679.6328125,11857.3505859375,-0.0,-45288.40234375,18844.60546875,4316.9658203125,0.0,7172.42578125,0.0,0.0
14048.4169921875,13959.408203125,31916.30078125,11316.140625,27603.30859375,5723.63525390625,7462.50146484375,8571.9423828125,8250.0771484375,6180.6044921875,15522.6396484375,-995.794921875,8315.24609375,0.0,22070.408203125,5726.814453125,24224.916015625,19311.109375,8989.9697265625,10996.6591796875,22464.59375,28839.90625,20381.609375,18782.615234375,20552.4765625,6332.3974609375,28172.333984375,-211.39781188964844,0.0,1033.147216796875,13314.087890625,5996.22705078125,24999.77734375,15847.6826171875,14282.0673828125,23771.921875,8656.1845703125,13429.32421875,7702.50927734375,3274.28173828125,22277.037109375,8730.888671875,16202.130859375,11147.658203125,8111.79443359375,11557.73828125,11395.61328125,1548.13134765625,9305.4775390625,2703.666748046875,15865.9609375,5873.8388671875,7387.796875,1663.366943359375,10280.609375,3883.0439453125,23299.8515625,3737.608642578125,16710.7578125,3223.419189453125,9073.4169921875,25738.875,20677.248046875,11854.9658203125,-0.0,-45282.83984375,18839.041015625,4315.37646484375,0.0,7183.5517578125,0.0,0.0
14032.5234375,13945.1025390625,31902.791015625,11298.65625,27589.798828125,5710.125,7456.14404296875,8562.4052734375,8245.30859375,6171.8623046875,15504.3603515625,-1009.3053588867188,8305.708984375,0.0,22070.408203125,5720.45654296875,24212.201171875,19299.189453125,8978.84375,10992.6865234375,22450.2890625,28823.216796875,20370.484375,18769.8984375,20536.580078125,6319.681640625,28166.771484375,-224.90818786621094,0.0,1016.4578857421875,13301.3720703125,5982.716796875,24985.47265625,15837.3505859375,14270.146484375,23759.20703125,8647.44140625,13416.607421875,7690.58837890625,3263.950439453125,22262.732421875,8719.76171875,16194.185546875,11134.9423828125,8106.2314453125,11548.99609375,11382.8974609375,1537.7998046875,9289.58203125,2688.56689453125,15862.783203125,5863.5078125,7370.31298828125,1650.6513671875,10268.6884765625,3867.1494140625,23295.083984375,3724.892822265625,16713.142578125,3216.2666015625,9057.521484375,25726.16015625,20666.91796875,11850.1982421875,-0.0,-45293.96875,18836.65625,4293.91845703125,0.0,7177.1943359375,0.0,0.0
14042.0595703125,13942.71875,31914.7109375,11305.80859375,27602.513671875,5718.86669921875,7464.8857421875,8571.9423828125,8253.2568359375,6183.783203125,15516.28125,-1001.3580322265625,8315.24609375,0.0,22076.765625,5729.9931640625,24220.1484375,19309.521484375,8985.99609375,11006.1962890625,22459.826171875,28834.34375,20380.01953125,18780.232421875,20546.9140625,6326.03955078125,28177.896484375,-216.96090698242188,0.0,1023.6104736328125,13310.9091796875,5993.84326171875,24995.8046875,15846.09375,14278.888671875,23766.359375,8653.7998046875,13426.14453125,7708.07275390625,3270.308349609375,22274.65234375,8726.1201171875,16203.7216796875,11142.0947265625,8114.1787109375,11557.73828125,11390.0498046875,1540.978759765625,9300.708984375,2698.103759765625,15873.9091796875,5873.04443359375,7367.13427734375,1653.0355224609375,10275.8408203125,3885.42822265625,23304.62109375,3733.635009765625,16721.8828125,3225.803466796875,9067.05859375,25734.10546875,20676.455078125,11862.119140625,-0.0,-45290.78515625,18846.193359375,4311.40283203125,0.0,7181.16748046875,0.0,0.0
14044.4443359375,13925.234375,31913.12109375,11305.0146484375,27602.513671875,5720.45654296875,7463.29638671875,8572.7373046875,8246.1044921875,6182.98876953125,15521.0498046875,-998.1790771484375,8310.4775390625,0.0,22074.380859375,5718.86669921875,24219.35546875,19306.341796875,8985.2021484375,11002.22265625,22459.826171875,28832.75390625,20378.431640625,18777.052734375,20537.376953125,6325.2451171875,28175.51171875,-217.75563049316406,0.0,1026.789306640625,13309.3193359375,5993.04833984375,24995.0078125,15845.298828125,14279.68359375,23764.76953125,8652.2099609375,13426.14453125,7691.38330078125,3267.924072265625,22275.447265625,8726.1201171875,16205.310546875,11143.6845703125,8109.41015625,11559.3271484375,11383.6923828125,1540.978759765625,9299.9140625,2701.282470703125,15872.3203125,5868.27587890625,7371.90234375,1653.0355224609375,10278.224609375,3887.017578125,23301.443359375,3729.6611328125,16715.52734375,3225.0087890625,9067.05859375,25734.10546875,20676.455078125,11861.32421875,-0.0,-45284.4296875,18843.015625,4312.9921875,0.0,7184.3466796875,0.0,0.0
14048.4169921875,13934.771484375,31917.095703125,11308.9873046875,27604.103515625,5724.43017578125,7464.8857421875,8576.7109375,8237.3623046875,6182.19384765625,15531.380859375,-987.0529174804688,8307.2978515625,0.0,22070.408203125,5725.22509765625,24221.73828125,19311.904296875,8987.5859375,10999.0439453125,22463.00390625,28835.138671875,20380.01953125,18780.232421875,20533.404296875,6333.1923828125,28181.87109375,-211.39781188964844,0.0,1038.710205078125,13312.4990234375,5995.4326171875,24998.1875,15847.6826171875,14281.2724609375,23768.744140625,8655.388671875,13428.5283203125,7688.9990234375,3273.487060546875,22279.419921875,8729.298828125,16207.6953125,11146.86328125,8108.61572265625,11560.9169921875,11394.818359375,1548.926025390625,9295.9404296875,2709.229736328125,15873.11328125,5873.8388671875,7389.38671875,1667.340576171875,10275.8408203125,3890.196533203125,23295.87890625,3737.608642578125,16712.34765625,3227.392822265625,9071.8271484375,25736.490234375,20676.455078125,11851.787109375,-0.0,-45273.3046875,18835.068359375,4318.55517578125,0.0,7183.5517578125,0.0,0.0
14040.4697265625,13938.744140625,31910.736328125,11299.451171875,27600.923828125,5714.0986328125,7464.8857421875,8569.55859375,8236.5673828125,6176.63037109375,15526.6123046875,-996.5896606445312,8309.681640625,0.0,22071.99609375,5717.27734375,24214.5859375,19303.95703125,8983.6123046875,10995.865234375,22456.646484375,28827.986328125,20373.662109375,18773.078125,20526.25,6320.4765625,28193.79296875,-223.31874084472656,0.0,1025.99462890625,13305.3466796875,5987.4853515625,24991.830078125,15838.94140625,14276.5048828125,23762.384765625,8653.0048828125,13421.3759765625,7693.767578125,3265.539794921875,22271.474609375,8719.76171875,16208.490234375,11138.1220703125,8110.20556640625,11552.1748046875,11399.5869140625,1543.3629150390625,9289.58203125,2698.103759765625,15874.7041015625,5865.09716796875,7396.5390625,1660.9827880859375,10277.4306640625,3876.68603515625,23295.083984375,3723.303466796875,16713.142578125,3219.445556640625,9063.8798828125,25729.337890625,20672.48046875,11849.4033203125,-0.0,-45286.81640625,18838.248046875,4305.83935546875,0.0,7174.01513671875,0.0,0.0
14030.93359375,13938.744140625,31904.380859375,11289.9140625,27600.130859375,5706.1513671875,7468.06494140625,8565.5849609375,8245.30859375,6177.42529296875,15517.0751953125,-1004.5369873046875,8300.9404296875,0.0,22075.970703125,5714.0986328125,24209.818359375,19299.189453125,8982.0224609375,11002.22265625,22450.2890625,28820.037109375,20373.662109375,18769.10546875,20518.302734375,6310.93994140625,28188.228515625,-228.0871124267578,0.0,1012.4841918945312,13299.783203125,5983.51123046875,24986.267578125,15834.1728515625,14273.326171875,23756.822265625,8653.0048828125,13419.787109375,7696.94677734375,3258.38720703125,22266.70703125,8711.0205078125,16210.0791015625,11133.353515625,8112.58984375,11552.1748046875,11397.998046875,1533.826171875,9284.01953125,2687.77197265625,15879.47265625,5862.712890625,7397.33349609375,1653.0355224609375,10266.3037109375,3868.73876953125,23299.8515625,3720.91943359375,16719.5,3218.65087890625,9058.31640625,25730.1328125,20673.275390625,11857.3505859375,-0.0,-45292.37890625,18843.80859375,4302.66064453125,0.0,7170.04150390625,0.0,0.0
14026.1650390625,13933.181640625,31894.84375,11284.3515625,27590.59375,5698.2041015625,7463.29638671875,8562.4052734375,8251.6669921875,6174.24609375,15512.3076171875,-1016.4578857421875,8303.32421875,0.0,22078.35546875,5707.74072265625,24202.666015625,19298.39453125,8977.25390625,11007.7861328125,22445.51953125,28813.6796875,20365.71484375,18762.74609375,20519.892578125,6302.9921875,28165.181640625,-235.2396697998047,0.0,1002.9474487304688,13292.6298828125,5976.35888671875,24979.115234375,15829.4052734375,14266.173828125,23748.875,8649.03125,13415.8134765625,7688.2041015625,3244.082275390625,22261.142578125,8702.2783203125,16202.9267578125,11126.9951171875,8111.79443359375,11550.5859375,11389.255859375,1529.8525390625,9284.8134765625,2675.056396484375,15874.7041015625,5857.1494140625,7387.796875,1653.8302001953125,10253.5888671875,3862.380859375,23299.05859375,3717.740234375,16726.65234375,3213.087890625,9046.3955078125,25722.98046875,20671.685546875,11872.451171875,-0.0,-45299.53125,18848.578125,4293.91845703125,0.0,7165.27294921875,0.0,0.0
14023.78125,13916.4921875,31892.458984375,11274.0205078125,27579.466796875,5692.640625,7448.1962890625,8556.048828125,8246.1044921875,6174.24609375,15517.87109375,-1029.1734619140625,8317.6298828125,0.0,22071.203125,5703.76708984375,24194.716796875,19287.267578125,8966.9228515625,11004.607421875,22437.572265625,28804.14453125,20352.205078125,18755.59375,20523.8671875,6293.45556640625,28158.822265625,-241.5974884033203,0.0,991.8212890625,13283.09375,5965.23291015625,24969.578125,15818.27734375,14255.8408203125,23740.92578125,8636.3154296875,13408.6611328125,7674.69384765625,3234.54541015625,22254.78515625,8694.3310546875,16187.0322265625,11119.0478515625,8100.6689453125,11545.8173828125,11377.3349609375,1520.3157958984375,9295.1455078125,2667.109130859375,15859.603515625,5852.38134765625,7375.8759765625,1634.7567138671875,10260.7412109375,3851.254638671875,23302.236328125,3708.99853515625,16720.294921875,3211.498291015625,9032.08984375,25711.85546875,20665.326171875,11871.6552734375,-0.0,-45319.3984375,18843.015625,4294.71337890625,0.0,7174.81005859375,0.0,0.0
14028.548828125,13918.08203125,31899.61328125,11266.072265625,27578.671875,5687.87255859375,7448.1962890625,8550.484375,8237.3623046875,6167.888671875,15525.818359375,-1035.5313720703125,8320.013671875,0.0,22069.61328125,5695.81982421875,24189.154296875,19281.705078125,8964.5390625,10992.6865234375,22436.77734375,28800.169921875,20349.8203125,18750.826171875,20515.123046875,6285.5087890625,28165.974609375,-248.75006103515625,0.0,986.2581787109375,13279.1201171875,5966.02783203125,24970.373046875,15811.919921875,14254.251953125,23736.158203125,8633.931640625,13403.892578125,7661.97802734375,3237.724365234375,22256.375,8689.5625,16185.4423828125,11115.8681640625,8098.28466796875,11539.458984375,11378.12890625,1507.6002197265625,9290.3779296875,2663.93017578125,15860.3994140625,5845.228515625,7365.544921875,1629.98828125,10266.3037109375,3848.075927734375,23301.443359375,3694.693359375,16713.142578125,3206.72998046875,9044.0107421875,25707.880859375,20660.55859375,11851.787109375,-0.0,-45336.8828125,18836.65625,4291.5341796875,0.0,7167.6572265625,0.0,0.0
14022.19140625,13924.439453125,31899.61328125,11266.072265625,27581.056640625,5691.05126953125,7454.55419921875,8548.8955078125,8242.9248046875,6165.50439453125,15520.2548828125,-1033.94189453125,8310.4775390625,0.0,22074.380859375,5694.23046875,24188.359375,19278.525390625,8966.1279296875,10992.6865234375,22435.1875,28800.169921875,20353.794921875,18750.826171875,20521.482421875,6290.27685546875,28171.5390625,-247.16058349609375,0.0,981.4898071289062,13278.3251953125,5966.02783203125,24971.166015625,15811.125,14253.45703125,23736.158203125,8636.3154296875,13403.09765625,7661.97802734375,3238.51904296875,22258.7578125,8691.1513671875,16191.005859375,11116.6640625,8104.64208984375,11538.6650390625,11383.6923828125,1499.65283203125,9293.556640625,2668.698486328125,15867.5517578125,5844.43408203125,7354.41845703125,1631.577880859375,10264.7138671875,3851.254638671875,23300.6484375,3700.25634765625,16719.5,3206.72998046875,9049.5751953125,25708.67578125,20662.943359375,11846.224609375,-0.0,-45333.703125,18837.451171875,4289.9453125,0.0,7160.5048828125,0.0,0.0
14034.1123046875,13937.9501953125,31907.55859375,11278.7880859375,27592.181640625,5706.1513671875,7464.0908203125,8562.4052734375,8254.05078125,6175.041015625,15523.43359375,-1017.2525634765625,8315.24609375,0.0,22083.91796875,5709.330078125,24200.28125,19290.447265625,8975.6650390625,11000.6328125,22445.51953125,28812.08984375,20364.126953125,18761.953125,20534.9921875,6311.73486328125,28183.4609375,-230.47129821777344,0.0,995.000244140625,13291.041015625,5977.94873046875,24980.703125,15823.8408203125,14263.7890625,23748.080078125,8645.8525390625,13414.2236328125,7685.02587890625,3246.46630859375,22265.91015625,8706.251953125,16200.5419921875,11131.763671875,8115.7685546875,11549.7900390625,11394.818359375,1517.136962890625,9306.271484375,2686.1826171875,15877.0888671875,5857.1494140625,7364.75,1639.5250244140625,10275.8408203125,3864.76513671875,23307.005859375,3719.329833984375,16729.037109375,3218.65087890625,9059.90625,25719.80078125,20672.48046875,11848.609375,-0.0,-45311.44921875,18844.60546875,4297.09765625,0.0,7170.04150390625,0.0,0.0
14044.4443359375,13936.3603515625,31908.3515625,11288.3251953125,27595.361328125,5714.0986328125,7469.654296875,8569.55859375,8262.7939453125,6183.783203125,15519.4599609375,-1007.7158203125,8310.4775390625,0.0,22085.5078125,5718.86669921875,24205.84375,19299.189453125,8980.43359375,11010.169921875,22448.697265625,28818.44921875,20372.072265625,18769.8984375,20534.9921875,6317.29736328125,28185.84375,-220.93455505371094,0.0,1000.5632934570312,13296.6044921875,5985.10107421875,24985.47265625,15830.994140625,14268.5576171875,23752.0546875,8652.2099609375,13420.58203125,7692.97265625,3253.618896484375,22270.6796875,8713.404296875,16206.1064453125,11138.1220703125,8123.71533203125,11556.943359375,11388.4609375,1534.620849609375,9305.4775390625,2691.745849609375,15880.2666015625,5865.89208984375,7375.08154296875,1641.1146240234375,10271.072265625,3864.76513671875,23307.005859375,3729.6611328125,16731.419921875,3229.777099609375,9064.6748046875,25725.365234375,20679.6328125,11863.708984375,-0.0,-45301.12109375,18848.578125,4301.8662109375,0.0,7179.578125,0.0,0.0
14050.0068359375,13934.771484375,31905.966796875,11292.2978515625,27592.181640625,5710.125,7465.6806640625,8567.9697265625,8256.435546875,6183.783203125,15518.6650390625,-1004.5369873046875,8311.271484375,0.0,22078.35546875,5718.072265625,24207.43359375,19292.03515625,8979.6376953125,11005.4013671875,22446.314453125,28819.2421875,20370.484375,18768.310546875,20526.25,6312.529296875,28177.103515625,-226.49765014648438,0.0,1002.9474487304688,13295.0146484375,5986.6904296875,24984.677734375,15830.1982421875,14266.173828125,23750.462890625,8649.826171875,13420.58203125,7702.50927734375,3259.9765625,22266.70703125,8713.404296875,16203.7216796875,11138.1220703125,8121.3310546875,11556.943359375,11387.666015625,1541.7734375,9299.9140625,2686.977294921875,15874.7041015625,5865.09716796875,7388.591796875,1646.6776123046875,10266.3037109375,3859.996826171875,23301.443359375,3723.303466796875,16721.08984375,3235.340087890625,9067.8525390625,25723.775390625,20678.837890625,11859.734375,-0.0,-45305.09375,18839.8359375,4305.04443359375,0.0,7187.525390625,0.0,0.0
14056.365234375,13933.181640625,31904.380859375,11290.7099609375,27592.9765625,5707.74072265625,7461.70654296875,8563.9951171875,8254.05078125,6179.8095703125,15522.6396484375,-1003.7421875,8320.80859375,0.0,22074.380859375,5713.30419921875,24205.048828125,19288.859375,8980.43359375,11000.6328125,22446.314453125,28816.064453125,20369.6875,18765.92578125,20527.83984375,6310.14501953125,28174.71875,-229.6765594482422,0.0,1006.921142578125,13294.2197265625,5987.4853515625,24982.294921875,15829.4052734375,14266.173828125,23749.669921875,8649.03125,13418.197265625,7711.251953125,3260.771484375,22266.70703125,8708.63671875,16203.7216796875,11135.7373046875,8119.7421875,11553.7646484375,11392.4345703125,1541.7734375,9301.5029296875,2685.387939453125,15873.9091796875,5862.712890625,7393.3603515625,1653.0355224609375,10275.8408203125,3859.2021484375,23304.62109375,3716.945556640625,16715.52734375,3229.777099609375,9067.8525390625,25722.185546875,20675.66015625,11862.9140625,-0.0,-45303.50390625,18831.888671875,4302.66064453125,0.0,7181.16748046875,0.0,0.0
14050.0068359375,13928.4130859375,31900.40625,11283.556640625,27590.59375,5700.58837890625,7463.29638671875,8556.048828125,8261.998046875,6176.63037109375,15525.0234375,-1012.4841918945312,8317.6298828125,0.0,22075.970703125,5705.3564453125,24201.869140625,19290.447265625,8975.6650390625,11004.607421875,22444.724609375,28810.501953125,20366.509765625,18760.36328125,20528.634765625,6302.19775390625,28174.71875,-236.03439331054688,0.0,1001.3580322265625,13291.041015625,5980.3330078125,24979.115234375,15825.4296875,14263.7890625,23744.90234375,8646.6474609375,13413.4296875,7693.767578125,3254.41357421875,22265.115234375,8702.2783203125,16202.130859375,11127.7890625,8119.7421875,11549.7900390625,11395.61328125,1533.826171875,9298.32421875,2677.440673828125,15875.498046875,5855.560546875,7394.94921875,1644.29345703125,10276.634765625,3852.049560546875,23303.828125,3708.20361328125,16720.294921875,3213.88232421875,9061.49609375,25717.416015625,20674.0703125,11866.88671875,-0.0,-45312.24609375,18835.068359375,4298.68701171875,0.0,7171.630859375,0.0,0.0
14050.0068359375,13939.5400390625,31898.021484375,11285.1455078125,27588.208984375,5702.177734375,7461.70654296875,8556.048828125,8254.845703125,6171.8623046875,15514.69140625,-1010.894775390625,8317.6298828125,0.0,22073.587890625,5704.5615234375,24201.869140625,19291.2421875,8975.6650390625,10994.275390625,22443.13671875,28810.501953125,20366.509765625,18759.568359375,20521.482421875,6304.58203125,28175.51171875,-236.82911682128906,0.0,1004.5369873046875,13291.8359375,5977.94873046875,24978.318359375,15824.63671875,14262.19921875,23744.10546875,8646.6474609375,13411.83984375,7685.8203125,3253.618896484375,22263.52734375,8702.2783203125,16198.9541015625,11128.5849609375,8116.56298828125,11546.611328125,11386.0771484375,1537.005126953125,9293.556640625,2680.619384765625,15873.9091796875,5854.765625,7388.591796875,1649.8565673828125,10277.4306640625,3854.433837890625,23303.828125,3708.99853515625,16716.322265625,3212.29296875,9061.49609375,25715.033203125,20670.095703125,11845.4296875,-0.0,-45309.859375,18836.65625,4296.302734375,0.0,7166.8623046875,0.0,0.0
14045.23828125,13938.744140625,31893.25390625,11282.76171875,27587.4140625,5699.79345703125,7460.912109375,8552.869140625,8255.640625,6167.09375,15507.5390625,-1022.815673828125,8310.4775390625,0.0,22071.203125,5702.177734375,24197.1015625,19287.267578125,8974.8701171875,10991.890625,22439.162109375,28807.322265625,20366.509765625,18756.388671875,20513.53515625,6299.81396484375,28171.5390625,-238.4185791015625,0.0,996.5896606445312,13286.2734375,5975.564453125,24972.7578125,15819.8681640625,14259.0205078125,23740.92578125,8645.0576171875,13409.455078125,7687.40966796875,3250.43994140625,22258.7578125,8699.099609375,16198.9541015625,11123.81640625,8116.56298828125,11540.25390625,11377.3349609375,1532.2366943359375,9289.58203125,2677.440673828125,15871.5244140625,5849.9970703125,7380.64453125,1641.1146240234375,10265.509765625,3849.665283203125,23300.6484375,3705.8193359375,16715.52734375,3209.90869140625,9058.31640625,25714.23828125,20668.505859375,11841.4560546875,-0.0,-45320.98828125,18839.041015625,4296.302734375,0.0,7167.6572265625,0.0,0.0
14046.033203125,13933.181640625,31892.458984375,11287.5302734375,27590.59375,5702.177734375,7463.29638671875,8550.484375,8263.587890625,6167.09375,15504.3603515625,-1022.0209350585938,8317.6298828125,0.0,22071.99609375,5703.76708984375,24196.306640625,19292.03515625,8974.8701171875,10995.0703125,22442.341796875,28809.705078125,20372.072265625,18758.7734375,20524.66015625,6302.9921875,28175.51171875,-237.6238555908203,0.0,996.5896606445312,13288.6572265625,5977.94873046875,24975.140625,15824.63671875,14264.583984375,23742.517578125,8645.8525390625,13409.455078125,7687.40966796875,3255.208251953125,22257.962890625,8702.2783203125,16200.5419921875,11125.4052734375,8118.947265625,11541.048828125,11377.3349609375,1528.2630615234375,9292.76171875,2679.82470703125,15873.11328125,5850.7919921875,7371.90234375,1641.1146240234375,10263.919921875,3852.84423828125,23298.263671875,3711.382568359375,16718.70703125,3208.3193359375,9058.31640625,25716.623046875,20668.505859375,11846.224609375,-0.0,-45320.98828125,18841.42578125,4295.5078125,0.0,7168.45166015625,0.0,0.0
14055.5693359375,13937.1552734375,31895.63671875,11291.50390625,27592.9765625,5706.1513671875,7465.6806640625,8547.3056640625,8269.150390625,6165.50439453125,15517.0751953125,-1021.2262573242188,8331.1396484375,0.0,22074.380859375,5703.76708984375,24200.28125,19296.01171875,8974.8701171875,10996.6591796875,22444.724609375,28813.6796875,20378.431640625,18758.7734375,20532.607421875,6305.37646484375,28182.6640625,-240.80276489257812,0.0,995.000244140625,13292.6298828125,5982.716796875,24978.318359375,15830.1982421875,14267.76171875,23746.490234375,8648.236328125,13410.2509765625,7691.38330078125,3254.41357421875,22257.169921875,8707.8408203125,16204.515625,11127.7890625,8122.12646484375,11539.458984375,11389.255859375,1521.9052734375,9301.5029296875,2679.82470703125,15874.7041015625,5848.40771484375,7381.439453125,1650.6513671875,10276.634765625,3852.049560546875,23300.6484375,3712.17724609375,16720.294921875,3204.345703125,9061.49609375,25719.80078125,20668.505859375,11850.1982421875,-0.0,-45317.80859375,18839.8359375,4281.99755859375,0.0,7166.8623046875,0.0,0.0
14058.7490234375,13944.30859375,31898.814453125,11293.8876953125,27592.9765625,5702.177734375,7463.29638671875,8544.1279296875,8274.71484375,6158.35205078125,15520.2548828125,-1025.99462890625,8323.9873046875,0.0,22075.970703125,5695.02490234375,24201.869140625,19295.21484375,8972.4853515625,10991.890625,22446.314453125,28814.474609375,20378.431640625,18757.185546875,20527.83984375,6299.01904296875,28181.076171875,-249.54476928710938,0.0,987.84765625,13295.0146484375,5985.10107421875,24979.115234375,15828.609375,14268.5576171875,23745.6953125,8645.8525390625,13407.8662109375,7693.767578125,3245.671630859375,22258.7578125,8707.8408203125,16205.310546875,11121.4326171875,8122.9208984375,11532.306640625,11393.2294921875,1517.136962890625,9303.8876953125,2671.082763671875,15876.29296875,5838.076171875,7390.18115234375,1649.8565673828125,10277.4306640625,3841.718017578125,23305.416015625,3699.461669921875,16722.6796875,3195.603515625,9064.6748046875,25719.80078125,20664.533203125,11847.8134765625,-0.0,-45326.55078125,18841.42578125,4269.28173828125,0.0,7154.146484375,0.0,0.0
14065.1064453125,13946.6923828125,31898.814453125,11300.24609375,27589.798828125,5702.177734375,7462.50146484375,8540.1533203125,8277.892578125,6155.9677734375,15522.6396484375,-1022.815673828125,8308.8876953125,0.0,22074.380859375,5686.283203125,24202.666015625,19297.599609375,8972.4853515625,10992.6865234375,22447.904296875,28814.474609375,20380.01953125,18757.185546875,20526.25,6298.22412109375,28173.923828125,-251.928955078125,0.0,985.4635009765625,13296.6044921875,5987.4853515625,24979.91015625,15830.1982421875,14267.76171875,23748.080078125,8646.6474609375,13403.892578125,7696.15185546875,3247.260986328125,22258.7578125,8708.63671875,16203.7216796875,11120.63671875,8125.30517578125,11529.9228515625,11392.4345703125,1521.9052734375,9298.32421875,2667.90380859375,15874.7041015625,5832.51318359375,7393.3603515625,1642.7039794921875,10271.072265625,3841.718017578125,23302.236328125,3693.103759765625,16721.8828125,3192.4248046875,9071.8271484375,25719.0078125,20662.150390625,11847.8134765625,-0.0,-45327.34765625,18840.630859375,4275.64013671875,0.0,7153.35205078125,0.0,0.0
14069.080078125,13933.9765625,31896.431640625,11303.4248046875,27590.59375,5702.177734375,7460.912109375,8536.1796875,8275.5087890625,6154.37841796875,15525.818359375,-1020.4315185546875,8307.2978515625,0.0,22071.203125,5680.7197265625,24202.666015625,19296.01171875,8970.1015625,10988.7119140625,22445.51953125,28813.6796875,20380.01953125,18754.80078125,20528.634765625,6299.01904296875,28171.5390625,-252.72369384765625,0.0,982.2845458984375,13295.0146484375,5989.07470703125,24978.318359375,15830.994140625,14268.5576171875,23748.080078125,8644.263671875,13401.5087890625,7699.33056640625,3251.23486328125,22261.142578125,8707.8408203125,16203.7216796875,11119.8427734375,8120.53662109375,11527.5380859375,11393.2294921875,1531.4420166015625,9298.32421875,2671.877685546875,15871.5244140625,5828.53955078125,7391.77099609375,1633.9620361328125,10267.0986328125,3840.128662109375,23301.443359375,3691.51416015625,16716.322265625,3190.835205078125,9073.4169921875,25718.212890625,20658.173828125,11847.8134765625,-0.0,-45326.55078125,18835.86328125,4281.20263671875,0.0,7162.09423828125,0.0,0.0
14062.72265625,13925.234375,31897.228515625,11293.8876953125,27587.4140625,5703.76708984375,7458.52783203125,8538.5634765625,8270.740234375,6154.37841796875,15520.2548828125,-1019.6367797851562,8311.271484375,0.0,22064.05078125,5683.10400390625,24200.28125,19295.21484375,8967.716796875,10987.1220703125,22444.724609375,28815.26953125,20383.19921875,18756.388671875,20525.455078125,6304.58203125,28169.951171875,-250.33950805664062,0.0,981.4898071289062,13295.0146484375,5985.10107421875,24977.525390625,15830.1982421875,14268.5576171875,23748.875,8641.083984375,13402.302734375,7693.767578125,3243.287353515625,22258.7578125,8710.2255859375,16201.337890625,11120.63671875,8117.3583984375,11527.5380859375,11394.0234375,1537.005126953125,9296.734375,2679.0302734375,15865.16796875,5828.53955078125,7383.0283203125,1633.9620361328125,10268.6884765625,3843.3076171875,23300.6484375,3693.103759765625,16709.962890625,3189.245849609375,9069.4423828125,25717.416015625,20656.5859375,11853.376953125,-0.0,-45327.34765625,18829.50390625,4277.2294921875,0.0,7165.27294921875,0.0,0.0
14057.1591796875,13927.619140625,31898.021484375,11293.09375,27586.619140625,5704.5615234375,7456.9384765625,8537.76953125,8275.5087890625,6153.58349609375,15516.28125,-1021.2262573242188,8320.80859375,0.0,22067.228515625,5682.3095703125,24199.486328125,19293.626953125,8967.716796875,10991.890625,22442.341796875,28817.654296875,20390.3515625,18757.978515625,20523.0703125,6306.96630859375,28170.744140625,-247.955322265625,0.0,983.8739624023438,13294.2197265625,5984.30615234375,24978.318359375,15830.1982421875,14266.9677734375,23748.080078125,8640.2890625,13400.7138671875,7690.58837890625,3244.082275390625,22259.5546875,8711.814453125,16201.337890625,11123.021484375,8117.3583984375,11525.9482421875,11388.4609375,1540.18408203125,9295.1455078125,2683.798583984375,15864.3720703125,5825.36083984375,7380.64453125,1644.29345703125,10269.482421875,3847.28125,23299.05859375,3694.693359375,16713.142578125,3188.451171875,9065.46875,25716.623046875,20656.5859375,11857.3505859375,-0.0,-45329.73046875,18835.068359375,4274.05029296875,0.0,7162.09423828125,0.0,0.0
14044.4443359375,13930.7978515625,31892.458984375,11289.9140625,27581.849609375,5699.79345703125,7451.37548828125,8530.6171875,8266.7666015625,6148.81494140625,15508.333984375,-1025.99462890625,8320.013671875,0.0,22066.435546875,5674.3623046875,24194.716796875,19285.6796875,8962.154296875,10983.9443359375,22435.984375,28811.296875,20385.583984375,18750.826171875,20522.275390625,6297.4296875,28167.56640625,-256.69732666015625,0.0,978.3109130859375,13288.6572265625,5977.15380859375,24971.962890625,15824.63671875,14259.0205078125,23740.92578125,8634.7265625,13393.5615234375,7684.23095703125,3246.46630859375,22256.375,8706.251953125,16194.185546875,11115.8681640625,8108.61572265625,11518.7958984375,11377.3349609375,1529.8525390625,9291.171875,2675.85107421875,15861.1923828125,5817.4130859375,7375.8759765625,1644.29345703125,10265.509765625,3844.10205078125,23294.291015625,3683.567138671875,16708.375,3184.4775390625,9053.5478515625,25710.263671875,20650.228515625,11849.4033203125,-0.0,-45335.29296875,18832.68359375,4274.05029296875,0.0,7162.09423828125,0.0,0.0
14045.23828125,13940.333984375,31895.63671875,11285.94140625,27581.849609375,5698.2041015625,7449.78564453125,8528.232421875,8264.3828125,6148.81494140625,15513.1025390625,-1029.96826171875,8317.6298828125,0.0,22065.638671875,5671.18310546875,24195.513671875,19287.267578125,8960.564453125,10984.73828125,22436.77734375,28808.912109375,20382.404296875,18746.056640625,20522.275390625,6295.04541015625,28166.771484375,-261.4656982421875,0.0,977.5161743164062,13287.0673828125,5976.35888671875,24971.166015625,15823.8408203125,14258.2255859375,23739.337890625,8633.13671875,13390.3818359375,7686.615234375,3246.46630859375,22253.1953125,8702.2783203125,16191.005859375,11113.484375,8105.4375,11517.20703125,11386.87109375,1528.2630615234375,9293.556640625,2666.314453125,15858.0146484375,5817.4130859375,7389.38671875,1637.9356689453125,10271.072265625,3848.075927734375,23295.87890625,3677.209228515625,16705.990234375,3182.09326171875,9055.1376953125,25707.0859375,20649.43359375,11851.787109375,-0.0,-45340.0625,18826.326171875,4262.92431640625,0.0,7162.09423828125,0.0,0.0
14053.185546875,13950.6650390625,31898.021484375,11291.50390625,27585.029296875,5704.5615234375,7454.55419921875,8537.76953125,8272.330078125,6157.55712890625,15513.1025390625,-1022.815673828125,8313.65625,0.0,22070.408203125,5681.5146484375,24201.869140625,19296.8046875,8966.1279296875,10994.275390625,22440.751953125,28813.6796875,20386.376953125,18753.2109375,20523.0703125,6309.3505859375,28169.154296875,-254.31314086914062,0.0,983.0792846679688,13291.8359375,5981.92236328125,24975.140625,15830.994140625,14262.19921875,23746.490234375,8640.2890625,13396.740234375,7692.97265625,3252.823974609375,22257.962890625,8710.2255859375,16196.5693359375,11120.63671875,8112.58984375,11526.744140625,11386.87109375,1536.21044921875,9295.1455078125,2672.67236328125,15862.783203125,5826.9501953125,7394.94921875,1642.7039794921875,10271.8671875,3853.638916015625,23298.263671875,3682.7724609375,16716.322265625,3189.245849609375,9063.0849609375,25713.443359375,20655.791015625,11866.0927734375,-0.0,-45340.0625,18838.248046875,4269.28173828125,0.0,7164.478515625,0.0,0.0
