14632.54296875,14537.970703125,33075.80859375,11755.6259765625,28093.65625,6310.14501953125,8009.2744140625,9121.1005859375,9108.3837890625,6692.40966796875,17980.734375,-1306.5338134765625,8700.6884765625,0.0,22788.046875,7063.5478515625,24737.515625,19687.810546875,9569.3271484375,11701.583984375,23021.697265625,29314.359375,21806.55859375,19443.830078125,21331.310546875,7039.70556640625,28886.794921875,418.82196044921875,0.0,950.4954223632812,13757.546875,6629.6259765625,25645.09765625,16357.8984375,14920.234375,24595.259765625,9107.58984375,13972.9189453125,8471.01171875,3648.598876953125,22846.064453125,9400.8447265625,16864.935546875,11618.1376953125,8702.2783203125,12143.453125,12071.1328125,1595.8150634765625,10157.42578125,3237.724365234375,16659.1015625,6353.85498046875,7300.376953125,1489.3214111328125,11138.916015625,4695.2568359375,23910.203125,4258.95068359375,17708.142578125,3555.61572265625,9151.2998046875,26309.490234375,21329.720703125,11940.001953125,-0.0,-44438.83984375,19586.880859375,5466.14306640625,0.0,7352.0341796875,0.0,0.0
14677.0478515625,14559.427734375,33089.3203125,11772.3154296875,28114.318359375,6330.01318359375,8032.32177734375,9137.7900390625,9120.3046875,6705.919921875,17993.44921875,-1298.5865478515625,8722.146484375,0.0,22807.916015625,7077.05810546875,24752.6171875,19703.70703125,9586.8115234375,11714.298828125,23036.798828125,29331.841796875,21824.8359375,19461.3125,21348.0,7058.779296875,28913.81640625,437.89544677734375,0.0,965.59521484375,13773.44140625,6648.69921875,25662.580078125,16373.79296875,14937.71875,24611.94921875,9126.6630859375,13989.607421875,8490.8798828125,3657.341064453125,22865.13671875,9416.7392578125,16888.77734375,11636.416015625,8721.3515625,12159.34765625,12082.2587890625,1626.8094482421875,10180.4736328125,3258.38720703125,16686.916015625,6371.33935546875,7331.37109375,1502.831787109375,11151.6318359375,4714.330078125,23926.892578125,4270.07666015625,17725.626953125,3569.9208984375,9170.373046875,26326.974609375,21345.615234375,11948.7451171875,-0.0,-44434.0703125,19588.470703125,5476.474609375,0.0,7363.955078125,0.0,0.0
14677.841796875,14553.0703125,33080.578125,11765.95703125,28114.318359375,6326.833984375,8032.32177734375,9129.841796875,9115.537109375,6695.58837890625,17979.14453125,-1296.9970703125,8731.6826171875,0.0,22811.890625,7065.931640625,24747.84765625,19695.759765625,9581.248046875,11704.7626953125,23029.646484375,29324.689453125,21821.65625,19454.16015625,21348.0,7055.6005859375,28912.2265625,431.5376281738281,0.0,964.800537109375,13765.494140625,6642.341796875,25657.01953125,16368.23046875,14932.1552734375,24607.181640625,9121.1005859375,13981.66015625,8489.291015625,3659.72509765625,22859.57421875,9413.5595703125,16889.572265625,11630.8525390625,8717.3779296875,12149.0166015625,12082.2587890625,1622.0411376953125,10189.2158203125,3259.9765625,16686.916015625,6361.802734375,7332.166015625,1488.5267333984375,11140.505859375,4708.76708984375,23945.173828125,4258.95068359375,17726.421875,3556.41064453125,9162.42578125,26319.822265625,21340.05078125,11940.796875,-0.0,-44440.4296875,19600.390625,5450.24853515625,0.0,7338.52392578125,0.0,0.0
14669.8955078125,14541.943359375,33078.98828125,11759.5986328125,28100.80859375,6318.88720703125,8008.47998046875,9114.7421875,9101.2314453125,6679.69384765625,17979.14453125,-1314.4810791015625,8726.9140625,0.0,22793.611328125,7056.39501953125,24738.3125,19682.25,9566.1474609375,11691.2529296875,23020.90234375,29313.564453125,21806.55859375,19442.240234375,21345.615234375,7052.42138671875,28887.58984375,419.61669921875,0.0,951.2901611328125,13756.751953125,6631.21533203125,25648.275390625,16358.6943359375,14918.64453125,24596.056640625,9102.8212890625,13968.9443359375,8463.859375,3663.698974609375,22851.625,9404.818359375,16868.115234375,11616.5478515625,8697.509765625,12134.7109375,12088.6162109375,1617.272705078125,10175.705078125,3254.41357421875,16651.154296875,6350.67626953125,7340.11328125,1478.989990234375,11152.4267578125,4691.28271484375,23945.173828125,4251.79833984375,17707.34765625,3544.489501953125,9146.53125,26304.72265625,21324.953125,11928.0810546875,-0.0,-44452.3515625,19601.98046875,5439.12255859375,0.0,7328.1923828125,0.0,0.0
14645.2587890625,14528.43359375,33064.68359375,11746.8837890625,28084.119140625,6302.19775390625,7992.5849609375,9100.4375,9081.36328125,6662.2099609375,17975.171875,-1324.8125,8722.94140625,0.0,22780.89453125,7043.6796875,24724.802734375,19664.763671875,9550.25390625,11672.9736328125,23005.8046875,29298.462890625,21789.07421875,19426.345703125,21333.6953125,7034.14306640625,28872.490234375,408.4905090332031,0.0,942.548095703125,13740.857421875,6618.5,25634.765625,16344.388671875,14897.982421875,24579.3671875,9086.9267578125,13953.0498046875,8441.607421875,3656.54638671875,22837.3203125,9391.3076171875,16849.8359375,11599.0634765625,8681.615234375,12119.6103515625,12077.4912109375,1595.8150634765625,10154.2470703125,3238.51904296875,16635.259765625,6336.37109375,7321.03955078125,1478.989990234375,11150.8369140625,4675.38818359375,23931.662109375,4242.26123046875,17687.478515625,3529.3896484375,9128.2529296875,26288.033203125,21307.46875,11907.41796875,-0.0,-44459.50390625,19585.291015625,5427.20166015625,0.0,7311.5029296875,0.0,0.0
14632.54296875,14516.5126953125,33048.7890625,11730.1943359375,28075.376953125,6287.09814453125,7985.4326171875,9094.0791015625,9075.005859375,6659.82568359375,17937.025390625,-1330.375732421875,8725.3251953125,0.0,22774.537109375,7038.9111328125,24713.673828125,19652.84375,9541.51171875,11666.615234375,22995.47265625,29287.337890625,21779.537109375,19416.013671875,21317.80078125,7015.86376953125,28870.10546875,400.543212890625,0.0,938.574462890625,13727.34765625,6608.16796875,25621.255859375,16330.083984375,14883.677734375,24567.4453125,9079.7734375,13945.1025390625,8433.6591796875,3639.85693359375,22824.60546875,9375.4130859375,16843.4765625,11587.142578125,8674.4619140625,12114.0478515625,12069.54296875,1571.97314453125,10147.888671875,3229.777099609375,16632.875,6330.80810546875,7312.2978515625,1470.2479248046875,11134.1474609375,4670.6201171875,23920.53515625,4236.6982421875,17678.73828125,3527.00537109375,9123.484375,26276.90625,21299.51953125,11902.6494140625,-0.0,-44465.06640625,19578.93359375,5435.14892578125,0.0,7323.423828125,0.0,0.0
14649.2314453125,14522.0751953125,33052.76171875,11734.962890625,28081.736328125,6294.25048828125,7991.791015625,9096.462890625,9081.36328125,6663.00439453125,17944.177734375,-1323.22314453125,8722.146484375,0.0,22779.306640625,7042.884765625,24723.2109375,19659.201171875,9547.07421875,11671.3837890625,23001.830078125,29293.6953125,21785.89453125,19421.578125,21320.185546875,7024.6064453125,28878.052734375,401.33795166015625,0.0,939.3692016601562,13732.91015625,6616.91064453125,25627.61328125,16338.8251953125,14888.4462890625,24575.392578125,9085.337890625,13949.076171875,8456.70703125,3645.420166015625,22831.7578125,9383.361328125,16849.8359375,11594.2958984375,8679.23046875,12117.2265625,12078.28515625,1579.92041015625,10157.42578125,3233.75048828125,16640.02734375,6335.57666015625,7340.908203125,1475.81103515625,11142.8896484375,4674.59326171875,23918.947265625,4242.26123046875,17685.095703125,3527.00537109375,9136.2001953125,26280.880859375,21305.083984375,11906.6240234375,-0.0,-44458.70703125,19581.318359375,5427.20166015625,0.0,7316.271484375,0.0,0.0
14662.7421875,14544.328125,33067.86328125,11758.009765625,28100.013671875,6314.9130859375,8006.89013671875,9112.3583984375,9090.1064453125,6673.3359375,17999.013671875,-1306.5338134765625,8713.404296875,0.0,22794.404296875,7055.6005859375,24739.900390625,19671.12109375,9562.96875,11683.3046875,23020.109375,29311.1796875,21800.19921875,19438.267578125,21341.642578125,7050.83203125,28897.126953125,416.4377746582031,0.0,960.826904296875,13749.599609375,6634.39404296875,25645.09765625,16357.103515625,14904.33984375,24594.46484375,9103.6162109375,13964.17578125,8467.0380859375,3662.904052734375,22850.83203125,9405.61328125,16865.73046875,11610.984375,8693.5361328125,12129.1474609375,12087.02734375,1609.325439453125,10170.142578125,3249.645263671875,16655.126953125,6349.8818359375,7353.6240234375,1497.2686767578125,11153.220703125,4696.84619140625,23926.892578125,4256.56640625,17697.810546875,3539.72119140625,9153.68359375,26296.7734375,21320.185546875,11916.16015625,-0.0,-44439.6328125,19590.85546875,5435.943359375,0.0,7313.88720703125,0.0,0.0
14648.4375,14544.328125,33065.48046875,11760.39453125,28102.3984375,6319.681640625,8006.89013671875,9112.3583984375,9083.748046875,6673.3359375,17997.423828125,-1308.123291015625,8699.099609375,0.0,22793.611328125,7054.8056640625,24739.107421875,19671.916015625,9560.5849609375,11679.33203125,23020.109375,29315.15234375,21799.40625,19437.470703125,21342.435546875,7054.0107421875,28902.689453125,418.0272521972656,0.0,962.4163208007812,13749.599609375,6631.21533203125,25644.302734375,16358.6943359375,14905.134765625,24596.849609375,9101.2314453125,13964.970703125,8464.654296875,3662.109375,22850.83203125,9410.380859375,16872.087890625,11612.57421875,8689.5625,12129.1474609375,12085.4375,1611.7095947265625,10168.552734375,3251.23486328125,16655.921875,6350.67626953125,7344.0869140625,1495.67919921875,11133.353515625,4696.84619140625,23925.3046875,4252.5927734375,17694.630859375,3541.310546875,9156.0673828125,26297.568359375,21318.59375,11908.2138671875,-0.0,-44440.4296875,19589.265625,5450.24853515625,0.0,7325.80810546875,0.0,0.0
14631.748046875,14546.7119140625,33056.734375,11743.705078125,28087.296875,6301.40283203125,7994.1748046875,9098.84765625,9071.0322265625,6663.00439453125,17989.4765625,-1309.7127685546875,8703.8681640625,0.0,22784.869140625,7042.08984375,24726.390625,19663.17578125,9548.6640625,11671.3837890625,23006.59765625,29300.0546875,21787.484375,19423.9609375,21326.541015625,7029.37451171875,28892.359375,402.1326599121094,0.0,948.9059448242188,13737.6787109375,6619.29443359375,25633.177734375,16342.7978515625,14893.2138671875,24583.33984375,9087.7216796875,13950.6650390625,8462.26953125,3652.57275390625,22835.732421875,9386.5390625,16858.578125,11596.6796875,8678.4365234375,12118.81640625,12076.6953125,1600.5833740234375,10155.8369140625,3235.340087890625,16647.1796875,6335.57666015625,7342.49755859375,1491.70556640625,11140.505859375,4673.798828125,23929.27734375,4239.08251953125,17688.2734375,3530.979248046875,9144.9423828125,26284.853515625,21307.46875,11898.6767578125,-0.0,-44450.76171875,19590.05859375,5433.5595703125,0.0,7320.2451171875,0.0,0.0
14608.701171875,14533.99609375,33046.40625,11738.9365234375,28066.634765625,6283.12451171875,7978.2802734375,9086.1318359375,9056.7275390625,6651.08349609375,17971.9921875,-1331.965087890625,8717.3779296875,0.0,22771.359375,7030.1689453125,24712.0859375,19648.87109375,9532.76953125,11659.462890625,22991.498046875,29284.953125,21770.0,19408.861328125,21310.6484375,7014.2744140625,28873.28515625,387.0328369140625,0.0,921.8851928710938,13724.962890625,6601.810546875,25618.87109375,16328.4931640625,14876.525390625,24566.650390625,9072.62109375,13935.56640625,8444.7861328125,3623.167724609375,22821.42578125,9371.439453125,16838.708984375,11579.990234375,8660.9521484375,12106.1005859375,12071.9267578125,1588.6624755859375,10150.2734375,3213.88232421875,16626.515625,6322.06591796875,7302.76123046875,1476.605712890625,11136.5322265625,4654.7255859375,23935.63671875,4228.75048828125,17677.1484375,3520.647705078125,9125.0732421875,26269.75390625,21293.1640625,11889.9345703125,-0.0,-44461.88671875,19590.85546875,5419.25439453125,0.0,7305.1455078125,0.0,0.0
14594.3955078125,14522.0751953125,33045.609375,11718.2734375,28064.25,6276.76611328125,7973.51171875,9082.158203125,9052.75390625,6649.494140625,17966.4296875,-1347.06494140625,8712.609375,0.0,22771.359375,7029.37451171875,24705.728515625,19644.896484375,9528.7958984375,11657.0791015625,22988.3203125,29280.185546875,21765.232421875,19405.68359375,21301.111328125,7011.095703125,28870.10546875,386.23809814453125,0.0,921.0904541015625,13720.1943359375,6597.8369140625,25614.103515625,16322.931640625,14874.140625,24563.470703125,9068.6484375,13931.591796875,8435.2490234375,3605.68359375,22817.453125,9367.4658203125,16836.32421875,11576.8115234375,8656.978515625,12102.921875,12074.3115234375,1578.3310546875,10145.5048828125,3212.29296875,16623.337890625,6320.4765625,7275.740234375,1462.3006591796875,11131.763671875,4653.9306640625,23926.892578125,4225.572265625,17669.99609375,3519.05810546875,9113.9482421875,26267.37109375,21288.39453125,11889.9345703125,-0.0,-44475.39453125,19586.0859375,5427.20166015625,0.0,7313.0927734375,0.0,0.0
14633.337890625,14538.7646484375,33060.7109375,11728.6044921875,28076.966796875,6288.68701171875,7982.25390625,9092.490234375,9062.2900390625,6655.0576171875,17986.296875,-1320.8388671875,8725.3251953125,0.0,22777.71484375,7036.52734375,24720.826171875,19660.791015625,9541.51171875,11664.2314453125,23004.212890625,29294.490234375,21777.94921875,19419.193359375,21320.185546875,7022.22216796875,28866.92578125,398.1590270996094,0.0,947.3164672851562,13736.0888671875,6616.91064453125,25630.79296875,16337.236328125,14889.240234375,24576.1875,9077.3896484375,13944.30859375,8450.3486328125,3621.578125,22832.552734375,9377.0029296875,16844.2734375,11589.52734375,8665.720703125,12110.07421875,12085.4375,1587.072998046875,10150.2734375,3226.59814453125,16630.4921875,6331.6025390625,7315.47705078125,1476.605712890625,11148.453125,4672.20947265625,23929.27734375,4234.31396484375,17677.1484375,3520.647705078125,9135.4052734375,26279.291015625,21298.7265625,11895.4970703125,-0.0,-44454.734375,19574.9609375,5421.638671875,0.0,7308.32421875,0.0,0.0
14654.0,14542.7392578125,33067.06640625,11740.525390625,28084.119140625,6295.83984375,7984.63818359375,9094.0791015625,9066.263671875,6655.0576171875,17998.21875,-1322.4283447265625,8718.1728515625,0.0,22776.126953125,7037.32177734375,24726.390625,19668.73828125,9545.4853515625,11667.4111328125,23009.77734375,29300.84765625,21785.1015625,19421.578125,21330.515625,7023.8115234375,28862.953125,398.1590270996094,0.0,944.1375732421875,13742.447265625,6620.8837890625,25635.560546875,16344.388671875,14894.802734375,24580.955078125,9082.158203125,13946.6923828125,8456.70703125,3616.809814453125,22838.91015625,9384.1552734375,16846.65625,11594.2958984375,8668.8994140625,12111.6640625,12083.84765625,1588.6624755859375,10151.86328125,3229.777099609375,16632.080078125,6334.78173828125,7341.703125,1471.83740234375,11151.6318359375,4668.23583984375,23928.484375,4234.31396484375,17680.326171875,3521.4423828125,9143.3525390625,26284.05859375,21301.111328125,11896.29296875,-0.0,-44453.14453125,19575.75390625,5420.84375,0.0,7301.96630859375,0.0,0.0
14654.0,14541.1494140625,33060.7109375,11742.115234375,28080.14453125,6291.8662109375,7981.45947265625,9085.337890625,9061.49609375,6646.31494140625,17993.44921875,-1334.3492431640625,8712.609375,0.0,22772.154296875,7019.04296875,24721.623046875,19664.763671875,9540.716796875,11660.2578125,23005.0078125,29296.080078125,21780.33203125,19415.220703125,21331.310546875,7023.0166015625,28866.1328125,390.21173095703125,0.0,940.9586791992188,13736.0888671875,6615.32080078125,25630.79296875,16338.8251953125,14890.830078125,24576.1875,9078.185546875,13939.5400390625,8448.759765625,3626.3466796875,22836.52734375,9380.9765625,16845.068359375,11587.9375,8666.515625,12102.921875,12062.390625,1592.6361083984375,10153.453125,3226.59814453125,16628.900390625,6323.65576171875,7341.703125,1465.4794921875,11148.453125,4663.46728515625,23926.099609375,4220.8037109375,17674.763671875,3514.289794921875,9139.37890625,26279.291015625,21296.34375,11888.3447265625,-0.0,-44461.08984375,19577.345703125,5408.12841796875,0.0,7292.4296875,0.0,0.0
14644.4638671875,14529.228515625,33049.58203125,11738.9365234375,28076.171875,6290.27685546875,7979.86962890625,9084.5419921875,9061.49609375,6645.5205078125,17976.76171875,-1338.322998046875,8711.814453125,0.0,22771.359375,7023.0166015625,24717.650390625,19661.583984375,9539.126953125,11659.462890625,23001.03515625,29290.517578125,21778.7421875,19414.42578125,21327.337890625,7020.63232421875,28865.337890625,391.80120849609375,0.0,940.1639404296875,13733.7041015625,6608.962890625,25623.640625,16336.44140625,14887.650390625,24573.802734375,9077.3896484375,13938.744140625,8443.1962890625,3647.009521484375,22831.7578125,9380.181640625,16842.68359375,11587.9375,8665.720703125,12101.3330078125,12053.6494140625,1595.020263671875,10151.86328125,3228.982177734375,16626.515625,6323.65576171875,7336.1396484375,1461.505859375,11141.2998046875,4663.46728515625,23922.125,4224.77734375,17673.173828125,3515.87939453125,9133.021484375,26278.49609375,21293.958984375,11887.55078125,-0.0,-44467.44921875,19582.90625,5415.28076171875,0.0,7302.76123046875,0.0,0.0
14634.1328125,14513.3330078125,33043.22265625,11727.8095703125,28078.556640625,6287.892578125,7979.0751953125,9085.337890625,9065.46875,6648.69921875,17971.197265625,-1329.5809326171875,8713.404296875,0.0,22773.7421875,7023.8115234375,24715.265625,19658.40625,9539.126953125,11661.8466796875,22999.4453125,29288.1328125,21777.94921875,19412.041015625,21328.92578125,7008.71142578125,28868.517578125,392.5959167480469,0.0,933.0113525390625,13731.3203125,6607.37353515625,25619.666015625,16332.4677734375,14886.8564453125,24570.623046875,9077.3896484375,13937.9501953125,8443.9912109375,3650.1884765625,22831.7578125,9372.234375,16842.68359375,11585.552734375,8665.720703125,12104.51171875,12052.853515625,1587.072998046875,10154.2470703125,3228.1875,16628.107421875,6322.06591796875,7331.37109375,1466.2742919921875,11141.2998046875,4663.46728515625,23922.125,4227.9560546875,17673.173828125,3517.46875,9129.0478515625,26276.111328125,21295.546875,11897.0869140625,-0.0,-44469.0390625,19594.828125,5416.0751953125,0.0,7311.5029296875,0.0,0.0
14629.3642578125,14506.9765625,33032.89453125,11724.630859375,28069.01953125,6283.12451171875,7972.71728515625,9078.9794921875,9059.90625,6642.341796875,17962.455078125,-1335.9388427734375,8700.6884765625,0.0,22767.384765625,7018.248046875,24707.31640625,19649.6640625,9529.5908203125,11653.900390625,22989.908203125,29280.185546875,21769.205078125,19404.888671875,21312.236328125,7006.3271484375,28860.568359375,385.443359375,0.0,924.2693481445312,13722.5791015625,6604.19482421875,25611.71875,16324.5205078125,14876.525390625,24561.8828125,9067.05859375,13930.0029296875,8424.91796875,3635.88330078125,22819.837890625,9365.8759765625,16833.94140625,11577.6064453125,8657.7734375,12097.3583984375,12037.75390625,1577.5362548828125,10140.736328125,3222.62451171875,16623.337890625,6313.32421875,7319.4501953125,1463.89013671875,11126.9951171875,4648.3671875,23915.767578125,4221.59814453125,17667.611328125,3508.726806640625,9114.7421875,26268.958984375,21288.39453125,11889.1396484375,-0.0,-44469.83203125,19590.05859375,5406.53857421875,0.0,7294.8134765625,0.0,0.0
14633.337890625,14507.7705078125,33023.35546875,11719.86328125,28058.6875,6277.56103515625,7962.38623046875,9070.2373046875,9044.806640625,6630.4208984375,17960.8671875,-1351.8333740234375,8688.767578125,0.0,22759.4375,7008.71142578125,24700.9609375,19640.921875,9518.4638671875,11640.3896484375,22981.166015625,29274.62109375,21759.66796875,19395.3515625,21306.673828125,7004.73779296875,28853.416015625,377.49609375,0.0,917.1168212890625,13715.4267578125,6599.42626953125,25606.15625,16318.1630859375,14866.1923828125,24553.93359375,9056.7275390625,13922.0556640625,8419.3544921875,3627.141357421875,22811.09375,9366.671875,16824.404296875,11570.4541015625,8646.6474609375,12087.02734375,12035.3701171875,1565.6153564453125,10131.2001953125,3213.88232421875,16614.595703125,6302.9921875,7312.2978515625,1463.0953369140625,11115.8681640625,4631.67822265625,23909.41015625,4207.29296875,17656.484375,3500.779296875,9102.02734375,26260.216796875,21277.26953125,11870.861328125,-0.0,-44482.546875,19574.9609375,5396.20751953125,0.0,7282.09814453125,0.0,0.0
14628.5693359375,14507.7705078125,33033.6875,11705.5576171875,28063.455078125,6275.1767578125,7963.97509765625,9070.2373046875,9044.0107421875,6629.6259765625,17968.8125,-1350.243896484375,8703.072265625,0.0,22755.46484375,7010.30126953125,24697.78125,19637.7421875,9519.259765625,11640.3896484375,22981.962890625,29271.443359375,21760.462890625,19395.3515625,21325.74609375,7000.76416015625,28857.388671875,375.9066162109375,0.0,904.401123046875,13713.0419921875,6593.86279296875,25606.15625,16314.9833984375,14868.5771484375,24552.345703125,9056.7275390625,13921.2607421875,8417.765625,3619.98876953125,22819.04296875,9365.8759765625,16828.37890625,11570.4541015625,8648.236328125,12086.232421875,12051.2646484375,1539.3892822265625,10146.30078125,3206.72998046875,16613.005859375,6303.787109375,7301.171875,1459.91650390625,11141.2998046875,4639.62548828125,23915.767578125,4206.49853515625,17651.716796875,3503.95849609375,9102.8212890625,26257.833984375,21274.884765625,11870.06640625,-0.0,-44484.13671875,19573.369140625,5399.3857421875,0.0,7286.86669921875,0.0,0.0
14611.0849609375,14506.9765625,33030.51171875,11696.021484375,28057.89453125,6267.2294921875,7958.412109375,9067.05859375,9042.421875,6628.83154296875,17955.302734375,-1350.243896484375,8692.7412109375,0.0,22749.10546875,7007.9169921875,24689.0390625,19628.20703125,9516.080078125,11639.5947265625,22974.810546875,29260.31640625,21754.107421875,19388.994140625,21312.236328125,6975.33251953125,28852.62109375,371.9329833984375,0.0,902.8117065429688,13705.0947265625,6585.12109375,25599.001953125,16305.4462890625,14859.8359375,24545.98828125,9051.1640625,13917.287109375,8402.6650390625,3610.451904296875,22813.478515625,9352.3662109375,16821.2265625,11565.685546875,8645.0576171875,12083.84765625,12040.9326171875,1533.031494140625,10133.583984375,3196.3984375,16606.6484375,6302.19775390625,7290.04541015625,1451.1744384765625,11120.63671875,4642.8046875,23900.66796875,4208.087890625,17644.564453125,3498.395263671875,9106.0,26253.064453125,21270.91015625,11870.861328125,-0.0,-44481.75390625,19573.369140625,5400.9755859375,0.0,7296.4033203125,0.0,0.0
14629.3642578125,14536.380859375,33048.7890625,11723.0419921875,28074.583984375,6283.12451171875,7976.69140625,9085.337890625,9061.49609375,6642.341796875,17975.171875,-1327.19677734375,8700.6884765625,0.0,22765.001953125,7023.0166015625,24710.49609375,19646.486328125,9532.76953125,11654.6943359375,22991.498046875,29278.59765625,21773.1796875,19407.271484375,21320.185546875,6992.02197265625,28874.078125,388.6222839355469,0.0,930.627197265625,13721.783203125,6608.16796875,25618.87109375,16326.904296875,14875.7294921875,24562.677734375,9068.6484375,13933.181640625,8438.427734375,3629.525390625,22829.375,9367.4658203125,16839.50390625,11583.9638671875,8662.541015625,12101.3330078125,12060.8017578125,1570.3836669921875,10138.3525390625,3211.498291015625,16624.927734375,6319.681640625,7318.6552734375,1463.89013671875,11135.7373046875,4664.26220703125,23904.642578125,4227.9560546875,17662.84375,3512.700439453125,9135.4052734375,26269.75390625,21286.806640625,11885.9609375,-0.0,-44457.9140625,19578.138671875,5411.306640625,0.0,7299.58203125,0.0,0.0
14630.158203125,14539.5595703125,33055.94140625,11730.1943359375,28080.939453125,6287.892578125,7984.63818359375,9090.900390625,9070.2373046875,6647.10986328125,17975.171875,-1323.22314453125,8697.509765625,0.0,22770.5625,7024.6064453125,24715.265625,19649.6640625,9538.3330078125,11660.2578125,22996.267578125,29285.75,21777.94921875,19412.041015625,21320.185546875,7014.2744140625,28885.20703125,391.0064697265625,0.0,932.2166748046875,13727.34765625,6611.34716796875,25623.640625,16334.056640625,14882.087890625,24566.650390625,9074.2109375,13937.1552734375,8446.3759765625,3631.114990234375,22834.142578125,9377.0029296875,16851.42578125,11587.9375,8668.8994140625,12106.1005859375,12062.390625,1579.92041015625,10140.736328125,3210.70361328125,16636.052734375,6325.2451171875,7308.32421875,1458.326904296875,11136.5322265625,4653.9306640625,23912.587890625,4228.75048828125,17669.99609375,3519.05810546875,9140.173828125,26274.5234375,21293.1640625,11894.703125,-0.0,-44453.9375,19589.265625,5425.61181640625,0.0,7307.529296875,0.0,0.0
14642.875,14541.1494140625,33059.12109375,11742.115234375,28082.529296875,6301.40283203125,7990.99658203125,9098.052734375,9077.3896484375,6657.44140625,17978.349609375,-1322.4283447265625,8703.8681640625,0.0,22773.7421875,7034.14306640625,24721.623046875,19656.0234375,9543.8955078125,11670.58984375,22999.4453125,29293.6953125,21781.921875,19418.3984375,21313.826171875,7030.9638671875,28880.4375,400.543212890625,0.0,933.8060913085938,13733.7041015625,6616.91064453125,25627.61328125,16342.0048828125,14886.0615234375,24574.59765625,9080.5693359375,13945.8974609375,8446.3759765625,3642.2412109375,22833.34765625,9390.513671875,16854.60546875,11596.6796875,8673.66796875,12114.8427734375,12072.72265625,1590.251953125,10143.12109375,3225.0087890625,16640.02734375,6333.1923828125,7305.1455078125,1477.400390625,11137.326171875,4661.0830078125,23917.357421875,4236.6982421875,17673.96875,3529.3896484375,9143.3525390625,26280.880859375,21301.111328125,11910.59765625,-0.0,-44445.9921875,19592.443359375,5431.97021484375,0.0,7323.423828125,0.0,0.0
14650.02734375,14532.4072265625,33063.09375,11746.0888671875,28083.32421875,6306.17138671875,7987.81689453125,9101.2314453125,9079.7734375,6663.79931640625,17985.501953125,-1322.4283447265625,8724.5302734375,0.0,22780.89453125,7039.70556640625,24725.595703125,19661.583984375,9547.07421875,11675.357421875,23004.212890625,29300.0546875,21782.716796875,19423.166015625,21324.953125,7035.732421875,28876.462890625,406.1063232421875,0.0,938.574462890625,13736.8837890625,6620.8837890625,25632.380859375,16345.1826171875,14887.650390625,24578.572265625,9081.36328125,13950.6650390625,8443.9912109375,3645.420166015625,22838.115234375,9394.486328125,16850.62890625,11600.6533203125,8674.4619140625,12118.021484375,12087.02734375,1589.4571533203125,10170.9365234375,3230.57177734375,16635.259765625,6333.98681640625,7317.06640625,1485.3477783203125,11144.478515625,4670.6201171875,23934.044921875,4236.6982421875,17677.1484375,3533.36328125,9138.583984375,26283.263671875,21302.69921875,11917.75,-0.0,-44447.58203125,19586.880859375,5431.97021484375,0.0,7332.96044921875,0.0,0.0
14648.4375,14520.486328125,33058.328125,11739.73046875,28076.966796875,6297.4296875,7980.6640625,9092.490234375,9069.4423828125,6648.69921875,17979.939453125,-1312.096923828125,8714.19921875,0.0,22776.921875,7029.37451171875,24722.41796875,19655.228515625,9539.921875,11662.642578125,22997.060546875,29295.287109375,21774.76953125,19416.013671875,21321.7734375,7019.04296875,28870.10546875,397.3642883300781,0.0,946.521728515625,13731.3203125,6618.5,25628.408203125,16340.4140625,14881.29296875,24573.802734375,9074.2109375,13942.71875,8444.7861328125,3645.420166015625,22829.375,9384.94921875,16839.50390625,11592.7060546875,8666.515625,12106.8955078125,12081.4638671875,1579.92041015625,10160.60546875,3225.0087890625,16625.72265625,6323.65576171875,7328.9873046875,1482.1688232421875,11139.7099609375,4677.7724609375,23927.689453125,4227.9560546875,17669.99609375,3517.46875,9128.2529296875,26277.701171875,21296.34375,11902.6494140625,-0.0,-44447.58203125,19581.318359375,5412.896484375,0.0,7305.1455078125,0.0,0.0
14650.8212890625,14537.1748046875,33063.09375,11753.2412109375,28080.939453125,6305.37646484375,7987.81689453125,9098.052734375,9076.595703125,6649.494140625,17989.4765625,-1318.4547119140625,8723.7353515625,0.0,22780.89453125,7031.7587890625,24729.5703125,19663.17578125,9545.4853515625,11668.205078125,23002.625,29304.02734375,21781.921875,19423.166015625,21335.283203125,7023.8115234375,28880.4375,402.1326599121094,0.0,956.8532104492188,13737.6787109375,6625.65234375,25634.765625,16349.1572265625,14890.03515625,24582.544921875,9082.953125,13948.28125,8470.2177734375,3639.062255859375,22832.552734375,9397.666015625,16849.041015625,11598.26953125,8674.4619140625,12112.4580078125,12073.5166015625,1579.125732421875,10161.3994140625,3233.75048828125,16636.052734375,6328.423828125,7340.908203125,1495.67919921875,11156.3994140625,4674.59326171875,23926.892578125,4232.724609375,17677.1484375,3519.852783203125,9133.8154296875,26285.6484375,21302.69921875,11909.0078125,-0.0,-44442.8125,19590.05859375,5416.8701171875,0.0,7294.8134765625,0.0,0.0
14626.185546875,14519.69140625,33055.94140625,11746.8837890625,28075.376953125,6305.37646484375,7981.45947265625,9093.2841796875,9074.2109375,6648.69921875,17976.76171875,-1330.375732421875,8703.072265625,0.0,22774.537109375,7026.1953125,24718.443359375,19659.99609375,9541.51171875,11665.8212890625,22995.47265625,29302.439453125,21776.357421875,19419.98828125,21323.36328125,7018.248046875,28870.900390625,396.569580078125,0.0,911.5537109375,13732.91015625,6614.5263671875,25626.818359375,16340.4140625,14884.4716796875,24579.3671875,9078.185546875,13943.5126953125,8446.3759765625,3605.68359375,22826.990234375,9400.0498046875,16842.68359375,11594.2958984375,8670.4892578125,12106.8955078125,12058.4169921875,1544.952392578125,10146.30078125,3227.392822265625,16629.6953125,6322.86083984375,7321.03955078125,1463.0953369140625,11131.763671875,4642.8046875,23912.587890625,4230.34033203125,17674.763671875,3519.852783203125,9128.2529296875,26280.083984375,21299.51953125,11910.59765625,-0.0,-44449.96484375,19593.23828125,5421.638671875,0.0,7305.93994140625,0.0,0.0
14616.6484375,14518.1015625,33051.96875,11738.9365234375,28073.787109375,6306.96630859375,7984.63818359375,9094.8740234375,9075.005859375,6653.4677734375,17968.8125,-1327.19677734375,8694.3310546875,0.0,22770.5625,7026.990234375,24717.650390625,19662.380859375,9543.1015625,11668.205078125,22994.67578125,29301.642578125,21777.15234375,19420.78125,21315.416015625,7019.837890625,28870.10546875,396.569580078125,0.0,908.374755859375,13732.1162109375,6612.14208984375,25625.228515625,16339.6201171875,14883.677734375,24578.572265625,9078.9794921875,13944.30859375,8420.9443359375,3613.631103515625,22824.60546875,9396.076171875,16843.4765625,11596.6796875,8672.078125,12106.8955078125,12060.8017578125,1540.978759765625,10145.5048828125,3226.59814453125,16632.875,6322.86083984375,7302.76123046875,1456.737548828125,11130.96875,4632.47314453125,23896.693359375,4231.134765625,17676.353515625,3523.82666015625,9122.689453125,26281.67578125,21297.931640625,11913.7763671875,-0.0,-44453.14453125,19594.828125,5424.0224609375,0.0,7319.4501953125,0.0,0.0
14609.49609375,14526.84375,33048.7890625,11731.7841796875,28076.966796875,6296.634765625,7989.40673828125,9090.900390625,9074.2109375,6650.2890625,17975.171875,-1335.14404296875,8692.7412109375,0.0,22774.537109375,7021.42724609375,24718.443359375,19661.583984375,9543.1015625,11666.615234375,22996.267578125,29294.490234375,21778.7421875,19416.80859375,21319.388671875,7012.68505859375,28872.490234375,387.8275451660156,0.0,926.653564453125,13732.1162109375,6612.14208984375,25625.228515625,16337.236328125,14884.4716796875,24572.21484375,9079.7734375,13941.923828125,8446.3759765625,3628.730712890625,22826.990234375,9378.5927734375,16846.65625,11588.732421875,8674.4619140625,12102.126953125,12067.9541015625,1564.8206787109375,10151.068359375,3221.034912109375,16642.412109375,6317.29736328125,7305.1455078125,1465.4794921875,11137.326171875,4634.857421875,23903.05078125,4223.18798828125,17677.94140625,3518.263671875,9117.9208984375,26280.880859375,21297.13671875,11912.982421875,-0.0,-44457.9140625,19591.650390625,5415.28076171875,0.0,7313.88720703125,0.0,0.0
14606.31640625,14533.2021484375,33041.63671875,11722.2470703125,28070.607421875,6287.09814453125,7985.4326171875,9083.748046875,9073.4169921875,6642.341796875,17968.01953125,-1332.7598876953125,8693.5361328125,0.0,22772.947265625,7014.2744140625,24712.0859375,19656.0234375,9536.7431640625,11662.642578125,22992.29296875,29287.337890625,21774.76953125,19410.451171875,21311.44140625,7005.53271484375,28862.953125,383.0591735839844,0.0,922.679931640625,13726.5517578125,6604.19482421875,25620.4609375,16330.876953125,14880.498046875,24565.85546875,9075.80078125,13935.56640625,8447.96484375,3620.783447265625,22823.810546875,9369.0556640625,16842.68359375,11582.375,8670.4892578125,12096.564453125,12060.005859375,1577.5362548828125,10140.736328125,3211.498291015625,16635.259765625,6310.93994140625,7321.83447265625,1462.3006591796875,11130.96875,4623.73095703125,23920.53515625,4220.0087890625,17673.173828125,3510.316162109375,9121.1005859375,26276.111328125,21293.958984375,11909.802734375,-0.0,-44462.6796875,19588.470703125,5407.33349609375,0.0,7299.58203125,0.0,0.0
14635.7216796875,14542.7392578125,33052.76171875,11733.373046875,28074.583984375,6292.6611328125,7981.45947265625,9091.6953125,9081.36328125,6653.4677734375,17968.01953125,-1327.991455078125,8701.4833984375,0.0,22776.126953125,7025.40087890625,24721.623046875,19664.763671875,9542.3056640625,11673.767578125,22999.4453125,29296.080078125,21778.7421875,19417.603515625,21316.208984375,7016.65869140625,28857.388671875,392.5959167480469,0.0,927.4482421875,13736.0888671875,6616.11572265625,25630.79296875,16339.6201171875,14885.2666015625,24576.1875,9079.7734375,13943.5126953125,8465.44921875,3629.525390625,22829.375,9381.771484375,16840.298828125,11590.3212890625,8672.078125,12105.3056640625,12071.1328125,1595.020263671875,10143.916015625,3220.240234375,16624.1328125,6321.271484375,7343.2919921875,1471.83740234375,11126.9951171875,4630.0888671875,23932.45703125,4230.34033203125,17678.73828125,3519.852783203125,9136.994140625,26282.46875,21300.31640625,11927.287109375,-0.0,-44454.734375,19594.828125,5421.638671875,0.0,7311.5029296875,0.0,0.0
14612.6748046875,14527.638671875,33043.22265625,11719.0673828125,28073.787109375,6282.32958984375,7978.2802734375,9084.5419921875,9074.2109375,6643.93115234375,17954.5078125,-1341.5018310546875,8694.3310546875,0.0,22773.7421875,7015.0693359375,24713.673828125,19658.40625,9537.537109375,11666.615234375,22994.67578125,29289.72265625,21772.384765625,19410.451171875,21318.59375,7007.1220703125,28858.185546875,381.4697265625,0.0,920.2957153320312,13730.5263671875,6608.962890625,25622.048828125,16331.6728515625,14881.29296875,24568.23828125,9075.80078125,13935.56640625,8447.169921875,3622.372802734375,22828.578125,9370.64453125,16838.708984375,11583.9638671875,8665.720703125,12100.537109375,12052.0595703125,1574.357421875,10144.7109375,3209.90869140625,16623.337890625,6313.32421875,7325.013671875,1465.4794921875,11126.2001953125,4632.47314453125,23922.919921875,4216.82958984375,17676.353515625,3511.111083984375,9131.431640625,26277.701171875,21294.751953125,11914.5712890625,-0.0,-44473.80859375,19592.443359375,5408.12841796875,0.0,7296.4033203125,0.0,0.0
14610.291015625,14528.43359375,33039.25390625,11711.12109375,28070.607421875,6282.32958984375,7979.0751953125,9085.337890625,9070.2373046875,6643.93115234375,17948.9453125,-1343.885986328125,8687.1787109375,0.0,22771.359375,7013.4794921875,24710.49609375,19656.0234375,9538.3330078125,11662.642578125,22992.29296875,29286.54296875,21768.412109375,19408.068359375,21317.005859375,6999.1748046875,28858.98046875,380.67498779296875,0.0,922.679931640625,13726.5517578125,6604.19482421875,25618.87109375,16328.4931640625,14879.703125,24565.0625,9076.595703125,13936.3603515625,8431.275390625,3611.246826171875,22824.60546875,9363.4921875,16837.119140625,11583.1689453125,8662.541015625,12098.9482421875,12015.501953125,1570.3836669921875,10131.9951171875,3210.70361328125,16626.515625,6315.7080078125,7304.3505859375,1468.658447265625,11134.1474609375,4630.8837890625,23917.357421875,4215.240234375,17673.96875,3509.521484375,9126.6630859375,26276.90625,21295.546875,11908.2138671875,-0.0,-44469.83203125,19589.265625,5399.3857421875,0.0,7296.4033203125,0.0,0.0
14632.54296875,14532.4072265625,33044.0234375,11721.4521484375,28080.14453125,6291.0712890625,7985.4326171875,9095.6689453125,9076.595703125,6651.87841796875,17952.123046875,-1332.7598876953125,8685.5888671875,0.0,22776.921875,7023.8115234375,24718.443359375,19664.763671875,9547.07421875,11672.9736328125,23000.240234375,29292.90234375,21774.76953125,19418.3984375,21328.92578125,7006.3271484375,28866.92578125,391.0064697265625,0.0,928.2429809570312,13733.7041015625,6612.14208984375,25626.818359375,16334.8525390625,14889.240234375,24573.802734375,9083.748046875,13945.8974609375,8437.6337890625,3604.09423828125,22832.552734375,9370.64453125,16843.4765625,11593.5009765625,8670.4892578125,12109.279296875,12017.8857421875,1580.7152099609375,10129.611328125,3214.677001953125,16632.875,6326.03955078125,7290.04541015625,1474.2215576171875,11123.021484375,4641.21484375,23920.53515625,4226.36669921875,17679.533203125,3517.46875,9129.841796875,26283.263671875,21304.2890625,11916.16015625,-0.0,-44457.1171875,19599.595703125,5404.94921875,0.0,7304.3505859375,0.0,0.0
14637.310546875,14522.8701171875,33042.4296875,11719.86328125,28072.19921875,6288.68701171875,7980.6640625,9092.490234375,9067.8525390625,6645.5205078125,17933.05078125,-1338.322998046875,8687.97265625,0.0,22768.974609375,7026.1953125,24715.265625,19659.201171875,9542.3056640625,11668.205078125,22995.47265625,29289.72265625,21769.205078125,19414.42578125,21321.7734375,6999.9697265625,28861.365234375,388.6222839355469,0.0,915.52734375,13727.34765625,6608.16796875,25624.43359375,16332.4677734375,14882.087890625,24569.03515625,9076.595703125,13942.71875,8422.5341796875,3609.6572265625,22827.783203125,9369.0556640625,16836.32421875,11589.52734375,8667.3095703125,12106.1005859375,12044.90625,1579.92041015625,10128.021484375,3205.140380859375,16628.107421875,6322.86083984375,7268.58740234375,1463.0953369140625,11124.611328125,4644.39404296875,23912.587890625,4224.77734375,17672.380859375,3519.05810546875,9122.689453125,26279.291015625,21300.31640625,11906.6240234375,-0.0,-44469.0390625,19595.623046875,5402.56494140625,0.0,7294.8134765625,0.0,0.0
14630.158203125,14502.2080078125,33026.53515625,11706.3525390625,28046.765625,6273.587890625,7963.97509765625,9076.595703125,9053.5478515625,6636.7783203125,17898.08203125,-1362.95947265625,8674.4619140625,0.0,22762.6171875,7008.71142578125,24698.576171875,19637.7421875,9528.0009765625,11658.6689453125,22977.193359375,29273.828125,21750.927734375,19399.32421875,21288.39453125,6981.69091796875,28839.90625,374.3171691894531,0.0,905.9906005859375,13709.068359375,6589.8896484375,25605.359375,16319.751953125,14861.4248046875,24553.140625,9061.49609375,13926.029296875,8386.771484375,3598.531005859375,22803.1484375,9357.9296875,16817.251953125,11573.6318359375,8652.2099609375,12089.412109375,12029.806640625,1562.4364013671875,10118.484375,3191.630126953125,16614.595703125,6304.58203125,7260.640625,1441.6376953125,11103.1533203125,4629.2939453125,23905.435546875,4208.8828125,17665.228515625,3501.57421875,9107.58984375,26263.39453125,21287.599609375,11896.29296875,-0.0,-44488.11328125,19584.498046875,5394.61767578125,0.0,7290.84033203125,0.0,0.0
14617.443359375,14490.287109375,33014.61328125,11691.2529296875,28035.640625,6262.46142578125,7953.6435546875,9063.8798828125,9042.421875,6624.857421875,17930.666015625,-1362.95947265625,8667.3095703125,0.0,22755.46484375,6995.99609375,24686.654296875,19622.64453125,9515.28515625,11646.748046875,22962.09375,29259.5234375,21739.005859375,19386.609375,21278.0625,6971.359375,28832.75390625,361.60150146484375,0.0,890.0960083007812,13696.3525390625,6581.94189453125,25592.646484375,16303.857421875,14848.708984375,24540.423828125,9051.958984375,13913.3134765625,8401.076171875,3599.325927734375,22791.2265625,9345.2138671875,16808.509765625,11561.7109375,8642.673828125,12076.6953125,12023.44921875,1530.647216796875,10108.1533203125,3182.09326171875,16605.853515625,6291.8662109375,7276.53515625,1431.3062744140625,11084.080078125,4616.57861328125,23901.462890625,4196.1669921875,17658.076171875,3487.26904296875,9098.84765625,26251.474609375,21274.884765625,11881.1923828125,-0.0,-44494.46875,19571.78125,5375.5439453125,0.0,7279.7138671875,0.0,0.0
14619.033203125,14503.001953125,33016.203125,11692.841796875,28041.205078125,6268.0244140625,7962.38623046875,9073.4169921875,9054.3427734375,6633.599609375,17954.5078125,-1347.8597412109375,8676.0517578125,0.0,22759.4375,7005.53271484375,24693.806640625,19628.20703125,9523.232421875,11655.490234375,22968.451171875,29266.67578125,21744.5703125,19392.966796875,21283.626953125,6974.5380859375,28840.69921875,368.7540588378906,0.0,885.32763671875,13702.7099609375,6593.86279296875,25599.798828125,16310.21484375,14855.0673828125,24545.98828125,9058.31640625,13922.8505859375,8436.8388671875,3612.04150390625,22796.7890625,9355.544921875,16814.8671875,11568.8642578125,8650.6201171875,12086.232421875,12037.75390625,1537.7998046875,10110.537109375,3194.80908203125,16612.2109375,6300.6083984375,7303.55615234375,1447.9954833984375,11099.974609375,4622.93603515625,23904.642578125,4205.70361328125,17661.25390625,3499.98486328125,9110.7685546875,26258.626953125,21283.626953125,11892.318359375,-0.0,-44476.19140625,19587.67578125,5382.69677734375,0.0,7286.07177734375,0.0,0.0
14618.2373046875,14517.3076171875,33033.6875,11706.3525390625,28053.91796875,6280.740234375,7972.71728515625,9086.9267578125,9063.8798828125,6646.31494140625,17986.296875,-1343.09130859375,8683.9990234375,0.0,22765.794921875,7019.837890625,24705.728515625,19640.921875,9534.359375,11666.615234375,22981.166015625,29277.80078125,21756.490234375,19404.09375,21293.958984375,6985.66455078125,28850.236328125,382.26446533203125,0.0,899.6327514648438,13715.4267578125,6604.98974609375,25612.51171875,16322.931640625,14866.98828125,24557.908203125,9067.05859375,13933.181640625,8447.96484375,3613.631103515625,22810.30078125,9366.671875,16826.787109375,11581.580078125,8659.36328125,12098.1533203125,12056.033203125,1560.05224609375,10121.6630859375,3207.524658203125,16620.158203125,6313.32421875,7315.47705078125,1464.684814453125,11118.2529296875,4626.90966796875,23909.41015625,4216.03515625,17668.40625,3515.87939453125,9128.2529296875,26269.75390625,21292.3671875,11906.6240234375,-0.0,-44467.44921875,19599.595703125,5401.77001953125,0.0,7306.734375,0.0,0.0
14607.1123046875,14510.94921875,33029.71484375,11699.994140625,28050.740234375,6275.1767578125,7964.7705078125,9078.185546875,9052.75390625,6633.599609375,17974.376953125,-1347.06494140625,8679.23046875,0.0,22757.849609375,7011.890625,24700.1640625,19634.564453125,9528.0009765625,11655.490234375,22977.193359375,29272.23828125,21748.54296875,19399.32421875,21292.3671875,6980.89599609375,28843.87890625,375.9066162109375,0.0,899.6327514648438,13710.658203125,6595.45263671875,25608.5390625,16315.7783203125,14861.4248046875,24553.93359375,9061.49609375,13925.234375,8433.6591796875,3603.29931640625,22806.326171875,9359.5185546875,16819.634765625,11573.6318359375,8650.6201171875,12087.02734375,12045.701171875,1556.07861328125,10116.89453125,3198.78271484375,16612.2109375,6306.96630859375,7308.32421875,1461.505859375,11104.7431640625,4619.75732421875,23900.66796875,4208.087890625,17660.458984375,3505.5478515625,9121.1005859375,26263.39453125,21282.037109375,11896.29296875,-0.0,-44476.984375,19589.265625,5390.64404296875,0.0,7286.07177734375,0.0,0.0
14609.49609375,14502.2080078125,33018.58984375,11695.2255859375,28047.5625,6265.64013671875,7959.20654296875,9067.8525390625,9044.806640625,6622.47314453125,17952.123046875,-1357.396484375,8668.8994140625,0.0,22753.873046875,6995.201171875,24692.216796875,19629.001953125,9520.0537109375,11645.953125,22971.630859375,29265.0859375,21743.7734375,19391.37890625,21284.421875,6970.564453125,28840.69921875,362.396240234375,0.0,890.8907470703125,13702.7099609375,6586.71044921875,25601.38671875,16307.8310546875,14856.65625,24545.98828125,9055.1376953125,13916.4921875,8420.1494140625,3595.35205078125,22800.763671875,9349.1865234375,16815.662109375,11564.095703125,8644.263671875,12077.4912109375,12031.3955078125,1549.720703125,10112.1259765625,3183.6826171875,16607.443359375,6296.634765625,7305.1455078125,1450.3797607421875,11095.2060546875,4607.83642578125,23895.8984375,4196.9619140625,17655.69140625,3492.832275390625,9113.15234375,26254.654296875,21274.08984375,11886.755859375,-0.0,-44486.5234375,19588.470703125,5379.51806640625,0.0,7271.7666015625,0.0,0.0
14630.9541015625,14515.7177734375,33028.125,11711.12109375,28063.455078125,6281.53466796875,7973.51171875,9077.3896484375,9053.5478515625,6632.009765625,17944.970703125,-1350.243896484375,8672.873046875,0.0,22766.58984375,7006.3271484375,24705.728515625,19644.1015625,9531.1806640625,11652.310546875,22985.935546875,29280.98046875,21758.080078125,19403.298828125,21303.49609375,6991.2275390625,28854.2109375,371.13824462890625,0.0,904.401123046875,13717.015625,6600.22119140625,25613.30859375,16322.931640625,14871.7568359375,24559.498046875,9066.263671875,13929.2080078125,8427.302734375,3601.7099609375,22819.837890625,9365.8759765625,16829.966796875,11577.6064453125,8656.978515625,12089.412109375,12029.01171875,1560.846923828125,10131.9951171875,3197.193115234375,16620.158203125,6305.37646484375,7305.93994140625,1455.9427490234375,11115.8681640625,4623.73095703125,23904.642578125,4208.087890625,17669.201171875,3502.368896484375,9126.6630859375,26266.57421875,21285.21484375,11893.11328125,-0.0,-44474.6015625,19594.828125,5391.43896484375,0.0,7286.86669921875,0.0,0.0
14640.490234375,14519.69140625,33038.45703125,11711.12109375,28067.4296875,6285.5087890625,7977.48583984375,9081.36328125,9055.931640625,6637.5732421875,17952.919921875,-1347.8597412109375,8664.92578125,0.0,22765.001953125,7014.2744140625,24711.291015625,19647.279296875,9535.1533203125,11657.8740234375,22991.498046875,29285.75,21762.052734375,19408.861328125,21307.46875,6995.201171875,28858.98046875,378.2908020019531,0.0,909.9642333984375,13723.373046875,6610.55224609375,25618.076171875,16327.69921875,14876.525390625,24564.265625,9071.8271484375,13933.181640625,8436.0439453125,3602.504638671875,22821.42578125,9367.4658203125,16833.146484375,11583.1689453125,8658.568359375,12093.384765625,12021.859375,1560.05224609375,10136.763671875,3203.551025390625,16620.955078125,6310.93994140625,7293.22412109375,1455.1480712890625,11116.6640625,4626.115234375,23903.84765625,4214.44580078125,17666.81640625,3508.726806640625,9128.2529296875,26270.548828125,21289.984375,11897.0869140625,-0.0,-44473.80859375,19589.265625,5408.9228515625,0.0,7301.96630859375,0.0,0.0
14640.490234375,14528.43359375,33046.40625,11712.7099609375,28079.3515625,6296.634765625,7988.6123046875,9090.1064453125,9067.8525390625,6642.341796875,17964.83984375,-1331.17041015625,8687.1787109375,0.0,22772.947265625,7018.248046875,24724.005859375,19662.380859375,9547.8701171875,11666.615234375,23001.03515625,29296.080078125,21776.357421875,19419.98828125,21320.185546875,7007.1220703125,28877.2578125,389.4170227050781,0.0,928.2429809570312,13736.0888671875,6623.26806640625,25629.998046875,16339.6201171875,14889.240234375,24574.59765625,9082.158203125,13942.71875,8443.1962890625,3626.3466796875,22831.7578125,9380.181640625,16846.65625,11591.9111328125,8670.4892578125,12101.3330078125,12025.0390625,1564.8206787109375,10149.478515625,3217.061279296875,16632.875,6317.29736328125,7283.6875,1467.8636474609375,11113.484375,4638.83056640625,23916.5625,4222.39306640625,17672.380859375,3511.90576171875,9124.279296875,26285.6484375,21300.31640625,11910.59765625,-0.0,-44459.50390625,19593.23828125,5398.59130859375,0.0,7297.19775390625,0.0,0.0
14632.54296875,14524.4599609375,33047.19921875,11712.7099609375,28079.3515625,6302.9921875,7992.5849609375,9094.8740234375,9072.62109375,6645.5205078125,17967.224609375,-1331.17041015625,8691.1513671875,0.0,22773.7421875,7023.0166015625,24727.185546875,19670.328125,9554.2265625,11666.615234375,23004.212890625,29300.84765625,21777.94921875,19427.140625,21315.416015625,7011.890625,28877.2578125,395.77484130859375,0.0,927.4482421875,13741.65234375,6624.857421875,25635.560546875,16342.7978515625,14892.4189453125,24580.16015625,9086.1318359375,13949.87109375,8445.580078125,3623.96240234375,22831.7578125,9386.5390625,16849.041015625,11598.26953125,8672.873046875,12102.921875,12043.31640625,1556.07861328125,10144.7109375,3224.2138671875,16636.052734375,6322.86083984375,7294.8134765625,1471.0426025390625,11114.279296875,4642.8046875,23913.3828125,4227.9560546875,17675.55859375,3517.46875,9117.9208984375,26289.62109375,21302.69921875,11915.3662109375,-0.0,-44458.70703125,19601.1875,5404.94921875,0.0,7301.96630859375,0.0,0.0
14643.6689453125,14518.8974609375,33057.53125,11725.42578125,28080.14453125,6313.32421875,7990.99658203125,9101.2314453125,9073.4169921875,6649.494140625,17965.634765625,-1325.6072998046875,8693.5361328125,0.0,22773.7421875,7027.78466796875,24730.36328125,19675.095703125,9556.611328125,11669.0,23009.77734375,29309.591796875,21781.126953125,19434.29296875,21328.92578125,7024.6064453125,28867.720703125,406.9010314941406,0.0,924.2693481445312,13744.8310546875,6624.857421875,25640.330078125,16349.951171875,14895.5986328125,24587.3125,9086.1318359375,13955.43359375,8444.7861328125,3620.783447265625,22837.3203125,9396.87109375,16848.24609375,11607.0107421875,8674.4619140625,12108.4853515625,12070.337890625,1556.873291015625,10137.5576171875,3227.392822265625,16635.259765625,6330.01318359375,7309.11865234375,1475.0162353515625,11129.37890625,4650.75146484375,23906.23046875,4234.31396484375,17675.55859375,3523.031982421875,9127.4580078125,26293.595703125,21305.083984375,11919.3388671875,-0.0,-44457.9140625,19598.802734375,5408.12841796875,0.0,7301.171875,0.0,0.0
14653.2060546875,14527.638671875,33069.44921875,11742.115234375,28090.4765625,6326.833984375,8002.1220703125,9112.3583984375,9084.5419921875,6659.82568359375,17975.96484375,-1320.044189453125,8677.6416015625,0.0,22781.69140625,7038.1162109375,24739.900390625,19687.810546875,9566.943359375,11679.33203125,23018.517578125,29319.921875,21793.046875,19443.03515625,21329.720703125,7028.57958984375,28882.822265625,413.2588806152344,0.0,928.2429809570312,13755.162109375,6629.6259765625,25649.0703125,16361.078125,14907.51953125,24598.439453125,9096.462890625,13965.765625,8451.14453125,3623.96240234375,22846.857421875,9406.4072265625,16858.578125,11616.5478515625,8686.3828125,12118.81640625,12086.232421875,1568.794189453125,10140.736328125,3233.75048828125,16646.384765625,6341.93408203125,7318.6552734375,1476.605712890625,11141.2998046875,4659.494140625,23907.025390625,4241.46630859375,17685.095703125,3531.77392578125,9144.146484375,26303.92578125,21313.826171875,11928.8759765625,-0.0,-44447.58203125,19594.828125,5417.6650390625,0.0,7315.47705078125,0.0,0.0
14645.2587890625,14528.43359375,33062.296875,11738.140625,28088.888671875,6320.4765625,8006.095703125,9108.3837890625,9085.337890625,6656.646484375,17967.224609375,-1325.6072998046875,8664.130859375,0.0,22782.484375,7038.1162109375,24736.72265625,19686.22265625,9567.7373046875,11678.5361328125,23016.9296875,29315.94921875,21793.046875,19440.650390625,21307.46875,7014.2744140625,28886.794921875,406.9010314941406,0.0,923.474609375,13753.5732421875,6624.857421875,25644.302734375,16358.6943359375,14906.7236328125,24593.671875,9097.2587890625,13964.970703125,8429.6865234375,3627.141357421875,22842.884765625,9400.0498046875,16861.7578125,11615.7529296875,8687.97265625,12117.2265625,12065.5703125,1575.94677734375,10128.021484375,3222.62451171875,16652.7421875,6338.75537109375,7316.271484375,1473.4267578125,11121.4326171875,4660.28857421875,23914.1796875,4241.46630859375,17685.890625,3531.77392578125,9145.736328125,26304.72265625,21314.62109375,11927.287109375,-0.0,-44449.96484375,19595.623046875,5412.896484375,0.0,7317.06640625,0.0,0.0
14633.337890625,14527.638671875,33052.76171875,11728.6044921875,28084.119140625,6316.5029296875,8002.91748046875,9106.0,9084.5419921875,6655.0576171875,17969.607421875,-1327.19677734375,8685.5888671875,0.0,22784.07421875,7032.55322265625,24733.54296875,19680.658203125,9564.55859375,11678.5361328125,23011.365234375,29310.384765625,21789.869140625,19435.8828125,21305.083984375,7011.890625,28873.28515625,403.7221374511719,0.0,917.9114990234375,13749.599609375,6623.26806640625,25641.123046875,16352.3349609375,14903.544921875,24589.697265625,9097.2587890625,13964.17578125,8440.8125,3631.114990234375,22837.3203125,9393.6923828125,16856.193359375,11612.57421875,8686.3828125,12114.8427734375,12055.2373046875,1571.178466796875,10135.173828125,3223.419189453125,16650.357421875,6333.1923828125,7323.423828125,1475.81103515625,11114.279296875,4657.904296875,23922.125,4243.0556640625,17686.685546875,3527.80029296875,9138.583984375,26301.54296875,21316.208984375,11927.287109375,-0.0,-44451.5546875,19598.802734375,5402.56494140625,0.0,7306.734375,0.0,0.0
14626.9794921875,14510.94921875,33041.63671875,11718.2734375,28067.4296875,6302.9921875,7985.4326171875,9094.8740234375,9077.3896484375,6645.5205078125,17967.224609375,-1342.296630859375,8688.767578125,0.0,22776.921875,7021.42724609375,24723.2109375,19667.943359375,9552.6376953125,11669.0,22998.65234375,29298.462890625,21774.76953125,19423.166015625,21301.904296875,7007.1220703125,28855.005859375,391.80120849609375,0.0,909.9642333984375,13736.0888671875,6611.34716796875,25629.201171875,16339.6201171875,14889.240234375,24576.1875,9083.748046875,13949.87109375,8449.5546875,3617.6044921875,22823.810546875,9381.771484375,16835.53125,11598.26953125,8672.873046875,12104.51171875,12047.291015625,1560.846923828125,10137.5576171875,3214.677001953125,16628.107421875,6318.88720703125,7306.734375,1467.0689697265625,11109.51171875,4630.8837890625,23918.15234375,4227.9560546875,17679.533203125,3516.674072265625,9129.0478515625,26288.828125,21306.673828125,11922.5185546875,-0.0,-44461.08984375,19597.2109375,5396.20751953125,0.0,7294.01904296875,0.0,0.0
14631.748046875,14500.6181640625,33038.45703125,11713.5048828125,28069.01953125,6294.25048828125,7984.63818359375,9090.1064453125,9071.0322265625,6638.3681640625,17966.4296875,-1342.296630859375,8683.9990234375,0.0,22775.33203125,7014.2744140625,24720.033203125,19663.96875,9549.458984375,11664.2314453125,22995.47265625,29292.107421875,21773.1796875,19417.603515625,21304.2890625,7006.3271484375,28858.185546875,386.23809814453125,0.0,907.580078125,13730.5263671875,6608.16796875,25626.818359375,16336.44140625,14888.4462890625,24571.41796875,9081.36328125,13943.5126953125,8448.759765625,3608.862548828125,22821.42578125,9377.0029296875,16835.53125,11589.52734375,8668.8994140625,12099.7431640625,12048.0849609375,1558.4627685546875,10135.173828125,3213.087890625,16627.3125,6312.529296875,7302.76123046875,1452.763916015625,11112.6904296875,4619.75732421875,23914.1796875,4218.41943359375,17676.353515625,3513.4951171875,9129.841796875,26284.05859375,21302.69921875,11910.59765625,-0.0,-44461.08984375,19595.623046875,5390.64404296875,0.0,7286.07177734375,0.0,0.0
14630.9541015625,14498.2333984375,33034.484375,11712.7099609375,28067.4296875,6295.83984375,7987.81689453125,9093.2841796875,9069.4423828125,6639.95751953125,17960.072265625,-1337.5281982421875,8668.8994140625,0.0,22776.126953125,7014.2744140625,24718.443359375,19662.380859375,9551.0478515625,11664.2314453125,22992.29296875,29292.107421875,21771.58984375,19419.193359375,21298.7265625,6996.79052734375,28858.98046875,391.0064697265625,0.0,902.8117065429688,13728.1416015625,6604.19482421875,25623.640625,16333.26171875,14886.8564453125,24572.21484375,9082.953125,13945.1025390625,8440.8125,3599.325927734375,22819.837890625,9375.4130859375,16835.53125,11591.9111328125,8670.4892578125,12101.3330078125,12040.138671875,1552.899658203125,10125.63671875,3217.061279296875,16630.4921875,6315.7080078125,7311.5029296875,1444.0218505859375,11110.3056640625,4630.0888671875,23910.203125,4226.36669921875,17676.353515625,3514.289794921875,9124.279296875,26283.263671875,21302.69921875,11906.6240234375,-0.0,-44462.6796875,19595.623046875,5387.46484375,0.0,7290.04541015625,0.0,0.0
14637.310546875,14512.5390625,33040.83984375,11720.6572265625,28073.787109375,6303.787109375,7996.55908203125,9106.0,9082.953125,6651.87841796875,17956.09765625,-1327.991455078125,8666.515625,0.0,22784.07421875,7030.1689453125,24726.390625,19670.328125,9559.791015625,11678.5361328125,22998.65234375,29299.259765625,21781.126953125,19430.318359375,21301.904296875,6992.81689453125,28862.158203125,398.9537658691406,0.0,910.7589721679688,13736.0888671875,6612.9365234375,25629.998046875,16342.0048828125,14893.2138671875,24580.955078125,9094.0791015625,13957.0234375,8450.3486328125,3601.7099609375,22825.3984375,9382.5654296875,16843.4765625,11603.0380859375,8683.205078125,12115.6376953125,12041.7275390625,1561.6417236328125,10126.431640625,3225.803466796875,16639.232421875,6328.423828125,7331.37109375,1453.55859375,11106.33203125,4645.18896484375,23914.97265625,4239.08251953125,17685.890625,3527.80029296875,9128.2529296875,26293.595703125,21315.416015625,11923.3134765625,-0.0,-44451.5546875,19603.5703125,5404.154296875,0.0,7307.529296875,0.0,0.0
14640.490234375,14526.0498046875,33047.19921875,11727.8095703125,28083.32421875,6313.32421875,8006.095703125,9113.15234375,9097.2587890625,6663.00439453125,17954.5078125,-1326.402099609375,8679.23046875,0.0,22792.021484375,7038.1162109375,24731.955078125,19675.890625,9567.7373046875,11688.0732421875,23005.8046875,29307.20703125,21792.25390625,19439.85546875,21310.6484375,7016.65869140625,28873.28515625,402.1326599121094,0.0,918.7062377929688,13744.8310546875,6620.0888671875,25637.150390625,16350.74609375,14902.7509765625,24587.3125,9102.8212890625,13965.765625,8453.5283203125,3610.451904296875,22834.142578125,9392.8974609375,16853.013671875,11611.779296875,8692.7412109375,12124.37890625,12045.701171875,1574.357421875,10139.9423828125,3226.59814453125,16650.357421875,6337.9609375,7327.39794921875,1467.0689697265625,11113.484375,4648.3671875,23924.509765625,4245.43994140625,17697.015625,3538.1318359375,9134.6103515625,26302.337890625,21322.568359375,11943.1806640625,-0.0,-44447.58203125,19605.955078125,5415.28076171875,0.0,7318.6552734375,0.0,0.0
14630.9541015625,14529.228515625,33053.55859375,11735.7568359375,28091.271484375,6318.88720703125,8011.65869140625,9115.537109375,9102.8212890625,6663.79931640625,17960.072265625,-1337.5281982421875,8684.7939453125,0.0,22794.404296875,7040.50048828125,24736.72265625,19679.865234375,9574.095703125,11691.2529296875,23013.75,29311.1796875,21797.021484375,19444.623046875,21320.978515625,7025.40087890625,28881.23046875,405.31158447265625,0.0,925.8588256835938,13749.599609375,6625.65234375,25641.123046875,16355.5146484375,14909.1083984375,24591.287109375,9106.794921875,13969.7392578125,8430.48046875,3616.809814453125,22843.6796875,9399.2548828125,16860.9609375,11615.7529296875,8696.7158203125,12125.96875,12051.2646484375,1583.099365234375,10148.6845703125,3222.62451171875,16654.333984375,6340.3447265625,7317.86083984375,1475.81103515625,11122.2265625,4654.7255859375,23926.892578125,4247.02978515625,17699.400390625,3538.92626953125,9138.583984375,26305.517578125,21324.953125,11947.94921875,-0.0,-44443.60546875,19607.54296875,5416.8701171875,0.0,7316.271484375,0.0,0.0
14611.0849609375,14506.9765625,33041.63671875,11714.298828125,28082.529296875,6302.19775390625,8002.1220703125,9102.8212890625,9092.490234375,6651.87841796875,17949.740234375,-1331.17041015625,8679.23046875,0.0,22785.6640625,7028.57958984375,24724.005859375,19668.73828125,9561.3798828125,11682.5107421875,23003.419921875,29296.875,21787.484375,19432.703125,21314.62109375,7004.73779296875,28874.078125,393.3906555175781,0.0,913.9378662109375,13736.8837890625,6612.14208984375,25631.5859375,16340.4140625,14898.77734375,24577.775390625,9096.462890625,13957.818359375,8422.5341796875,3599.325927734375,22834.142578125,9380.9765625,16853.013671875,11605.421875,8686.3828125,12113.25390625,12036.9599609375,1544.1575927734375,10143.12109375,3210.70361328125,16645.58984375,6328.423828125,7292.4296875,1452.763916015625,11110.3056640625,4640.42041015625,23921.33203125,4236.6982421875,17689.0703125,3524.621337890625,9122.689453125,26295.185546875,21313.826171875,11937.6181640625,-0.0,-44444.40234375,19598.0078125,5403.35986328125,0.0,7302.76123046875,0.0,0.0
14611.8798828125,14495.849609375,33036.8671875,11701.583984375,28083.32421875,6295.04541015625,7995.7646484375,9094.8740234375,9079.7734375,6643.13671875,17955.302734375,-1327.991455078125,8679.23046875,0.0,22780.099609375,7019.837890625,24719.23828125,19662.380859375,9554.2265625,11669.794921875,22999.4453125,29292.90234375,21780.33203125,19422.373046875,21313.826171875,6992.81689453125,28872.490234375,385.443359375,0.0,902.8117065429688,13730.5263671875,6606.57861328125,25628.408203125,16333.26171875,14894.802734375,24569.830078125,9090.1064453125,13946.6923828125,8424.123046875,3594.5576171875,22832.552734375,9370.64453125,16846.65625,11595.08984375,8676.8466796875,12102.126953125,12035.3701171875,1539.3892822265625,10145.5048828125,3201.96142578125,16640.822265625,6315.7080078125,7283.6875,1448.7901611328125,11115.07421875,4622.93603515625,23916.5625,4228.75048828125,17680.326171875,3519.05810546875,9117.9208984375,26288.828125,21303.49609375,11925.697265625,-0.0,-44450.76171875,19578.138671875,5395.41259765625,0.0,7300.376953125,0.0,0.0
14630.158203125,14513.3330078125,33055.94140625,11721.4521484375,28103.193359375,6318.88720703125,8013.24853515625,9112.3583984375,9091.6953125,6656.646484375,17959.275390625,-1330.375732421875,8682.41015625,0.0,22797.583984375,7031.7587890625,24737.515625,19684.6328125,9570.916015625,11681.7158203125,23019.314453125,29315.15234375,21798.611328125,19441.447265625,21331.310546875,7021.42724609375,28892.359375,402.9273986816406,0.0,912.3484497070312,13751.9833984375,6623.26806640625,25645.890625,16353.1298828125,14913.876953125,24592.876953125,9105.205078125,13964.970703125,8442.40234375,3610.451904296875,22852.419921875,9397.666015625,16867.318359375,11614.1630859375,8692.7412109375,12117.2265625,12048.880859375,1568.794189453125,10160.60546875,3226.59814453125,16657.51171875,6328.423828125,7300.376953125,1466.2742919921875,11124.611328125,4632.47314453125,23928.484375,4242.26123046875,17697.015625,3534.157958984375,9136.994140625,26307.10546875,21317.80078125,11932.849609375,-0.0,-44443.60546875,19587.67578125,5411.306640625,0.0,7321.83447265625,0.0,0.0
14612.6748046875,14516.5126953125,33063.88671875,11734.16796875,28115.11328125,6326.03955078125,8023.57958984375,9119.5107421875,9097.2587890625,6663.00439453125,17952.919921875,-1333.5545654296875,8687.1787109375,0.0,22803.1484375,7036.52734375,24745.46484375,19692.580078125,9578.068359375,11687.2783203125,23028.849609375,29322.306640625,21806.55859375,19449.392578125,21340.05078125,7025.40087890625,28909.048828125,410.0799560546875,0.0,923.474609375,13760.7255859375,6626.447265625,25653.83984375,16359.4873046875,14923.4130859375,24600.82421875,9113.15234375,13972.123046875,8445.580078125,3613.631103515625,22862.751953125,9401.638671875,16880.03515625,11621.31640625,8699.099609375,12124.37890625,12046.49609375,1572.767822265625,10166.16796875,3236.134765625,16665.458984375,6336.37109375,7301.171875,1463.89013671875,11109.51171875,4643.59912109375,23937.224609375,4251.00341796875,17700.1953125,3541.310546875,9138.583984375,26315.84765625,21324.953125,11935.234375,-0.0,-44441.22265625,19608.33984375,5406.53857421875,0.0,7314.68212890625,0.0,0.0
14592.01171875,14504.591796875,33056.734375,11731.7841796875,28100.013671875,6316.5029296875,8014.04296875,9109.1796875,9092.490234375,6659.82568359375,17954.5078125,-1335.14404296875,8672.873046875,0.0,22794.404296875,7025.40087890625,24740.6953125,19684.6328125,9569.3271484375,11685.689453125,23018.517578125,29313.564453125,21796.2265625,19440.650390625,21324.158203125,7012.68505859375,28897.126953125,400.543212890625,0.0,917.9114990234375,13752.7783203125,6618.5,25646.6875,16352.3349609375,14912.2880859375,24592.876953125,9103.6162109375,13962.5859375,8437.6337890625,3608.06787109375,22845.267578125,9393.6923828125,16867.318359375,11614.1630859375,8691.947265625,12116.4326171875,12048.0849609375,1566.4100341796875,10146.30078125,3225.803466796875,16655.921875,6326.03955078125,7290.84033203125,1453.55859375,11100.76953125,4638.0361328125,23922.125,4231.9296875,17692.248046875,3530.979248046875,9126.6630859375,26307.10546875,21318.59375,11943.9765625,-0.0,-44447.58203125,19612.3125,5400.9755859375,0.0,7313.0927734375,0.0,0.0
14604.7275390625,14499.8232421875,33051.96875,11729.3994140625,28084.9140625,6314.9130859375,8007.685546875,9102.8212890625,9088.5166015625,6654.2626953125,17957.6875,-1335.9388427734375,8670.4892578125,0.0,22792.021484375,7021.42724609375,24735.927734375,19681.453125,9563.763671875,11681.7158203125,23012.162109375,29313.564453125,21789.869140625,19437.470703125,21317.005859375,7012.68505859375,28882.822265625,394.1853942871094,0.0,913.1431884765625,13748.009765625,6614.5263671875,25642.712890625,16349.1572265625,14905.134765625,24588.904296875,9097.2587890625,13958.61328125,8432.0703125,3604.888916015625,22835.732421875,9394.486328125,16856.193359375,11610.1904296875,8687.1787109375,12110.869140625,12048.0849609375,1567.99951171875,10139.9423828125,3219.445556640625,16654.333984375,6322.06591796875,7282.892578125,1451.9691162109375,11110.3056640625,4641.21484375,23902.2578125,4226.36669921875,17691.453125,3527.00537109375,9121.89453125,26302.337890625,21312.236328125,11941.591796875,-0.0,-44453.14453125,19609.927734375,5398.59130859375,0.0,7313.88720703125,0.0,0.0
14619.033203125,14506.9765625,33058.328125,11727.015625,28090.4765625,6319.681640625,8013.24853515625,9102.8212890625,9084.5419921875,6648.69921875,17960.8671875,-1334.3492431640625,8680.8203125,0.0,22793.611328125,7021.42724609375,24736.72265625,19684.6328125,9564.55859375,11676.15234375,23016.134765625,29315.94921875,21792.25390625,19441.447265625,21323.36328125,7015.0693359375,28884.41015625,397.3642883300781,0.0,898.8380126953125,13752.7783203125,6618.5,25645.890625,16349.1572265625,14909.1083984375,24592.08203125,9099.642578125,13960.2021484375,8435.2490234375,3607.273193359375,22842.884765625,9397.666015625,16863.345703125,11611.779296875,8685.5888671875,12107.689453125,12046.49609375,1563.2310791015625,10151.86328125,3220.240234375,16660.689453125,6322.86083984375,7286.07177734375,1451.1744384765625,11115.07421875,4638.0361328125,23911.794921875,4233.51904296875,17692.248046875,3521.4423828125,9119.5107421875,26304.72265625,21313.03125,11932.849609375,-0.0,-44453.9375,19603.5703125,5393.0283203125,0.0,7303.55615234375,0.0,0.0
14623.80078125,14499.8232421875,33047.9921875,11719.0673828125,28085.708984375,6306.17138671875,8006.095703125,9093.2841796875,9072.62109375,6633.599609375,17944.177734375,-1345.4755859375,8683.205078125,0.0,22786.458984375,7009.50634765625,24728.775390625,19675.890625,9558.201171875,11662.642578125,23008.982421875,29305.6171875,21785.1015625,19431.91015625,21320.185546875,7000.76416015625,28877.2578125,386.23809814453125,0.0,902.8117065429688,13744.8310546875,6612.14208984375,25637.9453125,16340.4140625,14903.544921875,24580.16015625,9092.490234375,13949.076171875,8444.7861328125,3600.915283203125,22840.5,9380.181640625,16858.578125,11599.8583984375,8677.6416015625,12096.564453125,12029.806640625,1554.4891357421875,10147.888671875,3205.140380859375,16651.94921875,6310.93994140625,7287.6611328125,1443.2271728515625,11117.4580078125,4625.3203125,23924.509765625,4220.8037109375,17681.91796875,3504.753173828125,9109.1796875,26296.7734375,21302.69921875,11918.544921875,-0.0,-44454.734375,19595.623046875,5374.74951171875,0.0,7274.94580078125,0.0,0.0
14623.80078125,14495.0556640625,33039.25390625,11713.5048828125,28074.583984375,6295.83984375,7986.22802734375,9082.953125,9059.111328125,6624.857421875,17946.5625,-1357.396484375,8684.7939453125,0.0,22776.126953125,6995.201171875,24722.41796875,19667.943359375,9546.2802734375,11653.10546875,23001.03515625,29296.875,21773.1796875,19422.373046875,21311.44140625,6991.2275390625,28860.568359375,373.5224304199219,0.0,909.9642333984375,13736.8837890625,6604.19482421875,25630.79296875,16333.26171875,14893.2138671875,24571.41796875,9078.185546875,13939.5400390625,8428.0966796875,3595.35205078125,22830.16796875,9371.439453125,16840.298828125,11589.52734375,8660.9521484375,12086.232421875,12030.6015625,1548.926025390625,10131.9951171875,3197.193115234375,16622.54296875,6299.81396484375,7302.76123046875,1439.25341796875,11123.021484375,4623.73095703125,23930.072265625,4203.3193359375,17666.81640625,3496.010986328125,9100.4375,26285.6484375,21289.984375,11905.8291015625,-0.0,-44468.2421875,19585.291015625,5367.59716796875,0.0,7270.17724609375,0.0,0.0
14620.6220703125,14506.1806640625,33044.81640625,11692.046875,28076.966796875,6299.81396484375,7986.22802734375,9082.953125,9055.931640625,6626.447265625,17956.09765625,-1346.270263671875,8681.615234375,0.0,22776.921875,6998.38037109375,24723.2109375,19667.943359375,9546.2802734375,11652.310546875,23002.625,29296.080078125,21774.76953125,19421.578125,21309.853515625,6990.4326171875,28861.365234375,377.49609375,0.0,911.5537109375,13736.8837890625,6605.7841796875,25630.79296875,16332.4677734375,14895.5986328125,24571.41796875,9078.185546875,13941.12890625,8418.5595703125,3588.994384765625,22831.7578125,9373.82421875,16840.298828125,11590.3212890625,8660.9521484375,12088.6162109375,12046.49609375,1536.21044921875,10129.611328125,3206.72998046875,16624.927734375,6303.787109375,7308.32421875,1446.406005859375,11120.63671875,4627.70458984375,23925.3046875,4204.90869140625,17666.81640625,3499.190185546875,9109.1796875,26286.443359375,21290.779296875,11904.2392578125,-0.0,-44469.0390625,19586.880859375,5375.5439453125,0.0,7279.7138671875,0.0,0.0
14603.9326171875,14508.5654296875,33036.8671875,11688.0732421875,28076.171875,6299.01904296875,7990.99658203125,9083.748046875,9058.31640625,6628.83154296875,17948.9453125,-1346.270263671875,8673.66796875,0.0,22776.921875,7001.55859375,24720.033203125,19664.763671875,9547.07421875,11656.2841796875,23000.240234375,29294.490234375,21773.97265625,19421.578125,21305.87890625,6989.6376953125,28865.337890625,376.70135498046875,0.0,878.1751098632812,13734.5,6601.015625,25627.61328125,16330.083984375,14894.802734375,24572.21484375,9080.5693359375,13941.12890625,8419.3544921875,3583.43115234375,22830.962890625,9377.0029296875,16841.888671875,11588.732421875,8664.92578125,12090.2060546875,12032.19140625,1537.005126953125,10128.8154296875,3198.78271484375,16631.28515625,6305.37646484375,7268.58740234375,1445.611328125,11108.7158203125,4612.6044921875,23919.740234375,4211.26708984375,17672.380859375,3501.57421875,9112.3583984375,26284.853515625,21292.3671875,11908.2138671875,-0.0,-44460.296875,19597.2109375,5376.3388671875,0.0,7283.6875,0.0,0.0
14610.291015625,14510.154296875,33034.484375,11692.046875,28076.966796875,6299.01904296875,7995.7646484375,9087.7216796875,9063.0849609375,6633.599609375,17939.41015625,-1343.885986328125,8676.8466796875,0.0,22779.306640625,7007.1220703125,24718.443359375,19664.763671875,9550.25390625,11658.6689453125,22998.65234375,29293.6953125,21774.76953125,19423.166015625,21308.263671875,6991.2275390625,28870.10546875,378.2908020019531,0.0,877.38037109375,13734.5,6599.42626953125,25627.61328125,16329.2880859375,14894.0087890625,24571.41796875,9083.748046875,13945.1025390625,8423.328125,3584.225830078125,22832.552734375,9370.64453125,16843.4765625,11588.732421875,8670.4892578125,12091.7958984375,12021.859375,1540.978759765625,10133.583984375,3190.04052734375,16636.052734375,6310.93994140625,7251.10400390625,1454.353271484375,11111.8955078125,4618.16796875,23920.53515625,4218.41943359375,17673.173828125,3506.342529296875,9116.33203125,26288.033203125,21297.13671875,11912.1865234375,-0.0,-44461.08984375,19594.03515625,5385.87548828125,0.0,7291.63525390625,0.0,0.0
14627.7744140625,14498.2333984375,33040.83984375,11689.6630859375,28080.939453125,6293.45556640625,7996.55908203125,9087.7216796875,9061.49609375,6632.8046875,17920.3359375,-1347.8597412109375,8680.0263671875,0.0,22781.69140625,7002.353515625,24721.623046875,19664.763671875,9551.0478515625,11656.2841796875,23002.625,29292.107421875,21775.564453125,19419.98828125,21314.62109375,7002.353515625,28873.28515625,376.70135498046875,0.0,894.8643798828125,13732.91015625,6601.810546875,25631.5859375,16330.083984375,14895.5986328125,24567.4453125,9084.5419921875,13944.30859375,8428.8916015625,3580.25244140625,22834.935546875,9366.671875,16845.068359375,11587.142578125,8670.4892578125,12092.58984375,12030.6015625,1530.647216796875,10139.1474609375,3194.80908203125,16637.64453125,6308.5556640625,7291.63525390625,1456.737548828125,11118.2529296875,4626.115234375,23922.125,4214.44580078125,17672.380859375,3506.342529296875,9117.126953125,26287.236328125,21295.546875,11910.59765625,-0.0,-44465.859375,19579.728515625,5382.69677734375,0.0,7292.4296875,0.0,0.0
14625.3896484375,14491.8759765625,33037.6640625,11682.5107421875,28079.3515625,6288.68701171875,7994.96923828125,9082.158203125,9060.7001953125,6628.03662109375,17945.765625,-1344.6807861328125,8677.6416015625,0.0,22781.69140625,6995.201171875,24720.033203125,19660.791015625,9547.8701171875,11653.10546875,22997.85546875,29288.927734375,21774.76953125,19419.193359375,21311.44140625,6995.201171875,28871.6953125,373.5224304199219,0.0,895.6591186523438,13731.3203125,6601.015625,25628.408203125,16330.083984375,14890.830078125,24563.470703125,9084.5419921875,13939.5400390625,8424.123046875,3581.047119140625,22830.16796875,9366.671875,16845.068359375,11584.7587890625,8668.8994140625,12089.412109375,12025.0390625,1515.54736328125,10135.9677734375,3192.4248046875,16634.46484375,6302.19775390625,7314.68212890625,1452.763916015625,11103.947265625,4617.373046875,23918.947265625,4207.29296875,17669.99609375,3501.57421875,9110.7685546875,26284.05859375,21291.57421875,11904.2392578125,-0.0,-44461.08984375,19584.498046875,5373.95458984375,0.0,7285.27685546875,0.0,0.0
14613.46875,14499.0283203125,33037.6640625,11680.1259765625,28084.9140625,6287.892578125,8000.533203125,9082.953125,9068.6484375,6627.24169921875,17965.634765625,-1347.8597412109375,8680.0263671875,0.0,22785.6640625,6995.201171875,24719.23828125,19660.791015625,9552.6376953125,11657.0791015625,22999.4453125,29288.927734375,21779.537109375,19420.78125,21322.568359375,6988.84326171875,28878.052734375,372.72772216796875,0.0,895.6591186523438,13732.1162109375,6600.22119140625,25626.818359375,16330.876953125,14895.5986328125,24564.265625,9087.7216796875,13941.12890625,8412.2021484375,3592.17333984375,22832.552734375,9364.287109375,16849.8359375,11585.552734375,8675.2578125,12091.0009765625,12018.6806640625,1524.2894287109375,10149.478515625,3192.4248046875,16639.232421875,6302.9921875,7308.32421875,1452.763916015625,11111.8955078125,4611.01513671875,23918.947265625,4208.087890625,17680.326171875,3499.98486328125,9109.1796875,26285.6484375,21295.546875,11908.2138671875,-0.0,-44457.9140625,19592.443359375,5371.57080078125,0.0,7278.91943359375,0.0,0.0
14608.701171875,14500.6181640625,33036.8671875,11692.046875,28089.681640625,6293.45556640625,8006.095703125,9084.5419921875,9078.9794921875,6628.83154296875,17977.556640625,-1347.06494140625,8680.0263671875,0.0,22790.431640625,6997.58544921875,24722.41796875,19663.96875,9555.0224609375,11662.642578125,23001.830078125,29292.107421875,21785.1015625,19424.7578125,21323.36328125,6992.02197265625,28880.4375,373.5224304199219,0.0,901.2222290039062,13735.2939453125,6603.39990234375,25631.5859375,16334.056640625,14899.5712890625,24567.4453125,9092.490234375,13942.71875,8417.765625,3598.531005859375,22835.732421875,9367.4658203125,16855.3984375,11590.3212890625,8683.205078125,12092.58984375,12025.0390625,1545.7471923828125,10153.453125,3197.193115234375,16647.1796875,6304.58203125,7305.1455078125,1446.406005859375,11118.2529296875,4611.01513671875,23922.919921875,4206.49853515625,17689.86328125,3499.98486328125,9110.7685546875,26289.62109375,21301.904296875,11915.3662109375,-0.0,-44460.296875,19601.98046875,5368.3916015625,0.0,7275.740234375,0.0,0.0
14601.5478515625,14506.1806640625,33038.45703125,11699.994140625,28086.50390625,6299.01904296875,8010.06982421875,9090.1064453125,9088.5166015625,6637.5732421875,17973.58203125,-1346.270263671875,8673.66796875,0.0,22788.046875,7001.55859375,24725.595703125,19666.353515625,9560.5849609375,11672.9736328125,23002.625,29295.287109375,21789.07421875,19430.318359375,21317.80078125,6997.58544921875,28879.642578125,377.49609375,0.0,898.0433349609375,13737.6787109375,6606.57861328125,25633.177734375,16334.8525390625,14898.77734375,24571.41796875,9098.052734375,13950.6650390625,8424.123046875,3588.994384765625,22833.34765625,9372.234375,16854.60546875,11595.8857421875,8687.1787109375,12097.3583984375,12034.5751953125,1552.899658203125,10141.5322265625,3203.551025390625,16647.974609375,6309.3505859375,7306.734375,1444.0218505859375,11115.8681640625,4614.98876953125,23922.919921875,4208.087890625,17688.2734375,3507.13720703125,9119.5107421875,26296.7734375,21307.46875,11925.697265625,-0.0,-44452.3515625,19603.5703125,5374.74951171875,0.0,7284.482421875,0.0,0.0
14588.0380859375,14505.38671875,33032.1015625,11701.583984375,28087.296875,6301.40283203125,8011.65869140625,9089.310546875,9086.9267578125,6636.7783203125,17933.845703125,-1349.44921875,8683.205078125,0.0,22792.81640625,6997.58544921875,24722.41796875,19663.96875,9560.5849609375,11670.58984375,23001.03515625,29295.287109375,21789.07421875,19429.525390625,21323.36328125,6997.58544921875,28886.794921875,378.2908020019531,0.0,892.480224609375,13736.0888671875,6599.42626953125,25629.998046875,16333.26171875,14898.77734375,24572.21484375,9098.84765625,13949.87109375,8424.91796875,3561.9736328125,22833.34765625,9369.0556640625,16857.783203125,11595.08984375,8687.97265625,12094.1796875,12017.8857421875,1550.5155029296875,10142.326171875,3206.72998046875,16652.7421875,6309.3505859375,7290.84033203125,1438.458740234375,11121.4326171875,4617.373046875,23928.484375,4201.73046875,17689.86328125,3506.342529296875,9119.5107421875,26295.98046875,21307.46875,11920.134765625,-0.0,-44457.1171875,19595.623046875,5377.1337890625,0.0,7288.4560546875,0.0,0.0
14604.7275390625,14492.6708984375,33020.1796875,11683.3046875,28081.736328125,6299.01904296875,8006.095703125,9084.5419921875,9081.36328125,6632.009765625,17918.744140625,-1356.6016845703125,8673.66796875,0.0,22788.046875,6989.6376953125,24714.470703125,19658.40625,9555.0224609375,11661.8466796875,22995.47265625,29287.337890625,21782.716796875,19422.373046875,21313.826171875,6992.81689453125,28887.58984375,378.2908020019531,0.0,885.32763671875,13729.7314453125,6590.6845703125,25619.666015625,16325.3154296875,14893.2138671875,24567.4453125,9093.2841796875,13945.1025390625,8420.9443359375,3545.2841796875,22823.810546875,9363.4921875,16855.3984375,11591.1171875,8682.41015625,12088.6162109375,12006.759765625,1529.8525390625,10135.173828125,3205.140380859375,16648.76953125,6302.9921875,7267.79296875,1413.8221435546875,11117.4580078125,4624.525390625,23913.3828125,4200.140625,17683.505859375,3499.98486328125,9106.0,26290.416015625,21301.904296875,11909.802734375,-0.0,-44465.859375,19584.498046875,5371.57080078125,0.0,7282.892578125,0.0,0.0
14614.2646484375,14499.0283203125,33031.3046875,11680.1259765625,28090.4765625,6301.40283203125,8014.04296875,9090.1064453125,9086.1318359375,6638.3681640625,17942.5859375,-1353.4227294921875,8669.6943359375,0.0,22789.63671875,6998.38037109375,24720.033203125,19665.560546875,9562.1748046875,11667.4111328125,23003.419921875,29289.72265625,21787.484375,19429.525390625,21318.59375,6992.02197265625,28896.33203125,380.67498779296875,0.0,890.0960083007812,13735.2939453125,6597.0419921875,25627.61328125,16326.109375,14900.3671875,24572.21484375,9100.4375,13952.2548828125,8421.73828125,3571.51025390625,22831.7578125,9366.671875,16860.9609375,11595.8857421875,8687.97265625,12095.7685546875,12022.654296875,1525.0841064453125,10135.173828125,3203.551025390625,16653.537109375,6310.93994140625,7273.35595703125,1420.9747314453125,11123.81640625,4629.2939453125,23911.794921875,4210.47216796875,17684.30078125,3507.13720703125,9110.7685546875,26296.7734375,21305.87890625,11912.982421875,-0.0,-44463.47265625,19589.265625,5381.90234375,0.0,7293.22412109375,0.0,0.0
14627.7744140625,14507.7705078125,33040.046875,11694.431640625,28102.3984375,6306.96630859375,8024.375,9100.4375,9095.6689453125,6647.10986328125,17957.6875,-1345.4755859375,8677.6416015625,0.0,22799.173828125,7009.50634765625,24731.955078125,19677.48046875,9574.890625,11677.7421875,23014.544921875,29301.642578125,21799.40625,19441.447265625,21314.62109375,6999.9697265625,28899.51171875,382.26446533203125,0.0,894.8643798828125,13746.4208984375,6608.16796875,25638.73828125,16337.236328125,14911.4921875,24584.927734375,9110.7685546875,13963.3818359375,8434.455078125,3595.35205078125,22842.884765625,9373.0283203125,16872.087890625,11604.626953125,8699.8935546875,12106.1005859375,12025.8330078125,1540.978759765625,10135.173828125,3201.166748046875,16664.6640625,6322.86083984375,7296.4033203125,1445.611328125,11121.4326171875,4623.73095703125,23927.689453125,4221.59814453125,17694.630859375,3518.263671875,9121.89453125,26310.28515625,21317.80078125,11924.107421875,-0.0,-44447.58203125,19602.775390625,5391.43896484375,0.0,7303.55615234375,0.0,0.0
14623.80078125,14490.287109375,33028.125,11682.5107421875,28085.708984375,6293.45556640625,8008.47998046875,9086.9267578125,9078.185546875,6635.18896484375,17946.5625,-1358.191162109375,8677.6416015625,0.0,22784.07421875,6996.79052734375,24719.23828125,19667.1484375,9561.3798828125,11663.4365234375,23003.419921875,29292.107421875,21785.89453125,19430.318359375,21304.2890625,6987.25390625,28870.10546875,367.16461181640625,0.0,873.40673828125,13736.0888671875,6593.86279296875,25629.201171875,16326.109375,14899.5712890625,24574.59765625,9094.8740234375,13949.076171875,8406.638671875,3576.27880859375,22831.7578125,9361.107421875,16854.60546875,11591.9111328125,8683.205078125,12091.7958984375,12013.1181640625,1525.87890625,10135.9677734375,3182.09326171875,16643.205078125,6310.14501953125,7294.8134765625,1436.0745849609375,11115.07421875,4607.83642578125,23924.509765625,4210.47216796875,17677.1484375,3507.13720703125,9106.794921875,26297.568359375,21303.49609375,11909.802734375,-0.0,-44463.47265625,19593.23828125,5382.69677734375,0.0,7296.4033203125,0.0,0.0
14636.5166015625,14490.287109375,33024.15234375,11685.689453125,28082.529296875,6296.634765625,8000.533203125,9086.9267578125,9074.2109375,6632.8046875,17937.818359375,-1355.8070068359375,8681.615234375,0.0,22781.69140625,6995.201171875,24721.623046875,19668.73828125,9558.201171875,11661.052734375,23005.0078125,29294.490234375,21783.509765625,19431.11328125,21303.49609375,6985.66455078125,28866.92578125,371.13824462890625,0.0,876.5856323242188,13740.0625,6596.2470703125,25629.998046875,16330.083984375,14899.5712890625,24575.392578125,9091.6953125,13949.076171875,8410.61328125,3575.484130859375,22827.783203125,9367.4658203125,16846.65625,11593.5009765625,8679.23046875,12090.2060546875,12017.8857421875,1527.4683837890625,10141.5322265625,3183.6826171875,16634.46484375,6307.7607421875,7296.4033203125,1440.0482177734375,11112.6904296875,4622.1416015625,23925.3046875,4211.26708984375,17673.173828125,3505.5478515625,9111.5634765625,26298.365234375,21299.51953125,11912.1865234375,-0.0,-44465.859375,19595.623046875,5374.74951171875,0.0,7290.04541015625,0.0,0.0
14649.2314453125,14503.796875,33049.58203125,11701.583984375,28100.80859375,6311.73486328125,8012.4541015625,9098.052734375,9082.158203125,6640.75244140625,17957.6875,-1343.885986328125,8685.5888671875,0.0,22786.458984375,7005.53271484375,24739.107421875,19684.6328125,9570.1220703125,11667.4111328125,23021.697265625,29310.384765625,21799.40625,19444.623046875,21324.953125,6997.58544921875,28878.052734375,385.443359375,0.0,893.2749633789062,13757.546875,6611.34716796875,25646.6875,16346.7734375,14916.2607421875,24588.904296875,9103.6162109375,13960.998046875,8436.0439453125,3590.583740234375,22847.65234375,9380.9765625,16861.7578125,11606.216796875,8687.97265625,12100.537109375,12042.5224609375,1544.952392578125,10152.6572265625,3197.98779296875,16644.001953125,6317.29736328125,7311.5029296875,1453.55859375,11123.021484375,4637.2412109375,23925.3046875,4224.77734375,17677.94140625,3515.87939453125,9125.0732421875,26310.28515625,21306.673828125,11916.16015625,-0.0,-44445.19921875,19601.1875,5384.28662109375,0.0,7300.376953125,0.0,0.0
14621.4169921875,14499.8232421875,33052.76171875,11690.45703125,28100.80859375,6300.6083984375,8006.095703125,9087.7216796875,9067.8525390625,6625.65234375,17956.892578125,-1348.6544189453125,8680.0263671875,0.0,22776.126953125,6992.81689453125,24735.1328125,19682.25,9562.1748046875,11652.310546875,23020.109375,29307.20703125,21797.814453125,19438.267578125,21332.10546875,6984.0751953125,28875.669921875,371.9329833984375,0.0,888.506591796875,13753.5732421875,6604.19482421875,25645.09765625,16342.0048828125,14915.466796875,24582.544921875,9097.2587890625,13952.2548828125,8430.48046875,3584.225830078125,22851.625,9370.64453125,16858.578125,11598.26953125,8676.8466796875,12088.6162109375,12034.5751953125,1539.3892822265625,10154.2470703125,3188.451171875,16636.052734375,6302.9921875,7291.63525390625,1443.2271728515625,11123.81640625,4611.01513671875,23918.947265625,4208.8828125,17666.021484375,3502.368896484375,9113.15234375,26304.72265625,21297.13671875,11897.0869140625,-0.0,-44452.3515625,19590.85546875,5373.95458984375,0.0,7281.30322265625,0.0,0.0
14630.158203125,14511.744140625,33059.9140625,11698.4052734375,28114.318359375,6310.93994140625,8018.0166015625,9098.84765625,9086.1318359375,6639.95751953125,17967.224609375,-1343.09130859375,8683.9990234375,0.0,22788.84375,7002.353515625,24746.259765625,19695.759765625,9574.890625,11669.0,23033.619140625,29318.33203125,21810.53125,19450.982421875,21339.2578125,6990.4326171875,28891.5625,381.4697265625,0.0,894.8643798828125,13766.2890625,6616.91064453125,25657.8125,16353.1298828125,14928.9765625,24596.849609375,9110.7685546875,13962.5859375,8458.296875,3592.968017578125,22863.546875,9379.38671875,16873.677734375,11608.6005859375,8691.947265625,12100.537109375,12040.138671875,1548.13134765625,10162.9892578125,3195.603515625,16647.974609375,6311.73486328125,7295.6083984375,1448.7901611328125,11123.021484375,4611.01513671875,23926.099609375,4213.6513671875,17681.91796875,3511.90576171875,9125.869140625,26319.02734375,21310.6484375,11921.7236328125,-0.0,-44445.19921875,19600.390625,5379.51806640625,0.0,7288.4560546875,0.0,0.0
14631.748046875,14515.7177734375,33055.94140625,11701.583984375,28109.55078125,6311.73486328125,8017.22216796875,9096.462890625,9085.337890625,6643.13671875,17974.376953125,-1349.44921875,8683.205078125,0.0,22790.431640625,6999.9697265625,24746.259765625,19696.5546875,9574.890625,11670.58984375,23032.029296875,29318.33203125,21808.943359375,19449.392578125,21321.7734375,6992.02197265625,28893.15234375,380.67498779296875,0.0,890.8907470703125,13767.0830078125,6618.5,25657.01953125,16353.92578125,14926.5927734375,24597.64453125,9111.5634765625,13964.17578125,8440.017578125,3594.5576171875,22855.599609375,9379.38671875,16872.087890625,11606.216796875,8688.767578125,12100.537109375,12042.5224609375,1550.5155029296875,10152.6572265625,3195.603515625,16647.1796875,6309.3505859375,7305.1455078125,1456.737548828125,11111.1005859375,4612.6044921875,23926.892578125,4208.8828125,17682.7109375,3512.700439453125,9129.841796875,26319.02734375,21309.056640625,11925.697265625,-0.0,-44452.3515625,19604.365234375,5377.92822265625,0.0,7294.8134765625,0.0,0.0
14619.8271484375,14510.154296875,33051.17578125,11692.841796875,28106.37109375,6309.3505859375,8010.06982421875,9090.1064453125,9076.595703125,6634.39404296875,17968.01953125,-1352.6280517578125,8682.41015625,0.0,22781.69140625,6994.40625,24743.080078125,19691.78515625,9567.7373046875,11661.8466796875,23028.0546875,29313.564453125,21804.173828125,19443.03515625,21327.337890625,6989.6376953125,28883.615234375,375.9066162109375,0.0,882.9434814453125,13763.1103515625,6612.9365234375,25653.83984375,16349.951171875,14921.029296875,24592.08203125,9105.205078125,13957.0234375,8426.5068359375,3590.583740234375,22851.625,9374.6181640625,16865.73046875,11601.4482421875,8680.8203125,12092.58984375,12047.291015625,1543.3629150390625,10151.86328125,3194.80908203125,16638.4375,6299.81396484375,7309.91357421875,1456.737548828125,11121.4326171875,4609.42578125,23918.15234375,4202.52490234375,17674.763671875,3505.5478515625,9125.869140625,26314.2578125,21301.111328125,11913.7763671875,-0.0,-44461.08984375,19596.41796875,5369.9814453125,0.0,7286.07177734375,0.0,0.0
14629.3642578125,14517.3076171875,33059.9140625,11700.7890625,28109.55078125,6322.86083984375,8016.42724609375,9103.6162109375,9087.7216796875,6649.494140625,17977.556640625,-1329.5809326171875,8691.947265625,0.0,22788.84375,7011.095703125,24755.796875,19700.52734375,9578.068359375,11677.7421875,23036.798828125,29326.28125,21810.53125,19455.751953125,21326.541015625,7004.73779296875,28873.28515625,389.4170227050781,0.0,898.0433349609375,13774.2353515625,6624.06298828125,25663.375,16357.8984375,14929.771484375,24603.208984375,9113.15234375,13969.7392578125,8449.5546875,3600.12060546875,22857.984375,9387.333984375,16869.703125,11615.7529296875,8689.5625,12105.3056640625,12061.595703125,1552.10498046875,10147.0947265625,3215.471923828125,16644.001953125,6314.9130859375,7326.60302734375,1459.1217041015625,11138.916015625,4624.525390625,23922.919921875,4218.41943359375,17684.30078125,3519.852783203125,9135.4052734375,26325.384765625,21313.826171875,11930.4658203125,-0.0,-44440.4296875,19598.802734375,5387.46484375,0.0,7306.734375,0.0,0.0
14627.7744140625,14509.3603515625,33055.94140625,11700.7890625,28105.578125,6315.7080078125,8012.4541015625,9100.4375,9081.36328125,6646.31494140625,17975.171875,-1325.6072998046875,8673.66796875,0.0,22784.07421875,7008.71142578125,24753.412109375,19696.5546875,9575.6845703125,11676.15234375,23035.20703125,29323.1015625,21806.55859375,19452.572265625,21321.7734375,6982.4853515625,28870.900390625,383.8539123535156,0.0,895.6591186523438,13768.6728515625,6620.0888671875,25659.40234375,16354.71875,14925.7978515625,24600.029296875,9110.7685546875,13964.970703125,8453.5283203125,3596.941650390625,22854.8046875,9382.5654296875,16865.73046875,11610.984375,8687.1787109375,12104.51171875,12056.033203125,1552.10498046875,10136.763671875,3206.72998046875,16638.4375,6310.93994140625,7329.7822265625,1452.763916015625,11135.7373046875,4622.93603515625,23915.767578125,4216.03515625,17677.94140625,3518.263671875,9133.021484375,26320.615234375,21312.236328125,11928.8759765625,-0.0,-44438.83984375,19598.802734375,5387.46484375,0.0,7307.529296875,0.0,0.0
14634.1328125,14524.4599609375,33067.86328125,11717.478515625,28123.85546875,6329.21826171875,8029.9375,9113.9482421875,9097.2587890625,6661.4150390625,17974.376953125,-1320.044189453125,8677.6416015625,0.0,22794.404296875,7021.42724609375,24764.537109375,19711.65234375,9589.9892578125,11690.45703125,23048.71875,29336.611328125,21821.65625,19466.876953125,21336.078125,7002.353515625,28889.1796875,394.1853942871094,0.0,912.3484497070312,13784.5673828125,6632.8046875,25672.912109375,16369.8193359375,14939.30859375,24614.333984375,9124.279296875,13978.4814453125,8453.5283203125,3611.246826171875,22869.109375,9396.87109375,16881.625,11623.7001953125,8700.6884765625,12116.4326171875,12062.390625,1567.204833984375,10145.5048828125,3209.114013671875,16653.537109375,6325.2451171875,7336.9345703125,1471.83740234375,11134.1474609375,4639.62548828125,23924.509765625,4231.9296875,17692.248046875,3534.157958984375,9144.146484375,26334.126953125,21327.337890625,11942.38671875,-0.0,-44427.7109375,19617.876953125,5400.9755859375,0.0,7319.4501953125,0.0,0.0
14645.2587890625,14530.818359375,33064.68359375,11712.7099609375,28124.650390625,6333.1923828125,8030.73193359375,9114.7421875,9097.2587890625,6660.6201171875,17962.455078125,-1322.4283447265625,8677.6416015625,0.0,22796.7890625,7024.6064453125,24765.333984375,19712.447265625,9590.78515625,11689.6630859375,23047.12890625,29339.791015625,21821.65625,19470.056640625,21339.2578125,7009.50634765625,28893.15234375,398.1590270996094,0.0,913.1431884765625,13785.3623046875,6633.599609375,25674.501953125,16368.23046875,14940.8974609375,24615.923828125,9123.484375,13980.0712890625,8458.296875,3611.246826171875,22867.521484375,9398.4599609375,16884.0078125,11627.673828125,8703.072265625,12118.021484375,12052.853515625,1549.720703125,10139.1474609375,3214.677001953125,16657.51171875,6326.03955078125,7330.57666015625,1471.0426025390625,11119.8427734375,4642.8046875,23925.3046875,4234.31396484375,17693.04296875,3538.1318359375,9144.146484375,26336.51171875,21326.541015625,11936.82421875,-0.0,-44430.89453125,19618.669921875,5394.61767578125,0.0,7314.68212890625,0.0,0.0
14637.310546875,14534.791015625,33065.48046875,11712.7099609375,28120.67578125,6333.98681640625,8032.32177734375,9115.537109375,9097.2587890625,6658.23583984375,17966.4296875,-1314.4810791015625,8676.8466796875,0.0,22800.763671875,7019.04296875,24767.716796875,19708.474609375,9592.3740234375,11689.6630859375,23045.5390625,29337.40625,21820.068359375,19466.876953125,21349.587890625,7015.86376953125,28897.126953125,398.9537658691406,0.0,909.1694946289062,13785.3623046875,6635.98388671875,25674.501953125,16367.435546875,14938.513671875,24613.5390625,9124.279296875,13981.66015625,8455.912109375,3612.836181640625,22869.109375,9396.87109375,16880.03515625,11626.8798828125,8704.662109375,12116.4326171875,12040.9326171875,1547.3365478515625,10148.6845703125,3213.88232421875,16662.279296875,6323.65576171875,7321.83447265625,1473.4267578125,11123.021484375,4645.18896484375,23914.1796875,4233.51904296875,17695.427734375,3530.979248046875,9146.53125,26334.126953125,21325.74609375,11935.234375,-0.0,-44424.53515625,19613.900390625,5384.28662109375,0.0,7301.171875,0.0,0.0
14634.1328125,14530.0224609375,33067.06640625,11713.5048828125,28123.060546875,6332.3974609375,8035.50048828125,9117.126953125,9098.052734375,6659.82568359375,17955.302734375,-1317.6600341796875,8687.1787109375,0.0,22803.94140625,7021.42724609375,24765.333984375,19706.091796875,9592.3740234375,11688.8681640625,23046.3359375,29335.81640625,21819.2734375,19466.876953125,21359.919921875,7022.22216796875,28903.484375,397.3642883300781,0.0,902.8117065429688,13782.978515625,6634.39404296875,25673.70703125,16364.255859375,14937.71875,24611.94921875,9129.0478515625,13981.66015625,8445.580078125,3613.631103515625,22873.87890625,9396.87109375,16884.0078125,11622.9052734375,8707.046875,12118.021484375,12044.90625,1556.07861328125,10170.9365234375,3210.70361328125,16669.431640625,6325.2451171875,7286.07177734375,1471.0426025390625,11133.353515625,4634.857421875,23911.794921875,4235.10888671875,17699.400390625,3529.3896484375,9147.326171875,26334.126953125,21328.130859375,11933.64453125,-0.0,-44422.94140625,19612.3125,5384.28662109375,0.0,7303.55615234375,0.0,0.0
14638.900390625,14517.3076171875,33047.9921875,11711.9150390625,28111.935546875,6322.06591796875,8030.73193359375,9111.5634765625,9091.6953125,6656.646484375,17932.255859375,-1335.9388427734375,8681.615234375,0.0,22802.353515625,7023.0166015625,24756.58984375,19696.5546875,9586.0166015625,11683.3046875,23034.4140625,29328.6640625,21809.736328125,19459.724609375,21320.978515625,7020.63232421875,28896.33203125,392.5959167480469,0.0,900.427490234375,13775.03125,6623.26806640625,25660.197265625,16357.8984375,14926.5927734375,24604.796875,9121.89453125,13975.302734375,8436.0439453125,3600.12060546875,22858.77734375,9393.6923828125,16879.240234375,11618.1376953125,8701.4833984375,12114.8427734375,12037.75390625,1556.873291015625,10159.015625,3206.72998046875,16669.431640625,6323.65576171875,7276.53515625,1460.711181640625,11107.921875,4631.67822265625,23922.919921875,4233.51904296875,17697.810546875,3530.1845703125,9137.7900390625,26325.384765625,21321.7734375,11927.287109375,-0.0,-44432.48046875,19616.28515625,5396.20751953125,0.0,7311.5029296875,0.0,0.0
14639.6953125,14504.591796875,33040.046875,11711.12109375,28098.42578125,6314.11865234375,8012.4541015625,9102.02734375,9080.5693359375,6649.494140625,17943.3828125,-1342.296630859375,8668.8994140625,0.0,22790.431640625,7017.45361328125,24749.4375,19687.017578125,9574.095703125,11675.357421875,23025.671875,29320.716796875,21796.2265625,19450.1875,21304.2890625,7011.890625,28874.078125,386.23809814453125,0.0,898.0433349609375,13765.494140625,6615.32080078125,25651.455078125,16350.74609375,14913.876953125,24597.64453125,9106.0,13964.970703125,8430.48046875,3592.968017578125,22846.857421875,9386.5390625,16862.55078125,11610.1904296875,8685.5888671875,12105.3056640625,12036.9599609375,1553.6943359375,10132.7900390625,3202.756103515625,16640.822265625,6318.88720703125,7286.86669921875,1448.7901611328125,11105.537109375,4634.857421875,23930.072265625,4228.75048828125,17686.685546875,3525.416015625,9119.5107421875,26315.0546875,21311.44140625,11922.5185546875,-0.0,-44441.22265625,19599.595703125,5393.0283203125,0.0,7309.11865234375,0.0,0.0
14630.9541015625,14494.259765625,33037.6640625,11701.583984375,28090.4765625,6306.17138671875,8010.06982421875,9098.052734375,9078.185546875,6648.69921875,17956.09765625,-1336.7335205078125,8677.6416015625,0.0,22796.7890625,7013.4794921875,24742.28515625,19679.865234375,9568.5322265625,11673.767578125,23019.314453125,29311.974609375,21790.662109375,19444.623046875,21309.056640625,6995.201171875,28870.10546875,382.26446533203125,0.0,900.427490234375,13756.751953125,6610.55224609375,25647.482421875,16344.388671875,14906.7236328125,24591.287109375,9102.8212890625,13960.2021484375,8422.5341796875,3592.968017578125,22837.3203125,9370.64453125,16856.193359375,11604.626953125,8683.205078125,12098.1533203125,12034.5751953125,1546.5418701171875,10123.2529296875,3195.603515625,16636.84765625,6316.5029296875,7291.63525390625,1445.611328125,11116.6640625,4629.2939453125,23933.251953125,4226.36669921875,17689.0703125,3521.4423828125,9111.5634765625,26311.875,21307.46875,11924.9033203125,-0.0,-44437.25,19596.41796875,5386.67041015625,0.0,7302.76123046875,0.0,0.0
14618.2373046875,14493.4658203125,33036.8671875,11697.6103515625,28091.271484375,6307.7607421875,8015.6328125,9101.2314453125,9085.337890625,6651.08349609375,17957.6875,-1338.322998046875,8676.0517578125,0.0,22792.81640625,7015.86376953125,24741.4921875,19680.658203125,9570.1220703125,11678.5361328125,23020.109375,29310.384765625,21792.25390625,19446.21484375,21311.44140625,6999.1748046875,28876.462890625,382.26446533203125,0.0,890.0960083007812,13755.9580078125,6608.16796875,25646.6875,16342.7978515625,14909.1083984375,24589.697265625,9107.58984375,13963.3818359375,8416.970703125,3587.405029296875,22836.52734375,9373.82421875,16859.373046875,11607.806640625,8687.1787109375,12101.3330078125,12025.8330078125,1535.4156494140625,10123.2529296875,3193.219482421875,16644.796875,6318.88720703125,7294.01904296875,1439.25341796875,11112.6904296875,4626.115234375,23925.3046875,4225.572265625,17692.248046875,3522.237060546875,9109.9736328125,26311.875,21310.6484375,11931.259765625,-0.0,-44434.86328125,19612.3125,5381.90234375,0.0,7302.76123046875,0.0,0.0
14606.31640625,14503.001953125,33040.83984375,11701.583984375,28102.3984375,6324.4501953125,8023.57958984375,9112.3583984375,9094.0791015625,6661.4150390625,17957.6875,-1329.5809326171875,8672.078125,0.0,22794.404296875,7029.37451171875,24749.4375,19691.78515625,9580.453125,11688.8681640625,23029.646484375,29322.306640625,21800.994140625,19457.33984375,21317.80078125,7015.86376953125,28874.875,391.80120849609375,0.0,889.30126953125,13767.0830078125,6612.14208984375,25653.04296875,16352.3349609375,14920.234375,24602.4140625,9115.537109375,13972.9189453125,8428.0966796875,3576.27880859375,22846.064453125,9393.6923828125,16868.115234375,11616.5478515625,8695.919921875,12110.869140625,12032.19140625,1537.005126953125,10134.37890625,3205.935302734375,16651.154296875,6332.3974609375,7301.171875,1440.843017578125,11115.07421875,4628.49951171875,23927.689453125,4234.31396484375,17697.015625,3533.36328125,9122.689453125,26320.615234375,21320.185546875,11939.2080078125,-0.0,-44426.91796875,19621.849609375,5398.59130859375,0.0,7316.271484375,0.0,0.0
14611.0849609375,14507.7705078125,33043.22265625,11701.583984375,28109.55078125,6333.1923828125,8026.75927734375,9112.3583984375,9089.310546875,6655.0576171875,17958.482421875,-1328.7862548828125,8682.41015625,0.0,22798.380859375,7023.8115234375,24751.822265625,19694.169921875,9582.8369140625,11684.1005859375,23032.82421875,29327.07421875,21805.763671875,19459.724609375,21326.541015625,7023.0166015625,28884.41015625,394.9801025390625,0.0,882.9434814453125,13770.2626953125,6613.7314453125,25655.427734375,16355.5146484375,14925.0029296875,24606.38671875,9117.126953125,13973.712890625,8437.6337890625,3578.662841796875,22850.83203125,9401.638671875,16875.267578125,11621.31640625,8697.509765625,12108.4853515625,12038.548828125,1544.952392578125,10147.888671875,3218.65087890625,16654.333984375,6332.3974609375,7308.32421875,1447.9954833984375,11133.353515625,4628.49951171875,23931.662109375,4231.134765625,17697.015625,3528.594970703125,9129.841796875,26324.58984375,21319.388671875,11934.439453125,-0.0,-44427.7109375,19622.64453125,5386.67041015625,0.0,7302.76123046875,0.0,0.0
14623.005859375,14514.9228515625,33042.4296875,11711.9150390625,28115.11328125,6334.78173828125,8033.91162109375,9116.33203125,9091.6953125,6659.03076171875,17956.892578125,-1324.017822265625,8690.357421875,0.0,22803.1484375,7027.78466796875,24755.001953125,19698.142578125,9586.8115234375,11686.484375,23036.00390625,29328.6640625,21811.326171875,19462.904296875,21322.568359375,7030.1689453125,28897.919921875,400.543212890625,0.0,903.6064453125,13775.03125,6618.5,25660.197265625,16358.6943359375,14928.9765625,24608.76953125,9121.89453125,13977.6865234375,8445.580078125,3591.37841796875,22852.419921875,9398.4599609375,16881.625,11624.4951171875,8699.8935546875,12112.4580078125,12037.75390625,1565.6153564453125,10151.068359375,3225.803466796875,16659.89453125,6333.98681640625,7313.88720703125,1463.0953369140625,11126.2001953125,4644.39404296875,23932.45703125,4239.08251953125,17701.783203125,3535.74755859375,9133.021484375,26328.564453125,21319.388671875,11936.0283203125,-0.0,-44422.94140625,19614.697265625,5402.56494140625,0.0,7316.271484375,0.0,0.0
14619.033203125,14501.412109375,33036.0703125,11701.583984375,28103.986328125,6324.4501953125,8026.75927734375,9102.8212890625,9082.953125,6645.5205078125,17956.09765625,-1343.09130859375,8668.10546875,0.0,22798.380859375,7015.0693359375,24745.46484375,19690.1953125,9575.6845703125,11672.1796875,23025.671875,29318.33203125,21803.37890625,19452.572265625,21305.87890625,7023.0166015625,28891.5625,390.21173095703125,0.0,901.2222290039062,13767.0830078125,6608.962890625,25652.25,16349.951171875,14921.029296875,24599.234375,9109.9736328125,13964.970703125,8432.865234375,3573.89453125,22842.087890625,9386.5390625,16872.087890625,11614.1630859375,8691.1513671875,12100.537109375,12032.9853515625,1555.283935546875,10131.2001953125,3214.677001953125,16651.94921875,6322.06591796875,7309.11865234375,1450.3797607421875,11121.4326171875,4639.62548828125,23914.1796875,4227.16162109375,17695.427734375,3523.82666015625,9111.5634765625,26317.4375,21307.46875,11922.5185546875,-0.0,-44433.27734375,19606.748046875,5387.46484375,0.0,7302.76123046875,0.0,0.0
14608.701171875,14483.9287109375,33038.45703125,11684.89453125,28106.37109375,6317.29736328125,8023.57958984375,9096.462890625,9079.7734375,6642.341796875,17944.970703125,-1339.912353515625,8660.9521484375,0.0,22792.81640625,7009.50634765625,24740.6953125,19687.810546875,9570.916015625,11667.4111328125,23025.671875,29313.564453125,21803.37890625,19448.599609375,21312.236328125,7000.76416015625,28892.359375,383.8539123535156,0.0,898.0433349609375,13763.1103515625,6602.60546875,25648.275390625,16342.0048828125,14919.4404296875,24594.46484375,9106.0,13961.7919921875,8417.765625,3579.45751953125,22844.47265625,9371.439453125,16874.470703125,11610.984375,8686.3828125,12094.1796875,12025.0390625,1537.005126953125,10127.2265625,3205.935302734375,16651.154296875,6314.9130859375,7297.99267578125,1433.6904296875,11124.611328125,4628.49951171875,23913.3828125,4218.41943359375,17683.505859375,3518.263671875,9104.4111328125,26314.2578125,21301.111328125,11920.134765625,-0.0,-44441.22265625,19609.1328125,5382.69677734375,0.0,7298.78759765625,0.0,0.0
14603.9326171875,14483.1337890625,33028.91796875,11681.7158203125,28100.013671875,6314.9130859375,8017.22216796875,9090.900390625,9075.80078125,6635.98388671875,17937.818359375,-1343.09130859375,8659.36328125,0.0,22787.251953125,7003.1484375,24736.72265625,19684.6328125,9564.55859375,11664.2314453125,23021.697265625,29310.384765625,21800.19921875,19443.03515625,21308.263671875,6989.6376953125,28877.2578125,379.0855407714844,0.0,893.2749633789062,13760.7255859375,6601.810546875,25644.302734375,16336.44140625,14916.2607421875,24591.287109375,9103.6162109375,13954.6396484375,8420.1494140625,3588.994384765625,22838.91015625,9366.671875,16871.294921875,11606.216796875,8682.41015625,12087.822265625,12015.501953125,1532.2366943359375,10117.6904296875,3201.96142578125,16648.76953125,6308.5556640625,7292.4296875,1435.27978515625,11105.537109375,4614.98876953125,23913.3828125,4212.0615234375,17677.94140625,3511.90576171875,9111.5634765625,26311.875,21296.34375,11916.955078125,-0.0,-44453.14453125,19604.365234375,5379.51806640625,0.0,7294.8134765625,0.0,0.0
14618.2373046875,14502.2080078125,33036.8671875,11692.841796875,28103.986328125,6322.06591796875,8019.6064453125,9099.642578125,9085.337890625,6646.31494140625,17949.740234375,-1339.912353515625,8676.0517578125,0.0,22797.583984375,7014.2744140625,24747.84765625,19694.169921875,9571.7119140625,11674.5634765625,23031.234375,29323.1015625,21804.96875,19449.392578125,21323.36328125,7004.73779296875,28869.310546875,383.0591735839844,0.0,888.506591796875,13770.2626953125,6609.7578125,25653.83984375,16346.7734375,14922.619140625,24601.6171875,9106.794921875,13961.7919921875,8428.8916015625,3595.35205078125,22847.65234375,9381.771484375,16868.91015625,11613.369140625,8687.1787109375,12096.564453125,12029.01171875,1536.21044921875,10138.3525390625,3205.935302734375,16646.384765625,6314.9130859375,7310.70849609375,1446.406005859375,11115.8681640625,4624.525390625,23926.099609375,4226.36669921875,17689.0703125,3523.031982421875,9125.0732421875,26319.822265625,21304.2890625,11933.64453125,-0.0,-44442.015625,19605.16015625,5393.0283203125,0.0,7309.11865234375,0.0,0.0
14636.5166015625,14524.4599609375,33055.14453125,11703.173828125,28123.060546875,6328.423828125,8030.73193359375,9111.5634765625,9094.8740234375,6658.23583984375,17965.634765625,-1321.6336669921875,8689.5625,0.0,22806.326171875,7027.78466796875,24765.333984375,19710.859375,9586.0166015625,11683.3046875,23047.12890625,29336.611328125,21819.2734375,19462.904296875,21339.2578125,7015.0693359375,28888.384765625,391.80120849609375,0.0,906.7853393554688,13786.15625,6623.26806640625,25671.32421875,16362.6669921875,14939.30859375,24614.333984375,9119.5107421875,13975.302734375,8441.607421875,3604.888916015625,22865.13671875,9391.3076171875,16881.625,11622.111328125,8698.3037109375,12107.689453125,12047.291015625,1548.926025390625,10159.810546875,3212.29296875,16655.921875,6326.03955078125,7329.7822265625,1463.89013671875,11134.9423828125,4644.39404296875,23937.224609375,4243.0556640625,17699.400390625,3530.979248046875,9140.173828125,26331.744140625,21316.208984375,11940.796875,-0.0,-44415.7890625,19615.4921875,5399.3857421875,0.0,7310.70849609375,0.0,0.0
14641.28515625,14538.7646484375,33057.53125,11707.146484375,28132.59765625,6336.37109375,8037.884765625,9117.9208984375,9099.642578125,6663.79931640625,17952.919921875,-1315.2757568359375,8689.5625,0.0,22803.94140625,7033.34814453125,24770.89453125,19720.396484375,9593.1689453125,11688.8681640625,23055.076171875,29344.55859375,21828.015625,19471.64453125,21338.462890625,7021.42724609375,28895.537109375,396.569580078125,0.0,913.1431884765625,13794.8994140625,6629.6259765625,25676.091796875,16370.615234375,14948.05078125,24622.28125,9128.2529296875,13984.0439453125,8452.7333984375,3606.478515625,22870.69921875,9398.4599609375,16891.16015625,11626.8798828125,8703.072265625,12114.0478515625,12051.2646484375,1558.4627685546875,10160.60546875,3213.88232421875,16661.486328125,6330.01318359375,7333.75537109375,1471.83740234375,11140.505859375,4655.52001953125,23934.841796875,4248.619140625,17698.607421875,3535.74755859375,9144.146484375,26342.07421875,21321.7734375,11951.923828125,-0.0,-44406.25390625,19620.259765625,5397.001953125,0.0,7313.0927734375,0.0,0.0
14625.3896484375,14530.818359375,33038.45703125,11701.583984375,28116.703125,6327.62890625,8023.57958984375,9103.6162109375,9081.36328125,6644.7255859375,17906.82421875,-1327.991455078125,8674.4619140625,0.0,22789.63671875,7014.2744140625,24758.1796875,19707.6796875,9577.2744140625,11671.3837890625,23042.359375,29333.43359375,21815.30078125,19459.724609375,21318.59375,7011.890625,28878.84765625,385.443359375,0.0,900.427490234375,13785.3623046875,6614.5263671875,25660.9921875,16359.4873046875,14935.333984375,24613.5390625,9113.9482421875,13969.7392578125,8433.6591796875,3592.17333984375,22853.216796875,9388.923828125,16877.650390625,11615.7529296875,8687.97265625,12099.7431640625,12029.806640625,1553.6943359375,10142.326171875,3205.140380859375,16646.384765625,6314.9130859375,7309.91357421875,1462.3006591796875,11120.63671875,4642.009765625,23922.919921875,4231.134765625,17681.91796875,3519.05810546875,9126.6630859375,26330.15234375,21306.673828125,11932.0556640625,-0.0,-44422.94140625,19601.98046875,5377.1337890625,0.0,7298.78759765625,0.0,0.0
14637.310546875,14530.818359375,33053.55859375,11713.5048828125,28127.828125,6339.5498046875,8033.1162109375,9111.5634765625,9092.490234375,6651.87841796875,17963.251953125,-1330.375732421875,8680.8203125,0.0,22796.7890625,7016.65869140625,24770.89453125,19719.6015625,9586.0166015625,11676.15234375,23055.87109375,29344.55859375,21828.015625,19470.849609375,21334.490234375,7026.990234375,28888.384765625,394.9801025390625,0.0,907.580078125,13797.283203125,6624.06298828125,25674.501953125,16370.615234375,14944.076171875,24626.255859375,9123.484375,13978.4814453125,8447.169921875,3607.273193359375,22865.9296875,9398.4599609375,16887.982421875,11626.083984375,8696.7158203125,12105.3056640625,12044.90625,1565.6153564453125,10152.6572265625,3221.82958984375,16654.333984375,6322.06591796875,7325.80810546875,1471.0426025390625,11134.1474609375,4642.009765625,23929.27734375,4235.9033203125,17687.478515625,3527.00537109375,9134.6103515625,26339.689453125,21313.826171875,11935.234375,-0.0,-44426.125,19611.517578125,5381.90234375,0.0,7302.76123046875,0.0,0.0
14643.6689453125,14528.43359375,33060.7109375,11706.3525390625,28126.240234375,6339.5498046875,8035.50048828125,9111.5634765625,9097.2587890625,6651.08349609375,17975.171875,-1321.6336669921875,8683.205078125,0.0,22802.353515625,7014.2744140625,24769.306640625,19719.6015625,9588.400390625,11677.7421875,23055.076171875,29346.1484375,21829.60546875,19473.234375,21334.490234375,7028.57958984375,28892.359375,394.9801025390625,0.0,909.1694946289062,13794.8994140625,6627.24169921875,25672.912109375,16369.8193359375,14945.666015625,24627.05078125,9124.279296875,13977.6865234375,8454.3232421875,3608.06787109375,22866.7265625,9400.0498046875,16889.572265625,11626.8798828125,8699.099609375,12106.8955078125,12042.5224609375,1563.2310791015625,10154.2470703125,3220.240234375,16658.306640625,6321.271484375,7327.39794921875,1472.632080078125,11123.81640625,4634.857421875,23934.044921875,4231.134765625,17690.658203125,3524.621337890625,9139.37890625,26339.689453125,21315.416015625,11940.001953125,-0.0,-44423.7421875,19616.28515625,5379.51806640625,0.0,7302.76123046875,0.0,0.0
14639.6953125,14522.8701171875,33056.734375,11704.7626953125,28124.650390625,6337.166015625,8033.91162109375,9110.7685546875,9096.462890625,6649.494140625,17960.8671875,-1318.4547119140625,8680.0263671875,0.0,22802.353515625,7015.86376953125,24766.921875,19717.216796875,9586.8115234375,11680.1259765625,23051.896484375,29344.55859375,21827.220703125,19472.44140625,21329.720703125,7023.0166015625,28890.767578125,391.80120849609375,0.0,905.9906005859375,13790.9248046875,6625.65234375,25668.14453125,16367.435546875,14942.486328125,24625.458984375,9124.279296875,13978.4814453125,8436.0439453125,3604.888916015625,22865.13671875,9399.2548828125,16888.77734375,11625.2900390625,8700.6884765625,12105.3056640625,12036.9599609375,1564.02587890625,10154.2470703125,3207.524658203125,16657.51171875,6322.06591796875,7321.83447265625,1465.4794921875,11117.4580078125,4639.62548828125,23930.8671875,4230.34033203125,17689.86328125,3526.210693359375,9140.96875,26339.689453125,21314.62109375,11939.2080078125,-0.0,-44419.765625,19613.107421875,5385.87548828125,0.0,7306.734375,0.0,0.0
14630.9541015625,14517.3076171875,33047.9921875,11707.146484375,28123.060546875,6335.57666015625,8036.2958984375,9111.5634765625,9097.2587890625,6650.2890625,17960.8671875,-1333.5545654296875,8676.0517578125,0.0,22798.380859375,7013.4794921875,24765.333984375,19717.216796875,9586.8115234375,11679.33203125,23048.71875,29342.173828125,21826.42578125,19470.849609375,21321.7734375,7011.890625,28891.5625,392.5959167480469,0.0,900.427490234375,13789.3359375,6619.29443359375,25668.14453125,16366.6396484375,14940.8974609375,24625.458984375,9124.279296875,13979.275390625,8423.328125,3602.504638671875,22861.162109375,9396.076171875,16887.982421875,11625.2900390625,8701.4833984375,12108.4853515625,12025.8330078125,1564.8206787109375,10154.2470703125,3201.166748046875,16656.716796875,6323.65576171875,7313.88720703125,1458.326904296875,11126.2001953125,4637.2412109375,23925.3046875,4229.54541015625,17689.0703125,3528.594970703125,9138.583984375,26339.689453125,21314.62109375,11937.6181640625,-0.0,-44420.55859375,19611.517578125,5395.41259765625,0.0,7313.88720703125,0.0,0.0
14641.28515625,14526.84375,33060.7109375,11719.86328125,28138.16015625,6348.2919921875,8049.8056640625,9127.4580078125,9109.9736328125,6664.59423828125,17983.1171875,-1317.6600341796875,8680.0263671875,0.0,22807.916015625,7027.78466796875,24777.25390625,19727.548828125,9601.1162109375,11693.63671875,23061.43359375,29353.30078125,21840.73046875,19484.361328125,21336.873046875,7016.65869140625,28905.072265625,405.31158447265625,0.0,914.7326049804688,13802.845703125,6630.4208984375,25682.44921875,16376.1767578125,14952.8193359375,24638.970703125,9138.583984375,13993.5810546875,8444.7861328125,3610.451904296875,22873.87890625,9406.4072265625,16902.2890625,11641.9794921875,8712.609375,12122.7900390625,12045.701171875,1570.3836669921875,10165.3740234375,3213.88232421875,16667.84375,6337.9609375,7313.0927734375,1469.4532470703125,11141.2998046875,4650.75146484375,23933.251953125,4244.6455078125,17700.990234375,3541.310546875,9152.8896484375,26352.40625,21328.130859375,11951.12890625,-0.0,-44409.43359375,19614.697265625,5402.56494140625,0.0,7325.013671875,0.0,0.0
14638.1064453125,14528.43359375,33066.2734375,11711.9150390625,28143.724609375,6346.70263671875,8053.77978515625,9125.0732421875,9113.15234375,6665.388671875,17980.734375,-1320.044189453125,8671.2841796875,0.0,22811.09375,7021.42724609375,24777.25390625,19724.369140625,9601.91015625,11698.4052734375,23063.025390625,29354.890625,21843.91015625,19483.56640625,21340.84765625,7018.248046875,28910.63671875,402.1326599121094,0.0,905.9906005859375,13800.4619140625,6628.83154296875,25680.064453125,16373.79296875,14954.4072265625,24637.380859375,9140.96875,13994.3759765625,8452.7333984375,3608.06787109375,22876.26171875,9404.0234375,16906.26171875,11638.0048828125,8718.1728515625,12124.37890625,12052.853515625,1556.873291015625,10163.7841796875,3215.471923828125,16672.611328125,6335.57666015625,7301.96630859375,1455.9427490234375,11125.4052734375,4645.18896484375,23934.841796875,4237.4931640625,17707.34765625,3538.1318359375,9152.0947265625,26352.40625,21330.515625,11956.69140625,-0.0,-44411.8203125,19623.4375,5389.84912109375,0.0,7316.271484375,0.0,0.0
14637.310546875,14529.228515625,33052.76171875,11708.736328125,28137.365234375,6341.13916015625,8043.4482421875,9111.5634765625,9099.642578125,6651.08349609375,17959.275390625,-1328.7862548828125,8670.4892578125,0.0,22806.326171875,7006.3271484375,24769.306640625,19716.421875,9592.3740234375,11681.7158203125,23053.48828125,29345.353515625,21832.78515625,19473.234375,21337.66796875,7015.86376953125,28909.841796875,391.0064697265625,0.0,890.0960083007812,13792.5146484375,6624.06298828125,25670.529296875,16365.8466796875,14946.4609375,24629.435546875,9132.2255859375,13983.25,8448.759765625,3592.968017578125,22869.109375,9399.2548828125,16899.904296875,11624.4951171875,8707.8408203125,12110.869140625,12026.6279296875,1545.7471923828125,10153.453125,3212.29296875,16665.458984375,6322.86083984375,7297.19775390625,1445.611328125,11123.021484375,4633.26806640625,23930.8671875,4223.18798828125,17699.400390625,3521.4423828125,9146.53125,26345.25390625,21319.388671875,11938.4130859375,-0.0,-44426.91796875,19613.900390625,5374.74951171875,0.0,7289.2509765625,0.0,0.0
14638.900390625,14528.43359375,33043.22265625,11716.68359375,28123.85546875,6339.5498046875,8037.09033203125,9106.794921875,9087.7216796875,6640.75244140625,17943.3828125,-1322.4283447265625,8675.2578125,0.0,22800.763671875,7002.353515625,24767.716796875,19712.447265625,9587.60546875,11670.58984375,23050.30859375,29344.55859375,21824.8359375,19470.056640625,21333.6953125,7024.6064453125,28901.896484375,389.4170227050781,0.0,894.8643798828125,13789.3359375,6625.65234375,25669.732421875,16365.05078125,14940.1025390625,24627.05078125,9123.484375,13978.4814453125,8450.3486328125,3581.047119140625,22861.162109375,9402.4345703125,16890.3671875,11620.521484375,8699.099609375,12104.51171875,12013.1181640625,1549.720703125,10154.2470703125,3217.856201171875,16658.306640625,6318.88720703125,7296.4033203125,1451.9691162109375,11112.6904296875,4641.21484375,23930.8671875,4223.982421875,17689.86328125,3515.08447265625,9145.736328125,26338.896484375,21313.03125,11917.75,-0.0,-44422.1484375,19602.775390625,5368.3916015625,0.0,7277.330078125,0.0,0.0
14620.6220703125,14514.12890625,33045.609375,11696.8154296875,28120.67578125,6320.4765625,8033.1162109375,9101.2314453125,9086.1318359375,6634.39404296875,17933.845703125,-1327.19677734375,8677.6416015625,0.0,22799.173828125,6998.38037109375,24760.564453125,19705.294921875,9582.8369140625,11666.615234375,23043.951171875,29335.021484375,21819.2734375,19462.109375,21333.6953125,7005.53271484375,28895.537109375,378.2908020019531,0.0,896.453857421875,13782.978515625,6612.14208984375,25662.580078125,16356.3095703125,14935.333984375,24616.71875,9118.7158203125,13972.123046875,8434.455078125,3592.17333984375,22858.77734375,9386.5390625,16884.0078125,11610.984375,8695.919921875,12099.7431640625,12023.44921875,1544.1575927734375,10152.6572265625,3196.3984375,16655.126953125,6311.73486328125,7288.4560546875,1451.1744384765625,11107.126953125,4629.2939453125,23929.27734375,4220.0087890625,17690.658203125,3513.4951171875,9130.63671875,26332.537109375,21308.263671875,11915.3662109375,-0.0,-44421.35546875,19606.748046875,5355.67626953125,0.0,7272.5615234375,0.0,0.0
