15706.220703125,15471.7763671875,33674.23828125,11601.4482421875,28316.1796875,6784.59765625,8234.18359375,9348.392578125,9103.6162109375,6164.70947265625,17457.8046875,150.99842834472656,8815.12890625,0.0,22726.05859375,7150.17333984375,24980.703125,20095.505859375,9768.0087890625,11660.2578125,23230.7109375,29631.45703125,22706.189453125,19749.798828125,21291.57421875,7375.8759765625,29204.6875,786.7813110351562,0.0,1688.79833984375,14189.8798828125,7120.76806640625,26001.9296875,16452.470703125,15381.97265625,24984.677734375,9528.0009765625,14255.046875,8810.361328125,4396.4384765625,22881.03125,9576.4794921875,17126.40234375,11789.00390625,8984.40625,12254.71484375,11830.330078125,2864.99658203125,10302.861328125,3425.2802734375,16760.826171875,6471.47509765625,8213.5205078125,2975.4638671875,11223.1572265625,5258.71875,23831.525390625,4362.26513671875,17948.150390625,3494.421630859375,9799.7978515625,26567.77734375,21431.4453125,11738.140625,-0.0,-44010.48046875,19416.80859375,4470.34814453125,0.0,7142.2255859375,0.0,0.0
15703.04296875,15474.16015625,33650.3984375,11601.4482421875,28295.517578125,6783.0087890625,8223.056640625,9346.802734375,9098.052734375,6163.9150390625,17429.193359375,158.15098571777344,8808.7724609375,0.0,22718.111328125,7149.37841796875,24973.55078125,20089.9453125,9761.6513671875,11658.6689453125,23219.5859375,29629.865234375,22699.83203125,19749.005859375,21250.248046875,7379.85009765625,29172.1015625,785.986572265625,0.0,1700.71923828125,14183.521484375,7114.41015625,25989.21484375,16448.498046875,15372.435546875,24983.8828125,9519.259765625,14251.8681640625,8796.0556640625,4400.412109375,22855.599609375,9574.890625,17108.91796875,11787.4140625,8976.4599609375,12253.9208984375,11795.361328125,2871.354248046875,10266.3037109375,3427.66455078125,16748.109375,6468.2958984375,8203.9833984375,2999.3056640625,11215.2099609375,5273.02392578125,23821.1953125,4365.4443359375,17943.3828125,3493.626953125,9799.00390625,26564.59765625,21429.0625,11738.140625,-0.0,-44005.7109375,19412.8359375,4470.34814453125,0.0,7143.0205078125,0.0,0.0
15700.6591796875,15463.8291015625,33652.78125,11603.83203125,28293.927734375,6783.0087890625,8220.6728515625,9347.59765625,9092.490234375,6163.1201171875,17443.498046875,156.56153869628906,8817.513671875,0.0,22716.521484375,7150.96826171875,24973.55078125,20092.328125,9762.4462890625,11656.2841796875,23219.5859375,29627.482421875,22698.244140625,19751.390625,21258.990234375,7379.05517578125,29164.94921875,786.7813110351562,0.0,1703.1033935546875,14185.111328125,7112.8212890625,25990.8046875,16450.0859375,15373.23046875,24984.677734375,9517.669921875,14251.8681640625,8792.0830078125,4402.001953125,22857.984375,9573.30078125,17107.328125,11785.8251953125,8974.8701171875,12253.125,11806.48828125,2876.122802734375,10262.330078125,3422.896240234375,16746.521484375,6468.2958984375,8207.162109375,3008.842529296875,11233.4892578125,5268.255859375,23821.1953125,4370.21240234375,17940.203125,3496.010986328125,9799.7978515625,26565.392578125,21429.857421875,11730.1943359375,-0.0,-44001.73828125,19409.65625,4467.96435546875,0.0,7139.04736328125,0.0,0.0
15697.4794921875,15459.85546875,33654.375,11596.6796875,28299.490234375,6782.2138671875,8227.0302734375,9351.5712890625,9089.310546875,6165.50439453125,17453.828125,152.587890625,8814.3349609375,0.0,22720.49609375,7155.736328125,24971.166015625,20093.123046875,9767.21484375,11657.0791015625,23219.5859375,29630.66015625,22699.83203125,19752.978515625,21268.525390625,7375.8759765625,29177.666015625,787.5760498046875,0.0,1697.540283203125,14184.3154296875,7109.64208984375,25993.189453125,16446.11328125,15375.6142578125,24986.267578125,9518.4638671875,14255.8408203125,8793.671875,4393.259765625,22860.369140625,9572.505859375,17114.48046875,11790.5927734375,8977.25390625,12254.71484375,11817.6142578125,2870.5595703125,10270.2783203125,3422.896240234375,16750.494140625,6471.47509765625,8203.9833984375,3005.66357421875,11239.8466796875,5259.513671875,23821.1953125,4374.18603515625,17942.5859375,3496.010986328125,9795.029296875,26569.3671875,21432.2421875,11727.8095703125,-0.0,-44005.7109375,19409.65625,4465.580078125,0.0,7140.63623046875,0.0,0.0
15687.9423828125,15467.0078125,33647.21875,11596.6796875,28297.900390625,6788.57177734375,8229.4150390625,9357.9296875,9089.310546875,6167.09375,17441.908203125,156.56153869628906,8800.82421875,0.0,22720.49609375,7163.68359375,24967.98828125,20092.328125,9771.1875,11658.6689453125,23217.201171875,29629.072265625,22701.421875,19757.748046875,21252.6328125,7377.4658203125,29187.998046875,793.933837890625,0.0,1697.540283203125,14182.7265625,7107.2578125,25986.037109375,16443.728515625,15374.8193359375,24989.447265625,9514.4912109375,14260.609375,8788.9033203125,4393.259765625,22856.39453125,9573.30078125,17116.0703125,11797.74609375,8978.048828125,12257.8935546875,11803.3095703125,2872.94384765625,10263.125,3428.459228515625,16755.26171875,6477.8330078125,8193.65234375,3001.68994140625,11218.388671875,5265.87158203125,23805.298828125,4382.13330078125,17942.5859375,3500.779296875,9793.4404296875,26572.546875,21434.625,11727.015625,-0.0,-44007.30078125,19412.8359375,4444.9169921875,0.0,7142.2255859375,0.0,0.0
15682.37890625,15470.9814453125,33646.421875,11602.2421875,28304.2578125,6794.134765625,8237.3623046875,9366.671875,9090.1064453125,6167.888671875,17437.138671875,157.35626220703125,8795.26171875,0.0,22722.87890625,7182.7568359375,24971.166015625,20097.09765625,9776.751953125,11660.2578125,23220.380859375,29630.66015625,22706.986328125,19763.310546875,21260.580078125,7379.05517578125,29191.17578125,803.4705810546875,0.0,1698.3350830078125,14185.111328125,7106.462890625,25988.419921875,16446.11328125,15377.998046875,24994.21484375,9518.4638671875,14267.76171875,8791.287109375,4398.02783203125,22857.984375,9575.6845703125,17124.810546875,11804.8984375,8985.2021484375,12265.841796875,11799.3359375,2877.712158203125,10267.0986328125,3434.022216796875,16764.005859375,6491.34326171875,8194.4462890625,2997.71630859375,11219.18359375,5270.64013671875,23806.890625,4389.2861328125,17946.5625,3513.4951171875,9794.2353515625,26578.107421875,21440.982421875,11723.0419921875,-0.0,-44004.91796875,19410.451171875,4436.9697265625,0.0,7124.7421875,0.0,0.0
15681.5849609375,15471.7763671875,33649.60546875,11601.4482421875,28305.0546875,6790.9560546875,8242.9248046875,9367.4658203125,9098.84765625,6175.8359375,17441.115234375,156.56153869628906,8803.2080078125,0.0,22728.443359375,7170.04150390625,24968.783203125,20098.685546875,9779.9296875,11669.0,23220.380859375,29625.892578125,22710.958984375,19763.310546875,21261.373046875,7373.49169921875,29187.203125,801.8811645507812,0.0,1691.1824951171875,14184.3154296875,7104.07861328125,25986.830078125,16442.93359375,15377.998046875,24992.625,9523.232421875,14272.5302734375,8787.314453125,4392.46533203125,22860.369140625,9574.095703125,17129.580078125,11800.9248046875,8993.1484375,12269.0205078125,11800.9248046875,2872.149169921875,10272.662109375,3429.25390625,16770.36328125,6491.34326171875,8188.8837890625,2999.3056640625,11224.7470703125,5268.255859375,23825.16796875,4382.13330078125,17954.5078125,3512.700439453125,9793.4404296875,26579.69921875,21445.751953125,11734.16796875,-0.0,-44001.73828125,19412.041015625,4470.34814453125,0.0,7132.68896484375,0.0,0.0
15673.6376953125,15470.1875,33648.015625,11603.83203125,28295.517578125,6788.57177734375,8230.208984375,9360.3134765625,9103.6162109375,6177.42529296875,17435.55078125,155.7667999267578,8809.56640625,0.0,22724.470703125,7150.17333984375,24967.193359375,20089.9453125,9775.9560546875,11668.205078125,23213.228515625,29624.3046875,22706.986328125,19760.1328125,21247.068359375,7371.90234375,29177.666015625,793.933837890625,0.0,1693.566650390625,14178.7529296875,7100.900390625,25982.060546875,16442.93359375,15373.23046875,24989.447265625,9516.875,14267.76171875,8780.162109375,4400.412109375,22852.419921875,9574.095703125,17118.453125,11796.1572265625,8989.1748046875,12265.841796875,11795.361328125,2867.380859375,10270.2783203125,3422.896240234375,16749.701171875,6484.1904296875,8171.39892578125,2997.71630859375,11214.416015625,5267.46142578125,23836.294921875,4370.21240234375,17948.9453125,3500.779296875,9790.26171875,26574.134765625,21443.3671875,11738.9365234375,-0.0,-44003.328125,19418.3984375,4479.09033203125,0.0,7146.19970703125,0.0,0.0
15672.841796875,15465.4189453125,33657.55078125,11605.421875,28296.3125,6796.51904296875,8228.619140625,9364.287109375,9111.5634765625,6176.63037109375,17441.115234375,158.9457244873047,8805.5927734375,0.0,22722.0859375,7152.5576171875,24971.166015625,20089.150390625,9779.1357421875,11665.8212890625,23217.201171875,29629.072265625,22709.369140625,19761.720703125,21251.04296875,7377.4658203125,29180.845703125,797.9075317382812,0.0,1697.540283203125,14181.13671875,7104.07861328125,25986.830078125,16449.29296875,15374.0244140625,24993.419921875,9516.875,14268.5576171875,8785.724609375,4409.94873046875,22854.8046875,9580.453125,17118.453125,11801.7197265625,8989.9697265625,12268.2255859375,11804.103515625,2871.354248046875,10271.072265625,3426.86962890625,16748.109375,6486.57470703125,8164.24658203125,2996.921630859375,11216.00390625,5271.4345703125,23829.9375,4374.18603515625,17947.35546875,3503.95849609375,9788.6728515625,26574.9296875,21443.3671875,11738.140625,-0.0,-44004.91796875,19421.578125,4483.06396484375,0.0,7145.40478515625,0.0,0.0
15670.4580078125,15443.166015625,33649.60546875,11593.5009765625,28290.748046875,6790.1611328125,8226.2353515625,9357.134765625,9111.5634765625,6169.47802734375,17436.345703125,148.61424255371094,8800.029296875,0.0,22718.111328125,7146.994140625,24964.80859375,20085.17578125,9774.3671875,11661.8466796875,23210.048828125,29621.919921875,22703.806640625,19756.158203125,21247.068359375,7371.90234375,29174.486328125,790.7549438476562,0.0,1689.593017578125,14177.1630859375,7103.2841796875,25982.857421875,16442.140625,15365.283203125,24987.0625,9511.3115234375,14262.19921875,8789.6982421875,4398.82275390625,22849.2421875,9574.890625,17112.890625,11796.1572265625,8986.791015625,12261.8671875,11801.7197265625,2866.5859375,10262.330078125,3421.306640625,16748.109375,6478.62744140625,8165.83642578125,2992.153076171875,11210.44140625,5263.4873046875,23821.1953125,4364.6494140625,17944.970703125,3499.98486328125,9781.51953125,26568.5703125,21437.009765625,11734.16796875,-0.0,-44008.890625,19408.861328125,4482.26953125,0.0,7141.43115234375,0.0,0.0
15672.048828125,15436.013671875,33641.65625,11586.3486328125,28282.80078125,6786.98193359375,8218.2880859375,9352.3662109375,9109.9736328125,6164.70947265625,17429.986328125,145.43533325195312,8800.029296875,0.0,22714.138671875,7146.19970703125,24960.8359375,20078.81640625,9767.21484375,11657.0791015625,23205.28125,29616.35546875,22699.83203125,19750.595703125,21239.916015625,7370.31298828125,29160.181640625,787.5760498046875,0.0,1685.619384765625,14172.39453125,7100.10546875,25978.8828125,16436.576171875,15359.7197265625,24981.498046875,9504.1591796875,14257.4306640625,8788.1083984375,4394.84912109375,22844.47265625,9571.7119140625,17104.1484375,11793.7724609375,8982.0224609375,12255.509765625,11795.361328125,2859.433349609375,10252.79296875,3420.511962890625,16741.751953125,6473.859375,8170.6044921875,2992.94775390625,11208.0576171875,5259.513671875,23816.427734375,4359.880859375,17940.998046875,3495.21630859375,9779.9296875,26562.21484375,21430.650390625,11731.7841796875,-0.0,-44011.27734375,19403.298828125,4476.7060546875,0.0,7137.45751953125,0.0,0.0
15670.4580078125,15449.5234375,33650.3984375,11589.52734375,28285.98046875,6793.34033203125,8215.904296875,9356.33984375,9116.33203125,6165.50439453125,17422.833984375,154.17735290527344,8801.619140625,0.0,22706.986328125,7155.736328125,24964.013671875,20081.99609375,9767.21484375,11660.2578125,23210.84375,29621.125,22700.62890625,19754.568359375,21244.68359375,7379.85009765625,29157.796875,796.3180541992188,0.0,1689.593017578125,14176.369140625,7101.69482421875,25982.060546875,16440.55078125,15361.30859375,24984.677734375,9505.7490234375,14261.4052734375,8790.4931640625,4397.2333984375,22850.037109375,9579.658203125,17106.533203125,11800.9248046875,8982.0224609375,12259.4833984375,11796.1572265625,2855.4599609375,10256.767578125,3429.25390625,16738.572265625,6481.80615234375,8176.16748046875,2991.3583984375,11211.236328125,5267.46142578125,23814.8359375,4369.41748046875,17933.845703125,3499.190185546875,9785.4931640625,26563.009765625,21433.03515625,11738.140625,-0.0,-44005.7109375,19408.068359375,4473.52734375,0.0,7140.63623046875,0.0,0.0
15700.6591796875,15472.5712890625,33657.55078125,11595.8857421875,28292.337890625,6802.08203125,8223.056640625,9364.287109375,9128.2529296875,6174.24609375,17427.603515625,162.9193572998047,8806.3876953125,0.0,22710.958984375,7165.27294921875,24973.55078125,20086.765625,9773.572265625,11668.205078125,23217.99609375,29627.482421875,22708.57421875,19763.310546875,21251.8359375,7388.591796875,29165.744140625,803.4705810546875,0.0,1692.77197265625,14183.521484375,7112.0263671875,25990.8046875,16450.8828125,15370.0517578125,24992.625,9513.6953125,14266.9677734375,8798.4404296875,4402.79638671875,22857.984375,9586.0166015625,17112.890625,11810.4619140625,8991.55859375,12265.0458984375,11802.513671875,2859.433349609375,10267.8935546875,3439.58544921875,16744.13671875,6490.548828125,8192.8564453125,3001.68994140625,11219.18359375,5277.79248046875,23818.015625,4382.92822265625,17939.41015625,3511.90576171875,9791.8505859375,26570.955078125,21440.1875,11747.677734375,-0.0,-43997.765625,19415.220703125,4481.474609375,0.0,7146.19970703125,0.0,0.0
15703.04296875,15481.3125,33655.9609375,11601.4482421875,28294.720703125,6802.876953125,8223.056640625,9360.3134765625,9132.2255859375,6173.45166015625,17432.37109375,162.9193572998047,8805.5927734375,0.0,22711.75390625,7155.736328125,24975.140625,20086.765625,9772.77734375,11668.205078125,23218.791015625,29628.27734375,22709.369140625,19760.1328125,21251.8359375,7385.41259765625,29167.333984375,799.4969482421875,0.0,1695.9508056640625,14184.3154296875,7111.2314453125,25993.982421875,16452.470703125,15370.845703125,24991.830078125,9510.517578125,14262.994140625,8799.2353515625,4402.001953125,22859.57421875,9585.2216796875,17112.09765625,11806.48828125,8993.1484375,12263.45703125,11810.4619140625,2863.4072265625,10270.2783203125,3436.406494140625,16743.341796875,6487.36962890625,8202.3935546875,3006.458251953125,11217.59375,5280.1767578125,23818.015625,4380.5439453125,17940.998046875,3506.342529296875,9791.056640625,26568.5703125,21437.009765625,11747.677734375,-0.0,-43996.97265625,19412.041015625,4482.26953125,0.0,7146.994140625,0.0,0.0
15700.6591796875,15478.9287109375,33659.140625,11595.8857421875,28296.3125,6798.90283203125,8222.2626953125,9357.9296875,9136.994140625,6169.47802734375,17429.986328125,156.56153869628906,8808.7724609375,0.0,22712.548828125,7151.7626953125,24970.373046875,20085.970703125,9772.77734375,11665.8212890625,23220.380859375,29625.09765625,22710.1640625,19756.158203125,21256.60546875,7383.8232421875,29168.12890625,797.11279296875,0.0,1694.361328125,14181.931640625,7108.84716796875,25991.59765625,16450.8828125,15370.845703125,24989.447265625,9507.3388671875,14261.4052734375,8809.56640625,4394.05419921875,22861.162109375,9585.2216796875,17111.30078125,11803.3095703125,8993.1484375,12262.662109375,11816.8193359375,2860.228271484375,10271.8671875,3430.84326171875,16743.341796875,6484.9853515625,8200.009765625,3001.68994140625,11211.236328125,5276.998046875,23814.04296875,4378.16015625,17943.3828125,3499.98486328125,9787.0830078125,26566.982421875,21434.625,11747.677734375,-0.0,-44002.53125,19414.42578125,4479.09033203125,0.0,7145.40478515625,0.0,0.0
15714.9638671875,15479.7236328125,33663.11328125,11596.6796875,28301.875,6800.49267578125,8224.646484375,9360.3134765625,9147.326171875,6172.6572265625,17440.318359375,159.74044799804688,8811.951171875,0.0,22715.7265625,7157.32568359375,24973.55078125,20083.5859375,9773.572265625,11669.794921875,23221.96875,29625.892578125,22714.93359375,19757.748046875,21263.7578125,7386.20751953125,29172.1015625,801.08642578125,0.0,1699.9244384765625,14185.111328125,7115.205078125,25994.77734375,16450.8828125,15374.0244140625,24989.447265625,9509.72265625,14263.7890625,8806.3876953125,4384.517578125,22866.7265625,9583.6328125,17116.865234375,11804.103515625,8995.533203125,12264.251953125,11823.177734375,2861.817626953125,10279.814453125,3434.022216796875,16748.904296875,6489.75390625,8205.5732421875,3003.279541015625,11216.7998046875,5269.845703125,23818.810546875,4377.365234375,17944.970703125,3503.16357421875,9798.208984375,26570.162109375,21437.802734375,11754.830078125,-0.0,-43999.35546875,19417.603515625,4478.2958984375,0.0,7146.994140625,0.0,0.0
15714.1689453125,15475.75,33659.140625,11595.8857421875,28298.697265625,6795.724609375,8220.6728515625,9357.134765625,9147.326171875,6169.47802734375,17445.8828125,156.56153869628906,8796.8515625,0.0,22711.75390625,7154.146484375,24969.578125,20083.5859375,9768.8037109375,11667.4111328125,23219.5859375,29619.53515625,22711.75390625,19753.775390625,21262.16796875,7379.05517578125,29169.71875,798.7022705078125,0.0,1699.9244384765625,14181.13671875,7114.41015625,25990.8046875,16447.703125,15371.640625,24984.677734375,9504.1591796875,14259.0205078125,8802.4140625,4392.46533203125,22862.751953125,9575.6845703125,17113.685546875,11800.1298828125,8992.3544921875,12258.6884765625,11818.4091796875,2869.76513671875,10275.8408203125,3434.022216796875,16744.931640625,6486.57470703125,8207.162109375,3000.100341796875,11219.18359375,5264.2822265625,23819.60546875,4372.5966796875,17941.79296875,3499.98486328125,9799.00390625,26566.982421875,21433.03515625,11750.0615234375,-0.0,-44002.53125,19414.42578125,4476.7060546875,0.0,7145.40478515625,0.0,0.0
15696.68359375,15458.2666015625,33646.421875,11582.375,28289.953125,6786.1875,8211.1357421875,9345.2138671875,9140.173828125,6158.35205078125,17441.115234375,148.61424255371094,8780.9560546875,0.0,22704.6015625,7141.43115234375,24957.65625,20074.84375,9759.2666015625,11656.2841796875,23208.458984375,29610.79296875,22701.421875,19742.646484375,21258.1953125,7368.7236328125,29159.38671875,788.3707885742188,0.0,1691.1824951171875,14170.8056640625,7102.4892578125,25980.47265625,16435.78125,15360.5146484375,24973.55078125,9493.033203125,14247.099609375,8788.9033203125,4389.2861328125,22853.216796875,9565.353515625,17102.560546875,11791.388671875,8982.8173828125,12245.97265625,11807.2822265625,2865.791259765625,10268.6884765625,3426.86962890625,16733.8046875,6473.064453125,8198.4208984375,2985.795166015625,11215.2099609375,5257.1298828125,23809.275390625,4359.880859375,17931.4609375,3488.8583984375,9780.724609375,26556.650390625,21421.11328125,11738.9365234375,-0.0,-44011.27734375,19402.50390625,4463.19580078125,0.0,7133.48388671875,0.0,0.0
15697.4794921875,15455.0869140625,33648.80859375,11586.3486328125,28293.927734375,6793.34033203125,8217.494140625,9353.1611328125,9152.8896484375,6166.29931640625,17444.29296875,153.3826141357422,8786.51953125,0.0,22710.958984375,7147.7890625,24961.62890625,20078.81640625,9765.625,11665.8212890625,23213.228515625,29617.150390625,22709.369140625,19751.390625,21258.990234375,7377.4658203125,29166.541015625,795.5233154296875,0.0,1698.3350830078125,14175.57421875,7104.87353515625,25982.857421875,16439.755859375,15366.8720703125,24981.498046875,9500.185546875,14253.45703125,8798.4404296875,4394.05419921875,22857.984375,9572.505859375,17108.91796875,11799.3359375,8991.55859375,12253.9208984375,11810.4619140625,2872.149169921875,10270.2783203125,3435.61181640625,16743.341796875,6478.62744140625,8198.4208984375,2988.974365234375,11212.03125,5270.64013671875,23814.8359375,4364.6494140625,17939.41015625,3497.6005859375,9780.724609375,26564.59765625,21427.47265625,11752.4462890625,-0.0,-44008.890625,19410.451171875,4467.96435546875,0.0,7143.0205078125,0.0,0.0
15701.4521484375,15464.623046875,33651.19140625,11587.142578125,28297.10546875,6798.1083984375,8225.44140625,9360.3134765625,9158.4521484375,6173.45166015625,17445.8828125,155.7667999267578,8793.671875,0.0,22715.7265625,7157.32568359375,24964.80859375,20080.408203125,9772.77734375,11671.3837890625,23214.81640625,29624.3046875,22714.138671875,19758.54296875,21249.453125,7383.0283203125,29176.076171875,800.2916870117188,0.0,1701.513916015625,14177.9580078125,7108.052734375,25985.240234375,16442.140625,15372.435546875,24989.447265625,9508.1328125,14260.609375,8806.3876953125,4397.2333984375,22854.8046875,9577.2744140625,17115.275390625,11805.693359375,8997.123046875,12260.27734375,11809.6669921875,2873.738525390625,10271.072265625,3439.58544921875,16750.494140625,6486.57470703125,8198.4208984375,2988.974365234375,11206.4677734375,5284.150390625,23820.400390625,4371.8017578125,17946.5625,3503.95849609375,9786.2880859375,26570.162109375,21433.830078125,11759.5986328125,-0.0,-44009.68359375,19410.451171875,4476.7060546875,0.0,7147.7890625,0.0,0.0
15703.04296875,15470.1875,33658.34375,11592.7060546875,28306.642578125,6798.1083984375,8232.59375,9362.697265625,9161.6318359375,6176.63037109375,17446.67578125,161.3299102783203,8812.7451171875,0.0,22719.701171875,7159.7099609375,24969.578125,20087.560546875,9777.5458984375,11674.5634765625,23221.173828125,29627.482421875,22718.90625,19761.720703125,21252.6328125,7385.41259765625,29191.17578125,801.8811645507812,0.0,1698.3350830078125,14181.931640625,7108.052734375,25990.8046875,16446.11328125,15377.2041015625,24994.21484375,9514.4912109375,14263.7890625,8796.8515625,4399.61767578125,22864.341796875,9578.8642578125,17126.40234375,11809.6669921875,9001.8916015625,12263.45703125,11814.4345703125,2872.149169921875,10283.7880859375,3437.201171875,16758.44140625,6487.36962890625,8196.0361328125,2996.126953125,11226.3369140625,5287.3291015625,23815.6328125,4377.365234375,17949.740234375,3507.13720703125,9790.26171875,26575.724609375,21439.39453125,11761.1884765625,-0.0,-44001.73828125,19416.013671875,4482.26953125,0.0,7151.7626953125,0.0,0.0
15709.400390625,15471.7763671875,33665.49609375,11602.2421875,28316.1796875,6801.287109375,8239.74609375,9368.2607421875,9166.400390625,6182.98876953125,17442.703125,169.27719116210938,8807.1826171875,0.0,22724.470703125,7166.0673828125,24975.935546875,20094.712890625,9785.4931640625,11681.7158203125,23227.533203125,29629.865234375,22725.263671875,19768.873046875,21261.373046875,7374.28662109375,29204.6875,806.6495361328125,0.0,1703.8980712890625,14190.673828125,7113.61572265625,25996.3671875,16453.265625,15383.5615234375,24998.982421875,9524.02734375,14273.326171875,8802.4140625,4399.61767578125,22871.494140625,9582.04296875,17136.732421875,11812.845703125,9008.248046875,12268.2255859375,11820.79296875,2878.5068359375,10279.01953125,3434.022216796875,16764.798828125,6492.1376953125,8203.1884765625,3011.2265625,11233.4892578125,5288.9189453125,23809.275390625,4385.3125,17956.09765625,3515.08447265625,9799.7978515625,26580.4921875,21445.751953125,11765.95703125,-0.0,-43989.01953125,19423.166015625,4488.626953125,0.0,7158.9150390625,0.0,0.0
15704.6318359375,15459.85546875,33663.91015625,11598.26953125,28321.7421875,6798.1083984375,8243.7197265625,9369.0556640625,9164.810546875,6182.98876953125,17430.783203125,167.68772888183594,8795.26171875,0.0,22727.6484375,7167.6572265625,24974.345703125,20096.302734375,9785.4931640625,11682.5107421875,23225.943359375,29633.044921875,22726.853515625,19768.873046875,21267.732421875,7382.23388671875,29203.095703125,805.06005859375,0.0,1701.513916015625,14189.083984375,7110.43701171875,25996.3671875,16450.8828125,15386.740234375,24999.77734375,9526.412109375,14274.1201171875,8800.029296875,4392.46533203125,22873.87890625,9582.8369140625,17144.6796875,11812.05078125,9009.837890625,12267.4306640625,11808.8720703125,2873.738525390625,10274.2509765625,3430.048583984375,16768.7734375,6492.1376953125,8199.21484375,3008.0478515625,11224.7470703125,5284.150390625,23816.427734375,4389.2861328125,17956.892578125,3513.4951171875,9797.4140625,26582.08203125,21445.751953125,11764.3671875,-0.0,-43989.8203125,19423.166015625,4486.24267578125,0.0,7156.53076171875,0.0,0.0
15692.7109375,15458.2666015625,33661.52734375,11596.6796875,28320.154296875,6797.3134765625,8242.9248046875,9367.4658203125,9157.6572265625,6176.63037109375,17425.21875,164.50881958007812,8796.0556640625,0.0,22723.673828125,7169.24658203125,24971.962890625,20097.890625,9783.904296875,11677.7421875,23225.1484375,29632.25,22722.87890625,19766.48828125,21270.1171875,7378.26025390625,29180.845703125,804.2653198242188,0.0,1702.30859375,14186.7001953125,7108.052734375,25993.189453125,16448.498046875,15385.1513671875,24998.1875,9524.02734375,14270.146484375,8796.0556640625,4394.84912109375,22869.90625,9580.453125,17141.5,11811.2568359375,9006.6591796875,12265.841796875,11800.9248046875,2871.354248046875,10271.8671875,3431.637939453125,16766.390625,6489.75390625,8187.2939453125,2996.126953125,11217.59375,5282.56103515625,23819.60546875,4391.67041015625,17955.302734375,3507.13720703125,9786.2880859375,26580.4921875,21443.3671875,11758.8046875,-0.0,-43992.203125,19417.603515625,4476.7060546875,0.0,7150.96826171875,0.0,0.0
15689.53125,15464.623046875,33655.9609375,11587.9375,28301.080078125,6792.54541015625,8225.44140625,9361.107421875,9150.5048828125,6169.47802734375,17440.318359375,162.9193572998047,8802.4140625,0.0,22717.318359375,7163.68359375,24966.3984375,20087.560546875,9775.162109375,11669.0,23219.5859375,29625.892578125,22712.548828125,19760.927734375,21267.732421875,7377.4658203125,29164.94921875,800.2916870117188,0.0,1700.71923828125,14181.13671875,7108.052734375,25989.21484375,16443.728515625,15373.23046875,24992.625,9513.6953125,14263.7890625,8797.6455078125,4405.9755859375,22861.95703125,9576.4794921875,17119.25,11804.103515625,8993.943359375,12260.27734375,11803.3095703125,2867.380859375,10276.634765625,3426.074951171875,16749.701171875,6484.1904296875,8181.7314453125,2989.76904296875,11208.0576171875,5282.56103515625,23823.580078125,4386.10693359375,17949.740234375,3498.395263671875,9779.9296875,26572.546875,21437.009765625,11751.6513671875,-0.0,-43992.203125,19416.80859375,4470.34814453125,0.0,7139.841796875,0.0,0.0
15691.9150390625,15468.59765625,33662.3203125,11595.08984375,28296.3125,6797.3134765625,8223.8515625,9362.697265625,9147.326171875,6171.8623046875,17454.625,170.07191467285156,8817.513671875,0.0,22718.90625,7164.478515625,24971.962890625,20085.970703125,9775.9560546875,11672.1796875,23221.173828125,29633.044921875,22710.958984375,19762.515625,21258.1953125,7387.00244140625,29166.541015625,801.8811645507812,0.0,1703.1033935546875,14185.111328125,7113.61572265625,25994.77734375,16450.0859375,15374.0244140625,24997.392578125,9513.6953125,14265.3779296875,8805.5927734375,4409.154296875,22862.751953125,9582.8369140625,17116.0703125,11808.078125,8993.1484375,12262.662109375,11821.587890625,2871.354248046875,10273.45703125,3430.048583984375,16748.109375,6485.7802734375,8188.8837890625,3001.68994140625,11214.416015625,5285.73974609375,23824.373046875,4387.69677734375,17949.740234375,3499.98486328125,9788.6728515625,26575.724609375,21439.39453125,11753.2412109375,-0.0,-43988.2265625,19417.603515625,4477.5009765625,0.0,7141.43115234375,0.0,0.0
15674.4326171875,15443.166015625,33663.11328125,11596.6796875,28291.544921875,6797.3134765625,8222.2626953125,9362.697265625,9137.7900390625,6171.06787109375,17453.828125,166.89300537109375,8821.4873046875,0.0,22720.49609375,7170.04150390625,24971.166015625,20082.79296875,9773.572265625,11670.58984375,23218.791015625,29633.044921875,22703.806640625,19760.927734375,21261.373046875,7389.38671875,29167.333984375,801.08642578125,0.0,1704.69287109375,14182.7265625,7109.64208984375,25993.189453125,16449.29296875,15369.255859375,24996.599609375,9512.9013671875,14262.994140625,8803.2080078125,4401.20703125,22861.162109375,9585.2216796875,17112.890625,11807.2822265625,8989.1748046875,12261.0732421875,11827.1513671875,2861.02294921875,10288.5556640625,3432.432861328125,16747.31640625,6487.36962890625,8192.0625,3003.279541015625,11225.541015625,5277.79248046875,23823.580078125,4390.0810546875,17946.5625,3503.16357421875,9789.466796875,26572.546875,21436.21484375,11748.4736328125,-0.0,-43992.99609375,19404.09375,4472.732421875,0.0,7139.04736328125,0.0,0.0
15672.841796875,15421.7080078125,33657.55078125,11595.8857421875,28293.1328125,6792.54541015625,8223.8515625,9359.5185546875,9129.0478515625,6174.24609375,17442.703125,159.74044799804688,8804.00390625,0.0,22722.0859375,7166.8623046875,24968.783203125,20077.228515625,9771.9833984375,11669.794921875,23214.81640625,29629.072265625,22697.44921875,19756.953125,21254.220703125,7386.20751953125,29166.541015625,798.7022705078125,0.0,1699.1297607421875,14181.13671875,7100.10546875,25988.419921875,16448.498046875,15365.283203125,24995.0078125,9509.72265625,14259.8154296875,8792.876953125,4395.6435546875,22859.57421875,9582.8369140625,17112.09765625,11801.7197265625,8982.0224609375,12261.8671875,11819.9990234375,2854.6650390625,10280.609375,3429.25390625,16747.31640625,6484.9853515625,8188.8837890625,2994.537353515625,11217.59375,5270.64013671875,23822.78515625,4387.69677734375,17946.5625,3505.5478515625,9782.314453125,26567.77734375,21434.625,11746.0888671875,-0.0,-44001.73828125,19404.888671875,4467.96435546875,0.0,7140.63623046875,0.0,0.0
15683.173828125,15443.166015625,33659.93359375,11600.6533203125,28295.517578125,6794.134765625,8223.8515625,9361.9033203125,9123.484375,6179.8095703125,17436.345703125,158.15098571777344,8792.0830078125,0.0,22718.90625,7171.630859375,24973.55078125,20076.43359375,9771.9833984375,11672.9736328125,23217.201171875,29632.25,22693.4765625,19758.54296875,21251.8359375,7385.41259765625,29166.541015625,799.4969482421875,0.0,1706.2822265625,14181.931640625,7104.07861328125,25990.8046875,16451.677734375,15367.6669921875,24998.1875,9510.517578125,14262.19921875,8788.9033203125,4401.20703125,22859.57421875,9582.8369140625,17112.890625,11800.9248046875,8982.8173828125,12266.6357421875,11820.79296875,2868.175537109375,10272.662109375,3431.637939453125,16747.31640625,6488.16455078125,8187.2939453125,2995.33203125,11211.236328125,5273.02392578125,23817.220703125,4386.90185546875,17949.740234375,3511.111083984375,9787.876953125,26568.5703125,21437.802734375,11750.0615234375,-0.0,-44004.91796875,19412.041015625,4475.11669921875,0.0,7143.0205078125,0.0,0.0
15679.994140625,15455.8818359375,33654.375,11607.0107421875,28292.337890625,6792.54541015625,8219.8779296875,9358.7236328125,9112.3583984375,6177.42529296875,17435.55078125,159.74044799804688,8788.9033203125,0.0,22716.521484375,7168.45166015625,24970.373046875,20074.84375,9771.1875,11671.3837890625,23215.61328125,29630.66015625,22687.1171875,19755.36328125,21248.658203125,7384.6181640625,29164.94921875,798.7022705078125,0.0,1714.2296142578125,14179.546875,7102.4892578125,25989.21484375,16448.498046875,15366.0771484375,24995.8046875,9507.3388671875,14261.4052734375,8790.4931640625,4400.412109375,22857.189453125,9582.04296875,17109.712890625,11796.951171875,8977.25390625,12264.251953125,11807.2822265625,2876.91748046875,10264.7138671875,3430.84326171875,16743.341796875,6484.9853515625,8176.16748046875,2995.33203125,11208.0576171875,5277.79248046875,23814.8359375,4384.517578125,17947.35546875,3509.521484375,9787.876953125,26565.392578125,21436.21484375,11746.0888671875,-0.0,-44004.91796875,19411.24609375,4475.91162109375,0.0,7140.63623046875,0.0,0.0
15683.9697265625,15452.7021484375,33649.60546875,11605.421875,28289.16015625,6784.59765625,8216.6982421875,9353.1611328125,9103.6162109375,6175.041015625,17433.166015625,158.15098571777344,8783.3408203125,0.0,22716.521484375,7154.94140625,24968.783203125,20074.84375,9767.21484375,11668.205078125,23213.228515625,29622.712890625,22679.96484375,19747.416015625,21249.453125,7377.4658203125,29162.564453125,789.16552734375,0.0,1699.1297607421875,14176.369140625,7101.69482421875,25986.037109375,16444.525390625,15362.103515625,24988.650390625,9504.1591796875,14255.8408203125,8795.26171875,4390.0810546875,22854.009765625,9574.095703125,17106.533203125,11790.5927734375,8972.4853515625,12258.6884765625,11805.693359375,2876.91748046875,10262.330078125,3422.896240234375,16741.751953125,6477.0380859375,8176.16748046875,2998.510986328125,11194.546875,5279.38232421875,23814.04296875,4371.8017578125,17946.5625,3501.57421875,9789.466796875,26561.41796875,21433.03515625,11743.705078125,-0.0,-44011.27734375,19404.09375,4470.34814453125,0.0,7141.43115234375,0.0,0.0
15695.890625,15451.11328125,33649.60546875,11602.2421875,28288.365234375,6788.57177734375,8217.494140625,9354.7509765625,9102.02734375,6175.041015625,17433.9609375,163.71409606933594,8791.287109375,0.0,22713.341796875,7157.32568359375,24971.166015625,20075.640625,9768.8037109375,11669.794921875,23214.81640625,29627.482421875,22679.169921875,19749.005859375,21245.48046875,7379.05517578125,29162.564453125,789.960205078125,0.0,1682.4404296875,14177.1630859375,7108.052734375,25989.21484375,16446.11328125,15362.8984375,24989.447265625,9503.3642578125,14258.2255859375,8796.0556640625,4393.259765625,22852.419921875,9574.095703125,17108.91796875,11793.7724609375,8974.0751953125,12260.27734375,11805.693359375,2876.91748046875,10259.1513671875,3427.66455078125,16741.751953125,6479.421875,8186.49951171875,2992.94775390625,11198.5205078125,5283.35546875,23813.248046875,4374.18603515625,17943.3828125,3502.368896484375,9795.029296875,26563.009765625,21435.419921875,11740.525390625,-0.0,-44007.30078125,19409.65625,4475.11669921875,0.0,7143.0205078125,0.0,0.0
15703.04296875,15455.8818359375,33650.3984375,11604.626953125,28292.337890625,6797.3134765625,8218.2880859375,9361.9033203125,9102.8212890625,6175.041015625,17437.935546875,169.27719116210938,8796.0556640625,0.0,22710.958984375,7173.22021484375,24975.140625,20079.61328125,9771.9833984375,11671.3837890625,23220.380859375,29633.83984375,22684.732421875,19757.748046875,21244.68359375,7391.77099609375,29164.94921875,801.8811645507812,0.0,1690.3876953125,14181.931640625,7112.0263671875,25991.59765625,16452.470703125,15366.8720703125,24997.392578125,9508.1328125,14262.994140625,8800.82421875,4392.46533203125,22853.216796875,9582.8369140625,17112.890625,11802.513671875,8976.4599609375,12265.841796875,11805.693359375,2876.122802734375,10258.357421875,3441.9697265625,16744.13671875,6488.958984375,8191.26806640625,2977.84814453125,11210.44140625,5291.30322265625,23812.453125,4387.69677734375,17942.5859375,3501.57421875,9792.6455078125,26568.5703125,21440.1875,11740.525390625,-0.0,-44000.1484375,19423.166015625,4463.19580078125,0.0,7139.04736328125,0.0,0.0
15695.0947265625,15451.11328125,33644.8359375,11601.4482421875,28291.544921875,6793.34033203125,8216.6982421875,9359.5185546875,9096.462890625,6171.8623046875,17432.37109375,166.89300537109375,8792.0830078125,0.0,22710.1640625,7179.578125,24972.7578125,20077.228515625,9768.0087890625,11665.8212890625,23217.99609375,29631.45703125,22679.96484375,19754.568359375,21243.095703125,7385.41259765625,29163.361328125,799.4969482421875,0.0,1695.9508056640625,14178.7529296875,7106.462890625,25989.21484375,16448.498046875,15365.283203125,24993.419921875,9505.7490234375,14262.994140625,8799.2353515625,4385.3125,22851.625,9578.068359375,17111.30078125,11798.541015625,8973.28125,12261.8671875,11805.693359375,2864.99658203125,10259.9462890625,3437.995849609375,16741.751953125,6486.57470703125,8187.2939453125,2973.07958984375,11204.87890625,5282.56103515625,23810.86328125,4388.4912109375,17940.998046875,3500.779296875,9785.4931640625,26567.77734375,21435.419921875,11734.16796875,-0.0,-43997.765625,19419.193359375,4473.52734375,0.0,7123.947265625,0.0,0.0
15687.9423828125,15453.498046875,33643.24609375,11593.5009765625,28290.748046875,6784.59765625,8214.314453125,9353.1611328125,9087.7216796875,6166.29931640625,17428.3984375,163.71409606933594,8792.0830078125,0.0,22710.958984375,7160.5048828125,24970.373046875,20075.640625,9766.4189453125,11659.462890625,23214.021484375,29625.09765625,22675.1953125,19749.798828125,21242.30078125,7376.6708984375,29162.564453125,789.960205078125,0.0,1696.7454833984375,14176.369140625,7105.66845703125,25986.037109375,16443.728515625,15362.8984375,24990.240234375,9504.1591796875,14257.4306640625,8796.8515625,4394.05419921875,22851.625,9573.30078125,17108.91796875,11789.798828125,8968.5126953125,12257.8935546875,11805.693359375,2860.228271484375,10261.53515625,3422.101318359375,16739.369140625,6477.0380859375,8184.115234375,2988.974365234375,11198.5205078125,5280.1767578125,23810.068359375,4380.5439453125,17940.998046875,3494.421630859375,9781.51953125,26565.392578125,21432.2421875,11722.2470703125,-0.0,-44000.94140625,19416.013671875,4481.474609375,0.0,7117.58935546875,0.0,0.0
15697.4794921875,15466.212890625,33655.16796875,11600.6533203125,28301.080078125,6794.9296875,8219.8779296875,9360.3134765625,9092.490234375,6170.27294921875,17440.318359375,172.4561004638672,8800.82421875,0.0,22718.90625,7162.09423828125,24977.525390625,20086.765625,9775.9560546875,11665.8212890625,23222.765625,29633.044921875,22683.14453125,19758.54296875,21254.220703125,7385.41259765625,29169.71875,796.3180541992188,0.0,1708.66650390625,14185.111328125,7112.8212890625,25996.3671875,16454.060546875,15373.23046875,25000.572265625,9512.1064453125,14265.3779296875,8802.4140625,4408.359375,22860.369140625,9584.4267578125,17117.658203125,11798.541015625,8975.6650390625,12265.0458984375,11816.0244140625,2876.91748046875,10267.8935546875,3430.84326171875,16747.31640625,6483.39599609375,8193.65234375,3005.66357421875,11216.00390625,5290.50830078125,23817.220703125,4389.2861328125,17946.5625,3501.57421875,9796.619140625,26574.134765625,21438.59765625,11723.0419921875,-0.0,-43987.43359375,19419.193359375,4494.1904296875,0.0,7125.53662109375,0.0,0.0
15687.9423828125,15457.470703125,33651.19140625,11595.8857421875,28297.900390625,6794.9296875,8216.6982421875,9356.33984375,9092.490234375,6167.888671875,17436.345703125,171.661376953125,8802.4140625,0.0,22716.521484375,7159.7099609375,24973.55078125,20080.408203125,9772.77734375,11665.0263671875,23218.791015625,29632.25,22680.759765625,19756.158203125,21255.8125,7385.41259765625,29168.12890625,794.7285766601562,0.0,1710.2559814453125,14182.7265625,7110.43701171875,25993.189453125,16450.0859375,15370.0517578125,24996.599609375,9509.72265625,14261.4052734375,8795.26171875,4405.1806640625,22857.984375,9581.248046875,17116.0703125,11796.951171875,8973.28125,12261.8671875,11805.693359375,2878.5068359375,10262.330078125,3433.2275390625,16744.931640625,6480.216796875,8173.783203125,3004.07421875,11216.00390625,5293.6875,23814.04296875,4386.90185546875,17945.765625,3499.98486328125,9795.029296875,26570.955078125,21433.830078125,11725.42578125,-0.0,-43983.4609375,19418.3984375,4491.80615234375,0.0,7121.56298828125,0.0,0.0
15689.53125,15446.345703125,33647.21875,11592.7060546875,28294.720703125,6793.34033203125,8216.6982421875,9357.134765625,9092.490234375,6170.27294921875,17429.193359375,167.68772888183594,8807.9765625,0.0,22713.341796875,7160.5048828125,24973.55078125,20078.81640625,9769.5986328125,11668.205078125,23216.40625,29632.25,22677.580078125,19754.568359375,21248.658203125,7386.20751953125,29168.12890625,795.5233154296875,0.0,1715.0242919921875,14181.13671875,7109.64208984375,25990.8046875,16449.29296875,15368.4619140625,24996.599609375,9508.1328125,14261.4052734375,8804.7978515625,4402.001953125,22854.8046875,9580.453125,17116.0703125,11796.951171875,8971.69140625,12261.0732421875,11796.1572265625,2883.275390625,10260.7412109375,3434.817138671875,16741.751953125,6478.62744140625,8166.630859375,3000.895263671875,11210.44140625,5293.6875,23810.86328125,4387.69677734375,17943.3828125,3502.368896484375,9794.2353515625,26570.162109375,21433.03515625,11728.6044921875,-0.0,-43983.4609375,19417.603515625,4498.16357421875,0.0,7126.33154296875,0.0,0.0
15690.3271484375,15441.5771484375,33649.60546875,11595.08984375,28295.517578125,6791.75048828125,8215.109375,9358.7236328125,9084.5419921875,6172.6572265625,17425.21875,166.09828186035156,8798.4404296875,0.0,22710.958984375,7163.68359375,24975.140625,20080.408203125,9768.8037109375,11665.0263671875,23218.791015625,29634.634765625,22674.40234375,19752.978515625,21247.86328125,7386.20751953125,29168.12890625,795.5233154296875,0.0,1714.2296142578125,14181.931640625,7108.052734375,25990.8046875,16450.8828125,15366.8720703125,24998.1875,9504.9541015625,14259.8154296875,8804.7978515625,4402.001953125,22854.009765625,9581.248046875,17114.48046875,11795.361328125,8967.716796875,12261.0732421875,11802.513671875,2881.68603515625,10260.7412109375,3437.201171875,16740.1640625,6477.8330078125,8174.57861328125,3000.895263671875,11200.1103515625,5287.3291015625,23812.453125,4387.69677734375,17940.998046875,3508.726806640625,9794.2353515625,26567.77734375,21434.625,11728.6044921875,-0.0,-43989.01953125,19412.8359375,4496.57421875,0.0,7136.6630859375,0.0,0.0
15680.7900390625,15435.21875,33651.98828125,11595.08984375,28298.697265625,6786.1875,8213.5205078125,9351.5712890625,9082.158203125,6173.45166015625,17431.578125,163.71409606933594,8788.1083984375,0.0,22710.958984375,7160.5048828125,24969.578125,20076.43359375,9764.8310546875,11666.615234375,23217.99609375,29629.865234375,22672.017578125,19748.2109375,21260.580078125,7384.6181640625,29169.71875,789.16552734375,0.0,1701.513916015625,14177.9580078125,7099.310546875,25990.009765625,16448.498046875,15366.0771484375,24993.419921875,9502.5703125,14255.046875,8776.1875,4397.2333984375,22857.984375,9577.2744140625,17114.48046875,11789.798828125,8965.3330078125,12257.099609375,11815.23046875,2872.94384765625,10265.509765625,3428.459228515625,16740.1640625,6470.68017578125,8184.90966796875,2999.3056640625,11200.9052734375,5279.38232421875,23812.453125,4379.74951171875,17940.203125,3504.753173828125,9787.0830078125,26562.21484375,21431.4453125,11737.3466796875,-0.0,-44004.125,19411.24609375,4483.8583984375,0.0,7140.63623046875,0.0,0.0
15679.201171875,15444.755859375,33660.7265625,11601.4482421875,28304.2578125,6793.34033203125,8215.904296875,9352.3662109375,9091.6953125,6175.8359375,17446.67578125,162.1246337890625,8789.6982421875,0.0,22714.138671875,7158.9150390625,24974.345703125,20078.0234375,9765.625,11673.767578125,23222.765625,29635.4296875,22675.1953125,19749.798828125,21262.96484375,7392.5654296875,29174.486328125,789.960205078125,0.0,1700.71923828125,14181.931640625,7101.69482421875,25993.982421875,16452.470703125,15370.0517578125,24996.599609375,9505.7490234375,14254.251953125,8800.82421875,4399.61767578125,22866.7265625,9585.2216796875,17120.04296875,11790.5927734375,8970.896484375,12258.6884765625,11827.9453125,2876.91748046875,10273.45703125,3430.048583984375,16744.13671875,6472.26953125,8194.4462890625,3000.895263671875,11212.826171875,5281.7666015625,23814.04296875,4379.74951171875,17946.5625,3501.57421875,9790.26171875,26565.392578125,21433.03515625,11746.8837890625,-0.0,-44003.328125,19417.603515625,4479.88525390625,0.0,7142.2255859375,0.0,0.0
15677.6103515625,15453.498046875,33660.7265625,11604.626953125,28305.849609375,6789.3662109375,8219.8779296875,9352.3662109375,9099.642578125,6176.63037109375,17442.703125,157.35626220703125,8787.314453125,0.0,22716.521484375,7156.53076171875,24970.373046875,20074.84375,9766.4189453125,11677.7421875,23222.765625,29632.25,22675.990234375,19745.826171875,21260.580078125,7379.85009765625,29186.40625,791.5496826171875,0.0,1698.3350830078125,14181.13671875,7102.4892578125,25991.59765625,16450.8828125,15368.4619140625,24994.21484375,9505.7490234375,14253.45703125,8812.7451171875,4396.4384765625,22869.109375,9579.658203125,17122.427734375,11790.5927734375,8975.6650390625,12257.099609375,11814.4345703125,2878.5068359375,10275.0458984375,3418.92236328125,16749.701171875,6473.859375,8179.34716796875,2992.153076171875,11212.826171875,5276.998046875,23803.7109375,4378.95458984375,17949.740234375,3501.57421875,9787.876953125,26563.802734375,21431.4453125,11758.8046875,-0.0,-44005.7109375,19421.578125,4476.7060546875,0.0,7142.2255859375,0.0,0.0
15671.2529296875,15447.9345703125,33648.80859375,11595.8857421875,28302.669921875,6782.2138671875,8223.8515625,9349.982421875,9112.3583984375,6179.0146484375,17429.193359375,153.3826141357422,8771.419921875,0.0,22720.49609375,7154.146484375,24963.220703125,20071.6640625,9767.21484375,11682.5107421875,23214.81640625,29625.09765625,22673.607421875,19743.443359375,21251.8359375,7369.51806640625,29191.17578125,785.986572265625,0.0,1691.1824951171875,14175.57421875,7097.72119140625,25984.4453125,16445.318359375,15364.4873046875,24989.447265625,9508.1328125,14253.45703125,8788.1083984375,4378.16015625,22860.369140625,9572.505859375,17123.22265625,11786.6201171875,8978.84375,12257.8935546875,11798.541015625,2869.76513671875,10268.6884765625,3416.538330078125,16759.236328125,6473.064453125,8172.1943359375,2976.258544921875,11196.13671875,5273.81884765625,23795.763671875,4371.00732421875,17956.09765625,3501.57421875,9776.751953125,26559.830078125,21434.625,11770.7255859375,-0.0,-44016.04296875,19419.193359375,4470.34814453125,0.0,7144.60986328125,0.0,0.0
15654.5634765625,15428.8603515625,33632.9140625,11574.427734375,28294.720703125,6775.85595703125,8226.2353515625,9345.2138671875,9119.5107421875,6178.22021484375,17406.94140625,145.43533325195312,8785.724609375,0.0,22724.470703125,7150.96826171875,24952.888671875,20061.333984375,9762.4462890625,11684.89453125,23203.69140625,29614.767578125,22668.837890625,19737.87890625,21245.48046875,7363.16064453125,29184.818359375,778.8340454101562,0.0,1680.8509521484375,14164.4482421875,7085.80029296875,25972.525390625,16431.013671875,15357.3349609375,24983.8828125,9506.54296875,14248.6884765625,8774.59765625,4357.49658203125,22845.267578125,9563.763671875,17122.427734375,11781.8515625,8981.2275390625,12253.9208984375,11785.0302734375,2846.7177734375,10267.8935546875,3417.3330078125,16767.18359375,6470.68017578125,8165.0419921875,2961.15869140625,11176.2685546875,5261.89794921875,23809.275390625,4366.2392578125,17960.8671875,3499.98486328125,9764.8310546875,26554.265625,21433.830078125,11771.51953125,-0.0,-44028.7578125,19417.603515625,4470.34814453125,0.0,7143.8154296875,0.0,0.0
15650.5908203125,15414.5556640625,33632.9140625,11573.6318359375,28289.953125,6771.88232421875,8214.314453125,9337.265625,9113.15234375,6167.09375,17422.833984375,135.89859008789062,8801.619140625,0.0,22719.701171875,7146.19970703125,24946.53125,20051.798828125,9755.2939453125,11676.15234375,23197.33203125,29609.203125,22663.275390625,19730.7265625,21254.220703125,7358.39208984375,29177.666015625,775.6550903320312,0.0,1672.9036865234375,14157.294921875,7079.4423828125,25967.755859375,16424.65625,15352.56640625,24975.935546875,9498.595703125,14243.1259765625,8776.982421875,4358.29150390625,22840.5,9555.0224609375,17115.275390625,11777.0830078125,8974.0751953125,12247.5625,11795.361328125,2832.41259765625,10272.662109375,3413.359375,16748.109375,6464.32275390625,8170.6044921875,2962.748291015625,11202.494140625,5253.95068359375,23821.1953125,4363.06005859375,17955.302734375,3491.24267578125,9760.0625,26548.705078125,21425.8828125,11754.830078125,-0.0,-44036.703125,19413.62890625,4457.63232421875,0.0,7135.8681640625,0.0,0.0
15656.9482421875,15413.7607421875,33631.32421875,11572.837890625,28275.6484375,6770.29296875,8195.2412109375,9333.29296875,9095.6689453125,6153.58349609375,17426.80859375,126.36184692382812,8804.00390625,0.0,22705.396484375,7146.994140625,24941.763671875,20043.849609375,9746.5517578125,11656.2841796875,23190.974609375,29604.435546875,22652.9453125,19725.95703125,21237.53125,7359.9814453125,29154.619140625,772.4761962890625,0.0,1658.5985107421875,14152.52734375,7075.46875,25962.98828125,16421.4765625,15344.6201171875,24969.578125,9485.880859375,14236.767578125,8773.009765625,4365.4443359375,22834.142578125,9557.40625,17098.5859375,11772.3154296875,8957.3857421875,12237.2314453125,11792.1826171875,2836.386474609375,10247.23046875,3410.97509765625,16724.267578125,6461.1435546875,8172.98876953125,2971.490234375,11203.2890625,5247.5927734375,23815.6328125,4366.2392578125,17937.025390625,3478.527099609375,9759.2666015625,26539.16796875,21414.755859375,11727.015625,-0.0,-44041.47265625,19401.708984375,4430.6123046875,0.0,7123.15234375,0.0,0.0
15668.869140625,15426.4765625,33639.26953125,11572.04296875,28280.416015625,6773.4716796875,8201.599609375,9338.85546875,9092.490234375,6159.94140625,17429.193359375,139.8722381591797,8803.2080078125,0.0,22706.189453125,7152.5576171875,24946.53125,20052.591796875,9752.1142578125,11655.490234375,23197.33203125,29608.408203125,22661.685546875,19733.111328125,21239.123046875,7359.1865234375,29153.029296875,776.4498291015625,0.0,1671.314208984375,14156.5009765625,7083.416015625,25967.755859375,16427.041015625,15349.3876953125,24973.55078125,9493.828125,14239.947265625,8774.59765625,4373.3916015625,22840.5,9561.3798828125,17101.765625,11777.8779296875,8960.564453125,12242.0,11795.361328125,2849.10205078125,10247.23046875,3414.154052734375,16730.626953125,6467.5009765625,8171.39892578125,2981.02685546875,11206.4677734375,5253.15625,23816.427734375,4370.21240234375,17934.640625,3486.474365234375,9764.03515625,26545.525390625,21417.935546875,11730.98828125,-0.0,-44035.91015625,19404.09375,4444.1220703125,0.0,7130.3046875,0.0,0.0
15674.4326171875,15417.7353515625,33640.06640625,11576.8115234375,28286.775390625,6775.85595703125,8211.9306640625,9343.6240234375,9097.2587890625,6167.09375,17428.3984375,145.43533325195312,8806.3876953125,0.0,22713.341796875,7143.0205078125,24949.708984375,20060.5390625,9760.8564453125,11661.8466796875,23201.306640625,29609.203125,22670.427734375,19737.0859375,21241.505859375,7360.7763671875,29167.333984375,777.2445678710938,0.0,1683.235107421875,14162.0634765625,7088.1845703125,25973.3203125,16430.21875,15357.3349609375,24978.318359375,9500.98046875,14246.3046875,8781.7509765625,4377.365234375,22844.47265625,9560.5849609375,17111.30078125,11780.26171875,8968.5126953125,12249.15234375,11795.361328125,2853.870361328125,10258.357421875,3413.359375,16738.572265625,6470.68017578125,8172.98876953125,2973.07958984375,11213.6201171875,5260.30859375,23823.580078125,4359.880859375,17938.61328125,3494.421630859375,9767.21484375,26552.677734375,21423.498046875,11748.4736328125,-0.0,-44027.96484375,19413.62890625,4465.580078125,0.0,7143.8154296875,0.0,0.0
15679.994140625,15416.1455078125,33641.65625,11571.248046875,28287.568359375,6770.29296875,8211.1357421875,9341.240234375,9102.8212890625,6168.68359375,17436.345703125,140.66696166992188,8807.1826171875,0.0,22709.369140625,7138.25244140625,24951.298828125,20062.923828125,9760.8564453125,11665.0263671875,23204.484375,29604.435546875,22672.017578125,19733.90625,21246.275390625,7355.21337890625,29164.94921875,773.2709350585938,0.0,1684.8245849609375,14161.26953125,7088.1845703125,25974.908203125,16428.62890625,15357.3349609375,24976.73046875,9500.98046875,14246.3046875,8782.5458984375,4379.74951171875,22846.064453125,9554.2265625,17112.09765625,11777.0830078125,8970.1015625,12248.3564453125,11797.74609375,2850.691650390625,10263.125,3405.411865234375,16738.572265625,6468.2958984375,8180.1416015625,2961.15869140625,11214.416015625,5257.1298828125,23819.60546875,4346.37060546875,17938.61328125,3495.21630859375,9765.625,26552.677734375,21423.498046875,11751.6513671875,-0.0,-44037.50390625,19416.013671875,4462.40087890625,0.0,7148.583984375,0.0,0.0
15672.048828125,15418.529296875,33621.7890625,11552.9697265625,28277.23828125,6756.78271484375,8199.21484375,9332.498046875,9098.052734375,6159.94140625,17419.65625,130.3354949951172,8793.671875,0.0,22701.421875,7135.0732421875,24939.37890625,20049.4140625,9749.73046875,11656.2841796875,23190.974609375,29591.71875,22657.712890625,19725.1640625,21240.7109375,7342.49755859375,29154.619140625,766.1183471679688,0.0,1668.9300537109375,14147.7587890625,7075.46875,25961.3984375,16412.734375,15343.8251953125,24964.80859375,9489.853515625,14235.9736328125,8775.3935546875,4370.21240234375,22834.935546875,9539.921875,17101.765625,11768.3408203125,8962.154296875,12238.025390625,11785.8251953125,2832.41259765625,10256.767578125,3395.875244140625,16729.037109375,6460.3486328125,8170.6044921875,2952.416748046875,11195.341796875,5247.5927734375,23808.478515625,4339.21826171875,17929.873046875,3488.8583984375,9755.2939453125,26540.755859375,21413.16796875,11742.9091796875,-0.0,-44049.421875,19404.09375,4449.685546875,0.0,7139.841796875,0.0,0.0
15656.15234375,15424.0927734375,33628.94140625,11554.55859375,28280.416015625,6758.3720703125,8200.8046875,9333.29296875,9100.4375,6158.35205078125,17421.24609375,130.3354949951172,8790.4931640625,0.0,22703.806640625,7138.25244140625,24936.994140625,20044.64453125,9750.525390625,11656.2841796875,23193.359375,29591.71875,22657.712890625,19726.75390625,21251.8359375,7342.49755859375,29157.796875,765.3236083984375,0.0,1663.366943359375,14146.9638671875,7074.67431640625,25963.783203125,16411.146484375,15345.4140625,24964.80859375,9489.853515625,14237.5634765625,8774.59765625,4365.4443359375,22840.5,9539.921875,17104.1484375,11771.51953125,8962.94921875,12238.8203125,11792.1826171875,2818.90234375,10260.7412109375,3393.490966796875,16731.419921875,6462.73291015625,8166.630859375,2962.748291015625,11195.341796875,5244.4140625,23812.453125,4341.6025390625,17932.255859375,3492.832275390625,9756.8828125,26541.55078125,21413.9609375,11739.73046875,-0.0,-44047.83203125,19398.53125,4449.685546875,0.0,7130.3046875,0.0,0.0
15655.359375,15428.06640625,33636.88671875,11556.943359375,28278.033203125,6764.72998046875,8204.77734375,9336.4716796875,9109.1796875,6167.09375,17437.138671875,135.10386657714844,8788.9033203125,0.0,22706.986328125,7135.8681640625,24944.94140625,20048.619140625,9756.087890625,11665.0263671875,23197.33203125,29599.666015625,22660.09765625,19730.7265625,21231.970703125,7346.47119140625,29160.181640625,768.5025634765625,0.0,1670.51953125,14150.9375,7080.23681640625,25969.34765625,16419.88671875,15346.2099609375,24969.578125,9495.41796875,14244.7158203125,8778.572265625,4368.623046875,22837.3203125,9548.6640625,17104.943359375,11774.69921875,8967.716796875,12243.5888671875,11803.3095703125,2819.697021484375,10258.357421875,3396.670166015625,16733.8046875,6463.52783203125,8175.373046875,2976.258544921875,11218.388671875,5246.00341796875,23810.86328125,4348.7548828125,17937.818359375,3492.03759765625,9766.4189453125,26546.3203125,21421.11328125,11751.6513671875,-0.0,-44041.47265625,19412.8359375,4457.63232421875,0.0,7135.0732421875,0.0,0.0
15671.2529296875,15422.50390625,33635.30078125,11551.3798828125,28279.623046875,6766.3193359375,8205.5732421875,9335.6767578125,9113.15234375,6164.70947265625,17429.986328125,135.10386657714844,8784.9306640625,0.0,22709.369140625,7131.89453125,24944.94140625,20050.20703125,9753.7041015625,11663.4365234375,23197.33203125,29602.05078125,22660.890625,19731.521484375,21227.994140625,7348.060546875,29161.771484375,767.7078247070312,0.0,1672.9036865234375,14151.732421875,7080.23681640625,25967.755859375,16419.88671875,15344.6201171875,24971.166015625,9495.41796875,14244.7158203125,8784.9306640625,4367.828125,22834.935546875,9552.6376953125,17104.1484375,11773.109375,8968.5126953125,12245.97265625,11792.9775390625,2816.51806640625,10247.23046875,3397.46484375,16736.984375,6458.75927734375,8174.57861328125,2973.874267578125,11216.00390625,5247.5927734375,23809.275390625,4347.16552734375,17941.79296875,3485.6796875,9767.21484375,26547.908203125,21421.11328125,11753.2412109375,-0.0,-44039.08984375,19419.98828125,4461.6064453125,0.0,7139.841796875,0.0,0.0
15675.2265625,15417.7353515625,33632.9140625,11554.55859375,28285.98046875,6767.1142578125,8206.3671875,9336.4716796875,9116.33203125,6161.53076171875,17422.833984375,137.48805236816406,8784.134765625,0.0,22706.189453125,7135.0732421875,24944.146484375,20052.591796875,9752.9091796875,11663.4365234375,23198.923828125,29602.845703125,22662.48046875,19733.111328125,21227.994140625,7347.265625,29165.744140625,770.88671875,0.0,1672.9036865234375,14154.9111328125,7080.23681640625,25967.755859375,16421.4765625,15345.4140625,24971.962890625,9496.2119140625,14243.1259765625,8772.2138671875,4371.00732421875,22840.5,9548.6640625,17108.12109375,11775.4931640625,8971.69140625,12247.5625,11784.236328125,2826.849609375,10236.8994140625,3398.259521484375,16736.189453125,6459.55419921875,8167.42626953125,2967.5166015625,11200.1103515625,5249.18212890625,23801.326171875,4349.5498046875,17944.177734375,3488.8583984375,9763.2412109375,26547.11328125,21419.525390625,11754.0361328125,-0.0,-44038.296875,19415.220703125,4463.99072265625,0.0,7138.25244140625,0.0,0.0
15676.021484375,15417.7353515625,33636.88671875,11564.095703125,28284.390625,6771.88232421875,8209.5458984375,9342.830078125,9123.484375,6168.68359375,17422.833984375,143.8458709716797,8784.9306640625,0.0,22704.6015625,7143.8154296875,24948.916015625,20054.974609375,9758.47265625,11669.794921875,23199.716796875,29607.615234375,22666.455078125,19736.2890625,21229.5859375,7353.6240234375,29172.1015625,776.4498291015625,0.0,1680.8509521484375,14158.884765625,7083.416015625,25970.935546875,16426.244140625,15348.59375,24976.73046875,9499.390625,14246.3046875,8757.9091796875,4376.5703125,22842.087890625,9551.8427734375,17111.30078125,11781.056640625,8973.28125,12254.71484375,11788.208984375,2846.7177734375,10236.8994140625,3407.00146484375,16737.779296875,6463.52783203125,8164.24658203125,2969.90087890625,11200.9052734375,5259.513671875,23797.353515625,4353.5234375,17939.41015625,3497.6005859375,9768.8037109375,26548.705078125,21424.29296875,11759.5986328125,-0.0,-44029.55078125,19416.80859375,4473.52734375,0.0,7141.43115234375,0.0,0.0
15661.716796875,15422.50390625,33636.88671875,11564.095703125,28288.365234375,6772.6767578125,8211.9306640625,9339.650390625,9120.3046875,6166.29931640625,17420.451171875,145.43533325195312,8784.9306640625,0.0,22706.189453125,7138.25244140625,24949.708984375,20056.56640625,9756.8828125,11665.8212890625,23202.896484375,29609.203125,22668.837890625,19734.701171875,21236.73828125,7354.41845703125,29178.4609375,774.065673828125,0.0,1685.619384765625,14160.4736328125,7085.00537109375,25971.73046875,16427.041015625,15351.7724609375,24979.115234375,9499.390625,14246.3046875,8777.77734375,4375.77587890625,22844.47265625,9554.2265625,17114.48046875,11781.056640625,8973.28125,12249.15234375,11790.5927734375,2861.02294921875,10248.8203125,3406.206787109375,16740.95703125,6459.55419921875,8164.24658203125,2968.311279296875,11191.3681640625,5256.3349609375,23803.7109375,4356.7021484375,17934.640625,3489.6533203125,9768.0087890625,26548.705078125,21421.91015625,11758.009765625,-0.0,-44024.78515625,19409.65625,4467.16943359375,0.0,7136.6630859375,0.0,0.0
15664.1005859375,15430.4501953125,33640.86328125,11570.4541015625,28286.775390625,6776.65087890625,8208.751953125,9341.240234375,9117.9208984375,6162.3251953125,17427.603515625,147.02479553222656,8786.51953125,0.0,22703.01171875,7142.2255859375,24956.068359375,20059.744140625,9752.9091796875,11664.2314453125,23206.076171875,29614.767578125,22669.634765625,19737.0859375,21246.275390625,7358.39208984375,29157.796875,776.4498291015625,0.0,1687.208740234375,14162.8583984375,7087.3896484375,25976.5,16430.21875,15354.951171875,24982.294921875,9498.595703125,14246.3046875,8787.314453125,4371.8017578125,22846.064453125,9558.201171875,17114.48046875,11784.236328125,8971.69140625,12247.5625,11800.1298828125,2861.02294921875,10244.0517578125,3410.180419921875,16740.1640625,6461.9384765625,8177.75732421875,2969.90087890625,11196.9306640625,5260.30859375,23804.505859375,4366.2392578125,17934.640625,3487.26904296875,9767.21484375,26550.29296875,21420.3203125,11757.21484375,-0.0,-44029.55078125,19407.271484375,4465.580078125,0.0,7132.68896484375,0.0,0.0
15682.37890625,15435.21875,33644.0390625,11572.837890625,28277.23828125,6778.240234375,8197.625,9339.650390625,9128.2529296875,6165.50439453125,17433.9609375,146.2300567626953,8804.00390625,0.0,22705.396484375,7147.7890625,24955.2734375,20053.38671875,9750.525390625,11672.1796875,23203.69140625,29612.3828125,22661.685546875,19736.2890625,21259.78515625,7359.1865234375,29141.107421875,776.4498291015625,0.0,1687.208740234375,14162.0634765625,7088.1845703125,25978.8828125,16431.80859375,15350.1826171875,24980.703125,9493.033203125,14244.7158203125,8788.9033203125,4373.3916015625,22848.447265625,9558.9951171875,17098.5859375,11783.4404296875,8970.896484375,12249.15234375,11809.6669921875,2858.638671875,10267.8935546875,3409.3857421875,16729.037109375,6464.32275390625,8189.67822265625,2970.695556640625,11215.2099609375,5263.4873046875,23812.453125,4367.828125,17938.61328125,3488.8583984375,9764.03515625,26547.11328125,21421.11328125,11776.2880859375,-0.0,-44030.3515625,19416.80859375,4465.580078125,0.0,7127.92041015625,0.0,0.0
15670.4580078125,15429.65625,33624.96484375,11566.4794921875,28266.90625,6773.4716796875,8192.0625,9333.29296875,9142.5576171875,6165.50439453125,17404.556640625,135.89859008789062,8792.0830078125,0.0,22706.189453125,7141.43115234375,24944.94140625,20047.029296875,9745.7568359375,11679.33203125,23194.154296875,29606.818359375,22656.91796875,19729.13671875,21234.353515625,7353.6240234375,29138.72265625,773.2709350585938,0.0,1679.2615966796875,14154.1162109375,7080.23681640625,25965.373046875,16427.041015625,15340.6455078125,24973.55078125,9485.0859375,14239.15234375,8777.77734375,4366.2392578125,22834.142578125,9555.0224609375,17088.255859375,11777.8779296875,8970.896484375,12245.97265625,11789.00390625,2852.28076171875,10252.79296875,3405.411865234375,16725.0625,6459.55419921875,8173.783203125,2961.953369140625,11191.3681640625,5258.71875,23810.068359375,4364.6494140625,17947.35546875,3486.474365234375,9758.47265625,26539.9609375,21418.73046875,11789.798828125,-0.0,-44031.14453125,19423.9609375,4457.63232421875,0.0,7121.56298828125,0.0,0.0
15668.869140625,15431.2451171875,33622.58203125,11568.0693359375,28266.90625,6771.88232421875,8195.2412109375,9331.703125,9142.5576171875,6163.9150390625,17399.787109375,134.3091278076172,8785.724609375,0.0,22706.986328125,7139.04736328125,24945.736328125,20045.439453125,9744.1669921875,11674.5634765625,23192.564453125,29607.615234375,22659.30078125,19726.75390625,21224.021484375,7353.6240234375,29142.69921875,772.4761962890625,0.0,1679.2615966796875,14154.9111328125,7079.4423828125,25964.578125,16427.041015625,15341.44140625,24973.55078125,9485.880859375,14237.5634765625,8776.1875,4363.85498046875,22830.962890625,9555.81640625,17092.228515625,11776.2880859375,8971.69140625,12243.5888671875,11779.4677734375,2849.896728515625,10242.4619140625,3404.6171875,16729.037109375,6457.96435546875,8168.220703125,2966.7216796875,11188.189453125,5257.1298828125,23807.68359375,4362.26513671875,17950.53515625,3486.474365234375,9763.2412109375,26539.9609375,21416.345703125,11773.904296875,-0.0,-44031.9375,19423.9609375,4460.8115234375,0.0,7123.947265625,0.0,0.0
15672.841796875,15435.21875,33629.734375,11573.6318359375,28271.67578125,6775.06103515625,8193.65234375,9330.11328125,9133.8154296875,6156.7626953125,17417.2734375,141.46168518066406,8787.314453125,0.0,22702.216796875,7137.45751953125,24950.50390625,20047.822265625,9744.1669921875,11663.4365234375,23195.744140625,29609.998046875,22661.685546875,19724.369140625,21230.37890625,7348.85546875,29143.4921875,772.4761962890625,0.0,1686.4140625,14156.5009765625,7084.2109375,25968.55078125,16430.21875,15345.4140625,24975.935546875,9485.0859375,14235.1787109375,8784.134765625,4369.41748046875,22835.732421875,9561.3798828125,17094.611328125,11774.69921875,8968.5126953125,12238.025390625,11792.9775390625,2852.28076171875,10244.8466796875,3407.796142578125,16727.447265625,6453.99072265625,8169.01513671875,2975.4638671875,11200.1103515625,5265.0771484375,23805.298828125,4358.29150390625,17942.5859375,3479.32177734375,9768.8037109375,26539.9609375,21413.16796875,11754.830078125,-0.0,-44029.55078125,19416.80859375,4469.5537109375,0.0,7124.7421875,0.0,0.0
15680.7900390625,15443.166015625,33643.24609375,11580.78515625,28282.80078125,6782.2138671875,8196.0361328125,9338.0615234375,9127.4580078125,6161.53076171875,17437.138671875,154.17735290527344,8792.876953125,0.0,22695.859375,7148.583984375,24960.041015625,20058.154296875,9750.525390625,11663.4365234375,23206.869140625,29618.740234375,22669.634765625,19733.90625,21252.6328125,7358.39208984375,29149.0546875,780.4234619140625,0.0,1697.540283203125,14166.037109375,7095.3369140625,25980.47265625,16438.9609375,15354.15625,24983.087890625,9489.0595703125,14240.7421875,8796.0556640625,4379.74951171875,22850.037109375,9567.7373046875,17102.560546875,11782.646484375,8968.5126953125,12244.3837890625,11801.7197265625,2864.201904296875,10255.177734375,3419.717041015625,16727.447265625,6463.52783203125,8184.115234375,2982.616455078125,11211.236328125,5287.3291015625,23803.7109375,4370.21240234375,17930.666015625,3486.474365234375,9778.3408203125,26547.11328125,21414.755859375,11758.8046875,-0.0,-44012.86328125,19408.068359375,4478.2958984375,0.0,7135.0732421875,0.0,0.0
15680.7900390625,15436.80859375,33646.421875,11576.8115234375,28286.775390625,6782.2138671875,8196.0361328125,9337.265625,9119.5107421875,6166.29931640625,17439.5234375,154.97207641601562,8792.0830078125,0.0,22696.654296875,7150.96826171875,24960.041015625,20058.951171875,9751.3203125,11660.2578125,23206.869140625,29619.53515625,22670.427734375,19733.90625,21258.1953125,7372.697265625,29150.64453125,781.2182006835938,0.0,1690.3876953125,14167.6259765625,7094.5419921875,25982.060546875,16438.9609375,15355.74609375,24984.677734375,9490.6494140625,14240.7421875,8792.0830078125,4385.3125,22852.419921875,9570.1220703125,17108.12109375,11781.8515625,8966.9228515625,12246.767578125,11803.3095703125,2864.201904296875,10259.1513671875,3420.511962890625,16727.447265625,6466.70654296875,8180.93603515625,2979.4375,11203.2890625,5280.9716796875,23804.505859375,4371.00732421875,17926.693359375,3492.03759765625,9777.5458984375,26546.3203125,21415.552734375,11758.009765625,-0.0,-44012.0703125,19405.68359375,4473.52734375,0.0,7143.0205078125,0.0,0.0
15684.7626953125,15433.62890625,33648.80859375,11576.0166015625,28287.568359375,6784.59765625,8201.599609375,9344.4189453125,9122.689453125,6176.63037109375,17437.138671875,161.3299102783203,8789.6982421875,0.0,22698.244140625,7161.29931640625,24963.220703125,20061.333984375,9756.8828125,11669.0,23207.6640625,29621.125,22672.810546875,19737.87890625,21253.427734375,7378.26025390625,29152.234375,788.3707885742188,0.0,1697.540283203125,14169.2158203125,7097.72119140625,25981.267578125,16441.345703125,15357.3349609375,24988.650390625,9495.41796875,14244.7158203125,8790.4931640625,4405.1806640625,22853.216796875,9574.095703125,17109.712890625,11786.6201171875,8973.28125,12254.71484375,11808.078125,2863.4072265625,10261.53515625,3426.074951171875,16731.419921875,6474.65380859375,8179.34716796875,2988.974365234375,11188.984375,5281.7666015625,23800.53125,4377.365234375,17933.05078125,3505.5478515625,9777.5458984375,26548.705078125,21421.11328125,11765.162109375,-0.0,-44007.30078125,19408.861328125,4472.732421875,0.0,7153.35205078125,0.0,0.0
15686.353515625,15428.8603515625,33651.19140625,11579.990234375,28291.544921875,6786.98193359375,8205.5732421875,9346.802734375,9127.4580078125,6180.6044921875,17437.935546875,159.74044799804688,8801.619140625,0.0,22701.421875,7170.04150390625,24962.42578125,20061.333984375,9758.47265625,11675.357421875,23210.048828125,29623.5078125,22675.1953125,19737.87890625,21256.60546875,7381.439453125,29161.771484375,790.7549438476562,0.0,1699.9244384765625,14168.421875,7096.92626953125,25982.060546875,16441.345703125,15359.7197265625,24988.650390625,9498.595703125,14247.099609375,8790.4931640625,4397.2333984375,22856.39453125,9574.890625,17114.48046875,11788.208984375,8976.4599609375,12256.3046875,11807.2822265625,2861.817626953125,10271.8671875,3427.66455078125,16737.779296875,6478.62744140625,8180.93603515625,2990.563720703125,11207.2626953125,5284.94482421875,23806.095703125,4382.92822265625,17938.61328125,3506.342529296875,9773.572265625,26551.087890625,21425.08984375,11769.1357421875,-0.0,-44014.453125,19409.65625,4471.14306640625,0.0,7147.7890625,0.0,0.0
15684.7626953125,15428.06640625,33649.60546875,11582.375,28290.748046875,6783.0087890625,8203.9833984375,9342.830078125,9125.869140625,6175.8359375,17443.498046875,154.97207641601562,8795.26171875,0.0,22703.806640625,7167.6572265625,24955.2734375,20050.20703125,9756.8828125,11670.58984375,23205.28125,29617.150390625,22670.427734375,19735.494140625,21257.400390625,7375.08154296875,29161.771484375,787.5760498046875,0.0,1694.361328125,14163.6533203125,7092.15771484375,25978.8828125,16435.78125,15353.3623046875,24981.498046875,9497.0068359375,14243.1259765625,8787.314453125,4365.4443359375,22854.8046875,9569.3271484375,17113.685546875,11785.0302734375,8975.6650390625,12250.7412109375,11803.3095703125,2858.638671875,10273.45703125,3422.101318359375,16735.39453125,6476.24365234375,8180.1416015625,2982.616455078125,11212.03125,5276.998046875,23805.298828125,4386.10693359375,17938.61328125,3497.6005859375,9769.5986328125,26545.525390625,21421.11328125,11760.39453125,-0.0,-44016.04296875,19408.068359375,4471.9375,0.0,7142.2255859375,0.0,0.0
15686.353515625,15423.2978515625,33645.62890625,11572.837890625,28282.80078125,6772.6767578125,8200.009765625,9331.703125,9121.89453125,6156.7626953125,17460.98046875,149.4089813232422,8788.9033203125,0.0,22701.421875,7150.96826171875,24948.12109375,20041.46484375,9748.935546875,11657.8740234375,23196.5390625,29603.638671875,22663.275390625,19727.548828125,21251.8359375,7362.36572265625,29157.796875,776.4498291015625,0.0,1691.9771728515625,14154.9111328125,7085.80029296875,25970.935546875,16428.62890625,15343.8251953125,24972.7578125,9488.2646484375,14235.1787109375,8780.162109375,4361.470703125,22846.857421875,9559.791015625,17106.533203125,11777.8779296875,8968.5126953125,12242.7939453125,11804.103515625,2853.07568359375,10259.9462890625,3411.769775390625,16731.419921875,6465.1171875,8186.49951171875,2970.695556640625,11211.236328125,5269.845703125,23802.916015625,4374.98095703125,17933.845703125,3482.500732421875,9766.4189453125,26537.576171875,21412.373046875,11750.0615234375,-0.0,-44020.015625,19408.068359375,4477.5009765625,0.0,7127.92041015625,0.0,0.0
15681.5849609375,15422.50390625,33635.30078125,11570.4541015625,28278.828125,6773.4716796875,8200.8046875,9334.8818359375,9117.126953125,6155.1728515625,17426.80859375,154.97207641601562,8800.82421875,0.0,22703.01171875,7148.583984375,24944.94140625,20042.26171875,9749.73046875,11657.8740234375,23193.359375,29604.435546875,22661.685546875,19725.95703125,21243.095703125,7363.16064453125,29162.564453125,776.4498291015625,0.0,1690.3876953125,14151.732421875,7081.03173828125,25965.373046875,16425.451171875,15341.44140625,24971.166015625,9489.853515625,14238.357421875,8769.830078125,4371.00732421875,22840.5,9559.791015625,17105.73828125,11777.8779296875,8967.716796875,12243.5888671875,11785.0302734375,2858.638671875,10259.9462890625,3414.94873046875,16731.419921875,6466.70654296875,8176.16748046875,2971.490234375,11195.341796875,5274.61376953125,23802.916015625,4374.98095703125,17934.640625,3483.29541015625,9768.0087890625,26536.783203125,21414.755859375,11752.4462890625,-0.0,-44014.453125,19410.451171875,4478.2958984375,0.0,7122.35791015625,0.0,0.0
15665.689453125,15423.2978515625,33636.88671875,11575.2216796875,28282.80078125,6781.41943359375,8204.77734375,9339.650390625,9121.89453125,6165.50439453125,17418.06640625,150.99842834472656,8804.00390625,0.0,22703.806640625,7147.7890625,24945.736328125,20045.439453125,9753.7041015625,11668.205078125,23194.154296875,29608.408203125,22663.275390625,19728.341796875,21248.658203125,7371.90234375,29165.744140625,780.4234619140625,0.0,1686.4140625,14154.1162109375,7080.23681640625,25966.16796875,16427.041015625,15342.2353515625,24976.73046875,9493.828125,14241.5361328125,8764.2666015625,4370.21240234375,22842.884765625,9566.1474609375,17108.91796875,11778.671875,8972.4853515625,12249.9462890625,11788.208984375,2863.4072265625,10260.7412109375,3420.511962890625,16735.39453125,6471.47509765625,8163.4521484375,2970.695556640625,11195.341796875,5276.203125,23802.916015625,4371.8017578125,17938.61328125,3493.626953125,9766.4189453125,26539.9609375,21421.11328125,11760.39453125,-0.0,-44014.453125,19409.65625,4471.14306640625,0.0,7135.8681640625,0.0,0.0
15664.1005859375,15420.119140625,33640.06640625,11568.8642578125,28280.416015625,6779.03515625,8203.1884765625,9338.0615234375,9122.689453125,6168.68359375,17418.861328125,146.2300567626953,8812.7451171875,0.0,22703.806640625,7142.2255859375,24945.736328125,20043.0546875,9751.3203125,11670.58984375,23193.359375,29604.435546875,22659.30078125,19726.75390625,21247.86328125,7372.697265625,29162.564453125,775.6550903320312,0.0,1688.0035400390625,14151.732421875,7081.03173828125,25968.55078125,16422.271484375,15341.44140625,24975.140625,9493.828125,14239.947265625,8779.3662109375,4361.470703125,22842.087890625,9563.763671875,17106.533203125,11777.8779296875,8970.896484375,12249.15234375,11802.513671875,2845.923095703125,10256.767578125,3418.127685546875,16736.189453125,6468.2958984375,8163.4521484375,2967.5166015625,11206.4677734375,5271.4345703125,23803.7109375,4360.67578125,17938.61328125,3493.626953125,9764.8310546875,26537.576171875,21421.11328125,11763.572265625,-0.0,-44026.375,19409.65625,4452.8642578125,0.0,7145.40478515625,0.0,0.0
15664.896484375,15418.529296875,33642.453125,11568.8642578125,28278.828125,6778.240234375,8204.77734375,9341.240234375,9129.841796875,6171.8623046875,17419.65625,143.8458709716797,8801.619140625,0.0,22706.986328125,7151.7626953125,24947.32421875,20044.64453125,9756.8828125,11676.15234375,23192.564453125,29606.818359375,22659.30078125,19729.13671875,21231.970703125,7372.697265625,29157.796875,778.8340454101562,0.0,1685.619384765625,14152.52734375,7082.62109375,25968.55078125,16424.65625,15342.2353515625,24975.140625,9495.41796875,14243.1259765625,8792.0830078125,4372.5966796875,22841.294921875,9562.1748046875,17107.328125,11781.8515625,8974.8701171875,12250.7412109375,11796.1572265625,2843.5390625,10251.2041015625,3420.511962890625,16736.984375,6471.47509765625,8155.50537109375,2969.10595703125,11200.9052734375,5264.2822265625,23806.890625,4361.470703125,17947.35546875,3497.6005859375,9763.2412109375,26538.37109375,21424.29296875,11771.51953125,-0.0,-44029.55078125,19416.013671875,4466.375,0.0,7142.2255859375,0.0,0.0
15654.5634765625,15417.7353515625,33642.453125,11573.6318359375,28282.0078125,6773.4716796875,8205.5732421875,9341.240234375,9139.37890625,6178.22021484375,17424.42578125,137.48805236816406,8788.1083984375,0.0,22711.75390625,7150.17333984375,24948.12109375,20043.0546875,9755.2939453125,11689.6630859375,23197.33203125,29607.615234375,22657.712890625,19728.341796875,21234.353515625,7370.31298828125,29154.619140625,777.2445678710938,0.0,1681.645751953125,14154.1162109375,7079.4423828125,25968.55078125,16426.244140625,15343.0302734375,24974.345703125,9496.2119140625,14243.919921875,8775.3935546875,4376.5703125,22845.267578125,9559.791015625,17108.12109375,11778.671875,8977.25390625,12253.9208984375,11791.388671875,2845.923095703125,10255.177734375,3417.3330078125,16739.369140625,6467.5009765625,8152.32568359375,2967.5166015625,11196.13671875,5257.1298828125,23808.478515625,4357.49658203125,17956.892578125,3497.6005859375,9756.8828125,26539.16796875,21426.677734375,11794.5673828125,-0.0,-44036.703125,19415.220703125,4462.40087890625,0.0,7126.33154296875,0.0,0.0
15656.9482421875,15415.3505859375,33637.68359375,11571.248046875,28280.416015625,6768.70361328125,8203.9833984375,9340.4453125,9134.6103515625,6184.578125,17421.24609375,135.89859008789062,8767.4453125,0.0,22707.78125,7146.19970703125,24945.736328125,20040.669921875,9751.3203125,11691.2529296875,23196.5390625,29603.638671875,22656.123046875,19728.341796875,21238.326171875,7365.544921875,29156.208984375,775.6550903320312,0.0,1682.4404296875,14152.52734375,7073.87939453125,25967.755859375,16424.65625,15340.6455078125,24971.962890625,9493.033203125,14244.7158203125,8768.2412109375,4368.623046875,22844.47265625,9555.81640625,17106.533203125,11779.4677734375,8974.8701171875,12253.9208984375,11788.208984375,2849.896728515625,10254.3828125,3412.564453125,16735.39453125,6465.912109375,8154.7099609375,2962.748291015625,11193.751953125,5254.74560546875,23799.73828125,4360.67578125,17952.123046875,3497.6005859375,9756.8828125,26538.37109375,21428.265625,11800.9248046875,-0.0,-44036.703125,19400.119140625,4456.837890625,0.0,7121.56298828125,0.0,0.0
15679.201171875,15424.0927734375,33644.0390625,11580.78515625,28288.365234375,6782.2138671875,8213.5205078125,9353.1611328125,9126.6630859375,6194.90966796875,17437.138671875,143.0511474609375,8781.7509765625,0.0,22711.75390625,7158.12060546875,24956.861328125,20056.56640625,9762.4462890625,11689.6630859375,23205.28125,29617.150390625,22667.25,19739.46875,21251.8359375,7373.49169921875,29171.30859375,789.16552734375,0.0,1702.30859375,14163.6533203125,7088.1845703125,25978.087890625,16434.193359375,15351.7724609375,24985.47265625,9501.7744140625,14253.45703125,8784.9306640625,4371.8017578125,22847.65234375,9566.943359375,17116.865234375,11792.1826171875,8978.84375,12263.45703125,11800.9248046875,2869.76513671875,10267.8935546875,3426.074951171875,16743.341796875,6477.0380859375,8176.962890625,2965.92724609375,11208.0576171875,5271.4345703125,23808.478515625,4381.33837890625,17951.330078125,3515.08447265625,9772.77734375,26551.087890625,21435.419921875,11779.4677734375,-0.0,-44020.8125,19405.68359375,4475.11669921875,0.0,7145.40478515625,0.0,0.0
15697.4794921875,15441.5771484375,33653.57421875,11591.9111328125,28303.46484375,6791.75048828125,8223.056640625,9359.5185546875,9119.5107421875,6186.16748046875,17454.625,155.7667999267578,8799.2353515625,0.0,22718.111328125,7169.24658203125,24967.98828125,20066.896484375,9770.3935546875,11679.33203125,23217.99609375,29629.072265625,22678.375,19750.595703125,21265.34765625,7383.0283203125,29194.35546875,797.9075317382812,0.0,1711.845458984375,14176.369140625,7100.10546875,25988.419921875,16445.318359375,15363.693359375,24996.599609375,9513.6953125,14260.609375,8804.7978515625,4384.517578125,22858.77734375,9578.068359375,17130.375,11800.9248046875,8982.0224609375,12268.2255859375,11810.4619140625,2876.91748046875,10282.19921875,3434.022216796875,16753.673828125,6482.60107421875,8200.8046875,2977.84814453125,11215.2099609375,5288.9189453125,23810.068359375,4394.05419921875,17952.123046875,3515.87939453125,9783.904296875,26560.625,21437.802734375,11758.8046875,-0.0,-44012.0703125,19415.220703125,4489.421875,0.0,7153.35205078125,0.0,0.0
15693.505859375,15439.9873046875,33640.86328125,11576.8115234375,28291.544921875,6776.65087890625,8213.5205078125,9342.830078125,9100.4375,6148.81494140625,17443.498046875,162.9193572998047,8789.6982421875,0.0,22706.189453125,7147.7890625,24957.65625,20053.38671875,9758.47265625,11653.900390625,23206.869140625,29618.740234375,22664.865234375,19738.673828125,21247.86328125,7365.544921875,29179.25390625,782.8076782226562,0.0,1696.7454833984375,14166.037109375,7088.1845703125,25976.5,16434.193359375,15353.3623046875,24985.47265625,9502.5703125,14247.099609375,8796.8515625,4378.95458984375,22850.037109375,9562.1748046875,17120.837890625,11785.8251953125,8967.716796875,12248.3564453125,11803.3095703125,2860.228271484375,10262.330078125,3414.94873046875,16743.341796875,6461.9384765625,8191.26806640625,2981.02685546875,11217.59375,5280.1767578125,23785.43359375,4377.365234375,17940.203125,3484.090087890625,9775.9560546875,26550.29296875,21421.91015625,11740.525390625,-0.0,-44009.68359375,19406.4765625,4475.11669921875,0.0,7116.79443359375,0.0,0.0
15681.5849609375,15439.9873046875,33634.50390625,11567.275390625,28289.953125,6771.88232421875,8209.5458984375,9336.4716796875,9098.84765625,6140.86767578125,17435.55078125,156.56153869628906,8797.6455078125,0.0,22705.396484375,7134.27880859375,24951.298828125,20054.974609375,9755.2939453125,11653.10546875,23204.484375,29613.17578125,22664.865234375,19735.494140625,21239.123046875,7358.39208984375,29157.00390625,773.2709350585938,0.0,1691.1824951171875,14160.4736328125,7081.03173828125,25970.935546875,16425.451171875,15353.3623046875,24982.294921875,9500.185546875,14241.5361328125,8788.1083984375,4370.21240234375,22846.064453125,9556.611328125,17118.453125,11779.4677734375,8966.9228515625,12240.41015625,11803.3095703125,2855.4599609375,10265.509765625,3410.180419921875,16743.341796875,6454.78564453125,8180.93603515625,2985.795166015625,11225.541015625,5272.2294921875,23796.55859375,4361.470703125,17944.177734375,3472.964111328125,9768.8037109375,26550.29296875,21417.140625,11738.9365234375,-0.0,-44012.86328125,19404.888671875,4470.34814453125,0.0,7100.10546875,0.0,0.0
15675.2265625,15434.4248046875,33632.1171875,11558.533203125,28293.927734375,6772.6767578125,8208.751953125,9340.4453125,9106.794921875,6154.37841796875,17433.166015625,150.20370483398438,8790.4931640625,0.0,22703.806640625,7140.63623046875,24948.916015625,20056.56640625,9756.8828125,11662.642578125,23202.896484375,29611.587890625,22668.837890625,19737.0859375,21229.5859375,7358.39208984375,29151.439453125,778.8340454101562,0.0,1690.3876953125,14159.6796875,7081.82666015625,25968.55078125,16424.65625,15354.951171875,24983.087890625,9499.390625,14245.509765625,8782.5458984375,4366.2392578125,22845.267578125,9554.2265625,17120.837890625,11781.056640625,8968.5126953125,12245.177734375,11801.7197265625,2850.691650390625,10258.357421875,3410.180419921875,16736.189453125,6461.9384765625,8177.75732421875,2982.616455078125,11223.9521484375,5269.05078125,23813.248046875,4363.06005859375,17941.79296875,3484.090087890625,9766.4189453125,26549.498046875,21421.11328125,11748.4736328125,-0.0,-44016.04296875,19409.65625,4465.580078125,0.0,7106.462890625,0.0,0.0
15662.51171875,15426.4765625,33624.96484375,11551.3798828125,28290.748046875,6766.3193359375,8198.4208984375,9337.265625,9107.58984375,6159.14697265625,17414.09375,139.8722381591797,8780.162109375,0.0,22695.859375,7138.25244140625,24940.966796875,20049.4140625,9752.9091796875,11665.0263671875,23194.154296875,29605.23046875,22666.455078125,19733.111328125,21216.07421875,7351.23974609375,29151.439453125,773.2709350585938,0.0,1682.4404296875,14154.9111328125,7073.08447265625,25962.1953125,16418.298828125,15348.59375,24976.73046875,9495.41796875,14239.15234375,8769.03515625,4361.470703125,22837.3203125,9547.07421875,17114.48046875,11777.8779296875,8962.94921875,12245.97265625,11786.6201171875,2841.15478515625,10232.92578125,3407.00146484375,16717.91015625,6457.96435546875,8161.06787109375,2969.90087890625,11175.4736328125,5260.30859375,23808.478515625,4357.49658203125,17934.640625,3486.474365234375,9752.1142578125,26544.728515625,21417.935546875,11750.857421875,-0.0,-44026.375,19405.68359375,4448.095703125,0.0,7108.84716796875,0.0,0.0
15666.484375,15434.4248046875,33630.53125,11562.5068359375,28289.953125,6777.4453125,8207.162109375,9349.1865234375,9115.537109375,6180.6044921875,17422.833984375,142.2564239501953,8788.9033203125,0.0,22703.01171875,7150.17333984375,24948.12109375,20054.181640625,9762.4462890625,11679.33203125,23200.51171875,29613.97265625,22676.787109375,19741.05859375,21227.994140625,7363.955078125,29165.744140625,784.3970947265625,0.0,1689.593017578125,14161.26953125,7079.4423828125,25967.755859375,16423.861328125,15353.3623046875,24987.0625,9504.9541015625,14250.2783203125,8773.009765625,4365.4443359375,22841.294921875,9555.81640625,17119.25,11788.208984375,8971.69140625,12258.6884765625,11789.00390625,2846.7177734375,10233.7197265625,3419.717041015625,16730.626953125,6471.47509765625,8154.7099609375,2975.4638671875,11188.984375,5269.845703125,23798.146484375,4367.03369140625,17942.5859375,3500.779296875,9754.498046875,26554.265625,21430.650390625,11758.009765625,-0.0,-44026.375,19404.888671875,4460.0166015625,0.0,7128.71533203125,0.0,0.0
15669.6640625,15439.9873046875,33636.09375,11569.6591796875,28285.185546875,6784.59765625,8212.7255859375,9357.9296875,9111.5634765625,6193.31982421875,17425.21875,150.99842834472656,8796.0556640625,0.0,22705.396484375,7164.478515625,24952.09375,20058.951171875,9769.5986328125,11680.1259765625,23204.484375,29619.53515625,22683.939453125,19746.623046875,21242.30078125,7375.8759765625,29171.30859375,792.3444213867188,0.0,1691.1824951171875,14164.4482421875,7084.2109375,25972.525390625,16428.62890625,15355.74609375,24990.240234375,9509.72265625,14259.0205078125,8776.1875,4369.41748046875,22844.47265625,9565.353515625,17120.837890625,11793.7724609375,8978.048828125,12267.4306640625,11793.7724609375,2848.307373046875,10259.9462890625,3427.66455078125,16739.369140625,6483.39599609375,8154.7099609375,2980.232177734375,11204.0830078125,5279.38232421875,23803.7109375,4379.74951171875,17941.79296875,3513.4951171875,9761.6513671875,26558.240234375,21435.419921875,11754.0361328125,-0.0,-44014.453125,19408.861328125,4479.88525390625,0.0,7154.94140625,0.0,0.0
15668.0732421875,15431.2451171875,33631.32421875,11564.890625,28283.595703125,6783.0087890625,8214.314453125,9353.955078125,9113.15234375,6178.22021484375,17412.50390625,150.20370483398438,8791.287109375,0.0,22700.62890625,7166.0673828125,24948.916015625,20051.798828125,9767.21484375,11673.767578125,23201.306640625,29616.35546875,22683.14453125,19742.646484375,21230.37890625,7367.92919921875,29157.796875,789.960205078125,0.0,1684.8245849609375,14162.0634765625,7081.82666015625,25970.140625,16427.041015625,15354.15625,24984.677734375,9508.1328125,14256.63671875,8773.009765625,4365.4443359375,22838.115234375,9562.1748046875,17123.22265625,11792.1826171875,8977.25390625,12261.0732421875,11785.0302734375,2845.923095703125,10248.025390625,3421.306640625,16740.95703125,6483.39599609375,8161.06787109375,2977.053466796875,11193.751953125,5275.408203125,23803.7109375,4386.10693359375,17940.998046875,3507.931884765625,9754.498046875,26556.650390625,21430.650390625,11748.4736328125,-0.0,-44017.6328125,19412.041015625,4490.216796875,0.0,7146.19970703125,0.0,0.0
15660.1279296875,15417.7353515625,33626.5546875,11552.9697265625,28272.470703125,6771.087890625,8199.21484375,9337.265625,9105.205078125,6147.22607421875,17413.296875,147.02479553222656,8787.314453125,0.0,22695.064453125,7145.40478515625,24940.171875,20041.46484375,9754.498046875,11656.2841796875,23193.359375,29603.638671875,22672.017578125,19730.7265625,21229.5859375,7356.0078125,29135.544921875,777.2445678710938,0.0,1679.2615966796875,14152.52734375,7075.46875,25961.3984375,16417.50390625,15344.6201171875,24973.55078125,9496.2119140625,14239.947265625,8770.625,4359.08642578125,22832.552734375,9551.0478515625,17109.712890625,11776.2880859375,8966.1279296875,12241.2041015625,11781.056640625,2831.6181640625,10248.025390625,3408.591064453125,16727.447265625,6465.912109375,8163.4521484375,2969.90087890625,11192.9580078125,5271.4345703125,23802.123046875,4380.5439453125,17933.845703125,3480.9111328125,9754.498046875,26544.728515625,21415.552734375,11741.3203125,-0.0,-44019.22265625,19406.4765625,4482.26953125,0.0,7110.43701171875,0.0,0.0
15650.5908203125,15412.1708984375,33620.99609375,11547.40625,28267.701171875,6759.96142578125,8191.26806640625,9329.3193359375,9109.1796875,6140.0732421875,17407.736328125,138.28277587890625,8788.9033203125,0.0,22695.859375,7135.0732421875,24933.01953125,20033.517578125,9745.7568359375,11656.2841796875,23185.412109375,29595.693359375,22665.658203125,19721.189453125,21228.791015625,7349.64990234375,29138.72265625,770.88671875,0.0,1673.698486328125,14143.7841796875,7068.31591796875,25955.8359375,16408.76171875,15335.0830078125,24965.60546875,9489.853515625,14231.205078125,8768.2412109375,4352.728515625,22828.578125,9543.1015625,17098.5859375,11765.162109375,8959.7705078125,12233.2568359375,11778.671875,2826.849609375,10255.177734375,3401.4384765625,16718.70703125,6457.169921875,8162.65771484375,2955.595703125,11182.6259765625,5262.69287109375,23806.095703125,4373.3916015625,17935.43359375,3469.784912109375,9754.498046875,26533.603515625,21410.783203125,11749.267578125,-0.0,-44027.96484375,19408.861328125,4452.06982421875,0.0,7088.1845703125,0.0,0.0
15641.0537109375,15412.1708984375,33617.01953125,11552.1748046875,28274.05859375,6759.96142578125,8200.009765625,9330.9091796875,9126.6630859375,6151.994140625,17405.3515625,132.7196807861328,8782.5458984375,0.0,22705.396484375,7138.25244140625,24935.404296875,20035.109375,9750.525390625,11674.5634765625,23186.20703125,29594.8984375,22669.634765625,19721.189453125,21231.970703125,7351.23974609375,29149.0546875,770.092041015625,0.0,1677.6719970703125,14144.580078125,7066.7265625,25957.42578125,16409.5546875,15338.26171875,24967.193359375,9494.6220703125,14232.794921875,8772.2138671875,4358.29150390625,22830.962890625,9541.51171875,17106.533203125,11766.7509765625,8970.1015625,12236.435546875,11771.51953125,2840.35986328125,10255.97265625,3399.848876953125,16729.037109375,6459.55419921875,8154.7099609375,2950.827392578125,11175.4736328125,5261.10302734375,23805.298828125,4371.00732421875,17948.150390625,3472.964111328125,9755.2939453125,26536.783203125,21417.140625,11782.646484375,-0.0,-44033.52734375,19413.62890625,4450.47998046875,0.0,7089.7734375,0.0,0.0
15645.02734375,15402.634765625,33619.40234375,11553.7646484375,28272.470703125,6758.3720703125,8203.1884765625,9329.3193359375,9130.63671875,6151.994140625,17415.681640625,133.514404296875,8784.9306640625,0.0,22706.986328125,7137.45751953125,24934.611328125,20038.287109375,9752.1142578125,11677.7421875,23187.001953125,29594.8984375,22666.455078125,19719.6015625,21225.611328125,7348.060546875,29149.8515625,764.5289306640625,0.0,1675.287841796875,14143.7841796875,7065.931640625,25957.42578125,16411.146484375,15339.8515625,24967.193359375,9497.0068359375,14233.5888671875,8784.9306640625,4361.470703125,22830.16796875,9541.51171875,17110.505859375,11764.3671875,8972.4853515625,12238.025390625,11777.0830078125,2848.307373046875,10250.4091796875,3393.490966796875,16733.8046875,6461.1435546875,8145.1728515625,2951.6220703125,11175.4736328125,5261.10302734375,23805.298828125,4359.880859375,17951.330078125,3470.579833984375,9755.2939453125,26538.37109375,21418.73046875,11789.798828125,-0.0,-44039.88671875,19409.65625,4440.14892578125,0.0,7085.80029296875,0.0,0.0
15638.669921875,15392.3037109375,33623.37890625,11557.73828125,28270.0859375,6758.3720703125,8200.009765625,9330.11328125,9122.689453125,6150.404296875,17411.708984375,122.38819885253906,8781.7509765625,0.0,22706.986328125,7141.43115234375,24935.404296875,20038.287109375,9751.3203125,11671.3837890625,23185.412109375,29594.8984375,22659.30078125,19721.189453125,21217.6640625,7346.47119140625,29149.8515625,761.3499755859375,0.0,1666.5458984375,14142.1953125,7067.521484375,25956.630859375,16414.32421875,15339.056640625,24967.193359375,9495.41796875,14233.5888671875,8788.1083984375,4362.26513671875,22827.783203125,9542.3056640625,17108.91796875,11764.3671875,8969.306640625,12238.025390625,11774.69921875,2846.7177734375,10245.640625,3391.901611328125,16732.216796875,6460.3486328125,8134.04736328125,2947.648193359375,11176.2685546875,5256.3349609375,23805.298828125,4358.29150390625,17950.53515625,3475.34814453125,9752.9091796875,26535.193359375,21417.140625,11759.5986328125,-0.0,-44051.80859375,19405.68359375,4446.50634765625,0.0,7090.568359375,0.0,0.0
15636.2861328125,15370.845703125,33627.3515625,11560.9169921875,28274.05859375,6761.55078125,8198.4208984375,9330.9091796875,9109.9736328125,6150.404296875,17397.404296875,123.9776611328125,8769.830078125,0.0,22699.83203125,7134.27880859375,24936.19921875,20033.517578125,9749.73046875,11657.8740234375,23187.794921875,29598.078125,22656.123046875,19721.984375,21224.81640625,7348.85546875,29145.875,763.7341918945312,0.0,1664.16162109375,14145.3740234375,7062.75341796875,25959.810546875,16414.32421875,15339.056640625,24969.578125,9494.6220703125,14233.5888671875,8751.5517578125,4360.67578125,22830.962890625,9547.07421875,17107.328125,11767.546875,8965.3330078125,12237.2314453125,11777.0830078125,2842.744140625,10246.4365234375,3396.670166015625,16726.65234375,6458.75927734375,8134.04736328125,2946.853515625,11168.3203125,5253.95068359375,23800.53125,4353.5234375,17941.79296875,3479.32177734375,9743.373046875,26534.3984375,21415.552734375,11731.7841796875,-0.0,-44049.421875,19403.298828125,4467.16943359375,0.0,7108.052734375,0.0,0.0
15653.7685546875,15367.6669921875,33637.68359375,11566.4794921875,28278.828125,6770.29296875,8197.625,9331.703125,9099.642578125,6148.81494140625,17412.50390625,138.28277587890625,8769.830078125,0.0,22690.296875,7134.27880859375,24942.556640625,20038.287109375,9747.345703125,11651.515625,23193.359375,29603.638671875,22656.91796875,19725.95703125,21234.353515625,7352.8291015625,29145.875,772.4761962890625,0.0,1677.6719970703125,14150.142578125,7069.90576171875,25966.962890625,16422.271484375,15342.2353515625,24973.55078125,9493.033203125,14234.3837890625,8766.6513671875,4355.11279296875,22839.705078125,9551.0478515625,17110.505859375,11772.3154296875,8960.564453125,12236.435546875,11801.7197265625,2833.207275390625,10251.9990234375,3405.411865234375,16721.08984375,6456.375,8154.7099609375,2961.953369140625,11174.6787109375,5254.74560546875,23798.146484375,4359.08642578125,17929.078125,3473.7587890625,9750.525390625,26537.576171875,21413.9609375,11733.373046875,-0.0,-44042.26953125,19396.939453125,4467.96435546875,0.0,7111.2314453125,0.0,0.0
15664.896484375,15380.3828125,33636.88671875,11568.0693359375,28279.623046875,6769.49853515625,8195.2412109375,9329.3193359375,9104.4111328125,6147.22607421875,17426.013671875,129.54075622558594,8779.3662109375,0.0,22693.4765625,7137.45751953125,24940.966796875,20040.669921875,9744.9619140625,11657.0791015625,23192.564453125,29601.255859375,22656.91796875,19724.369140625,21237.53125,7352.0341796875,29149.0546875,770.092041015625,0.0,1668.9300537109375,14148.552734375,7071.4951171875,25965.373046875,16419.88671875,15342.2353515625,24971.166015625,9492.23828125,14231.9990234375,8772.2138671875,4355.9072265625,22842.087890625,9551.8427734375,17110.505859375,11772.3154296875,8962.154296875,12234.0517578125,11805.693359375,2830.028564453125,10251.2041015625,3404.6171875,16724.267578125,6455.580078125,8172.1943359375,2963.54296875,11188.189453125,5250.77197265625,23798.943359375,4359.880859375,17932.255859375,3468.990234375,9753.7041015625,26535.98828125,21413.9609375,11746.0888671875,-0.0,-44047.83203125,19388.19921875,4447.30126953125,0.0,7104.87353515625,0.0,0.0
15668.869140625,15410.5830078125,33636.09375,11564.890625,28284.390625,6772.6767578125,8199.21484375,9331.703125,9113.15234375,6150.404296875,17429.193359375,126.36184692382812,8788.1083984375,0.0,22699.037109375,7137.45751953125,24943.3515625,20043.849609375,9748.1416015625,11664.2314453125,23198.923828125,29605.23046875,22661.685546875,19726.75390625,21245.48046875,7356.0078125,29153.029296875,767.7078247070312,0.0,1669.724853515625,14152.52734375,7075.46875,25967.755859375,16420.68359375,15344.6201171875,24974.345703125,9494.6220703125,14233.5888671875,8771.419921875,4364.6494140625,22846.064453125,9558.201171875,17116.865234375,11772.3154296875,8968.5126953125,12236.435546875,11800.1298828125,2840.35986328125,10259.1513671875,3402.233154296875,16729.83203125,6457.169921875,8173.783203125,2959.5693359375,11197.7265625,5254.74560546875,23800.53125,4358.29150390625,17939.41015625,3472.169189453125,9749.73046875,26536.783203125,21416.345703125,11752.4462890625,-0.0,-44048.625,19403.298828125,4436.1748046875,0.0,7106.462890625,0.0,0.0
15664.1005859375,15424.8876953125,33624.96484375,11554.55859375,28280.416015625,6768.70361328125,8194.4462890625,9327.7294921875,9113.15234375,6148.81494140625,17420.451171875,121.59347534179688,8788.1083984375,0.0,22692.6796875,7125.53662109375,24939.37890625,20039.876953125,9745.7568359375,11657.8740234375,23193.359375,29602.05078125,22657.712890625,19721.984375,21238.326171875,7343.2919921875,29148.259765625,759.7605590820312,0.0,1668.9300537109375,14150.142578125,7070.7001953125,25962.1953125,16415.119140625,15341.44140625,24971.962890625,9489.0595703125,14230.41015625,8770.625,4359.880859375,22838.91015625,9550.25390625,17112.890625,11766.7509765625,8965.3330078125,12233.2568359375,11784.236328125,2834.796875,10255.97265625,3390.312255859375,16725.0625,6450.81201171875,8172.1943359375,2939.701171875,11196.9306640625,5249.18212890625,23795.763671875,4345.57568359375,17933.05078125,3472.964111328125,9736.220703125,26532.80859375,21412.373046875,11746.0888671875,-0.0,-44052.6015625,19408.068359375,4437.7646484375,0.0,7107.2578125,0.0,0.0
15659.33203125,15420.9140625,33608.27734375,11541.84375,28266.90625,6761.55078125,8189.67822265625,9323.755859375,9119.5107421875,6148.81494140625,17402.966796875,121.59347534179688,8784.9306640625,0.0,22690.296875,7116.79443359375,24929.841796875,20033.517578125,9740.98828125,11660.2578125,23183.02734375,29594.8984375,22650.560546875,19715.626953125,21213.689453125,7338.52392578125,29142.69921875,756.5816040039062,0.0,1667.340576171875,14142.990234375,7060.369140625,25951.86328125,16407.966796875,15332.69921875,24967.193359375,9484.291015625,14224.052734375,8764.2666015625,4347.16552734375,22823.015625,9545.4853515625,17102.560546875,11762.7783203125,8962.154296875,12229.283203125,11764.3671875,2818.107666015625,10244.8466796875,3389.517578125,16721.8828125,6447.63330078125,8164.24658203125,2936.522216796875,11193.751953125,5247.5927734375,23794.96875,4337.62890625,17933.845703125,3465.0166015625,9721.9150390625,26527.24609375,21407.603515625,11754.0361328125,-0.0,-44053.39453125,19409.65625,4444.9169921875,0.0,7110.43701171875,0.0,0.0
15656.9482421875,15412.1708984375,33610.66015625,11541.048828125,28266.111328125,6759.16650390625,8188.08837890625,9321.3720703125,9124.279296875,6150.404296875,17405.3515625,123.9776611328125,8783.3408203125,0.0,22690.296875,7116.79443359375,24928.251953125,20031.9296875,9739.3994140625,11663.4365234375,23181.4375,29592.513671875,22647.380859375,19714.037109375,21215.28125,7345.67626953125,29141.90234375,758.1710815429688,0.0,1665.7510986328125,14139.8115234375,7059.57421875,25951.06640625,16407.171875,15330.314453125,24965.60546875,9481.9072265625,14223.2578125,8759.4990234375,4341.6025390625,22823.015625,9541.51171875,17102.560546875,11762.7783203125,8962.154296875,12227.6943359375,11767.546875,2825.26025390625,10247.23046875,3394.285888671875,16719.5,6446.04345703125,8158.68359375,2948.443115234375,11188.984375,5250.77197265625,23792.5859375,4340.01318359375,17935.43359375,3465.0166015625,9730.65625,26526.451171875,21407.603515625,11760.39453125,-0.0,-44054.984375,19414.42578125,4449.685546875,0.0,7108.052734375,0.0,0.0
15658.537109375,15408.9931640625,33617.8125,11543.43359375,28270.87890625,6762.345703125,8189.67822265625,9325.3447265625,9128.2529296875,6154.37841796875,17412.50390625,126.36184692382812,8783.3408203125,0.0,22692.6796875,7120.76806640625,24930.634765625,20029.544921875,9740.193359375,11665.0263671875,23184.6171875,29594.8984375,22647.380859375,19714.83203125,21224.81640625,7349.64990234375,29143.4921875,760.5552978515625,0.0,1660.1881103515625,14142.990234375,7060.369140625,25951.86328125,16407.966796875,15330.314453125,24965.60546875,9481.9072265625,14226.4365234375,8753.935546875,4342.39697265625,22829.375,9542.3056640625,17101.765625,11765.95703125,8964.5390625,12230.0791015625,11781.8515625,2837.975830078125,10253.5888671875,3401.4384765625,16721.08984375,6448.427734375,8161.8623046875,2948.443115234375,11187.39453125,5251.56640625,23794.173828125,4344.78125,17937.818359375,3471.37451171875,9744.1669921875,26528.0390625,21409.98828125,11763.572265625,-0.0,-44050.21484375,19411.24609375,4455.24853515625,0.0,7115.205078125,0.0,0.0
15650.5908203125,15401.83984375,33613.04296875,11537.869140625,28266.111328125,6755.193359375,8184.90966796875,9320.5771484375,9122.689453125,6148.81494140625,17409.32421875,117.61983489990234,8784.134765625,0.0,22691.884765625,7115.205078125,24925.8671875,20020.802734375,9735.4248046875,11661.8466796875,23179.849609375,29590.12890625,22641.0234375,19710.064453125,21230.37890625,7343.2919921875,29144.287109375,754.1974487304688,0.0,1657.0091552734375,14136.6318359375,7054.8056640625,25948.68359375,16402.40234375,15325.5458984375,24961.62890625,9477.9326171875,14220.8740234375,8753.140625,4332.0654296875,22828.578125,9538.3330078125,17097.791015625,11758.8046875,8959.7705078125,12226.8994140625,11781.8515625,2838.7705078125,10254.3828125,3394.285888671875,16720.294921875,6443.6591796875,8156.2998046875,2935.727294921875,11200.1103515625,5242.82470703125,23794.96875,4341.6025390625,17935.43359375,3467.40087890625,9740.98828125,26520.88671875,21404.423828125,11758.009765625,-0.0,-44062.13671875,19400.119140625,4449.685546875,0.0,7111.2314453125,0.0,0.0
15655.359375,15405.0185546875,33613.04296875,11540.25390625,28262.138671875,6756.78271484375,8180.1416015625,9318.98828125,9117.126953125,6144.841796875,17413.296875,116.82510375976562,8780.162109375,0.0,22691.884765625,7122.35791015625,24926.662109375,20019.212890625,9730.65625,11660.2578125,23179.0546875,29589.333984375,22635.458984375,19708.474609375,21219.25390625,7345.67626953125,29141.90234375,756.5816040039062,0.0,1661.7774658203125,14135.04296875,7054.8056640625,25950.2734375,16403.19921875,15321.572265625,24961.62890625,9474.75390625,14217.6943359375,8757.1142578125,4335.24462890625,22825.3984375,9542.3056640625,17092.228515625,11758.8046875,8954.20703125,12226.8994140625,11785.8251953125,2842.744140625,10243.2568359375,3395.08056640625,16718.70703125,6443.6591796875,8163.4521484375,2941.29052734375,11192.162109375,5246.7978515625,23793.37890625,4348.7548828125,17934.640625,3467.40087890625,9745.7568359375,26516.119140625,21401.24609375,11757.21484375,-0.0,-44066.90625,19400.916015625,4452.8642578125,0.0,7110.43701171875,0.0,0.0
15658.537109375,15409.787109375,33619.40234375,11549.7900390625,28265.318359375,6764.72998046875,8181.7314453125,9325.3447265625,9110.7685546875,6147.22607421875,17417.2734375,123.18293762207031,8784.134765625,0.0,22691.091796875,7135.0732421875,24931.431640625,20024.77734375,9732.24609375,11660.2578125,23183.02734375,29598.078125,22637.048828125,19713.244140625,21224.021484375,7355.21337890625,29143.4921875,763.7341918945312,0.0,1668.9300537109375,14138.2216796875,7057.18994140625,25952.658203125,16408.76171875,15324.751953125,24964.80859375,9476.34375,14221.66796875,8757.9091796875,4342.39697265625,22829.375,9549.458984375,17093.81640625,11765.95703125,8954.20703125,12230.873046875,11788.208984375,2846.7177734375,10245.640625,3409.3857421875,16719.5,6447.63330078125,8162.65771484375,2950.032470703125,11183.4208984375,5260.30859375,23794.96875,4355.9072265625,17936.23046875,3472.169189453125,9751.3203125,26517.708984375,21402.041015625,11753.2412109375,-0.0,-44058.1640625,19403.298828125,4463.19580078125,0.0,7112.0263671875,0.0,0.0
15660.9208984375,15416.1455078125,33632.1171875,11566.4794921875,28276.443359375,6775.06103515625,8189.67822265625,9333.29296875,9113.15234375,6153.58349609375,17430.783203125,135.10386657714844,8784.134765625,0.0,22696.654296875,7139.841796875,24940.171875,20033.517578125,9740.98828125,11665.8212890625,23193.359375,29604.435546875,22644.201171875,19721.984375,21246.275390625,7370.31298828125,29149.8515625,776.4498291015625,0.0,1681.645751953125,14148.552734375,7065.931640625,25962.1953125,16417.50390625,15334.2890625,24974.345703125,9481.9072265625,14231.205078125,8769.03515625,4349.5498046875,22841.294921875,9558.201171875,17102.560546875,11777.8779296875,8958.9755859375,12237.2314453125,11798.541015625,2852.28076171875,10257.5615234375,3426.074951171875,16724.267578125,6455.580078125,8165.0419921875,2961.15869140625,11192.162109375,5272.2294921875,23796.55859375,4368.623046875,17942.5859375,3479.32177734375,9758.47265625,26527.24609375,21408.400390625,11756.419921875,-0.0,-44043.0625,19408.861328125,4472.732421875,0.0,7112.0263671875,0.0,0.0
15649.7958984375,15411.376953125,33630.53125,11552.1748046875,28279.623046875,6776.65087890625,8194.4462890625,9333.29296875,9120.3046875,6157.55712890625,17432.37109375,138.28277587890625,8777.77734375,0.0,22700.62890625,7139.841796875,24937.787109375,20032.724609375,9744.1669921875,11671.3837890625,23194.154296875,29605.23046875,22647.380859375,19723.57421875,21247.86328125,7369.51806640625,29155.412109375,777.2445678710938,0.0,1681.645751953125,14149.3486328125,7065.13720703125,25962.98828125,16416.70703125,15335.876953125,24975.140625,9486.6748046875,14231.9990234375,8770.625,4349.5498046875,22843.6796875,9556.611328125,17108.12109375,11779.4677734375,8960.564453125,12238.025390625,11802.513671875,2849.896728515625,10263.125,3425.2802734375,16729.037109375,6457.169921875,8169.01513671875,2955.595703125,11199.3154296875,5269.05078125,23798.146484375,4373.3916015625,17946.5625,3480.11669921875,9756.087890625,26528.8359375,21410.783203125,11766.7509765625,-0.0,-44033.52734375,19406.4765625,4466.375,0.0,7114.41015625,0.0,0.0
15636.2861328125,15393.09765625,33613.84375,11531.5126953125,28274.05859375,6761.55078125,8188.8837890625,9322.166015625,9113.9482421875,6146.43115234375,17393.431640625,127.15657043457031,8783.3408203125,0.0,22703.01171875,7130.3046875,24922.689453125,20020.0078125,9735.4248046875,11661.052734375,23181.4375,29591.71875,22639.43359375,19713.244140625,21224.81640625,7348.85546875,29162.564453125,764.5289306640625,0.0,1670.51953125,14136.6318359375,7052.42138671875,25948.68359375,16402.40234375,15327.1357421875,24963.220703125,9481.1123046875,14222.462890625,8756.3203125,4337.62890625,22832.552734375,9541.51171875,17104.943359375,11768.3408203125,8955.7958984375,12228.4892578125,11781.8515625,2834.796875,10263.919921875,3404.6171875,16728.2421875,6446.04345703125,8147.55712890625,2938.906494140625,11187.39453125,5261.10302734375,23800.53125,4361.470703125,17947.35546875,3469.784912109375,9740.193359375,26519.298828125,21401.24609375,11754.0361328125,-0.0,-44040.6796875,19390.583984375,4451.27490234375,0.0,7104.87353515625,0.0,0.0
15647.4111328125,15405.0185546875,33621.7890625,11539.458984375,28280.416015625,6765.5244140625,8192.8564453125,9330.11328125,9114.7421875,6153.58349609375,17391.046875,129.54075622558594,8790.4931640625,0.0,22703.806640625,7143.0205078125,24930.634765625,20023.98046875,9739.3994140625,11662.642578125,23187.001953125,29595.693359375,22645.79296875,19717.216796875,21224.021484375,7339.31884765625,29163.361328125,773.2709350585938,0.0,1682.4404296875,14140.60546875,7057.18994140625,25953.451171875,16407.966796875,15331.904296875,24967.98828125,9485.0859375,14228.0263671875,8767.4453125,4347.16552734375,22838.91015625,9544.6904296875,17112.09765625,11773.904296875,8959.7705078125,12235.6416015625,11781.056640625,2845.12841796875,10262.330078125,3406.206787109375,16729.83203125,6454.78564453125,8149.14697265625,2950.032470703125,11188.984375,5266.66650390625,23802.123046875,4372.5966796875,17948.150390625,3477.732421875,9744.1669921875,26524.861328125,21406.80859375,11754.0361328125,-0.0,-44042.26953125,19390.583984375,4460.8115234375,0.0,7112.8212890625,0.0,0.0
15659.33203125,15414.5556640625,33627.3515625,11550.5859375,28275.6484375,6773.4716796875,8191.26806640625,9338.85546875,9117.9208984375,6161.53076171875,17416.4765625,140.66696166992188,8795.26171875,0.0,22691.091796875,7156.53076171875,24936.19921875,20034.3125,9746.5517578125,11670.58984375,23190.1796875,29601.255859375,22647.380859375,19724.369140625,21234.353515625,7364.75,29141.107421875,782.012939453125,0.0,1693.566650390625,14145.3740234375,7065.13720703125,25959.015625,16415.119140625,15335.876953125,24975.140625,9486.6748046875,14236.767578125,8769.830078125,4358.29150390625,22839.705078125,9554.2265625,17105.73828125,11781.8515625,8960.564453125,12245.177734375,11782.646484375,2855.4599609375,10246.4365234375,3415.74365234375,16721.8828125,6465.912109375,8153.91552734375,2963.54296875,11204.0830078125,5275.408203125,23793.37890625,4386.90185546875,17937.818359375,3494.421630859375,9748.935546875,26530.423828125,21413.9609375,11762.7783203125,-0.0,-44035.1171875,19400.916015625,4471.14306640625,0.0,7116.79443359375,0.0,0.0
15658.537109375,15414.5556640625,33625.76171875,11556.1484375,28279.623046875,6779.03515625,8200.009765625,9342.0341796875,9130.63671875,6171.8623046875,17423.62890625,146.2300567626953,8785.724609375,0.0,22699.037109375,7155.736328125,24936.994140625,20037.4921875,9754.498046875,11682.5107421875,23192.564453125,29606.818359375,22655.328125,19729.93359375,21240.7109375,7368.7236328125,29150.64453125,783.6024169921875,0.0,1693.566650390625,14148.552734375,7066.7265625,25959.810546875,16419.88671875,15341.44140625,24979.115234375,9494.6220703125,14241.5361328125,8759.4990234375,4354.318359375,22838.91015625,9560.5849609375,17112.09765625,11786.6201171875,8970.1015625,12251.5361328125,11780.26171875,2854.6650390625,10249.6142578125,3419.717041015625,16733.01171875,6469.0908203125,8149.94140625,2969.90087890625,11210.44140625,5275.408203125,23783.048828125,4386.10693359375,17950.53515625,3499.190185546875,9748.935546875,26536.783203125,21420.3203125,11774.69921875,-0.0,-44027.96484375,19408.068359375,4472.732421875,0.0,7131.099609375,0.0,0.0
15661.716796875,15422.50390625,33628.94140625,11558.533203125,28297.900390625,6786.1875,8215.109375,9345.2138671875,9137.7900390625,6172.6572265625,17426.013671875,154.17735290527344,8790.4931640625,0.0,22708.57421875,7155.736328125,24944.94140625,20043.849609375,9763.2412109375,11688.8681640625,23202.1015625,29613.17578125,22668.04296875,19737.87890625,21255.015625,7375.08154296875,29176.87109375,785.986572265625,0.0,1691.1824951171875,14154.9111328125,7072.2900390625,25966.962890625,16426.244140625,15350.1826171875,24986.267578125,9506.54296875,14247.099609375,8769.03515625,4355.9072265625,22849.2421875,9567.7373046875,17131.169921875,11790.5927734375,8979.6376953125,12254.71484375,11792.1826171875,2857.843994140625,10269.482421875,3424.4853515625,16751.2890625,6473.064453125,8153.12109375,2977.84814453125,11215.2099609375,5280.9716796875,23787.021484375,4389.2861328125,17959.275390625,3495.21630859375,9754.498046875,26546.3203125,21427.47265625,11777.0830078125,-0.0,-44019.22265625,19410.451171875,4472.732421875,0.0,7132.68896484375,0.0,0.0
15656.15234375,15412.1708984375,33627.3515625,11560.9169921875,28305.0546875,6781.41943359375,8218.2880859375,9343.6240234375,9138.583984375,6169.47802734375,17421.24609375,145.43533325195312,8801.619140625,0.0,22706.986328125,7154.146484375,24940.966796875,20043.849609375,9761.6513671875,11691.2529296875,23199.716796875,29610.79296875,22666.455078125,19737.0859375,21250.248046875,7371.90234375,29180.05078125,780.4234619140625,0.0,1684.8245849609375,14152.52734375,7064.34228515625,25963.783203125,16423.861328125,15350.1826171875,24986.267578125,9507.3388671875,14245.509765625,8765.8564453125,4342.39697265625,22848.447265625,9563.763671875,17139.912109375,11785.8251953125,8980.43359375,12251.5361328125,11796.951171875,2857.843994140625,10278.224609375,3418.92236328125,16755.26171875,6471.47509765625,8153.91552734375,2970.695556640625,11204.0830078125,5279.38232421875,23801.326171875,4382.92822265625,17952.919921875,3492.03759765625,9744.1669921875,26545.525390625,21429.0625,11776.2880859375,-0.0,-44032.734375,19408.861328125,4463.99072265625,0.0,7126.33154296875,0.0,0.0
15651.384765625,15405.0185546875,33618.609375,11549.7900390625,28287.568359375,6774.2666015625,8200.009765625,9340.4453125,9129.0478515625,6171.06787109375,17412.50390625,139.07749938964844,8784.134765625,0.0,22696.654296875,7147.7890625,24933.01953125,20036.697265625,9754.498046875,11688.8681640625,23187.794921875,29601.255859375,22655.328125,19731.521484375,21211.3046875,7366.33935546875,29158.591796875,776.4498291015625,0.0,1678.466796875,14143.7841796875,7057.18994140625,25954.24609375,16413.53125,15340.6455078125,24979.115234375,9497.8017578125,14239.947265625,8754.73046875,4345.57568359375,22830.962890625,9555.81640625,17124.017578125,11779.4677734375,8966.9228515625,12249.15234375,11785.8251953125,2849.896728515625,10236.1044921875,3413.359375,16729.037109375,6465.912109375,8150.73681640625,2962.748291015625,11184.2158203125,5272.2294921875,23798.943359375,4374.18603515625,17944.177734375,3492.03759765625,9736.220703125,26538.37109375,21424.29296875,11779.4677734375,-0.0,-44037.50390625,19407.271484375,4460.0166015625,0.0,7126.33154296875,0.0,0.0
15644.2314453125,15400.25,33615.4296875,11547.40625,28278.033203125,6771.087890625,8187.2939453125,9337.265625,9108.3837890625,6167.888671875,17406.94140625,135.10386657714844,8788.1083984375,0.0,22687.912109375,7143.0205078125,24931.431640625,20032.724609375,9748.1416015625,11678.5361328125,23184.6171875,29600.462890625,22645.79296875,19725.1640625,21219.25390625,7361.57080078125,29149.8515625,770.88671875,0.0,1672.9036865234375,14140.60546875,7055.6005859375,25952.658203125,16409.5546875,15333.4931640625,24975.140625,9490.6494140625,14236.767578125,8754.73046875,4347.16552734375,22828.578125,9551.0478515625,17111.30078125,11774.69921875,8956.591796875,12245.97265625,11779.4677734375,2845.12841796875,10224.1826171875,3410.97509765625,16714.73046875,6464.32275390625,8153.12109375,2957.18505859375,11181.8310546875,5261.89794921875,23793.37890625,4366.2392578125,17933.845703125,3492.03759765625,9735.4248046875,26532.80859375,21417.935546875,11774.69921875,-0.0,-44050.21484375,19405.68359375,4461.6064453125,0.0,7134.27880859375,0.0,0.0
15624.3642578125,15394.6875,33612.25,11548.99609375,28271.67578125,6770.29296875,8188.08837890625,9337.265625,9102.8212890625,6166.29931640625,17406.14453125,132.7196807861328,8783.3408203125,0.0,22687.1171875,7149.37841796875,24929.841796875,20029.544921875,9748.1416015625,11674.5634765625,23183.822265625,29601.255859375,22641.81640625,19725.1640625,21227.201171875,7358.39208984375,29144.287109375,770.88671875,0.0,1672.9036865234375,14140.60546875,7054.0107421875,25951.06640625,16408.76171875,15331.109375,24973.55078125,9489.853515625,14235.9736328125,8759.4990234375,4342.39697265625,22826.990234375,9550.25390625,17108.91796875,11776.2880859375,8956.591796875,12245.177734375,11777.8779296875,2850.691650390625,10233.7197265625,3411.769775390625,16719.5,6465.1171875,8151.53125,2960.364013671875,11184.2158203125,5264.2822265625,23793.37890625,4366.2392578125,17930.666015625,3494.421630859375,9736.220703125,26530.423828125,21415.552734375,11769.1357421875,-0.0,-44050.21484375,19404.09375,4460.8115234375,0.0,7133.48388671875,0.0,0.0
15634.6953125,15398.6611328125,33613.84375,11548.99609375,28265.318359375,6766.3193359375,8184.90966796875,9332.498046875,9094.0791015625,6157.55712890625,17414.888671875,135.89859008789062,8777.77734375,0.0,22681.5546875,7141.43115234375,24929.046875,20025.572265625,9742.5771484375,11665.8212890625,23182.234375,29597.283203125,22634.6640625,19721.189453125,21229.5859375,7356.80224609375,29125.212890625,767.7078247070312,0.0,1678.466796875,14139.8115234375,7055.6005859375,25951.06640625,16410.3515625,15327.1357421875,24972.7578125,9482.701171875,14231.205078125,8758.7041015625,4336.833984375,22826.1953125,9549.458984375,17101.765625,11772.3154296875,8950.2333984375,12239.615234375,11783.4404296875,2849.896728515625,10240.078125,3408.591064453125,16714.73046875,6457.96435546875,8152.32568359375,2960.364013671875,11188.984375,5263.4873046875,23791.7890625,4363.06005859375,17921.923828125,3485.6796875,9738.6044921875,26525.65625,21412.373046875,11758.8046875,-0.0,-44047.83203125,19400.119140625,4458.42724609375,0.0,7116.79443359375,0.0,0.0
15642.642578125,15397.8662109375,33608.27734375,11541.84375,28256.57421875,6760.755859375,8170.6044921875,9322.9609375,9086.9267578125,6147.22607421875,17409.32421875,129.54075622558594,8787.314453125,0.0,22675.990234375,7131.099609375,24922.689453125,20016.03515625,9731.4521484375,11659.462890625,23175.875,29590.12890625,22622.744140625,19711.65234375,21223.2265625,7354.41845703125,29117.265625,759.7605590820312,0.0,1676.8773193359375,14133.453125,7050.83203125,25944.708984375,16404.787109375,15317.599609375,24967.98828125,9472.3701171875,14222.462890625,8749.1669921875,4337.62890625,22821.42578125,9543.8955078125,17084.279296875,11764.3671875,8939.107421875,12231.66796875,11775.4931640625,2841.949462890625,10245.640625,3403.82275390625,16699.6328125,6449.22265625,8144.37890625,2944.469482421875,11187.39453125,5259.513671875,23791.7890625,4351.93408203125,17916.361328125,3473.7587890625,9733.8359375,26516.119140625,21402.8359375,11756.419921875,-0.0,-44050.21484375,19396.939453125,4452.8642578125,0.0,7101.69482421875,0.0,0.0
15649.0,15401.83984375,33613.84375,11547.40625,28268.49609375,6770.29296875,8178.5517578125,9332.498046875,9094.0791015625,6156.7626953125,17410.119140625,135.89859008789062,8800.029296875,0.0,22683.14453125,7139.04736328125,24929.841796875,20028.75,9741.783203125,11666.615234375,23185.412109375,29598.078125,22632.28125,19720.396484375,21231.173828125,7363.16064453125,29132.365234375,769.2973022460938,0.0,1680.8509521484375,14141.400390625,7054.8056640625,25951.06640625,16412.734375,15325.5458984375,24973.55078125,9480.3173828125,14231.9990234375,8754.73046875,4349.5498046875,22830.16796875,9551.0478515625,17093.81640625,11773.109375,8947.849609375,12239.615234375,11770.7255859375,2846.7177734375,10255.177734375,3414.94873046875,16708.375,6457.96435546875,8139.6103515625,2940.495849609375,11186.599609375,5269.05078125,23795.763671875,4360.67578125,17926.693359375,3482.500732421875,9736.220703125,26524.861328125,21409.98828125,11761.9833984375,-0.0,-44044.65625,19399.32421875,4455.24853515625,0.0,7111.2314453125,0.0,0.0
15652.1796875,15407.4033203125,33618.609375,11552.9697265625,28273.263671875,6779.82958984375,8187.2939453125,9342.830078125,9100.4375,6159.94140625,17416.4765625,142.2564239501953,8790.4931640625,0.0,22684.732421875,7152.5576171875,24936.994140625,20035.90234375,9750.525390625,11672.1796875,23191.771484375,29605.23046875,22640.228515625,19729.13671875,21231.970703125,7369.51806640625,29137.9296875,779.6287841796875,0.0,1686.4140625,14149.3486328125,7061.95849609375,25956.630859375,16418.298828125,15332.69921875,24980.703125,9487.4697265625,14239.15234375,8761.8828125,4346.37060546875,22831.7578125,9555.81640625,17103.353515625,11782.646484375,8955.7958984375,12247.5625,11777.0830078125,2853.870361328125,10254.3828125,3424.4853515625,16717.115234375,6470.68017578125,8141.99462890625,2952.416748046875,11182.6259765625,5270.64013671875,23792.5859375,4372.5966796875,17929.873046875,3488.8583984375,9742.5771484375,26531.21875,21416.345703125,11759.5986328125,-0.0,-44039.08984375,19399.32421875,4455.24853515625,0.0,7115.205078125,0.0,0.0
