15371.640625,15059.3115234375,33285.6171875,10908.4443359375,27902.921875,6386.43896484375,7887.68115234375,9001.8916015625,8877.9130859375,5786.4189453125,17282.16796875,-419.61669921875,8561.611328125,0.0,22370.01953125,6730.556640625,24575.392578125,19696.5546875,9413.5595703125,11355.08203125,22869.90625,29207.865234375,22343.79296875,19380.25,20902.15625,6923.67578125,28809.705078125,414.0535888671875,0.0,1115.7989501953125,13797.283203125,6651.08349609375,25624.43359375,16047.9541015625,14971.0966796875,24563.470703125,9178.3212890625,13874.37109375,8529.02734375,3824.23388671875,22529.759765625,9168.7841796875,16706.78515625,11439.3232421875,8676.0517578125,11919.3388671875,11498.1337890625,2246.69775390625,9927.75,3003.279541015625,16384.125,6097.15771484375,7832.05029296875,2449.353515625,10916.392578125,4780.29248046875,23476.28125,4122.25732421875,17614.365234375,3100.236083984375,9376.2080078125,26148.955078125,21073.0234375,11763.572265625,-0.0,-44535.796875,19115.60546875,4207.29296875,0.0,6771.087890625,0.0,0.0
15380.3828125,15048.1865234375,33272.10546875,10888.576171875,27886.232421875,6373.7236328125,7876.5556640625,8988.380859375,8865.197265625,5768.9345703125,17286.935546875,-433.92181396484375,8551.2802734375,0.0,22360.482421875,6714.662109375,24563.470703125,19683.04296875,9398.4599609375,11336.8037109375,22856.39453125,29195.943359375,22332.66796875,19365.15234375,20878.314453125,6901.4228515625,28805.732421875,398.1590270996094,0.0,1102.28857421875,13786.9521484375,6647.90478515625,25613.30859375,16037.6220703125,14956.7919921875,24551.55078125,9164.810546875,13861.65625,8526.642578125,3813.107666015625,22511.482421875,9161.6318359375,16694.865234375,11425.0185546875,8663.3369140625,11903.4453125,11510.8486328125,2229.213623046875,9915.0341796875,2983.4111328125,16374.587890625,6082.05810546875,7840.79248046875,2445.3798828125,10915.5966796875,4779.49755859375,23461.18359375,4109.54150390625,17601.6484375,3081.95751953125,9357.9296875,26135.4453125,21058.716796875,11747.677734375,-0.0,-44547.71875,19099.712890625,4192.98779296875,0.0,6752.01416015625,0.0,0.0
15388.3291015625,15057.72265625,33277.671875,10898.11328125,27894.974609375,6376.10791015625,7886.09228515625,8993.943359375,8880.2978515625,5771.31884765625,17291.705078125,-432.3323669433594,8548.1005859375,0.0,22364.458984375,6718.6357421875,24570.623046875,19690.1953125,9407.203125,11347.134765625,22863.546875,29202.302734375,22341.41015625,19371.509765625,20886.263671875,6895.8603515625,28820.037109375,400.543212890625,0.0,1103.083251953125,13790.130859375,6656.646484375,25618.87109375,16041.59765625,14963.9443359375,24557.908203125,9173.552734375,13868.80859375,8510.7490234375,3826.6181640625,22519.4296875,9162.42578125,16705.990234375,11429.787109375,8675.2578125,11909.0078125,11527.5380859375,2238.75048828125,9927.75,2982.616455078125,16388.892578125,6086.03125,7858.2763671875,2454.916748046875,10909.240234375,4789.8291015625,23452.439453125,4111.92578125,17610.392578125,3081.95751953125,9361.107421875,26142.59765625,21067.4609375,11763.572265625,-0.0,-44542.15234375,19103.685546875,4200.140625,0.0,6751.21923828125,0.0,0.0
15366.0771484375,15066.46484375,33291.1796875,10908.4443359375,27916.431640625,6379.2861328125,7905.9599609375,9001.8916015625,8900.9599609375,5778.4716796875,17277.3984375,-428.35870361328125,8563.201171875,0.0,22381.94140625,6721.814453125,24576.1875,19701.322265625,9419.1240234375,11363.029296875,22873.083984375,29208.66015625,22354.921875,19381.046875,20906.92578125,6907.78125,28836.7265625,406.9010314941406,0.0,1107.0570068359375,13798.0771484375,6656.646484375,25625.228515625,16046.3662109375,14979.044921875,24565.85546875,9187.857421875,13879.1396484375,8525.8486328125,3833.770751953125,22536.119140625,9165.6044921875,16725.0625,11435.349609375,8690.357421875,11916.955078125,11527.5380859375,2243.518798828125,9954.7705078125,2987.384765625,16412.734375,6092.3896484375,7854.30224609375,2461.2744140625,10913.212890625,4782.6767578125,23477.078125,4116.69384765625,17631.0546875,3085.93115234375,9380.9765625,26153.72265625,21080.17578125,11792.1826171875,-0.0,-44531.02734375,19121.169921875,4198.55126953125,0.0,6743.2724609375,0.0,0.0
15360.5146484375,15071.232421875,33294.359375,10916.392578125,27921.19921875,6381.67041015625,7901.986328125,9002.685546875,8907.318359375,5782.4453125,17268.658203125,-433.1270751953125,8556.8427734375,0.0,22382.736328125,6724.19873046875,24579.3671875,19703.70703125,9421.5078125,11370.9765625,22877.8515625,29211.83984375,22355.71484375,19381.841796875,20902.15625,6909.37060546875,28831.1640625,409.28521728515625,0.0,1107.0570068359375,13801.2568359375,6652.67333984375,25629.201171875,16048.75,14981.4287109375,24569.830078125,9185.4736328125,13879.935546875,8526.642578125,3820.26025390625,22541.681640625,9167.1943359375,16722.6796875,11437.7333984375,8691.947265625,11919.3388671875,11525.9482421875,2250.67138671875,9947.6171875,2990.563720703125,16400.814453125,6095.568359375,7827.28173828125,2459.68505859375,10916.392578125,4775.52392578125,23492.970703125,4114.3095703125,17631.849609375,3089.110107421875,9388.923828125,26156.107421875,21080.970703125,11804.103515625,-0.0,-44533.4140625,19123.5546875,4196.9619140625,0.0,6748.04052734375,0.0,0.0
15369.255859375,15067.259765625,33294.359375,10914.0078125,27921.19921875,6377.69677734375,7890.8603515625,8999.5068359375,8899.37109375,5784.03466796875,17258.326171875,-436.3059997558594,8560.81640625,0.0,22376.37890625,6723.40380859375,24574.59765625,19698.142578125,9415.1494140625,11363.029296875,22875.466796875,29208.66015625,22350.15234375,19375.482421875,20909.30859375,6905.39697265625,28822.421875,406.9010314941406,0.0,1099.109619140625,13796.48828125,6650.2890625,25629.201171875,16046.3662109375,14977.455078125,24563.470703125,9177.525390625,13873.5771484375,8505.98046875,3793.239501953125,22543.271484375,9164.015625,16715.52734375,11434.5546875,8682.41015625,11917.75,11521.9755859375,2248.287109375,9929.33984375,2987.384765625,16384.125,6092.3896484375,7802.64501953125,2444.585205078125,10903.67578125,4770.755859375,23492.177734375,4108.7470703125,17623.10546875,3089.90478515625,9379.38671875,26148.16015625,21075.40625,11785.8251953125,-0.0,-44538.9765625,19120.375,4196.1669921875,0.0,6760.755859375,0.0,0.0
15352.56640625,15061.6962890625,33281.64453125,10909.240234375,27899.7421875,6367.365234375,7880.5283203125,8992.3544921875,8883.4765625,5782.4453125,17259.12109375,-441.8691101074219,8563.201171875,0.0,22364.458984375,6720.22509765625,24563.470703125,19684.6328125,9404.818359375,11351.1083984375,22859.57421875,29198.328125,22337.4375,19366.740234375,20894.208984375,6899.03857421875,28811.296875,401.33795166015625,0.0,1087.9835205078125,13783.7724609375,6640.75244140625,25615.69140625,16036.033203125,14961.560546875,24553.140625,9166.400390625,13865.6298828125,8521.8740234375,3788.47119140625,22524.19921875,9155.2734375,16698.041015625,11425.8125,8669.6943359375,11912.1865234375,11504.4912109375,2239.545166015625,9917.4189453125,2980.232177734375,16373.79296875,6086.03125,7784.36669921875,2433.458984375,10904.4716796875,4762.80810546875,23473.8984375,4103.978515625,17608.80078125,3089.110107421875,9363.4921875,26137.033203125,21065.87109375,11762.7783203125,-0.0,-44547.71875,19118.78515625,4196.1669921875,0.0,6770.29296875,0.0,0.0
15329.5205078125,15042.623046875,33275.2890625,10900.4970703125,27885.4375,6363.39208984375,7872.58154296875,8988.380859375,8876.3232421875,5781.650390625,17256.736328125,-455.3794860839844,8544.921875,0.0,22354.125,6712.27783203125,24555.525390625,19676.685546875,9397.666015625,11347.9296875,22850.83203125,29191.970703125,22326.310546875,19359.587890625,20880.69921875,6897.44970703125,28805.732421875,394.9801025390625,0.0,1086.3939208984375,13778.2099609375,6630.4208984375,25606.951171875,16030.4697265625,14952.8193359375,24547.576171875,9159.2470703125,13860.06640625,8502.0068359375,3792.44482421875,22513.8671875,9150.5048828125,16687.7109375,11421.0439453125,8662.541015625,11906.6240234375,11499.72265625,2235.571533203125,9913.4443359375,2977.84814453125,16369.0244140625,6079.673828125,7805.82421875,2432.6640625,10902.8818359375,4753.271484375,23458.00390625,4098.41552734375,17602.443359375,3085.93115234375,9355.544921875,26130.67578125,21060.30859375,11759.5986328125,-0.0,-44562.0234375,19117.990234375,4186.63037109375,0.0,6758.3720703125,0.0,0.0
15353.3623046875,15029.9072265625,33286.41015625,10902.0869140625,27892.58984375,6371.33935546875,7879.73388671875,8989.1748046875,8876.3232421875,5773.703125,17264.685546875,-445.0480041503906,8542.5380859375,0.0,22359.689453125,6712.27783203125,24563.470703125,19684.6328125,9401.638671875,11342.3662109375,22861.162109375,29200.712890625,22334.2578125,19365.9453125,20891.82421875,6907.78125,28815.26953125,398.9537658691406,0.0,1101.493896484375,13786.15625,6641.546875,25617.28125,16040.8017578125,14959.9716796875,24555.525390625,9165.6044921875,13864.0400390625,8486.9072265625,3817.876220703125,22523.40234375,9160.8359375,16696.453125,11425.8125,8667.3095703125,11903.4453125,11510.0546875,2243.518798828125,9918.212890625,2985.00048828125,16377.767578125,6078.87890625,7841.5869140625,2447.76416015625,10897.318359375,4764.39794921875,23463.568359375,4107.1572265625,17608.0078125,3079.573486328125,9357.9296875,26137.033203125,21062.693359375,11745.2939453125,-0.0,-44553.28125,19118.78515625,4182.65673828125,0.0,6742.4775390625,0.0,0.0
15379.587890625,15054.5439453125,33295.94921875,10915.5966796875,27918.01953125,6383.26025390625,7894.83349609375,8997.123046875,8885.06640625,5768.9345703125,17280.578125,-423.59033203125,8583.86328125,0.0,22373.19921875,6717.04638671875,24581.75,19698.9375,9412.765625,11345.5458984375,22878.646484375,29217.40234375,22350.15234375,19379.45703125,20922.818359375,6916.52294921875,28830.369140625,407.6957702636719,0.0,1115.004150390625,13801.2568359375,6659.03076171875,25633.177734375,16055.107421875,14977.455078125,24569.830078125,9179.115234375,13873.5771484375,8509.1591796875,3827.412841796875,22544.06640625,9176.7314453125,16716.322265625,11436.939453125,8680.0263671875,11909.0078125,11514.8232421875,2260.2080078125,9950.001953125,2993.74267578125,16394.45703125,6086.826171875,7862.25048828125,2468.427001953125,10925.1337890625,4781.08740234375,23482.640625,4118.28369140625,17618.337890625,3075.599609375,9362.697265625,26149.75,21070.638671875,11757.21484375,-0.0,-44538.1796875,19115.60546875,4191.3984375,0.0,6735.32470703125,0.0,0.0
15397.8662109375,15083.1533203125,33310.25390625,10930.697265625,27929.94140625,6399.15478515625,7901.986328125,9012.22265625,8896.19140625,5782.4453125,17294.8828125,-402.9273986816406,8611.6787109375,0.0,22385.12109375,6735.32470703125,24595.259765625,19714.037109375,9426.2763671875,11360.6455078125,22893.748046875,29231.70703125,22360.482421875,19393.76171875,20943.482421875,6934.8017578125,28839.111328125,425.9745178222656,0.0,1120.5673828125,13815.5625,6674.92529296875,25648.275390625,16069.412109375,14990.9658203125,24584.927734375,9191.0361328125,13886.2919921875,8538.5634765625,3852.84423828125,22559.166015625,9195.009765625,16721.8828125,11454.4228515625,8689.5625,11923.3134765625,11531.5126953125,2261.797607421875,9983.3798828125,3015.200439453125,16396.841796875,6105.10498046875,7867.81298828125,2482.732177734375,10952.1552734375,4800.955078125,23505.6875,4133.38330078125,17627.080078125,3091.494384765625,9384.94921875,26163.259765625,21084.943359375,11781.8515625,-0.0,-44511.95703125,19115.60546875,4213.6513671875,0.0,6752.80908203125,0.0,0.0
15392.3037109375,15090.306640625,33304.69140625,10929.90234375,27920.404296875,6399.15478515625,7898.01318359375,9012.22265625,8900.9599609375,5791.1875,17289.3203125,-405.31158447265625,8591.8115234375,0.0,22382.736328125,6738.50390625,24592.876953125,19710.859375,9425.48046875,11370.9765625,22888.18359375,29229.322265625,22354.125,19393.76171875,20922.025390625,6934.00732421875,28831.1640625,427.5639953613281,0.0,1123.7462158203125,13812.3828125,6670.15673828125,25643.5078125,16066.232421875,14984.607421875,24584.134765625,9187.857421875,13886.2919921875,8540.9482421875,3871.917724609375,22547.244140625,9191.8310546875,16713.142578125,11454.4228515625,8688.767578125,11929.6708984375,11544.2275390625,2259.41357421875,9959.5380859375,3019.173828125,16392.072265625,6106.69482421875,7854.30224609375,2486.705810546875,10945.0029296875,4800.16064453125,23501.71484375,4137.357421875,17630.2578125,3096.2626953125,9400.0498046875,26159.287109375,21087.328125,11802.513671875,-0.0,-44513.54296875,19114.8125,4214.44580078125,0.0,6765.5244140625,0.0,0.0
15362.8984375,15071.232421875,33291.9765625,10921.955078125,27902.126953125,6385.64453125,7886.88671875,8999.5068359375,8894.6025390625,5778.4716796875,17282.16796875,-425.9745178222656,8571.1474609375,0.0,22377.96875,6726.5830078125,24574.59765625,19692.580078125,9411.17578125,11364.619140625,22870.69921875,29214.224609375,22339.025390625,19378.662109375,20898.9765625,6922.880859375,28804.9375,414.0535888671875,0.0,1114.20947265625,13794.1044921875,6647.90478515625,25627.61328125,16052.72265625,14966.3291015625,24569.830078125,9174.3466796875,13871.9873046875,8517.9013671875,3843.3076171875,22528.171875,9175.9365234375,16698.041015625,11438.529296875,8677.6416015625,11920.134765625,11545.8173828125,2255.439697265625,9932.517578125,3006.458251953125,16383.3291015625,6091.5947265625,7824.89794921875,2463.65869140625,10918.7763671875,4782.6767578125,23488.998046875,4119.873046875,17631.849609375,3084.341796875,9387.333984375,26144.98046875,21076.203125,11790.5927734375,-0.0,-44529.4375,19116.40234375,4199.34619140625,0.0,6748.04052734375,0.0,0.0
15344.6201171875,15056.927734375,33273.6953125,10901.2919921875,27881.46484375,6362.59716796875,7864.63427734375,8972.4853515625,8862.8134765625,5745.8876953125,17271.041015625,-453.7900390625,8544.921875,0.0,22358.099609375,6693.9990234375,24551.55078125,19667.943359375,9385.7451171875,11329.650390625,22847.65234375,29190.3828125,22317.568359375,19354.025390625,20880.69921875,6903.80712890625,28790.6328125,389.4170227050781,0.0,1092.7518310546875,13772.646484375,6619.29443359375,25603.771484375,16028.0859375,14944.076171875,24546.78125,9150.5048828125,13846.556640625,8493.2646484375,3799.597412109375,22510.6875,9153.68359375,16677.37890625,11412.302734375,8652.2099609375,11891.5244140625,11527.5380859375,2245.1083984375,9911.8544921875,2985.795166015625,16363.462890625,6062.189453125,7785.16162109375,2424.717041015625,10892.55078125,4762.013671875,23470.720703125,4094.44189453125,17604.828125,3054.936767578125,9362.697265625,26121.935546875,21048.38671875,11731.7841796875,-0.0,-44556.45703125,19111.6328125,4169.14599609375,0.0,6712.27783203125,0.0,0.0
15370.0517578125,15064.8759765625,33272.90234375,10910.828125,27884.642578125,6367.365234375,7861.455078125,8976.4599609375,8842.150390625,5752.24560546875,17260.708984375,-440.2796325683594,8545.7158203125,0.0,22350.15234375,6699.56201171875,24553.93359375,19670.328125,9388.923828125,11316.935546875,22852.419921875,29195.150390625,22319.158203125,19358.0,20883.083984375,6908.57568359375,28791.427734375,393.3906555175781,0.0,1098.31494140625,13775.8251953125,6619.29443359375,25606.15625,16033.6494140625,14946.4609375,24552.345703125,9152.8896484375,13852.119140625,8497.23828125,3790.85546875,22512.27734375,9160.8359375,16678.17578125,11417.0712890625,8647.44140625,11895.4970703125,11509.2587890625,2249.081787109375,9914.2392578125,2991.3583984375,16357.8984375,6066.9580078125,7811.3876953125,2419.948486328125,10894.1396484375,4773.14013671875,23466.74609375,4103.18359375,17587.34375,3063.6787109375,9367.4658203125,26125.11328125,21046.00390625,11706.3525390625,-0.0,-44544.53515625,19106.865234375,4188.2197265625,0.0,6730.556640625,0.0,0.0
15385.9453125,15090.306640625,33292.76953125,10921.1611328125,27906.89453125,6386.43896484375,7885.296875,9004.275390625,8868.376953125,5784.82958984375,17286.935546875,-414.0535888671875,8567.173828125,0.0,22370.01953125,6732.9404296875,24573.802734375,19693.375,9413.5595703125,11347.134765625,22873.083984375,29212.6328125,22341.41015625,19380.25,20908.513671875,6922.08642578125,28809.705078125,418.0272521972656,0.0,1122.15673828125,13794.8994140625,6644.7255859375,25626.0234375,16053.5185546875,14966.3291015625,24573.0078125,9175.9365234375,13877.55078125,8517.1064453125,3831.386474609375,22533.734375,9176.7314453125,16702.017578125,11440.9130859375,8672.078125,11924.9033203125,11518.7958984375,2262.59228515625,9936.4921875,3007.2529296875,16378.560546875,6095.568359375,7862.25048828125,2450.94287109375,10921.1611328125,4801.75,23479.4609375,4130.9990234375,17610.392578125,3095.4677734375,9392.8974609375,26148.16015625,21075.40625,11751.6513671875,-0.0,-44518.3125,19117.990234375,4221.59814453125,0.0,6767.1142578125,0.0,0.0
15393.8935546875,15086.3330078125,33298.33203125,10919.5712890625,27910.8671875,6389.6181640625,7890.8603515625,9008.248046875,8883.4765625,5791.1875,17288.52734375,-410.87469482421875,8568.763671875,0.0,22377.96875,6734.52978515625,24574.59765625,19694.962890625,9416.7392578125,11358.2607421875,22875.466796875,29215.8125,22344.58984375,19383.4296875,20925.203125,6930.033203125,28816.857421875,419.61669921875,0.0,1119.7725830078125,13796.48828125,6649.494140625,25628.408203125,16055.90234375,14970.302734375,24573.802734375,9180.705078125,13881.5244140625,8517.9013671875,3837.744384765625,22538.50390625,9180.705078125,16705.990234375,11442.501953125,8679.23046875,11931.259765625,11526.744140625,2259.41357421875,9945.2333984375,3005.66357421875,16385.712890625,6099.5419921875,7863.044921875,2464.453369140625,10927.517578125,4808.10791015625,23484.23046875,4130.9990234375,17620.72265625,3100.236083984375,9394.486328125,26150.544921875,21082.560546875,11772.3154296875,-0.0,-44514.33984375,19126.734375,4216.82958984375,0.0,6763.93505859375,0.0,0.0
15401.0458984375,15075.20703125,33287.20703125,10910.0341796875,27904.509765625,6384.0546875,7882.91259765625,8997.9169921875,8876.3232421875,5778.4716796875,17271.041015625,-416.4377746582031,8568.763671875,0.0,22371.611328125,6718.6357421875,24568.23828125,19686.22265625,9411.17578125,11349.5185546875,22865.9296875,29209.455078125,22334.2578125,19373.09765625,20911.693359375,6930.828125,28813.6796875,409.28521728515625,0.0,1108.6463623046875,13787.74609375,6641.546875,25618.076171875,16047.9541015625,14959.9716796875,24565.85546875,9171.962890625,13871.9873046875,8509.1591796875,3822.64453125,22526.58203125,9179.115234375,16696.453125,11433.7607421875,8671.2841796875,11919.3388671875,11515.6171875,2244.3134765625,9938.8759765625,3002.484619140625,16380.1513671875,6090.7998046875,7839.9970703125,2464.453369140625,10921.1611328125,4789.0341796875,23484.23046875,4119.873046875,17614.365234375,3088.315185546875,9379.38671875,26141.0078125,21073.0234375,11765.162109375,-0.0,-44519.109375,19123.5546875,4199.34619140625,0.0,6745.65625,0.0,0.0
15381.1767578125,15063.2861328125,33278.46484375,10897.318359375,27893.384765625,6372.9287109375,7874.17138671875,8987.5859375,8859.634765625,5768.9345703125,17264.685546875,-426.7692565917969,8568.763671875,0.0,22360.482421875,6712.27783203125,24560.29296875,19673.505859375,9400.0498046875,11337.59765625,22857.189453125,29198.328125,22321.54296875,19361.97265625,20892.619140625,6918.1123046875,28804.14453125,399.74847412109375,0.0,1101.493896484375,13779.00390625,6635.98388671875,25608.5390625,16038.41796875,14947.2548828125,24557.11328125,9160.8359375,13861.65625,8498.828125,3802.7763671875,22515.455078125,9167.1943359375,16685.328125,11424.2236328125,8660.1572265625,11909.802734375,11510.0546875,2232.392578125,9931.7236328125,2993.74267578125,16369.0244140625,6080.46875,7840.79248046875,2453.3271484375,10916.392578125,4770.755859375,23476.28125,4109.54150390625,17601.6484375,3078.778564453125,9370.64453125,26129.880859375,21063.486328125,11743.705078125,-0.0,-44531.8203125,19115.60546875,4196.9619140625,0.0,6741.6826171875,0.0,0.0
15359.7197265625,15045.0068359375,33264.16015625,10893.3447265625,27878.28515625,6362.59716796875,7862.25048828125,8978.84375,8842.9453125,5759.39794921875,17259.12109375,-436.3059997558594,8550.484375,0.0,22350.15234375,6702.7412109375,24549.9609375,19660.791015625,9386.5390625,11320.1142578125,22844.47265625,29187.203125,22308.03125,19350.052734375,20869.57421875,6905.39697265625,28790.6328125,389.4170227050781,0.0,1091.95703125,13766.2890625,6628.03662109375,25598.20703125,16028.880859375,14934.5400390625,24545.98828125,9147.326171875,13849.7353515625,8486.9072265625,3794.0341796875,22499.560546875,9156.0673828125,16672.611328125,11413.09765625,8646.6474609375,11899.4716796875,11497.337890625,2222.855712890625,9911.8544921875,2987.384765625,16357.103515625,6070.93212890625,7839.9970703125,2433.458984375,10900.4970703125,4769.9609375,23465.951171875,4099.21044921875,17589.7265625,3070.831298828125,9365.8759765625,26118.755859375,21051.564453125,11706.3525390625,-0.0,-44545.33203125,19107.66015625,4190.603515625,0.0,6737.708984375,0.0,0.0
15370.0517578125,15056.927734375,33286.41015625,10915.5966796875,27896.5625,6383.26025390625,7878.939453125,8997.123046875,8861.224609375,5780.85546875,17290.91015625,-420.41143798828125,8561.611328125,0.0,22366.046875,6724.19873046875,24569.03515625,19681.453125,9405.61328125,11339.982421875,22863.546875,29207.072265625,22326.310546875,19369.125,20891.82421875,6922.880859375,28808.1171875,410.0799560546875,0.0,1113.414794921875,13786.15625,6641.546875,25617.28125,16047.9541015625,14954.4072265625,24563.470703125,9167.9892578125,13870.3984375,8507.5693359375,3817.08154296875,22519.4296875,9171.962890625,16691.685546875,11430.5810546875,8662.541015625,11920.134765625,11514.02734375,2249.081787109375,9925.365234375,3008.0478515625,16375.3837890625,6091.5947265625,7841.5869140625,2445.3798828125,10921.955078125,4793.802734375,23479.4609375,4118.28369140625,17607.212890625,3094.673095703125,9379.38671875,26137.828125,21070.638671875,11734.16796875,-0.0,-44527.0546875,19100.5078125,4209.67724609375,0.0,6763.14013671875,0.0,0.0
15365.283203125,15060.9013671875,33295.15625,10919.5712890625,27904.509765625,6392.796875,7889.27099609375,9007.4541015625,8873.939453125,5794.3662109375,17289.3203125,-414.0535888671875,8560.021484375,0.0,22375.583984375,6738.50390625,24578.572265625,19691.78515625,9417.5341796875,11355.876953125,22872.2890625,29217.40234375,22335.84765625,19380.25,20898.9765625,6933.21240234375,28817.654296875,418.82196044921875,0.0,1126.1304931640625,13797.283203125,6645.5205078125,25626.818359375,16057.4912109375,14966.3291015625,24574.59765625,9178.3212890625,13882.3193359375,8534.5908203125,3826.6181640625,22527.376953125,9180.705078125,16702.017578125,11442.501953125,8675.2578125,11931.259765625,11527.5380859375,2264.181884765625,9930.1337890625,3013.61083984375,16387.3046875,6104.310546875,7843.1767578125,2462.864013671875,10929.107421875,4798.5712890625,23484.23046875,4127.8203125,17620.72265625,3109.77294921875,9376.2080078125,26148.16015625,21081.765625,11758.009765625,-0.0,-44514.33984375,19104.48046875,4221.59814453125,0.0,6773.4716796875,0.0,0.0
15371.640625,15079.9755859375,33299.12890625,10926.7236328125,27914.841796875,6400.744140625,7900.3974609375,9016.1962890625,8883.4765625,5801.51904296875,17286.142578125,-402.9273986816406,8562.4052734375,0.0,22384.32421875,6743.2724609375,24588.107421875,19704.5,9426.2763671875,11363.82421875,22881.826171875,29226.14453125,22346.97265625,19389.787109375,20906.92578125,6941.9541015625,28834.34375,428.35870361328125,0.0,1138.0513916015625,13807.6142578125,6655.0576171875,25635.560546875,16065.439453125,14975.0712890625,24584.134765625,9187.0625,13891.060546875,8545.7158203125,3848.87060546875,22536.912109375,9191.8310546875,16711.552734375,11449.654296875,8683.9990234375,11936.0283203125,11541.84375,2275.307861328125,9940.46484375,3020.763427734375,16400.01953125,6109.0791015625,7864.63427734375,2474.784912109375,10924.3388671875,4809.69775390625,23475.48828125,4136.5625,17630.2578125,3110.56787109375,9382.5654296875,26157.697265625,21089.712890625,11768.3408203125,-0.0,-44510.36328125,19117.990234375,4228.75048828125,0.0,6778.240234375,0.0,0.0
15373.23046875,15086.3330078125,33293.5625,10926.7236328125,27909.279296875,6396.7705078125,7900.3974609375,9009.837890625,8877.9130859375,5792.7763671875,17272.630859375,-404.516845703125,8553.6640625,0.0,22383.53125,6735.32470703125,24582.544921875,19701.322265625,9421.5078125,11358.2607421875,22876.26171875,29220.58203125,22344.58984375,19385.01953125,20900.568359375,6936.39111328125,28837.5234375,422.0008850097656,0.0,1128.5146484375,13803.6416015625,6652.67333984375,25630.79296875,16059.875,14970.302734375,24579.3671875,9184.677734375,13884.7041015625,8530.6171875,3840.128662109375,22531.3515625,9186.267578125,16709.169921875,11444.8857421875,8680.0263671875,11928.8759765625,11534.6904296875,2264.9765625,9934.107421875,3019.96875,16402.40234375,6102.720703125,7859.07080078125,2467.63232421875,10909.240234375,4801.75,23462.771484375,4130.9990234375,17628.669921875,3100.236083984375,9388.923828125,26154.517578125,21083.35546875,11761.9833984375,-0.0,-44507.98046875,19125.142578125,4223.18798828125,0.0,6771.087890625,0.0,0.0
15382.7666015625,15076.796875,33287.20703125,10921.1611328125,27906.89453125,6388.8232421875,7896.42333984375,9001.095703125,8870.7607421875,5784.03466796875,17254.353515625,-411.6694030761719,8556.048828125,0.0,22378.763671875,6728.17236328125,24571.41796875,19695.759765625,9414.35546875,11351.1083984375,22870.69921875,29212.6328125,22338.232421875,19377.07421875,20903.74609375,6927.64892578125,28824.806640625,414.0535888671875,0.0,1119.7725830078125,13796.48828125,6644.7255859375,25621.255859375,16051.1337890625,14967.91796875,24571.41796875,9179.115234375,13877.55078125,8532.2060546875,3826.6181640625,22529.759765625,9175.9365234375,16705.990234375,11437.7333984375,8675.2578125,11922.5185546875,11509.2587890625,2254.64501953125,9933.3125,3011.2265625,16399.224609375,6095.568359375,7828.87158203125,2461.2744140625,10910.828125,4793.00830078125,23473.103515625,4123.8466796875,17621.517578125,3093.87841796875,9393.6923828125,26147.365234375,21076.998046875,11753.2412109375,-0.0,-44514.33984375,19124.349609375,4217.62451171875,0.0,6766.3193359375,0.0,0.0
15367.6669921875,15056.1328125,33270.51953125,10902.8818359375,27891.794921875,6376.10791015625,7870.197265625,8986.791015625,8850.8916015625,5771.31884765625,17237.6640625,-422.7956237792969,8547.3056640625,0.0,22359.689453125,6713.072265625,24557.11328125,19679.865234375,9397.666015625,11334.4189453125,22855.599609375,29197.53515625,22319.951171875,19363.5625,20878.314453125,6914.138671875,28792.22265625,399.74847412109375,0.0,1108.6463623046875,13780.59375,6627.24169921875,25605.359375,16036.8291015625,14952.0234375,24557.908203125,9159.2470703125,13860.861328125,8481.34375,3811.518310546875,22514.662109375,9162.42578125,16683.736328125,11425.0185546875,8653.0048828125,11909.802734375,11487.0068359375,2244.3134765625,9922.1865234375,2995.33203125,16364.255859375,6082.85302734375,7805.82421875,2455.71142578125,10910.0341796875,4783.4716796875,23479.4609375,4111.13134765625,17601.6484375,3081.95751953125,9377.796875,26131.470703125,21061.1015625,11736.5517578125,-0.0,-44525.46484375,19112.427734375,4203.3193359375,0.0,6756.78271484375,0.0,0.0
15344.6201171875,15051.365234375,33272.90234375,10889.37109375,27890.205078125,6376.10791015625,7867.0185546875,8988.380859375,8854.8662109375,5776.08740234375,17240.84375,-427.5639953613281,8545.7158203125,0.0,22357.3046875,6717.8408203125,24555.525390625,19676.685546875,9398.4599609375,11336.8037109375,22855.599609375,29195.150390625,22319.158203125,19361.97265625,20870.3671875,6910.9599609375,28786.66015625,399.74847412109375,0.0,1105.4674072265625,13778.2099609375,6621.6787109375,25605.359375,16032.8544921875,14950.4345703125,24557.11328125,9157.6572265625,13862.4501953125,8471.806640625,3809.928955078125,22510.6875,9161.6318359375,16679.763671875,11425.0185546875,8653.7998046875,11912.982421875,11498.1337890625,2240.340087890625,9910.265625,2990.563720703125,16357.8984375,6086.03125,7799.466796875,2447.76416015625,10913.212890625,4777.11328125,23481.05078125,4115.1044921875,17601.6484375,3085.93115234375,9358.7236328125,26133.060546875,21061.1015625,11746.8837890625,-0.0,-44526.26171875,19110.044921875,4207.29296875,0.0,6768.70361328125,0.0,0.0
15357.3349609375,15065.669921875,33281.64453125,10902.8818359375,27907.689453125,6387.23388671875,7882.91259765625,9001.095703125,8871.5556640625,5787.2138671875,17243.2265625,-417.2325134277344,8543.33203125,0.0,22367.634765625,6730.556640625,24566.650390625,19689.40234375,9411.970703125,11351.1083984375,22869.109375,29208.66015625,22333.462890625,19374.689453125,20886.263671875,6919.7021484375,28806.52734375,409.28521728515625,0.0,1118.9779052734375,13791.720703125,6633.599609375,25616.48828125,16044.775390625,14962.35546875,24569.03515625,9171.16796875,13874.37109375,8495.6484375,3821.05517578125,22524.9921875,9175.1416015625,16697.248046875,11436.939453125,8668.8994140625,11925.697265625,11496.5439453125,2239.545166015625,9905.4970703125,2999.3056640625,16376.97265625,6096.36328125,7815.36083984375,2454.916748046875,10896.5234375,4787.4453125,23480.2578125,4123.8466796875,17616.748046875,3097.057373046875,9361.107421875,26145.77734375,21074.61328125,11764.3671875,-0.0,-44522.28515625,19117.990234375,4215.240234375,0.0,6769.49853515625,0.0,0.0
15375.6142578125,15075.20703125,33285.6171875,10919.5712890625,27912.458984375,6396.7705078125,7890.0654296875,9009.837890625,8879.501953125,5794.3662109375,17259.12109375,-405.31158447265625,8556.8427734375,0.0,22374.7890625,6736.9140625,24575.392578125,19696.5546875,9418.328125,11358.2607421875,22877.8515625,29218.197265625,22339.025390625,19383.4296875,20902.953125,6933.21240234375,28814.474609375,417.2325134277344,0.0,1128.5146484375,13799.6669921875,6643.93115234375,25624.43359375,16054.3115234375,14967.91796875,24578.572265625,9178.3212890625,13881.5244140625,8518.6962890625,3822.64453125,22531.3515625,9187.857421875,16700.42578125,11448.0654296875,8674.4619140625,11932.0556640625,11501.3125,2244.3134765625,9914.2392578125,3011.2265625,16384.919921875,6101.92626953125,7828.076171875,2466.042724609375,10902.8818359375,4798.5712890625,23481.05078125,4129.40966796875,17623.90234375,3104.2099609375,9372.234375,26152.134765625,21083.35546875,11769.1357421875,-0.0,-44509.5703125,19123.5546875,4223.982421875,0.0,6767.90869140625,0.0,0.0
15362.103515625,15068.8486328125,33284.82421875,10922.75,27906.89453125,6393.59130859375,7886.09228515625,9004.275390625,8873.1455078125,5788.80322265625,17271.837890625,-415.64306640625,8571.1474609375,0.0,22371.611328125,6728.17236328125,24573.0078125,19692.580078125,9412.765625,11352.6982421875,22876.26171875,29217.40234375,22335.84765625,19380.25,20925.203125,6938.775390625,28818.44921875,414.0535888671875,0.0,1112.6199951171875,13795.693359375,6640.75244140625,25624.43359375,16054.3115234375,14965.5341796875,24574.59765625,9173.552734375,13877.55078125,8525.0537109375,3809.13427734375,22535.32421875,9190.2421875,16696.453125,11444.091796875,8672.078125,11925.697265625,11487.8017578125,2250.67138671875,9939.6708984375,3012.021240234375,16383.3291015625,6094.77392578125,7825.6923828125,2454.121826171875,10917.1865234375,4797.77685546875,23475.48828125,4123.05224609375,17618.337890625,3097.85205078125,9371.439453125,26146.5703125,21078.5859375,11761.9833984375,-0.0,-44521.4921875,19121.96484375,4216.03515625,0.0,6767.90869140625,0.0,0.0
15349.3876953125,15070.4384765625,33280.0546875,10914.0078125,27899.7421875,6383.26025390625,7883.7080078125,8997.123046875,8869.1708984375,5781.650390625,17263.09375,-422.7956237792969,8554.458984375,0.0,22366.046875,6720.22509765625,24569.03515625,19686.22265625,9407.203125,11346.33984375,22869.109375,29209.455078125,22330.283203125,19372.3046875,20914.873046875,6932.41748046875,28814.474609375,407.6957702636719,0.0,1110.23583984375,13789.3359375,6641.546875,25620.4609375,16047.1591796875,14959.9716796875,24565.85546875,9168.7841796875,13870.3984375,8529.822265625,3803.571044921875,22529.759765625,9179.91015625,16692.48046875,11437.7333984375,8667.3095703125,11918.544921875,11501.3125,2257.029296875,9931.7236328125,3011.2265625,16378.560546875,6087.62109375,7838.40869140625,2448.558837890625,10910.828125,4789.0341796875,23465.951171875,4112.720703125,17613.568359375,3090.699462890625,9362.697265625,26141.0078125,21070.638671875,11758.009765625,-0.0,-44529.4375,19121.169921875,4203.3193359375,0.0,6757.57763671875,0.0,0.0
15354.951171875,15074.412109375,33287.20703125,10913.212890625,27901.330078125,6386.43896484375,7886.88671875,8999.5068359375,8875.529296875,5784.03466796875,17252.763671875,-422.0008850097656,8535.384765625,0.0,22368.431640625,6724.19873046875,24569.830078125,19686.22265625,9410.380859375,11351.1083984375,22867.521484375,29208.66015625,22331.873046875,19373.89453125,20891.03125,6932.41748046875,28816.857421875,412.4641418457031,0.0,1115.004150390625,13790.130859375,6643.93115234375,25621.255859375,16047.9541015625,14957.5869140625,24565.85546875,9171.962890625,13872.7822265625,8508.3642578125,3809.928955078125,22527.376953125,9177.525390625,16695.658203125,11440.9130859375,8669.6943359375,11920.9287109375,11515.6171875,2260.2080078125,9915.0341796875,3017.58447265625,16384.125,6093.18408203125,7836.81884765625,2451.737548828125,10910.0341796875,4782.6767578125,23469.12890625,4114.3095703125,17618.337890625,3093.083740234375,9366.671875,26142.59765625,21073.818359375,11762.7783203125,-0.0,-44527.84765625,19122.759765625,4205.70361328125,0.0,6761.55078125,0.0,0.0
15368.4619140625,15074.412109375,33293.5625,10917.9814453125,27909.279296875,6389.6181640625,7894.83349609375,9006.6591796875,8884.2705078125,5790.392578125,17227.33203125,-417.2325134277344,8556.048828125,0.0,22374.7890625,6731.3515625,24576.982421875,19690.1953125,9416.7392578125,11358.2607421875,22874.673828125,29212.6328125,22338.232421875,19379.45703125,20906.12890625,6931.623046875,28818.44921875,418.82196044921875,0.0,1119.7725830078125,13794.8994140625,6651.87841796875,25630.79296875,16053.5185546875,14962.35546875,24569.03515625,9178.3212890625,13879.935546875,8509.1591796875,3827.412841796875,22532.939453125,9177.525390625,16703.60546875,11443.2978515625,8680.0263671875,11927.287109375,11507.669921875,2261.797607421875,9926.955078125,3016.789794921875,16392.072265625,6097.15771484375,7839.203125,2462.864013671875,10920.365234375,4781.8818359375,23484.23046875,4123.05224609375,17626.28515625,3098.64697265625,9369.8505859375,26149.75,21081.765625,11769.9306640625,-0.0,-44518.3125,19125.9375,4205.70361328125,0.0,6760.755859375,0.0,0.0
15371.640625,15062.4912109375,33287.20703125,10899.703125,27899.7421875,6374.51806640625,7880.5283203125,8997.9169921875,8879.501953125,5784.82958984375,17252.763671875,-422.7956237792969,8576.7109375,0.0,22373.19921875,6728.17236328125,24568.23828125,19679.0703125,9407.9970703125,11353.4931640625,22865.9296875,29199.91796875,22327.10546875,19369.125,20913.283203125,6915.72802734375,28812.08984375,406.1063232421875,0.0,1111.030517578125,13785.3623046875,6645.5205078125,25623.640625,16042.390625,14952.8193359375,24557.11328125,9166.400390625,13870.3984375,8520.28515625,3825.028564453125,22525.787109375,9167.1943359375,16688.505859375,11431.3759765625,8671.2841796875,11922.5185546875,11512.4384765625,2255.439697265625,9948.4130859375,2992.153076171875,16376.97265625,6093.18408203125,7840.79248046875,2456.506103515625,10929.90234375,4777.11328125,23492.177734375,4122.25732421875,17618.337890625,3090.699462890625,9353.1611328125,26137.033203125,21073.818359375,11768.3408203125,-0.0,-44524.66796875,19118.78515625,4204.1142578125,0.0,6757.57763671875,0.0,0.0
15360.5146484375,15056.927734375,33282.44140625,10900.4970703125,27895.76953125,6372.1337890625,7875.76025390625,8994.73828125,8873.939453125,5783.23974609375,17287.73046875,-427.5639953613281,8573.5322265625,0.0,22366.841796875,6722.60888671875,24565.85546875,19672.712890625,9404.0234375,11349.5185546875,22860.369140625,29196.73828125,22323.130859375,19364.357421875,20904.541015625,6912.54931640625,28807.322265625,401.33795166015625,0.0,1110.23583984375,13782.18359375,6646.31494140625,25616.48828125,16040.8017578125,14949.6396484375,24553.140625,9162.42578125,13864.8349609375,8525.0537109375,3814.697265625,22521.814453125,9166.400390625,16683.736328125,11427.40234375,8665.720703125,11919.3388671875,11517.20703125,2257.823974609375,9937.2861328125,2989.76904296875,16372.2041015625,6089.21044921875,7828.87158203125,2448.558837890625,10917.9814453125,4773.14013671875,23482.640625,4115.8994140625,17613.568359375,3089.90478515625,9349.982421875,26132.265625,21069.845703125,11766.7509765625,-0.0,-44529.4375,19114.017578125,4204.90869140625,0.0,6762.345703125,0.0,0.0
15357.3349609375,15058.517578125,33282.44140625,10903.67578125,27892.58984375,6374.51806640625,7874.17138671875,8994.73828125,8873.1455078125,5785.6240234375,17298.0625,-423.59033203125,8575.916015625,0.0,22362.8671875,6721.01953125,24565.85546875,19671.12109375,9403.228515625,11351.1083984375,22858.77734375,29199.91796875,22320.748046875,19365.15234375,20895.798828125,6915.72802734375,28795.400390625,406.1063232421875,0.0,1111.8253173828125,13780.59375,6647.10986328125,25615.69140625,16043.1865234375,14947.2548828125,24553.140625,9162.42578125,13865.6298828125,8517.9013671875,3809.928955078125,22517.83984375,9167.1943359375,16682.943359375,11427.40234375,8665.720703125,11919.3388671875,11532.306640625,2255.439697265625,9926.16015625,2998.510986328125,16369.8193359375,6090.7998046875,7812.18212890625,2439.816650390625,10915.5966796875,4777.908203125,23478.666015625,4109.54150390625,17611.185546875,3093.083740234375,9334.8818359375,26133.060546875,21070.638671875,11766.7509765625,-0.0,-44523.078125,19111.6328125,4208.8828125,0.0,6764.72998046875,0.0,0.0
15351.7724609375,15052.1591796875,33275.2890625,10901.2919921875,27883.052734375,6372.9287109375,7868.607421875,8989.9697265625,8871.5556640625,5783.23974609375,17278.990234375,-429.1534423828125,8563.9951171875,0.0,22356.509765625,6717.8408203125,24559.498046875,19664.763671875,9396.87109375,11347.134765625,22850.83203125,29193.560546875,22314.390625,19358.0,20883.083984375,6913.34375,28789.04296875,403.7221374511719,0.0,1103.083251953125,13774.2353515625,6638.3681640625,25607.744140625,16036.8291015625,14940.1025390625,24548.373046875,9157.6572265625,13860.861328125,8509.953125,3808.33935546875,22507.509765625,9161.6318359375,16674.99609375,11424.2236328125,8660.9521484375,11912.982421875,11531.5126953125,2243.518798828125,9915.0341796875,2998.510986328125,16365.05078125,6087.62109375,7785.16162109375,2431.074951171875,10910.828125,4781.08740234375,23469.12890625,4104.77294921875,17608.0078125,3089.90478515625,9333.29296875,26125.11328125,21064.28125,11761.9833984375,-0.0,-44526.26171875,19110.837890625,4207.29296875,0.0,6765.5244140625,0.0,0.0
15324.751953125,15043.41796875,33270.51953125,10901.2919921875,27882.2578125,6368.16015625,7866.22314453125,8986.791015625,8866.787109375,5777.67724609375,17266.2734375,-434.716552734375,8560.81640625,0.0,22353.330078125,6714.662109375,24553.93359375,19664.763671875,9394.486328125,11340.77734375,22848.447265625,29191.17578125,22313.595703125,19355.615234375,20883.87890625,6910.16552734375,28788.248046875,397.3642883300781,0.0,1095.9306640625,13770.2626953125,6628.03662109375,25601.38671875,16034.4443359375,14937.71875,24545.98828125,9152.8896484375,13856.8876953125,8503.5966796875,3808.33935546875,22505.91796875,9159.2470703125,16674.19921875,11421.83984375,8658.568359375,11910.59765625,11523.564453125,2239.545166015625,9914.2392578125,2992.94775390625,16362.6669921875,6082.85302734375,7801.8505859375,2431.86962890625,10909.240234375,4776.31884765625,23466.74609375,4106.36279296875,17603.23828125,3085.93115234375,9355.544921875,26122.728515625,21060.30859375,11754.830078125,-0.0,-44533.4140625,19110.837890625,4198.55126953125,0.0,6758.3720703125,0.0,0.0
15311.2412109375,15018.7802734375,33257.80078125,10887.7822265625,27875.10546875,6353.06005859375,7859.8662109375,8975.6650390625,8859.634765625,5766.55078125,17253.556640625,-444.2532958984375,8550.484375,0.0,22347.76953125,6701.9462890625,24541.21875,19654.431640625,9385.7451171875,11332.03515625,22838.91015625,29179.25390625,22305.646484375,19345.283203125,20879.109375,6894.2705078125,28784.275390625,380.67498779296875,0.0,1081.6256103515625,13759.9306640625,6612.9365234375,25592.646484375,16024.1123046875,14928.9765625,24534.06640625,9144.9423828125,13846.556640625,8492.4697265625,3792.44482421875,22497.177734375,9145.736328125,16667.046875,11405.9453125,8652.2099609375,11899.4716796875,11501.3125,2226.82958984375,9907.8818359375,2971.490234375,16358.6943359375,6071.7265625,7832.8447265625,2423.92236328125,10890.166015625,4762.80810546875,23461.9765625,4094.44189453125,17596.880859375,3072.4208984375,9351.5712890625,26113.19140625,21052.361328125,11746.8837890625,-0.0,-44547.71875,19113.22265625,4184.24609375,0.0,6736.9140625,0.0,0.0
15339.8515625,15012.423828125,33253.03125,10880.6298828125,27866.36328125,6344.318359375,7852.71337890625,8965.3330078125,8847.7138671875,5757.013671875,17247.99609375,-455.3794860839844,8537.76953125,0.0,22343.0,6695.58837890625,24533.271484375,19644.896484375,9377.796875,11323.29296875,22828.578125,29170.513671875,22294.521484375,19334.158203125,20862.421875,6874.40234375,28777.91796875,370.3435363769531,0.0,1069.7047119140625,13751.9833984375,6602.60546875,25584.697265625,16013.7802734375,14919.4404296875,24525.32421875,9136.994140625,13839.404296875,8498.0322265625,3767.80810546875,22486.845703125,9137.7900390625,16656.716796875,11394.0234375,8642.673828125,11891.5244140625,11491.775390625,2216.498046875,9893.576171875,2957.18505859375,16351.5419921875,6062.189453125,7832.05029296875,2419.15380859375,10872.681640625,4758.0400390625,23456.416015625,4084.905029296875,17588.93359375,3065.268310546875,9331.703125,26104.451171875,21043.619140625,11734.16796875,-0.0,-44558.046875,19107.66015625,4174.70947265625,0.0,6729.76171875,0.0,0.0
15327.1357421875,15034.67578125,33276.08203125,10886.986328125,27880.66796875,6353.85498046875,7860.66064453125,8974.8701171875,8853.2763671875,5764.96142578125,17276.60546875,-449.02166748046875,8548.1005859375,0.0,22347.76953125,6706.71484375,24547.576171875,19658.40625,9388.923828125,11328.0615234375,22846.064453125,29182.43359375,22306.44140625,19344.48828125,20887.056640625,6876.78662109375,28788.248046875,381.4697265625,0.0,1080.0361328125,13763.1103515625,6616.91064453125,25600.591796875,16025.701171875,14933.7451171875,24537.244140625,9145.736328125,13848.1455078125,8514.7216796875,3789.265869140625,22506.71484375,9148.12109375,16668.638671875,11404.35546875,8649.826171875,11900.265625,11517.20703125,2229.213623046875,9912.650390625,2966.7216796875,16355.5146484375,6072.52099609375,7828.076171875,2430.280029296875,10890.9609375,4767.57666015625,23462.771484375,4092.0576171875,17590.5234375,3075.599609375,9334.8818359375,26116.37109375,21050.771484375,11736.5517578125,-0.0,-44551.6875,19105.275390625,4185.83544921875,0.0,6742.4775390625,0.0,0.0
15325.5458984375,15043.41796875,33253.828125,10877.4501953125,27874.310546875,6349.0869140625,7857.48193359375,8969.306640625,8847.7138671875,5761.7822265625,17236.07421875,-449.02166748046875,8549.6904296875,0.0,22343.79296875,6702.7412109375,24537.244140625,19654.431640625,9383.361328125,11324.8828125,22834.935546875,29176.076171875,22301.673828125,19341.310546875,20879.904296875,6884.73388671875,28788.248046875,375.9066162109375,0.0,1074.4730224609375,13756.751953125,6608.962890625,25584.697265625,16016.9599609375,14928.181640625,24532.4765625,9140.173828125,13843.376953125,8478.1650390625,3792.44482421875,22495.587890625,9140.96875,16665.458984375,11401.970703125,8643.4677734375,11894.703125,11477.470703125,2216.498046875,9915.0341796875,2961.953369140625,16353.92578125,6066.16357421875,7796.28759765625,2415.18017578125,10886.986328125,4754.861328125,23461.18359375,4086.494384765625,17586.548828125,3068.447021484375,9343.6240234375,26112.3984375,21045.20703125,11733.373046875,-0.0,-44558.046875,19102.095703125,4183.451171875,0.0,6733.7353515625,0.0,0.0
15328.724609375,15042.623046875,33243.49609375,10883.013671875,27876.6953125,6350.67626953125,7861.455078125,8971.69140625,8855.66015625,5763.3720703125,17222.5625,-451.4058532714844,8560.021484375,0.0,22349.357421875,6702.7412109375,24538.041015625,19654.431640625,9384.94921875,11330.4453125,22832.552734375,29177.666015625,22303.263671875,19343.6953125,20880.69921875,6886.3232421875,28795.400390625,375.1119079589844,0.0,1071.294189453125,13756.751953125,6604.19482421875,25583.90234375,16017.755859375,14930.5654296875,24535.65625,9144.146484375,13845.76171875,8469.421875,3782.908203125,22493.998046875,9143.3525390625,16667.84375,11405.150390625,8648.236328125,11896.29296875,11457.6025390625,2214.90869140625,9919.802734375,2964.337646484375,16359.4873046875,6066.9580078125,7769.2666015625,2405.6435546875,10906.85546875,4746.119140625,23464.361328125,4087.289306640625,17595.291015625,3069.24169921875,9346.802734375,26114.783203125,21049.181640625,11747.677734375,-0.0,-44558.046875,19106.865234375,4190.603515625,0.0,6738.50390625,0.0,0.0
15362.8984375,15048.98046875,33271.3125,10915.5966796875,27891.794921875,6372.1337890625,7878.14404296875,8993.1484375,8873.939453125,5784.03466796875,17262.30078125,-428.35870361328125,8559.2265625,0.0,22364.458984375,6721.814453125,24558.703125,19677.48046875,9404.0234375,11351.1083984375,22853.216796875,29200.712890625,22321.54296875,19365.9453125,20890.236328125,6912.54931640625,28805.732421875,398.1590270996094,0.0,1091.95703125,13779.00390625,6626.447265625,25606.15625,16041.59765625,14945.666015625,24558.703125,9160.8359375,13866.4248046875,8492.4697265625,3809.928955078125,22509.892578125,9168.7841796875,16680.55859375,11425.8125,8666.515625,11916.955078125,11508.46484375,2245.903076171875,9917.4189453125,2990.563720703125,16375.3837890625,6085.23681640625,7778.80322265625,2427.895751953125,10919.5712890625,4769.16650390625,23469.12890625,4107.9521484375,17613.568359375,3089.110107421875,9370.64453125,26135.4453125,21068.25390625,11773.109375,-0.0,-44534.20703125,19121.96484375,4209.67724609375,0.0,6763.93505859375,0.0,0.0
15381.97265625,15039.4443359375,33274.4921875,10922.75,27891.794921875,6378.49169921875,7878.939453125,8997.123046875,8872.349609375,5788.00830078125,17277.3984375,-425.1798095703125,8564.7900390625,0.0,22366.841796875,6728.17236328125,24567.4453125,19681.453125,9406.4072265625,11352.6982421875,22857.189453125,29208.66015625,22323.927734375,19370.71484375,20878.314453125,6922.08642578125,28807.322265625,404.516845703125,0.0,1104.6727294921875,13784.5673828125,6635.98388671875,25610.12890625,16047.9541015625,14947.2548828125,24563.470703125,9166.400390625,13870.3984375,8487.701171875,3821.05517578125,22510.6875,9174.3466796875,16680.55859375,11430.5810546875,8665.720703125,11920.9287109375,11529.1279296875,2261.002685546875,9913.4443359375,2996.921630859375,16377.767578125,6088.41552734375,7809.7978515625,2437.4326171875,10921.955078125,4778.703125,23471.513671875,4111.92578125,17614.365234375,3093.87841796875,9372.234375,26140.212890625,21070.638671875,11767.546875,-0.0,-44534.20703125,19123.5546875,4210.47216796875,0.0,6764.72998046875,0.0,0.0
15349.3876953125,15014.0126953125,33257.0078125,10891.7548828125,27876.6953125,6358.62353515625,7865.4287109375,8978.84375,8850.8916015625,5771.31884765625,17247.19921875,-447.43218994140625,8565.5849609375,0.0,22356.509765625,6708.3037109375,24548.373046875,19662.380859375,9387.333984375,11336.0087890625,22840.5,29186.40625,22305.646484375,19351.640625,20864.009765625,6899.03857421875,28797.78515625,386.23809814453125,0.0,1087.188720703125,13766.2890625,6615.32080078125,25592.646484375,16026.4970703125,14932.9501953125,24545.193359375,9148.9150390625,13851.3251953125,8465.44921875,3802.7763671875,22495.587890625,9149.7109375,16669.431640625,11409.9189453125,8648.236328125,11903.4453125,11506.0810546875,2241.92919921875,9910.265625,2975.4638671875,16365.05078125,6069.34228515625,7815.36083984375,2417.564453125,10910.0341796875,4755.65576171875,23466.74609375,4088.878662109375,17602.443359375,3077.189208984375,9348.392578125,26121.935546875,21053.15625,11745.2939453125,-0.0,-44554.07421875,19110.044921875,4196.9619140625,0.0,6752.01416015625,0.0,0.0
15331.109375,15009.244140625,33242.703125,10879.0400390625,27867.158203125,6345.90771484375,7855.09765625,8967.716796875,8838.1767578125,5762.5771484375,17232.099609375,-453.7900390625,8550.484375,0.0,22347.76953125,6696.3828125,24534.861328125,19650.458984375,9376.2080078125,11324.8828125,22829.375,29176.076171875,22292.13671875,19338.130859375,20856.857421875,6884.73388671875,28786.66015625,374.3171691894531,0.0,1075.267822265625,13755.162109375,6604.98974609375,25581.517578125,16013.7802734375,14923.4130859375,24534.06640625,9137.7900390625,13839.404296875,8476.5751953125,3790.85546875,22487.640625,9136.994140625,16658.306640625,11398.7919921875,8636.3154296875,11892.318359375,11481.4443359375,2230.00830078125,9899.93359375,2965.92724609375,16355.5146484375,6059.0107421875,7811.3876953125,2411.20654296875,10892.55078125,4742.1455078125,23461.9765625,4077.752685546875,17594.49609375,3066.06298828125,9338.85546875,26109.21875,21041.234375,11735.7568359375,-0.0,-44561.2265625,19104.48046875,4182.65673828125,0.0,6740.09326171875,0.0,0.0
15344.6201171875,15034.67578125,33256.21484375,10887.7822265625,27879.873046875,6360.212890625,7866.22314453125,8978.84375,8850.09765625,5780.06103515625,17244.01953125,-441.0743713378906,8548.1005859375,0.0,22357.3046875,6712.27783203125,24546.78125,19661.583984375,9390.513671875,11340.77734375,22843.6796875,29187.203125,22302.46875,19350.84765625,20866.39453125,6898.244140625,28796.9921875,385.443359375,0.0,1087.188720703125,13768.6728515625,6615.32080078125,25595.029296875,16026.4970703125,14934.5400390625,24545.98828125,9149.7109375,13851.3251953125,8516.3115234375,3801.981689453125,22497.97265625,9149.7109375,16668.638671875,11412.302734375,8649.03125,11904.2392578125,11486.212890625,2240.340087890625,9911.8544921875,2978.642822265625,16365.8466796875,6076.49462890625,7812.97705078125,2430.280029296875,10894.1396484375,4752.47705078125,23470.720703125,4092.0576171875,17605.623046875,3084.341796875,9354.7509765625,26120.34375,21053.94921875,11749.267578125,-0.0,-44552.48828125,19110.044921875,4198.55126953125,0.0,6766.3193359375,0.0,0.0
15348.59375,15052.1591796875,33269.72265625,10892.55078125,27891.0,6364.98095703125,7874.17138671875,8982.0224609375,8854.8662109375,5781.650390625,17255.94140625,-435.5112609863281,8549.6904296875,0.0,22363.662109375,6717.8408203125,24551.55078125,19667.1484375,9395.2822265625,11343.9560546875,22850.83203125,29191.17578125,22309.62109375,19355.615234375,20877.51953125,6902.2177734375,28808.1171875,388.6222839355469,0.0,1091.95703125,13772.646484375,6620.8837890625,25602.9765625,16028.880859375,14941.6923828125,24550.755859375,9155.2734375,13854.50390625,8502.80078125,3811.518310546875,22505.91796875,9153.68359375,16678.17578125,11415.4814453125,8656.1845703125,11905.8291015625,11500.517578125,2240.340087890625,9930.9287109375,2982.616455078125,16374.587890625,6080.46875,7819.3349609375,2431.074951171875,10906.85546875,4758.8349609375,23474.693359375,4099.21044921875,17611.98046875,3087.5205078125,9352.3662109375,26125.908203125,21058.716796875,11751.6513671875,-0.0,-44542.15234375,19115.60546875,4203.3193359375,0.0,6769.49853515625,0.0,0.0
15331.904296875,15052.955078125,33272.10546875,10897.318359375,27898.15234375,6363.39208984375,7875.76025390625,8978.048828125,8852.4814453125,5773.703125,17257.53125,-432.3323669433594,8542.5380859375,0.0,22365.251953125,6713.8671875,24553.93359375,19667.1484375,9393.6923828125,11340.77734375,22852.419921875,29191.17578125,22312.005859375,19353.23046875,20885.466796875,6901.4228515625,28816.064453125,386.23809814453125,0.0,1098.31494140625,13774.2353515625,6620.0888671875,25604.56640625,16030.4697265625,14944.87109375,24549.9609375,9156.0673828125,13851.3251953125,8494.0595703125,3815.491943359375,22511.482421875,9154.4794921875,16682.943359375,11413.09765625,8654.5947265625,11901.0615234375,11500.517578125,2236.3662109375,9929.33984375,2981.82177734375,16376.97265625,6074.9052734375,7820.923828125,2425.51171875,10901.2919921875,4765.9873046875,23470.720703125,4099.21044921875,17612.775390625,3079.573486328125,9347.59765625,26125.11328125,21056.333984375,11748.4736328125,-0.0,-44546.12890625,19117.197265625,4203.3193359375,0.0,6754.3984375,0.0,0.0
15356.541015625,15074.412109375,33297.5390625,10914.802734375,27920.404296875,6387.23388671875,7902.78125,9001.095703125,8874.734375,5803.1083984375,17280.578125,-403.7221374511719,8559.2265625,0.0,22384.32421875,6740.09326171875,24578.572265625,19690.1953125,9415.9443359375,11367.00390625,22877.8515625,29215.017578125,22336.640625,19377.07421875,20897.388671875,6927.64892578125,28842.291015625,413.2588806152344,0.0,1122.9515380859375,13797.283203125,6644.7255859375,25629.201171875,16055.107421875,14968.712890625,24574.59765625,9180.705078125,13875.9609375,8512.337890625,3832.97607421875,22536.119140625,9182.2939453125,16708.375,11436.939453125,8679.23046875,11924.9033203125,11528.3330078125,2246.69775390625,9927.75,3005.66357421875,16403.994140625,6101.92626953125,7847.9453125,2450.94287109375,10915.5966796875,4793.00830078125,23469.92578125,4127.8203125,17635.02734375,3106.593994140625,9376.2080078125,26149.75,21080.17578125,11780.26171875,-0.0,-44517.515625,19127.52734375,4230.34033203125,0.0,6782.2138671875,0.0,0.0
15358.9248046875,15070.4384765625,33297.5390625,10913.212890625,27911.662109375,6388.02880859375,7901.986328125,8998.7119140625,8872.349609375,5791.98193359375,17283.7578125,-406.1063232421875,8561.611328125,0.0,22386.708984375,6736.11962890625,24579.3671875,19676.685546875,9414.35546875,11359.8505859375,22877.8515625,29218.197265625,22335.84765625,19377.07421875,20902.953125,6933.21240234375,28831.958984375,412.4641418457031,0.0,1114.20947265625,13797.283203125,6647.10986328125,25629.998046875,16055.90234375,14967.1240234375,24574.59765625,9179.91015625,13874.37109375,8512.337890625,3824.23388671875,22537.708984375,9183.8837890625,16702.810546875,11437.7333984375,8679.23046875,11922.5185546875,11530.716796875,2256.234375,9919.0068359375,3008.0478515625,16407.171875,6097.15771484375,7841.5869140625,2451.737548828125,10935.4658203125,4786.650390625,23465.951171875,4123.8466796875,17635.02734375,3097.057373046875,9372.234375,26148.16015625,21077.791015625,11775.4931640625,-0.0,-44508.7734375,19129.1171875,4223.18798828125,0.0,6762.345703125,0.0,0.0
15363.693359375,15064.8759765625,33288.796875,10912.41796875,27914.046875,6385.64453125,7899.60205078125,8997.123046875,8873.1455078125,5786.4189453125,17274.220703125,-408.4905090332031,8567.173828125,0.0,22386.708984375,6728.96728515625,24575.392578125,19663.17578125,9412.765625,11362.2353515625,22876.26171875,29215.017578125,22335.052734375,19374.689453125,20906.92578125,6930.033203125,28824.01171875,410.87469482421875,0.0,1114.20947265625,13793.3095703125,6644.7255859375,25626.0234375,16051.927734375,14964.740234375,24569.830078125,9175.9365234375,13873.5771484375,8514.7216796875,3817.876220703125,22538.50390625,9179.115234375,16701.220703125,11436.14453125,8680.0263671875,11918.544921875,11508.46484375,2261.002685546875,9936.4921875,3008.0478515625,16406.376953125,6092.3896484375,7834.4345703125,2451.737548828125,10916.392578125,4783.4716796875,23485.025390625,4119.873046875,17639.794921875,3089.110107421875,9361.9033203125,26145.77734375,21076.998046875,11779.4677734375,-0.0,-44512.75,19130.70703125,4216.03515625,0.0,6757.57763671875,0.0,0.0
15361.30859375,15059.3115234375,33281.64453125,10902.0869140625,27910.07421875,6378.49169921875,7882.91259765625,8993.1484375,8862.0185546875,5782.4453125,17259.916015625,-418.0272521972656,8572.7373046875,0.0,22377.96875,6724.19873046875,24565.85546875,19656.0234375,9405.61328125,11353.4931640625,22868.314453125,29204.6875,22326.310546875,19368.330078125,20904.541015625,6921.29150390625,28816.064453125,405.31158447265625,0.0,1106.26220703125,13785.3623046875,6636.7783203125,25618.076171875,16043.1865234375,14956.7919921875,24562.677734375,9165.6044921875,13866.4248046875,8506.775390625,3805.955078125,22528.171875,9169.578125,16691.685546875,11430.5810546875,8667.3095703125,11912.1865234375,11494.9541015625,2261.002685546875,9930.9287109375,3003.279541015625,16380.9453125,6088.41552734375,7812.97705078125,2446.96923828125,10910.828125,4777.11328125,23492.970703125,4117.48876953125,17628.669921875,3086.725830078125,9346.802734375,26137.828125,21067.4609375,11769.1357421875,-0.0,-44526.26171875,19126.734375,4207.29296875,0.0,6759.96142578125,0.0,0.0
15360.5146484375,15059.3115234375,33278.46484375,10899.703125,27898.947265625,6374.51806640625,7878.14404296875,8990.7646484375,8858.83984375,5783.23974609375,17255.94140625,-421.2061462402344,8563.9951171875,0.0,22370.814453125,6727.37744140625,24562.677734375,19650.458984375,9400.8447265625,11351.1083984375,22862.751953125,29199.91796875,22320.748046875,19364.357421875,20901.361328125,6914.138671875,28810.501953125,402.9273986816406,0.0,1102.28857421875,13781.388671875,6633.599609375,25613.30859375,16038.41796875,14950.4345703125,24558.703125,9161.6318359375,13864.0400390625,8500.4169921875,3809.928955078125,22521.814453125,9166.400390625,16682.1484375,11428.197265625,8660.9521484375,11912.982421875,11491.775390625,2263.386962890625,9929.33984375,2993.74267578125,16374.587890625,6087.62109375,7805.82421875,2448.558837890625,10908.4443359375,4777.11328125,23475.48828125,4119.873046875,17621.517578125,3089.110107421875,9347.59765625,26133.85546875,21063.486328125,11763.572265625,-0.0,-44521.4921875,19124.349609375,4217.62451171875,0.0,6767.1142578125,0.0,0.0
15369.255859375,15065.669921875,33288.00390625,10908.4443359375,27908.484375,6377.69677734375,7888.4765625,8992.3544921875,8862.8134765625,5781.650390625,17256.736328125,-417.2325134277344,8557.6376953125,0.0,22373.19921875,6724.9931640625,24566.650390625,19653.638671875,9406.4072265625,11349.5185546875,22869.90625,29202.302734375,22327.900390625,19367.537109375,20913.283203125,6914.93359375,28825.6015625,406.9010314941406,0.0,1099.9044189453125,13786.15625,6636.7783203125,25618.076171875,16040.8017578125,14957.5869140625,24561.8828125,9167.9892578125,13866.4248046875,8499.6220703125,3810.7236328125,22531.3515625,9169.578125,16694.865234375,11431.3759765625,8668.10546875,11914.5712890625,11510.8486328125,2264.181884765625,9932.517578125,2988.179443359375,16384.919921875,6086.826171875,7809.7978515625,2446.96923828125,10921.1611328125,4789.0341796875,23474.693359375,4119.873046875,17622.3125,3088.315185546875,9360.3134765625,26137.828125,21067.4609375,11758.009765625,-0.0,-44515.1328125,19121.96484375,4207.29296875,0.0,6754.3984375,0.0,0.0
15370.845703125,15067.259765625,33293.5625,10910.828125,27912.458984375,6384.0546875,7894.83349609375,8997.9169921875,8867.5810546875,5785.6240234375,17243.2265625,-415.64306640625,8563.9951171875,0.0,22377.171875,6730.556640625,24567.4453125,19657.611328125,9410.380859375,11352.6982421875,22872.2890625,29206.275390625,22331.873046875,19373.09765625,20910.10546875,6918.9072265625,28824.806640625,414.84832763671875,0.0,1099.9044189453125,13789.3359375,6638.3681640625,25619.666015625,16045.5703125,14962.35546875,24565.0625,9172.7568359375,13870.3984375,8483.7275390625,3796.41845703125,22535.32421875,9173.552734375,16702.017578125,11436.14453125,8673.66796875,11918.544921875,11517.20703125,2264.9765625,9926.16015625,2998.510986328125,16392.865234375,6091.5947265625,7796.28759765625,2436.637939453125,10904.4716796875,4796.98193359375,23485.025390625,4122.25732421875,17626.28515625,3092.2890625,9364.287109375,26140.212890625,21073.0234375,11758.8046875,-0.0,-44520.6953125,19125.9375,4211.26708984375,0.0,6757.57763671875,0.0,0.0
15345.4140625,15062.4912109375,33270.51953125,10893.3447265625,27894.974609375,6376.90234375,7879.73388671875,8990.7646484375,8859.634765625,5776.88232421875,17240.84375,-425.9745178222656,8562.4052734375,0.0,22370.01953125,6724.19873046875,24558.703125,19647.279296875,9399.2548828125,11343.9560546875,22857.984375,29195.150390625,22316.7734375,19362.767578125,20898.18359375,6910.16552734375,28796.1953125,407.6957702636719,0.0,1095.9306640625,13777.4150390625,6633.599609375,25609.333984375,16035.23828125,14946.4609375,24553.93359375,9160.0419921875,13861.65625,8519.490234375,3798.802734375,22518.634765625,9163.220703125,16680.55859375,11428.9921875,8661.7470703125,11909.0078125,11498.1337890625,2256.234375,9926.16015625,2996.921630859375,16376.1767578125,6084.4423828125,7802.64501953125,2426.306396484375,10899.703125,4785.85595703125,23485.025390625,4112.720703125,17618.337890625,3082.752197265625,9358.7236328125,26128.29296875,21062.693359375,11751.6513671875,-0.0,-44530.23046875,19122.759765625,4202.52490234375,0.0,6753.603515625,0.0,0.0
15328.724609375,15049.775390625,33271.3125,10884.6025390625,27889.41015625,6371.33935546875,7868.607421875,8985.2021484375,8854.0712890625,5770.5244140625,17256.736328125,-431.5376281738281,8571.9423828125,0.0,22365.251953125,6718.6357421875,24555.525390625,19640.126953125,9393.6923828125,11339.1875,22853.216796875,29190.3828125,22312.798828125,19358.79296875,20898.18359375,6912.54931640625,28792.22265625,402.1326599121094,0.0,1084.8045654296875,13772.646484375,6631.21533203125,25606.951171875,16029.6767578125,14939.30859375,24549.166015625,9155.2734375,13857.6826171875,8539.359375,3809.13427734375,22511.482421875,9160.0419921875,16670.2265625,11424.2236328125,8656.978515625,11905.0341796875,11509.2587890625,2241.92919921875,9930.9287109375,2992.94775390625,16367.435546875,6081.26318359375,7812.18212890625,2423.12744140625,10915.5966796875,4780.29248046875,23485.025390625,4110.33642578125,17612.775390625,3077.98388671875,9350.7763671875,26125.11328125,21057.12890625,11743.705078125,-0.0,-44538.1796875,19117.990234375,4193.78271484375,0.0,6746.45068359375,0.0,0.0
15350.1826171875,15046.5966796875,33279.2578125,10878.2451171875,27887.8203125,6372.9287109375,7870.99169921875,8986.791015625,8850.8916015625,5768.14013671875,17263.09375,-434.716552734375,8558.4326171875,0.0,22359.689453125,6717.04638671875,24557.11328125,19641.71875,9394.486328125,11335.2138671875,22852.419921875,29194.35546875,22312.798828125,19360.384765625,20885.466796875,6917.31787109375,28792.22265625,402.1326599121094,0.0,1088.7781982421875,13773.44140625,6629.6259765625,25606.951171875,16032.8544921875,14939.30859375,24549.9609375,9153.68359375,13859.2724609375,8524.2587890625,3809.928955078125,22509.892578125,9165.6044921875,16670.2265625,11426.6083984375,8656.1845703125,11904.2392578125,11516.412109375,2230.00830078125,9917.4189453125,2994.537353515625,16367.435546875,6082.05810546875,7812.97705078125,2424.717041015625,10910.828125,4777.11328125,23472.30859375,4111.92578125,17608.80078125,3072.4208984375,9354.7509765625,26125.908203125,21056.333984375,11738.9365234375,-0.0,-44538.9765625,19112.427734375,4186.63037109375,0.0,6732.9404296875,0.0,0.0
15376.408203125,15059.3115234375,33279.2578125,10893.3447265625,27891.794921875,6384.0546875,7878.939453125,8997.123046875,8861.224609375,5776.08740234375,17275.015625,-428.35870361328125,8552.869140625,0.0,22365.251953125,6722.60888671875,24567.4453125,19651.25390625,9401.638671875,11343.9560546875,22857.984375,29203.095703125,22319.951171875,19371.509765625,20891.03125,6922.880859375,28796.9921875,411.6694030761719,0.0,1101.493896484375,13782.18359375,6640.75244140625,25614.103515625,16043.1865234375,14946.4609375,24561.0859375,9161.6318359375,13869.603515625,8524.2587890625,3809.13427734375,22513.8671875,9175.9365234375,16676.583984375,11436.939453125,8666.515625,11912.982421875,11520.3857421875,2244.3134765625,9918.212890625,3004.86865234375,16373.79296875,6093.97900390625,7839.203125,2433.458984375,10914.0078125,4778.703125,23471.513671875,4116.69384765625,17613.568359375,3079.573486328125,9370.64453125,26134.6484375,21066.666015625,11748.4736328125,-0.0,-44531.02734375,19112.427734375,4196.1669921875,0.0,6744.86181640625,0.0,0.0
15374.8193359375,15066.46484375,33282.44140625,10905.265625,27897.357421875,6392.001953125,7885.296875,9005.0693359375,8871.5556640625,5784.03466796875,17272.630859375,-422.0008850097656,8552.869140625,0.0,22370.01953125,6728.96728515625,24572.21484375,19658.40625,9409.5869140625,11350.314453125,22865.9296875,29208.66015625,22327.10546875,19377.8671875,20898.18359375,6926.8544921875,28803.34765625,422.0008850097656,0.0,1105.4674072265625,13787.74609375,6640.75244140625,25617.28125,16050.3388671875,14953.61328125,24569.03515625,9167.9892578125,13876.755859375,8516.3115234375,3809.928955078125,22519.4296875,9180.705078125,16683.736328125,11445.681640625,8673.66796875,11919.3388671875,11533.1015625,2261.797607421875,9924.5712890625,3014.405517578125,16380.1513671875,6101.13134765625,7851.91845703125,2440.611572265625,10924.3388671875,4781.8818359375,23472.30859375,4123.8466796875,17616.748046875,3090.699462890625,9368.2607421875,26142.59765625,21076.203125,11757.21484375,-0.0,-44522.28515625,19114.017578125,4200.140625,0.0,6753.603515625,0.0,0.0
15361.30859375,15057.72265625,33275.2890625,10898.9072265625,27893.384765625,6389.6181640625,7884.50244140625,9004.275390625,8873.939453125,5784.82958984375,17255.94140625,-429.1534423828125,8551.2802734375,0.0,22366.841796875,6728.96728515625,24566.650390625,19656.81640625,9409.5869140625,11347.9296875,22858.77734375,29206.275390625,22327.900390625,19373.89453125,20885.466796875,6925.2646484375,28806.52734375,422.0008850097656,0.0,1107.8516845703125,13784.5673828125,6632.8046875,25611.71875,16047.1591796875,14950.4345703125,24567.4453125,9166.400390625,13875.1669921875,8513.927734375,3822.64453125,22513.0703125,9179.115234375,16682.1484375,11443.2978515625,8673.66796875,11917.75,11519.591796875,2268.1552734375,9922.1865234375,3012.021240234375,16380.9453125,6098.7470703125,7828.87158203125,2446.96923828125,10917.9814453125,4785.06103515625,23472.30859375,4123.8466796875,17615.16015625,3089.90478515625,9357.134765625,26141.0078125,21073.0234375,11757.21484375,-0.0,-44531.02734375,19116.40234375,4190.603515625,0.0,6748.8349609375,0.0,0.0
15354.951171875,15056.927734375,33281.64453125,10900.4970703125,27900.537109375,6394.38623046875,7893.24462890625,9010.6328125,8885.06640625,5791.98193359375,17267.86328125,-426.7692565917969,8562.4052734375,0.0,22373.994140625,6730.556640625,24570.623046875,19661.583984375,9417.5341796875,11357.466796875,22864.341796875,29211.83984375,22335.052734375,19381.046875,20891.82421875,6930.828125,28820.833984375,425.1798095703125,0.0,1115.004150390625,13790.130859375,6635.18896484375,25618.87109375,16051.1337890625,14955.9970703125,24571.41796875,9173.552734375,13881.5244140625,8520.28515625,3832.18115234375,22519.4296875,9181.4990234375,16689.30078125,11448.0654296875,8682.41015625,11923.3134765625,11515.6171875,2277.692138671875,9930.9287109375,3009.63720703125,16390.482421875,6105.89990234375,7813.771484375,2454.121826171875,10914.802734375,4793.802734375,23483.435546875,4126.23095703125,17623.10546875,3098.64697265625,9355.544921875,26147.365234375,21078.5859375,11769.9306640625,-0.0,-44530.23046875,19117.990234375,4204.90869140625,0.0,6762.345703125,0.0,0.0
15348.59375,15068.8486328125,33285.6171875,10903.67578125,27895.76953125,6395.9755859375,7888.4765625,9010.6328125,8888.244140625,5791.98193359375,17259.916015625,-421.2061462402344,8557.6376953125,0.0,22369.2265625,6728.17236328125,24569.03515625,19659.99609375,9415.9443359375,11358.2607421875,22861.95703125,29209.455078125,22332.66796875,19378.662109375,20884.671875,6929.23876953125,28810.501953125,423.59033203125,0.0,1115.7989501953125,13788.541015625,6636.7783203125,25618.076171875,16050.3388671875,14952.0234375,24569.830078125,9170.373046875,13879.935546875,8513.927734375,3823.439453125,22516.25,9179.91015625,16683.736328125,11447.2705078125,8681.615234375,11923.3134765625,11513.2333984375,2277.692138671875,9919.802734375,3009.63720703125,16385.712890625,6105.10498046875,7819.3349609375,2454.916748046875,10903.67578125,4790.6240234375,23475.48828125,4126.23095703125,17620.72265625,3100.236083984375,9361.9033203125,26143.392578125,21076.998046875,11776.2880859375,-0.0,-44529.4375,19118.78515625,4208.8828125,0.0,6767.90869140625,0.0,0.0
15354.15625,15090.306640625,33292.76953125,10914.802734375,27902.921875,6402.33349609375,7890.8603515625,9016.990234375,8895.3974609375,5798.33984375,17269.453125,-405.31158447265625,8576.7109375,0.0,22369.2265625,6740.88818359375,24580.16015625,19667.1484375,9421.5078125,11363.029296875,22871.494140625,29216.607421875,22338.232421875,19385.01953125,20895.00390625,6937.185546875,28800.169921875,433.1270751953125,0.0,1126.1304931640625,13795.693359375,6651.87841796875,25626.818359375,16058.287109375,14959.9716796875,24576.982421875,9172.7568359375,13885.498046875,8526.642578125,3828.207763671875,22525.787109375,9187.857421875,16686.916015625,11456.0126953125,8683.9990234375,11932.0556640625,11529.9228515625,2288.023681640625,9926.955078125,3018.379150390625,16384.125,6113.05224609375,7836.0244140625,2464.453369140625,10914.802734375,4804.13427734375,23476.28125,4134.17822265625,17622.3125,3106.593994140625,9380.9765625,26150.544921875,21080.970703125,11782.646484375,-0.0,-44515.92578125,19117.197265625,4216.03515625,0.0,6776.65087890625,0.0,0.0
15368.4619140625,15079.1806640625,33285.6171875,10905.265625,27898.947265625,6391.20703125,7880.5283203125,9004.275390625,8884.2705078125,5786.4189453125,17267.86328125,-414.0535888671875,8574.326171875,0.0,22362.07421875,6729.76171875,24569.830078125,19656.81640625,9411.970703125,11350.314453125,22862.751953125,29207.865234375,22329.48828125,19373.89453125,20891.03125,6922.880859375,28796.9921875,422.0008850097656,0.0,1115.7989501953125,13785.3623046875,6647.90478515625,25618.076171875,16049.54296875,14952.0234375,24566.650390625,9164.015625,13874.37109375,8517.1064453125,3825.028564453125,22521.01953125,9178.3212890625,16679.763671875,11444.8857421875,8674.4619140625,11919.3388671875,11514.02734375,2278.487060546875,9927.75,3008.0478515625,16376.1767578125,6101.13134765625,7810.5927734375,2454.916748046875,10904.4716796875,4795.392578125,23471.513671875,4119.873046875,17612.775390625,3096.2626953125,9381.771484375,26142.59765625,21070.638671875,11772.3154296875,-0.0,-44526.26171875,19108.453125,4201.73046875,0.0,6763.14013671875,0.0,0.0
15358.130859375,15064.8759765625,33272.10546875,10895.7294921875,27892.58984375,6382.46533203125,7876.5556640625,8997.9169921875,8881.091796875,5781.650390625,17260.708984375,-425.1798095703125,8564.7900390625,0.0,22358.89453125,6721.814453125,24559.498046875,19647.279296875,9403.228515625,11347.134765625,22850.83203125,29196.73828125,22321.54296875,19365.15234375,20887.056640625,6914.138671875,28798.580078125,414.0535888671875,0.0,1103.8780517578125,13774.2353515625,6637.5732421875,25607.744140625,16040.0068359375,14943.2822265625,24557.11328125,9156.0673828125,13865.6298828125,8502.80078125,3814.697265625,22512.27734375,9168.7841796875,16673.40625,11435.349609375,8667.3095703125,11913.7763671875,11506.875,2267.360595703125,9927.75,3000.100341796875,16370.615234375,6094.77392578125,7785.9560546875,2441.40625,10899.703125,4779.49755859375,23465.15625,4114.3095703125,17609.595703125,3091.494384765625,9366.671875,26132.265625,21062.693359375,11776.2880859375,-0.0,-44535.0,19110.044921875,4202.52490234375,0.0,6764.72998046875,0.0,0.0
15342.2353515625,15064.080078125,33276.875,10894.9345703125,27891.0,6380.0810546875,7876.5556640625,8998.7119140625,8885.06640625,5782.4453125,17267.86328125,-421.2061462402344,8558.4326171875,0.0,22362.07421875,6724.9931640625,24562.677734375,19648.07421875,9402.4345703125,11351.9033203125,22854.009765625,29195.943359375,22322.3359375,19365.15234375,20892.619140625,6918.1123046875,28798.580078125,413.2588806152344,0.0,1105.4674072265625,13776.6201171875,6642.341796875,25609.333984375,16041.59765625,14944.87109375,24555.525390625,9156.86328125,13866.4248046875,8504.390625,3815.491943359375,22514.662109375,9171.962890625,16673.40625,11434.5546875,8668.10546875,11911.392578125,11519.591796875,2268.9501953125,9923.775390625,3000.100341796875,16372.2041015625,6096.36328125,7813.771484375,2439.02197265625,10903.67578125,4781.08740234375,23465.15625,4123.05224609375,17610.392578125,3087.5205078125,9364.287109375,26133.060546875,21064.28125,11781.8515625,-0.0,-44528.64453125,19111.6328125,4199.34619140625,0.0,6755.98779296875,0.0,0.0
15327.9306640625,15062.4912109375,33276.08203125,10898.9072265625,27883.84765625,6377.69677734375,7870.197265625,8992.3544921875,8876.3232421875,5775.29296875,17247.19921875,-422.0008850097656,8553.6640625,0.0,22360.482421875,6721.01953125,24560.29296875,19644.1015625,9396.076171875,11342.3662109375,22850.83203125,29196.73828125,22315.978515625,19358.79296875,20878.314453125,6917.31787109375,28793.8125,410.0799560546875,0.0,1101.493896484375,13774.2353515625,6640.75244140625,25609.333984375,16042.390625,14939.30859375,24552.345703125,9152.0947265625,13860.06640625,8497.23828125,3821.05517578125,22507.509765625,9171.962890625,16666.25390625,11430.5810546875,8662.541015625,11906.6240234375,11500.517578125,2271.33447265625,9907.8818359375,2996.921630859375,16366.6396484375,6090.00537109375,7837.61328125,2428.690673828125,10909.240234375,4785.06103515625,23466.74609375,4117.48876953125,17604.828125,3081.95751953125,9362.697265625,26127.49609375,21059.513671875,11771.51953125,-0.0,-44528.64453125,19104.48046875,4189.80908203125,0.0,6740.09326171875,0.0,0.0
15361.30859375,15067.259765625,33284.82421875,10914.802734375,27894.974609375,6389.6181640625,7880.5283203125,9001.8916015625,8886.6552734375,5788.80322265625,17220.974609375,-410.0799560546875,8566.3798828125,0.0,22367.634765625,6732.9404296875,24571.41796875,19655.228515625,9408.7919921875,11353.4931640625,22861.162109375,29207.865234375,22327.10546875,19369.919921875,20890.236328125,6926.8544921875,28803.34765625,418.82196044921875,0.0,1109.441162109375,13786.15625,6647.90478515625,25617.28125,16052.72265625,14949.6396484375,24564.265625,9160.8359375,13871.193359375,8521.8740234375,3829.797119140625,22518.634765625,9183.0888671875,16677.37890625,11441.7080078125,8672.078125,11916.16015625,11498.1337890625,2277.692138671875,9919.802734375,3007.2529296875,16376.97265625,6098.7470703125,7830.46044921875,2443.79052734375,10925.1337890625,4796.98193359375,23473.103515625,4124.6416015625,17612.775390625,3097.85205078125,9367.4658203125,26137.828125,21068.25390625,11784.236328125,-0.0,-44519.109375,19111.6328125,4208.087890625,0.0,6763.14013671875,0.0,0.0
15372.435546875,15059.3115234375,33278.46484375,10921.955078125,27895.76953125,6387.23388671875,7875.76025390625,8999.5068359375,8880.2978515625,5786.4189453125,17242.431640625,-416.4377746582031,8566.3798828125,0.0,22358.099609375,6733.7353515625,24565.85546875,19652.048828125,9404.0234375,11351.1083984375,22859.57421875,29205.48046875,22325.515625,19367.537109375,20900.568359375,6922.880859375,28798.580078125,416.4377746582031,0.0,1101.493896484375,13783.7724609375,6637.5732421875,25611.71875,16049.54296875,14950.4345703125,24563.470703125,9157.6572265625,13868.80859375,8514.7216796875,3800.39208984375,22518.634765625,9181.4990234375,16676.583984375,11438.529296875,8665.720703125,11915.3662109375,11507.669921875,2261.797607421875,9924.5712890625,3004.07421875,16370.615234375,6097.15771484375,7801.0556640625,2445.3798828125,10918.7763671875,4795.392578125,23469.92578125,4123.8466796875,17607.212890625,3101.82568359375,9357.134765625,26137.828125,21065.076171875,11781.056640625,-0.0,-44523.875,19110.044921875,4210.47216796875,0.0,6761.55078125,0.0,0.0
15354.15625,15046.5966796875,33267.3359375,10909.240234375,27887.8203125,6378.49169921875,7866.22314453125,8989.9697265625,8871.5556640625,5777.67724609375,17259.12109375,-429.94818115234375,8563.201171875,0.0,22351.7421875,6723.40380859375,24553.93359375,19644.1015625,9393.6923828125,11343.1611328125,22850.037109375,29197.53515625,22315.978515625,19359.587890625,20889.44140625,6914.93359375,28794.607421875,407.6957702636719,0.0,1091.95703125,13775.03125,6622.47314453125,25602.9765625,16039.212890625,14940.1025390625,24554.728515625,9149.7109375,13859.2724609375,8513.927734375,3769.397705078125,22510.6875,9173.552734375,16667.046875,11429.787109375,8656.1845703125,11907.41796875,11503.6962890625,2244.3134765625,9920.5966796875,2994.537353515625,16360.283203125,6083.6474609375,7805.029296875,2433.458984375,10904.4716796875,4782.6767578125,23469.92578125,4113.51513671875,17600.05859375,3086.725830078125,9349.1865234375,26128.29296875,21055.541015625,11775.4931640625,-0.0,-44531.02734375,19107.66015625,4201.73046875,0.0,6755.193359375,0.0,0.0
15345.4140625,15058.517578125,33272.90234375,10900.4970703125,27886.232421875,6380.8759765625,7864.63427734375,8989.9697265625,8872.349609375,5778.4716796875,17267.86328125,-416.4377746582031,8548.1005859375,0.0,22349.357421875,6723.40380859375,24557.11328125,19644.896484375,9392.8974609375,11343.1611328125,22852.419921875,29198.328125,22314.390625,19360.384765625,20877.51953125,6917.31787109375,28788.248046875,410.87469482421875,0.0,1100.6990966796875,13775.03125,6632.009765625,25607.744140625,16038.41796875,14941.6923828125,24556.318359375,9149.7109375,13860.06640625,8517.1064453125,3798.008056640625,22509.892578125,9174.3466796875,16663.07421875,11432.1708984375,8656.1845703125,11908.2138671875,11508.46484375,2249.876708984375,9911.8544921875,2999.3056640625,16357.8984375,6084.4423828125,7824.103515625,2436.637939453125,10886.1923828125,4787.4453125,23465.15625,4115.8994140625,17598.470703125,3085.93115234375,9346.0078125,26128.29296875,21055.541015625,11776.2880859375,-0.0,-44519.109375,19108.453125,4194.57763671875,0.0,6755.193359375,0.0,0.0
15341.44140625,15060.9013671875,33276.875,10894.9345703125,27887.025390625,6377.69677734375,7863.83935546875,8989.1748046875,8869.9658203125,5779.2666015625,17268.658203125,-416.4377746582031,8548.1005859375,0.0,22350.15234375,6724.19873046875,24557.11328125,19641.71875,9394.486328125,11342.3662109375,22854.009765625,29197.53515625,22315.18359375,19358.0,20875.931640625,6914.93359375,28789.837890625,407.6957702636719,0.0,1099.9044189453125,13775.03125,6635.18896484375,25610.12890625,16038.41796875,14939.30859375,24553.93359375,9148.12109375,13859.2724609375,8513.1328125,3813.902587890625,22509.892578125,9171.16796875,16664.6640625,11428.9921875,8653.7998046875,11907.41796875,11506.875,2255.439697265625,9919.802734375,2997.71630859375,16357.8984375,6083.6474609375,7811.3876953125,2429.4853515625,10910.828125,4783.4716796875,23461.9765625,4115.8994140625,17597.67578125,3089.110107421875,9317.3984375,26125.908203125,21057.12890625,11777.8779296875,-0.0,-44526.26171875,19107.66015625,4200.140625,0.0,6760.755859375,0.0,0.0
15360.5146484375,15057.72265625,33279.2578125,10886.986328125,27890.205078125,6369.74951171875,7867.0185546875,8987.5859375,8870.7607421875,5780.06103515625,17265.478515625,-427.5639953613281,8545.7158203125,0.0,22349.357421875,6724.19873046875,24554.728515625,19637.7421875,9393.6923828125,11343.9560546875,22852.419921875,29193.560546875,22314.390625,19354.025390625,20873.546875,6906.986328125,28794.607421875,402.1326599121094,0.0,1098.31494140625,13770.2626953125,6631.21533203125,25606.951171875,16034.4443359375,14939.30859375,24548.373046875,9147.326171875,13856.8876953125,8490.8798828125,3811.518310546875,22512.27734375,9162.42578125,16668.638671875,11425.8125,8652.2099609375,11905.8291015625,11505.2861328125,2260.2080078125,9920.5966796875,2990.563720703125,16360.283203125,6079.673828125,7802.64501953125,2427.895751953125,10925.9287109375,4775.52392578125,23461.18359375,4113.51513671875,17600.85546875,3088.315185546875,9329.3193359375,26121.935546875,21055.541015625,11777.8779296875,-0.0,-44527.84765625,19102.892578125,4205.70361328125,0.0,6763.93505859375,0.0,0.0
15341.44140625,15053.7490234375,33268.13671875,10875.0654296875,27888.6171875,6362.59716796875,7861.455078125,8977.25390625,8862.0185546875,5768.14013671875,17248.7890625,-436.3059997558594,8533.794921875,0.0,22344.58984375,6715.45654296875,24545.98828125,19629.001953125,9384.94921875,11335.2138671875,22844.47265625,29183.228515625,22308.03125,19346.873046875,20862.421875,6902.2177734375,28793.8125,395.77484130859375,0.0,1099.109619140625,13762.314453125,6617.705078125,25599.798828125,16023.3173828125,14935.333984375,24540.423828125,9141.7626953125,13847.3515625,8486.9072265625,3804.365966796875,22504.330078125,9152.8896484375,16664.6640625,11414.6875,8645.8525390625,11896.29296875,11495.7490234375,2254.64501953125,9894.37109375,2981.02685546875,16356.3095703125,6070.13720703125,7793.1083984375,2428.690673828125,10890.9609375,4766.7822265625,23454.82421875,4108.7470703125,17595.291015625,3078.778564453125,9346.802734375,26115.576171875,21046.00390625,11766.7509765625,-0.0,-44537.3828125,19096.533203125,4199.34619140625,0.0,6755.193359375,0.0,0.0
15325.5458984375,15051.365234375,33269.72265625,10881.423828125,27887.8203125,6364.98095703125,7861.455078125,8974.8701171875,8858.83984375,5764.16650390625,17249.583984375,-429.94818115234375,8533.794921875,0.0,22345.384765625,6710.68798828125,24549.166015625,19632.181640625,9384.1552734375,11334.4189453125,22844.47265625,29185.61328125,22307.23828125,19346.078125,20870.3671875,6910.16552734375,28790.6328125,396.569580078125,0.0,1100.6990966796875,13763.904296875,6616.91064453125,25603.771484375,16025.701171875,14936.1298828125,24542.80859375,9144.146484375,13847.3515625,8536.974609375,3798.008056640625,22502.740234375,9160.0419921875,16663.07421875,11414.6875,8648.236328125,11893.908203125,11487.0068359375,2251.466064453125,9883.244140625,2989.76904296875,16356.3095703125,6070.13720703125,7780.39306640625,2434.253662109375,10881.423828125,4769.9609375,23452.439453125,4112.720703125,17595.291015625,3074.804931640625,9342.0341796875,26116.37109375,21045.20703125,11761.1884765625,-0.0,-44535.796875,19102.095703125,4186.63037109375,0.0,6745.65625,0.0,0.0
15356.541015625,15048.98046875,33275.2890625,10893.3447265625,27883.052734375,6374.51806640625,7870.197265625,8982.8173828125,8869.1708984375,5778.4716796875,17261.505859375,-426.7692565917969,8554.458984375,0.0,22355.71484375,6718.6357421875,24557.11328125,19639.333984375,9391.3076171875,11343.9560546875,22851.625,29195.943359375,22310.416015625,19353.23046875,20896.59375,6912.54931640625,28796.1953125,402.1326599121094,0.0,1103.8780517578125,13771.8515625,6624.857421875,25610.12890625,16033.6494140625,14940.1025390625,24553.140625,9149.7109375,13855.2978515625,8533.0009765625,3808.33935546875,22510.6875,9167.9892578125,16661.486328125,11420.25,8655.388671875,11903.4453125,11483.033203125,2261.797607421875,9918.212890625,2997.71630859375,16366.6396484375,6079.673828125,7792.31396484375,2445.3798828125,10900.4970703125,4783.4716796875,23458.798828125,4107.9521484375,17606.416015625,3085.93115234375,9351.5712890625,26123.5234375,21054.744140625,11773.904296875,-0.0,-44531.02734375,19113.22265625,4201.73046875,0.0,6761.55078125,0.0,0.0
15358.9248046875,15029.11328125,33274.4921875,10890.166015625,27883.052734375,6366.57080078125,7873.3759765625,8977.25390625,8865.9921875,5770.5244140625,17259.12109375,-432.3323669433594,8556.048828125,0.0,22357.3046875,6713.072265625,24554.728515625,19634.564453125,9388.12890625,11339.1875,22851.625,29191.970703125,22310.416015625,19350.052734375,20895.798828125,6891.88623046875,28806.52734375,392.5959167480469,0.0,1091.162353515625,13767.87890625,6622.47314453125,25606.15625,16030.4697265625,14939.30859375,24547.576171875,9148.9150390625,13850.529296875,8490.8798828125,3824.23388671875,22511.482421875,9160.0419921875,16665.458984375,11413.8916015625,8654.5947265625,11898.6767578125,11502.90234375,2259.41357421875,9928.5439453125,2983.4111328125,16370.615234375,6074.1103515625,7806.619140625,2441.40625,10894.1396484375,4776.31884765625,23442.904296875,4099.21044921875,17606.416015625,3077.189208984375,9346.0078125,26120.34375,21051.564453125,11765.162109375,-0.0,-44536.58984375,19108.453125,4186.63037109375,0.0,6742.4775390625,0.0,0.0
15351.7724609375,15031.4970703125,33288.796875,10889.37109375,27899.7421875,6366.57080078125,7883.7080078125,8978.84375,8867.5810546875,5769.7294921875,17251.96875,-426.7692565917969,8564.7900390625,0.0,22359.689453125,6713.072265625,24560.29296875,19640.921875,9393.6923828125,11342.3662109375,22860.369140625,29194.35546875,22319.158203125,19354.8203125,20902.953125,6903.0126953125,28823.216796875,396.569580078125,0.0,1089.5728759765625,13775.8251953125,6632.8046875,25614.896484375,16036.033203125,14948.05078125,24552.345703125,9156.0673828125,13853.708984375,8482.9326171875,3825.028564453125,22523.40234375,9160.8359375,16681.353515625,11417.8662109375,8661.7470703125,11899.4716796875,11529.9228515625,2243.518798828125,9934.90234375,2983.4111328125,16384.125,6074.1103515625,7821.71923828125,2430.280029296875,10906.85546875,4777.908203125,23433.3671875,4101.59423828125,17611.98046875,3077.189208984375,9326.9345703125,26125.908203125,21053.15625,11761.9833984375,-0.0,-44532.6171875,19108.453125,4185.83544921875,0.0,6738.50390625,0.0,0.0
15354.15625,15041.828125,33290.38671875,10899.703125,27905.306640625,6374.51806640625,7890.8603515625,8985.2021484375,8867.5810546875,5770.5244140625,17256.736328125,-423.59033203125,8565.5849609375,0.0,22363.662109375,6713.8671875,24565.85546875,19647.279296875,9397.666015625,11341.572265625,22866.7265625,29203.095703125,22324.720703125,19360.384765625,20901.361328125,6914.138671875,28822.421875,399.74847412109375,0.0,1098.31494140625,13782.978515625,6638.3681640625,25620.4609375,16042.390625,14952.8193359375,24558.703125,9161.6318359375,13858.4775390625,8510.7490234375,3808.33935546875,22527.376953125,9168.7841796875,16687.7109375,11425.0185546875,8665.720703125,11902.6494140625,11532.306640625,2253.850341796875,9930.1337890625,2994.537353515625,16392.072265625,6076.49462890625,7820.923828125,2411.20654296875,10909.240234375,4778.703125,23453.236328125,4100.0048828125,17613.568359375,3077.98388671875,9342.830078125,26130.67578125,21057.12890625,11757.21484375,-0.0,-44533.4140625,19111.6328125,4184.24609375,0.0,6738.50390625,0.0,0.0
15350.1826171875,15045.0068359375,33270.51953125,10887.7822265625,27884.642578125,6363.39208984375,7867.81298828125,8973.28125,8850.8916015625,5760.98779296875,17246.404296875,-432.3323669433594,8548.8955078125,0.0,22350.15234375,6703.53564453125,24553.140625,19632.181640625,9383.361328125,11329.650390625,22850.037109375,29189.5859375,22306.44140625,19345.283203125,20877.51953125,6910.16552734375,28785.86328125,387.8275451660156,0.0,1094.34130859375,13767.87890625,6625.65234375,25606.15625,16029.6767578125,14936.1298828125,24547.576171875,9143.3525390625,13844.1728515625,8488.49609375,3800.39208984375,22504.330078125,9156.0673828125,16665.458984375,11413.09765625,8646.6474609375,11889.9345703125,11510.8486328125,2254.64501953125,9891.9873046875,2988.974365234375,16360.283203125,6064.57373046875,7808.20849609375,2403.25927734375,10891.7548828125,4761.21923828125,23461.18359375,4088.083740234375,17598.470703125,3066.857666015625,9356.33984375,26117.9609375,21042.029296875,11748.4736328125,-0.0,-44548.51171875,19109.25,4172.3251953125,0.0,6729.76171875,0.0,0.0
15357.3349609375,15043.41796875,33249.0625,10883.80859375,27872.720703125,6352.265625,7851.91845703125,8965.3330078125,8841.35546875,5757.013671875,17243.2265625,-439.48492431640625,8548.8955078125,0.0,22342.205078125,6697.177734375,24543.603515625,19621.052734375,9372.234375,11324.087890625,22836.52734375,29179.25390625,22291.341796875,19337.3359375,20874.341796875,6899.03857421875,28765.201171875,377.49609375,0.0,1085.5992431640625,13758.341796875,6616.91064453125,25593.439453125,16016.9599609375,14925.0029296875,24538.8359375,9131.431640625,13835.4296875,8492.4697265625,3796.41845703125,22490.025390625,9143.3525390625,16649.564453125,11400.3818359375,8636.3154296875,11881.9873046875,11494.16015625,2257.029296875,9895.9609375,2977.053466796875,16343.59375,6058.21630859375,7811.3876953125,2414.385498046875,10883.013671875,4750.0927734375,23461.9765625,4082.52099609375,17592.90625,3061.29443359375,9346.0078125,26107.62890625,21034.875,11747.677734375,-0.0,-44555.6640625,19102.095703125,4174.70947265625,0.0,6732.9404296875,0.0,0.0
15381.1767578125,15052.955078125,33267.3359375,10895.7294921875,27891.794921875,6363.39208984375,7861.455078125,8977.25390625,8851.6875,5769.7294921875,17271.041015625,-433.92181396484375,8567.173828125,0.0,22354.921875,6711.48291015625,24558.703125,19636.94921875,9387.333984375,11338.3935546875,22857.189453125,29195.150390625,22306.44140625,19350.84765625,20909.30859375,6906.986328125,28784.275390625,389.4170227050781,0.0,1083.215087890625,13774.2353515625,6631.21533203125,25609.333984375,16034.4443359375,14940.1025390625,24553.140625,9143.3525390625,13848.9404296875,8531.4111328125,3811.518310546875,22513.0703125,9157.6572265625,16659.89453125,11413.09765625,8647.44140625,11893.908203125,11518.001953125,2270.53955078125,9931.7236328125,2981.02685546875,16354.71875,6070.13720703125,7842.38134765625,2431.86962890625,10916.392578125,4764.39794921875,23477.078125,4096.826171875,17604.033203125,3074.804931640625,9355.544921875,26121.138671875,21049.9765625,11758.8046875,-0.0,-44545.33203125,19102.095703125,4190.603515625,0.0,6752.01416015625,0.0,0.0
15382.7666015625,15058.517578125,33282.44140625,10900.4970703125,27896.5625,6376.10791015625,7875.76025390625,8986.791015625,8860.4287109375,5780.06103515625,17283.7578125,-422.0008850097656,8567.173828125,0.0,22364.458984375,6721.01953125,24569.03515625,19647.279296875,9399.2548828125,11350.314453125,22867.521484375,29203.892578125,22315.978515625,19361.177734375,20895.00390625,6918.1123046875,28796.9921875,396.569580078125,0.0,1099.9044189453125,13783.7724609375,6638.3681640625,25623.640625,16045.5703125,14948.8447265625,24562.677734375,9153.68359375,13860.06640625,8557.6376953125,3821.849853515625,22520.22265625,9171.16796875,16670.2265625,11422.6337890625,8656.1845703125,11903.4453125,11522.76953125,2276.8974609375,9924.5712890625,2991.3583984375,16366.6396484375,6081.26318359375,7856.6865234375,2436.637939453125,10929.107421875,4785.85595703125,23478.666015625,4106.36279296875,17615.953125,3085.93115234375,9355.544921875,26131.470703125,21061.1015625,11768.3408203125,-0.0,-44531.8203125,19110.044921875,4198.55126953125,0.0,6760.755859375,0.0,0.0
15360.5146484375,15041.828125,33267.3359375,10891.7548828125,27881.46484375,6362.59716796875,7864.63427734375,8974.0751953125,8846.9189453125,5765.75634765625,17269.453125,-432.3323669433594,8548.8955078125,0.0,22354.921875,6705.12548828125,24559.498046875,19632.181640625,9384.94921875,11336.8037109375,22850.83203125,29191.17578125,22302.46875,19346.873046875,20863.21484375,6907.78125,28785.0703125,383.8539123535156,0.0,1094.34130859375,13770.2626953125,6626.447265625,25610.12890625,16034.4443359375,14933.7451171875,24550.755859375,9141.7626953125,13846.556640625,8563.9951171875,3801.981689453125,22502.740234375,9160.8359375,16656.716796875,11409.9189453125,8645.0576171875,11891.5244140625,11495.7490234375,2255.439697265625,9900.7294921875,2978.642822265625,16358.6943359375,6066.16357421875,7838.40869140625,2419.948486328125,10910.828125,4769.16650390625,23463.568359375,4093.64697265625,17605.623046875,3069.24169921875,9342.830078125,26117.9609375,21049.181640625,11754.0361328125,-0.0,-44536.58984375,19108.453125,4177.88818359375,0.0,6740.09326171875,0.0,0.0
15321.572265625,15027.5234375,33260.984375,10881.423828125,27878.28515625,6351.470703125,7855.09765625,8962.154296875,8832.6142578125,5757.013671875,17256.736328125,-446.6374816894531,8544.921875,0.0,22345.384765625,6695.58837890625,24546.78125,19622.64453125,9373.0283203125,11324.8828125,22843.6796875,29180.05078125,22293.7265625,19338.130859375,20864.009765625,6896.65478515625,28780.302734375,376.70135498046875,0.0,1079.241455078125,13759.1357421875,6612.14208984375,25598.20703125,16022.5234375,14924.208984375,24540.423828125,9132.2255859375,13834.6357421875,8513.927734375,3778.139892578125,22499.560546875,9151.2998046875,16650.357421875,11398.7919921875,8633.931640625,11881.1923828125,11484.623046875,2215.703369140625,9899.1396484375,2968.311279296875,16352.3349609375,6055.83203125,7824.89794921875,2402.464599609375,10903.67578125,4753.271484375,23455.619140625,4084.1103515625,17593.703125,3058.910400390625,9341.240234375,26107.62890625,21037.259765625,11740.525390625,-0.0,-44550.89453125,19092.560546875,4169.94091796875,0.0,6736.9140625,0.0,0.0
15300.91015625,15017.19140625,33277.671875,10880.6298828125,27887.025390625,6347.49755859375,7856.6865234375,8961.3603515625,8829.4345703125,5757.013671875,17245.611328125,-453.7900390625,8552.869140625,0.0,22348.5625,6697.97265625,24546.78125,19621.849609375,9372.234375,11324.087890625,22847.65234375,29179.25390625,22295.31640625,19336.54296875,20883.87890625,6887.11767578125,28788.248046875,374.3171691894531,0.0,1071.294189453125,13759.9306640625,6609.7578125,25603.771484375,16020.93359375,14928.181640625,24538.8359375,9133.021484375,13835.4296875,8490.0859375,3785.29248046875,22513.0703125,9146.53125,16655.921875,11397.998046875,8633.931640625,11880.3974609375,11516.412109375,2200.603515625,9916.623046875,2964.337646484375,16354.71875,6054.24267578125,7824.103515625,2401.669677734375,10916.392578125,4749.2978515625,23458.798828125,4083.3154296875,17593.703125,3061.29443359375,9324.55078125,26106.0390625,21034.875,11738.140625,-0.0,-44558.046875,19098.123046875,4175.50439453125,0.0,6746.45068359375,0.0,0.0
15302.4990234375,15017.986328125,33289.59375,10895.7294921875,27887.025390625,6349.0869140625,7857.48193359375,8963.744140625,8833.408203125,5755.42431640625,17247.99609375,-451.4058532714844,8559.2265625,0.0,22351.7421875,6698.76708984375,24551.55078125,19623.4375,9373.0283203125,11324.087890625,22849.2421875,29183.228515625,22296.90625,19335.74609375,20895.00390625,6885.5283203125,28792.22265625,376.70135498046875,0.0,1066.5257568359375,13763.904296875,6616.91064453125,25608.5390625,16025.701171875,14931.361328125,24542.013671875,9133.8154296875,13835.4296875,8513.1328125,3781.318603515625,22513.8671875,9146.53125,16655.921875,11398.7919921875,8637.1103515625,11879.603515625,11540.25390625,2223.650634765625,9919.802734375,2965.92724609375,16356.3095703125,6054.24267578125,7827.28173828125,2402.464599609375,10918.7763671875,4747.708984375,23461.9765625,4086.494384765625,17596.880859375,3060.5,9315.013671875,26106.833984375,21034.875,11738.9365234375,-0.0,-44558.046875,19110.044921875,4179.4775390625,0.0,6738.50390625,0.0,0.0
15304.0888671875,15013.2177734375,33278.46484375,10886.986328125,27875.900390625,6345.90771484375,7849.5341796875,8954.20703125,8826.255859375,5745.0927734375,17274.220703125,-452.99530029296875,8549.6904296875,0.0,22345.384765625,6690.8203125,24549.9609375,19617.876953125,9365.08203125,11312.1669921875,22842.884765625,29179.25390625,22287.369140625,19330.978515625,20887.056640625,6885.5283203125,28783.48046875,367.9593505859375,0.0,1064.1416015625,13760.7255859375,6620.0888671875,25605.359375,16022.5234375,14923.4130859375,24537.244140625,9127.4580078125,13826.6875,8540.9482421875,3783.702880859375,22504.330078125,9141.7626953125,16647.974609375,11392.4345703125,8629.1630859375,11870.861328125,11525.9482421875,2246.69775390625,9907.0859375,2961.953369140625,16348.3623046875,6047.88427734375,7823.30810546875,2400.080322265625,10906.85546875,4749.2978515625,23456.416015625,4080.13671875,17587.34375,3050.963134765625,9326.140625,26100.4765625,21026.134765625,11724.630859375,-0.0,-44559.640625,19102.892578125,4165.96728515625,0.0,6723.40380859375,0.0,0.0
15308.0625,15014.8076171875,33262.5703125,10879.833984375,27866.36328125,6337.166015625,7840.79248046875,8946.259765625,8818.30859375,5740.32470703125,17256.736328125,-460.1478576660156,8536.1796875,0.0,22339.8203125,6682.078125,24536.451171875,19607.54296875,9355.544921875,11306.603515625,22832.552734375,29170.513671875,22278.626953125,19320.646484375,20871.162109375,6875.19677734375,28777.123046875,356.8331298828125,0.0,1058.5784912109375,13748.8046875,6608.16796875,25591.849609375,16012.19140625,14912.2880859375,24526.9140625,9117.126953125,13816.3564453125,8521.080078125,3782.908203125,22494.79296875,9132.2255859375,16638.4375,11382.8974609375,8619.6259765625,11862.9140625,11488.5966796875,2240.340087890625,9898.3447265625,2952.416748046875,16342.7978515625,6039.142578125,7770.8564453125,2396.9013671875,10894.9345703125,4744.52978515625,23448.466796875,4070.60009765625,17580.986328125,3043.015625,9338.0615234375,26090.14453125,21018.1875,11722.2470703125,-0.0,-44570.76171875,19100.5078125,4155.6357421875,0.0,6728.96728515625,0.0,0.0
15355.74609375,15038.6494140625,33272.10546875,10883.013671875,27872.720703125,6344.318359375,7849.5341796875,8954.20703125,8829.4345703125,5749.861328125,17254.353515625,-446.6374816894531,8533.0009765625,0.0,22347.76953125,6693.9990234375,24543.603515625,19616.28515625,9364.287109375,11317.7294921875,22840.5,29178.4609375,22287.369140625,19328.59375,20873.546875,6883.939453125,28786.66015625,367.16461181640625,0.0,1072.0888671875,13755.162109375,6615.32080078125,25599.001953125,16019.3447265625,14918.64453125,24535.65625,9125.0732421875,13826.6875,8515.517578125,3790.060791015625,22500.357421875,9138.583984375,16646.384765625,11392.4345703125,8628.3681640625,11871.6552734375,11506.0810546875,2245.1083984375,9902.318359375,2959.5693359375,16351.5419921875,6050.2685546875,7747.80908203125,2409.6171875,10886.986328125,4750.0927734375,23450.056640625,4084.905029296875,17591.318359375,3050.168212890625,9354.7509765625,26098.88671875,21026.134765625,11734.962890625,-0.0,-44560.43359375,19110.837890625,4163.58349609375,0.0,6729.76171875,0.0,0.0
15354.951171875,15045.0068359375,33264.953125,10883.013671875,27880.66796875,6341.13916015625,7855.89208984375,8953.412109375,8834.203125,5743.50341796875,17246.404296875,-443.45855712890625,8550.484375,0.0,22353.330078125,6688.43603515625,24543.603515625,19615.4921875,9365.08203125,11316.935546875,22838.91015625,29179.25390625,22291.341796875,19328.59375,20880.69921875,6889.501953125,28801.759765625,367.16461181640625,0.0,1071.294189453125,13755.162109375,6613.7314453125,25598.20703125,16020.1396484375,14920.234375,24538.041015625,9128.2529296875,13829.072265625,8475.7802734375,3780.52392578125,22501.9453125,9144.146484375,16654.333984375,11390.845703125,8632.3427734375,11869.271484375,11520.3857421875,2241.134765625,9918.212890625,2959.5693359375,16357.8984375,6047.88427734375,7762.1142578125,2405.6435546875,10883.80859375,4741.3505859375,23458.00390625,4084.1103515625,17596.880859375,3044.605224609375,9351.5712890625,26099.681640625,21024.544921875,11730.1943359375,-0.0,-44557.25390625,19114.8125,4155.6357421875,0.0,6708.3037109375,0.0,0.0
15353.3623046875,15045.8017578125,33259.390625,10878.2451171875,27879.873046875,6341.93408203125,7855.89208984375,8953.412109375,8833.408203125,5745.0927734375,17236.8671875,-446.6374816894531,8555.2529296875,0.0,22354.921875,6686.0517578125,24544.396484375,19613.900390625,9365.08203125,11315.345703125,22837.3203125,29179.25390625,22292.13671875,19327.005859375,20889.44140625,6891.88623046875,28805.732421875,366.369873046875,0.0,1065.7310791015625,13753.5732421875,6613.7314453125,25595.029296875,16019.3447265625,14921.82421875,24536.451171875,9127.4580078125,13826.6875,8477.3701171875,3789.265869140625,22504.330078125,9145.736328125,16654.333984375,11390.0498046875,8632.3427734375,11869.271484375,11503.6962890625,2240.340087890625,9921.3916015625,2960.364013671875,16360.283203125,6045.50048828125,7787.5458984375,2394.51708984375,10893.3447265625,4746.119140625,23461.18359375,4081.72607421875,17600.05859375,3046.19482421875,9346.0078125,26100.4765625,21024.544921875,11730.1943359375,-0.0,-44557.25390625,19109.25,4162.78857421875,0.0,6716.25146484375,0.0,0.0
15342.2353515625,15037.0595703125,33250.6484375,10877.4501953125,27871.1328125,6339.5498046875,7847.14990234375,8950.2333984375,8832.6142578125,5745.8876953125,17243.2265625,-449.8163757324219,8560.81640625,0.0,22350.947265625,6684.4619140625,24539.62890625,19607.54296875,9361.107421875,11314.5517578125,22831.7578125,29172.1015625,22284.189453125,19322.236328125,20890.236328125,6885.5283203125,28781.095703125,364.7804260253906,0.0,1064.1416015625,13751.189453125,6611.34716796875,25587.876953125,16016.1650390625,14912.2880859375,24530.88671875,9122.689453125,13820.3310546875,8481.34375,3779.729248046875,22493.998046875,9140.173828125,16643.205078125,11386.0771484375,8627.57421875,11867.6826171875,11468.728515625,2234.77685546875,9905.4970703125,2956.390380859375,16350.74609375,6042.32177734375,7803.43994140625,2391.33837890625,10900.4970703125,4746.9140625,23459.59375,4077.752685546875,17594.49609375,3044.605224609375,9344.4189453125,26094.1171875,21021.365234375,11733.373046875,-0.0,-44559.640625,19107.66015625,4164.3779296875,0.0,6724.19873046875,0.0,0.0
15353.3623046875,15051.365234375,33260.18359375,10888.576171875,27875.10546875,6353.85498046875,7855.09765625,8962.94921875,8846.1240234375,5763.3720703125,17262.30078125,-438.690185546875,8566.3798828125,0.0,22354.125,6701.9462890625,24547.576171875,19618.669921875,9371.439453125,11330.4453125,22838.91015625,29184.818359375,22289.75390625,19333.36328125,20877.51953125,6900.62841796875,28777.91796875,378.2908020019531,0.0,1079.241455078125,13759.9306640625,6622.47314453125,25595.029296875,16028.0859375,14917.8505859375,24542.013671875,9129.841796875,13833.8408203125,8486.9072265625,3770.1923828125,22493.998046875,9152.8896484375,16645.58984375,11400.3818359375,8638.69921875,11882.7822265625,11494.16015625,2233.982177734375,9906.2919921875,2969.10595703125,16352.3349609375,6055.037109375,7805.029296875,2408.822265625,10910.828125,4758.0400390625,23466.74609375,4091.2626953125,17600.85546875,3062.884033203125,9338.85546875,26102.06640625,21033.287109375,11751.6513671875,-0.0,-44548.51171875,19113.22265625,4181.86181640625,0.0,6751.21923828125,0.0,0.0
15358.9248046875,15056.927734375,33257.0078125,10868.708984375,27868.748046875,6352.265625,7851.1240234375,8960.564453125,8840.560546875,5764.96142578125,17257.53125,-442.663818359375,8558.4326171875,0.0,22349.357421875,6699.56201171875,24543.603515625,19614.697265625,9366.671875,11328.0615234375,22834.142578125,29180.05078125,22285.779296875,19330.978515625,20860.037109375,6899.03857421875,28779.505859375,375.9066162109375,0.0,1075.267822265625,13755.162109375,6624.857421875,25590.26171875,16023.3173828125,14913.876953125,24540.423828125,9125.0732421875,13830.662109375,8495.6484375,3780.52392578125,22487.640625,9150.5048828125,16641.6171875,11397.998046875,8633.931640625,11880.3974609375,11513.2333984375,2235.571533203125,9905.4970703125,2967.5166015625,16349.951171875,6054.24267578125,7793.1083984375,2415.18017578125,10904.4716796875,4752.47705078125,23461.9765625,4085.699462890625,17597.67578125,3064.473388671875,9324.55078125,26097.296875,21030.107421875,11746.8837890625,-0.0,-44551.6875,19103.685546875,4173.1201171875,0.0,6752.80908203125,0.0,0.0
15370.0517578125,15048.98046875,33248.265625,10854.4033203125,27859.2109375,6344.318359375,7839.9970703125,8954.20703125,8834.998046875,5760.98779296875,17244.81640625,-452.99530029296875,8553.6640625,0.0,22342.205078125,6695.58837890625,24534.06640625,19604.365234375,9357.9296875,11320.908203125,22823.810546875,29168.923828125,22279.419921875,19323.03125,20855.267578125,6888.70751953125,28774.73828125,368.7540588378906,0.0,1065.7310791015625,13748.009765625,6619.29443359375,25582.314453125,16012.9873046875,14904.33984375,24531.68359375,9114.7421875,13822.71484375,8477.3701171875,3787.676513671875,22482.076171875,9144.146484375,16632.875,11393.2294921875,8625.984375,11874.8349609375,11495.7490234375,2240.340087890625,9897.5498046875,2961.953369140625,16344.388671875,6049.47412109375,7785.9560546875,2415.18017578125,10897.318359375,4741.3505859375,23454.82421875,4080.93115234375,17590.5234375,3061.29443359375,9318.1923828125,26089.349609375,21022.955078125,11737.3466796875,-0.0,-44565.19921875,19097.328125,4167.556640625,0.0,6755.98779296875,0.0,0.0
15367.6669921875,15041.0341796875,33249.85546875,10853.6083984375,27854.443359375,6333.98681640625,7831.255859375,8939.90234375,8824.666015625,5739.5302734375,17211.4375,-461.7373046875,8549.6904296875,0.0,22335.84765625,6678.8994140625,24525.32421875,19595.623046875,9346.0078125,11304.2197265625,22815.86328125,29158.591796875,22269.884765625,19311.904296875,20860.830078125,6875.99169921875,28768.380859375,356.8331298828125,0.0,1057.78369140625,13737.6787109375,6605.7841796875,25575.16015625,16003.4501953125,14895.5986328125,24521.3515625,9099.642578125,13811.587890625,8455.1171875,3778.9345703125,22476.515625,9130.63671875,16623.337890625,11382.1025390625,8617.2421875,11858.9404296875,11486.212890625,2241.134765625,9893.576171875,2951.6220703125,16334.8525390625,6035.96337890625,7775.62451171875,2412.00146484375,10886.1923828125,4733.40380859375,23449.26171875,4069.80517578125,17580.19140625,3042.22119140625,9314.2197265625,26078.224609375,21010.240234375,11718.2734375,-0.0,-44574.73828125,19093.35546875,4150.86767578125,0.0,6728.17236328125,0.0,0.0
15358.9248046875,15038.6494140625,33245.87890625,10859.9658203125,27856.03125,6333.98681640625,7834.4345703125,8940.6962890625,8831.818359375,5740.32470703125,17209.052734375,-460.9425964355469,8555.2529296875,0.0,22338.232421875,6680.48876953125,24525.32421875,19599.595703125,9349.982421875,11308.9873046875,22819.837890625,29162.564453125,22273.064453125,19313.494140625,20864.8046875,6877.5810546875,28773.943359375,357.62786865234375,0.0,1060.962646484375,13740.0625,6601.015625,25575.16015625,16006.6279296875,14897.982421875,24523.734375,9095.6689453125,13813.177734375,8486.111328125,3772.57666015625,22478.103515625,9132.2255859375,16625.72265625,11382.1025390625,8620.421875,11861.32421875,11479.8544921875,2242.72412109375,9898.3447265625,2951.6220703125,16336.44140625,6038.34765625,7789.134765625,2404.053955078125,10888.576171875,4738.96630859375,23450.056640625,4069.01025390625,17580.986328125,3043.015625,9333.29296875,26080.607421875,21011.830078125,11726.2197265625,-0.0,-44574.73828125,19103.685546875,4158.81494140625,0.0,6722.60888671875,0.0,0.0
15308.857421875,15021.9599609375,33220.453125,10851.2236328125,27844.111328125,6326.03955078125,7824.103515625,8927.9814453125,8824.666015625,5722.0458984375,17219.384765625,-472.06878662109375,8533.0009765625,0.0,22330.283203125,6668.56787109375,24512.609375,19587.67578125,9338.85546875,11295.4775390625,22807.916015625,29153.82421875,22261.9375,19302.3671875,20842.552734375,6864.07080078125,28762.021484375,344.9122009277344,0.0,1053.015380859375,13730.5263671875,6585.916015625,25564.828125,15995.5029296875,14887.650390625,24512.609375,9083.748046875,13800.4619140625,8477.3701171875,3769.397705078125,22463.00390625,9121.89453125,16616.185546875,11370.9765625,8609.294921875,11848.609375,11453.62890625,2226.034912109375,9887.21875,2942.8798828125,16326.904296875,6024.04248046875,7807.41357421875,2382.59619140625,10880.6298828125,4726.2509765625,23440.51953125,4056.294921875,17573.0390625,3023.1474609375,9324.55078125,26069.482421875,21000.703125,11719.86328125,-0.0,-44584.2734375,19100.5078125,4148.4833984375,0.0,6700.35693359375,0.0,0.0
15286.6044921875,15006.0654296875,33219.65234375,10836.1240234375,27838.548828125,6316.5029296875,7816.1552734375,8915.2646484375,8816.71875,5703.76708984375,17223.357421875,-486.3739013671875,8520.28515625,0.0,22327.10546875,6654.2626953125,24506.25,19580.5234375,9329.3193359375,11283.556640625,22801.556640625,29144.287109375,22254.78515625,19293.626953125,20833.015625,6852.94482421875,28758.84375,334.58074951171875,0.0,1036.3260498046875,13723.373046875,6572.4052734375,25560.060546875,15985.9658203125,14881.29296875,24503.072265625,9074.2109375,13789.3359375,8478.1650390625,3770.1923828125,22456.646484375,9112.3583984375,16611.41796875,11359.8505859375,8599.7578125,11834.3037109375,11452.833984375,2214.90869140625,9876.8876953125,2934.9326171875,16322.1357421875,6010.5322265625,7799.466796875,2373.8544921875,10875.0654296875,4711.94580078125,23436.546875,4040.400146484375,17568.26953125,3004.07421875,9300.708984375,26061.53515625,20989.576171875,11715.0947265625,-0.0,-44599.37109375,19095.740234375,4131.7939453125,0.0,6684.4619140625,0.0,0.0
15300.1142578125,14999.70703125,33229.19140625,10844.8671875,27845.701171875,6322.06591796875,7816.95068359375,8920.033203125,8819.8974609375,5702.97265625,17224.154296875,-484.7844543457031,8516.3115234375,0.0,22326.310546875,6656.646484375,24512.609375,19586.0859375,9330.9091796875,11284.3515625,22806.326171875,29149.0546875,22261.142578125,19298.39453125,20836.1953125,6858.5078125,28760.43359375,340.1438293457031,0.0,1033.94189453125,13728.1416015625,6583.53173828125,25564.828125,15993.1181640625,14886.0615234375,24508.634765625,9078.9794921875,13793.3095703125,8463.859375,3772.57666015625,22459.029296875,9115.537109375,16614.595703125,11365.4140625,8602.9365234375,11832.7138671875,11469.5234375,2218.88232421875,9869.734375,2941.29052734375,16322.931640625,6015.30078125,7774.830078125,2379.41748046875,10865.529296875,4714.330078125,23433.3671875,4042.7841796875,17570.654296875,3004.86865234375,9272.0986328125,26065.5078125,20992.755859375,11715.0947265625,-0.0,-44598.578125,19095.740234375,4124.6416015625,0.0,6675.72021484375,0.0,0.0
15292.9619140625,14994.14453125,33220.453125,10855.9921875,27833.78125,6319.681640625,7811.3876953125,8915.2646484375,8815.9248046875,5701.38330078125,17220.974609375,-486.3739013671875,8513.1328125,0.0,22321.54296875,6653.4677734375,24512.609375,19582.11328125,9325.3447265625,11281.1728515625,22802.353515625,29149.0546875,22254.78515625,19294.419921875,20829.04296875,6856.91845703125,28745.33203125,334.58074951171875,0.0,1034.736572265625,13727.34765625,6588.30029296875,25562.4453125,15994.70703125,14880.498046875,24505.45703125,9073.4169921875,13790.9248046875,8447.96484375,3770.1923828125,22451.876953125,9113.15234375,16603.470703125,11363.82421875,8598.16796875,11830.330078125,11477.470703125,2214.90869140625,9860.9921875,2933.34326171875,16314.9833984375,6010.5322265625,7758.935546875,2378.622802734375,10862.3505859375,4713.53515625,23427.009765625,4041.98974609375,17565.091796875,3004.86865234375,9271.3037109375,26063.919921875,20987.98828125,11710.326171875,-0.0,-44603.34765625,19096.533203125,4127.8203125,0.0,6680.48876953125,0.0,0.0
15272.2998046875,14999.70703125,33221.24609375,10852.8134765625,27833.78125,6317.29736328125,7810.5927734375,8913.67578125,8816.71875,5701.38330078125,17214.6171875,-487.16864013671875,8513.927734375,0.0,22318.36328125,6650.2890625,24513.40234375,19585.291015625,9326.9345703125,11277.19921875,22805.533203125,29149.8515625,22253.990234375,19294.419921875,20837.783203125,6852.14990234375,28746.923828125,332.99127197265625,0.0,1039.5050048828125,13729.7314453125,6586.71044921875,25564.03515625,15995.5029296875,14882.087890625,24506.25,9072.62109375,13790.130859375,8480.548828125,3759.06640625,22456.646484375,9113.15234375,16602.673828125,11362.2353515625,8596.5791015625,11828.740234375,11467.93359375,2206.96142578125,9875.2978515625,2926.985595703125,16314.9833984375,6008.94287109375,7755.75634765625,2377.033203125,10852.01953125,4710.3564453125,23427.8046875,4038.810791015625,17562.70703125,3003.279541015625,9307.0673828125,26063.919921875,20986.3984375,11705.5576171875,-0.0,-44605.73046875,19102.095703125,4122.25732421875,0.0,6672.541015625,0.0,0.0
15265.1474609375,15018.7802734375,33235.55078125,10850.4296875,27845.701171875,6323.65576171875,7816.95068359375,8921.623046875,8824.666015625,5709.330078125,17220.974609375,-484.7844543457031,8520.28515625,0.0,22318.36328125,6655.85205078125,24519.76171875,19594.03515625,9334.8818359375,11285.1455078125,22812.685546875,29156.208984375,22265.91015625,19303.95703125,20851.29296875,6856.12353515625,28756.4609375,340.9385681152344,0.0,1047.4522705078125,13736.8837890625,6589.8896484375,25571.98046875,15999.4755859375,14892.4189453125,24515.787109375,9080.5693359375,13798.873046875,8494.853515625,3759.861083984375,22467.771484375,9120.3046875,16613.005859375,11370.181640625,8605.3212890625,11835.0986328125,11475.880859375,2214.90869140625,9870.529296875,2935.727294921875,16321.3408203125,6016.095703125,7750.193359375,2377.827880859375,10857.58203125,4709.56201171875,23425.419921875,4041.98974609375,17565.091796875,3009.63720703125,9328.5244140625,26074.251953125,20993.55078125,11713.5048828125,-0.0,-44599.37109375,19102.892578125,4119.078125,0.0,6676.51513671875,0.0,0.0
15319.9833984375,15060.9013671875,33272.10546875,10879.0400390625,27866.36328125,6359.41845703125,7850.32958984375,8959.7705078125,8862.8134765625,5749.861328125,17259.12109375,-456.96893310546875,8536.1796875,0.0,22342.205078125,6696.3828125,24551.55078125,19625.029296875,9370.64453125,11326.47265625,22843.6796875,29186.40625,22296.109375,19338.92578125,20873.546875,6893.47607421875,28785.86328125,378.2908020019531,0.0,1080.8309326171875,13766.2890625,6621.6787109375,25602.181640625,16028.0859375,14921.029296875,24550.755859375,9115.537109375,13834.6357421875,8502.80078125,3801.186767578125,22496.380859375,9151.2998046875,16641.6171875,11407.5341796875,8641.083984375,11874.0400390625,11502.90234375,2254.64501953125,9895.1650390625,2974.669189453125,16353.92578125,6052.65283203125,7789.9296875,2408.027587890625,10894.9345703125,4745.32470703125,23418.267578125,4081.72607421875,17596.880859375,3050.963134765625,9357.9296875,26106.0390625,21028.51953125,11760.39453125,-0.0,-44565.99609375,19114.8125,4164.3779296875,0.0,6730.556640625,0.0,0.0
15365.283203125,15099.048828125,33302.30859375,10919.5712890625,27906.099609375,6401.5390625,7893.24462890625,9005.0693359375,8904.1396484375,5795.95556640625,17290.91015625,-414.84832763671875,8554.458984375,0.0,22371.611328125,6743.2724609375,24587.3125,19663.96875,9412.765625,11372.56640625,22883.416015625,29227.734375,22336.640625,19377.8671875,20903.74609375,6941.15966796875,28827.189453125,420.41143798828125,0.0,1125.335693359375,13803.6416015625,6654.2626953125,25637.9453125,16070.2080078125,14960.765625,24590.4921875,9156.0673828125,13876.755859375,8524.2587890625,3832.18115234375,22534.529296875,9195.8046875,16682.943359375,11450.4501953125,8682.41015625,11920.9287109375,11521.1796875,2292.7919921875,9930.1337890625,3019.173828125,16397.634765625,6095.568359375,7847.9453125,2452.532470703125,10930.697265625,4793.802734375,23441.314453125,4127.025390625,17632.642578125,3098.64697265625,9392.1025390625,26146.5703125,21072.228515625,11806.48828125,-0.0,-44527.84765625,19118.78515625,4212.0615234375,0.0,6781.41943359375,0.0,0.0
15349.3876953125,15091.896484375,33291.9765625,10920.365234375,27906.89453125,6402.33349609375,7896.42333984375,9008.248046875,8901.7548828125,5797.544921875,17287.73046875,-411.6694030761719,8548.1005859375,0.0,22373.19921875,6745.65625,24588.107421875,19664.763671875,9414.35546875,11374.9501953125,22879.44140625,29230.9140625,22336.640625,19379.45703125,20885.466796875,6930.033203125,28818.44921875,420.41143798828125,0.0,1124.5408935546875,13804.435546875,6652.67333984375,25634.765625,16071.0009765625,14959.17578125,24590.4921875,9157.6572265625,13878.345703125,8524.2587890625,3832.97607421875,22528.171875,9197.39453125,16685.328125,11451.244140625,8683.9990234375,11923.3134765625,11531.5126953125,2291.20263671875,9911.8544921875,3019.96875,16400.814453125,6097.9521484375,7859.07080078125,2457.30078125,10900.4970703125,4800.955078125,23458.00390625,4129.40966796875,17633.4375,3098.64697265625,9382.5654296875,26148.955078125,21074.61328125,11806.48828125,-0.0,-44529.4375,19117.990234375,4211.26708984375,0.0,6775.06103515625,0.0,0.0
15361.30859375,15079.9755859375,33272.90234375,10910.828125,27890.205078125,6389.6181640625,7870.99169921875,8994.73828125,8884.2705078125,5787.2138671875,17275.810546875,-418.0272521972656,8563.201171875,0.0,22360.482421875,6732.9404296875,24579.3671875,19650.458984375,9400.0498046875,11360.6455078125,22866.7265625,29215.8125,22319.951171875,19369.125,20876.7265625,6925.2646484375,28784.275390625,412.4641418457031,0.0,1117.388427734375,13791.720703125,6643.13671875,25621.255859375,16059.875,14944.076171875,24578.572265625,9140.96875,13868.0146484375,8526.642578125,3827.412841796875,22511.482421875,9181.4990234375,16662.279296875,11439.3232421875,8664.92578125,11912.1865234375,11517.20703125,2288.818359375,9914.2392578125,3014.405517578125,16364.255859375,6086.826171875,7843.1767578125,2455.71142578125,10901.2919921875,4793.00830078125,23472.30859375,4119.078125,17616.748046875,3086.725830078125,9369.0556640625,26134.6484375,21063.486328125,11795.361328125,-0.0,-44532.6171875,19114.8125,4202.52490234375,0.0,6758.3720703125,0.0,0.0
15380.3828125,15079.9755859375,33272.90234375,10910.0341796875,27887.8203125,6389.6181640625,7861.455078125,8996.3271484375,8880.2978515625,5792.7763671875,17272.630859375,-412.4641418457031,8576.7109375,0.0,22359.689453125,6737.708984375,24573.802734375,19644.1015625,9398.4599609375,11360.6455078125,22864.341796875,29211.83984375,22313.595703125,19365.9453125,20888.646484375,6926.0595703125,28782.685546875,415.64306640625,0.0,1115.7989501953125,13789.3359375,6642.341796875,25618.87109375,16055.90234375,14940.1025390625,24575.392578125,9136.2001953125,13867.21875,8531.4111328125,3821.05517578125,22512.27734375,9179.115234375,16651.94921875,11439.3232421875,8658.568359375,11913.7763671875,11507.669921875,2284.050048828125,9930.9287109375,3015.200439453125,16351.5419921875,6089.21044921875,7836.0244140625,2458.89013671875,10907.650390625,4786.650390625,23479.4609375,4123.05224609375,17615.953125,3093.083740234375,9369.0556640625,26131.470703125,21064.28125,11796.1572265625,-0.0,-44530.23046875,19113.22265625,4211.26708984375,0.0,6775.85595703125,0.0,0.0
15377.2041015625,15072.0283203125,33268.13671875,10906.85546875,27883.84765625,6384.0546875,7857.48193359375,8992.3544921875,8869.9658203125,5786.4189453125,17270.24609375,-417.2325134277344,8556.048828125,0.0,22349.357421875,6734.52978515625,24568.23828125,19638.5390625,9394.486328125,11353.4931640625,22857.984375,29207.865234375,22307.23828125,19361.177734375,20883.083984375,6925.2646484375,28779.505859375,410.0799560546875,0.0,1103.8780517578125,13782.18359375,6639.16259765625,25614.103515625,16049.54296875,14931.361328125,24569.03515625,9133.021484375,13861.65625,8545.7158203125,3817.08154296875,22505.125,9175.9365234375,16649.564453125,11433.7607421875,8651.416015625,11909.0078125,11510.0546875,2279.28173828125,9911.8544921875,3011.2265625,16350.74609375,6084.4423828125,7839.203125,2442.200927734375,10904.4716796875,4789.0341796875,23458.798828125,4119.078125,17604.033203125,3089.110107421875,9373.0283203125,26125.11328125,21057.12890625,11779.4677734375,-0.0,-44533.4140625,19106.0703125,4202.52490234375,0.0,6772.6767578125,0.0,0.0
