15171.3681640625,15121.30078125,33347.60546875,10892.55078125,27918.01953125,6470.68017578125,7968.7431640625,9103.6162109375,8963.744140625,5758.603515625,17218.58984375,-957.64794921875,8586.2470703125,0.0,22524.19921875,6952.28564453125,24564.265625,19621.052734375,9505.7490234375,11438.529296875,22873.87890625,29191.970703125,22446.314453125,19424.7578125,21025.33984375,7074.67431640625,28868.517578125,563.4625854492188,0.0,996.5896606445312,13647.0791015625,6630.4208984375,25641.91796875,15986.7607421875,14946.4609375,24605.591796875,9294.3505859375,13953.8447265625,8618.037109375,3798.802734375,22549.62890625,9225.208984375,16829.966796875,11467.1396484375,8753.140625,12064.7744140625,11537.869140625,1850.9229736328125,10056.49609375,3194.80908203125,16518.43359375,6163.1201171875,7779.59814453125,1858.8701171875,11041.958984375,4615.78369140625,23543.833984375,4142.919921875,17791.58984375,3124.078125,9347.59765625,26170.412109375,21235.943359375,11706.3525390625,-0.0,-44063.7265625,19280.91015625,4244.6455078125,0.0,6779.82958984375,0.0,0.0
15148.322265625,15110.9697265625,33341.24609375,10883.013671875,27910.07421875,6461.9384765625,7970.3330078125,9097.2587890625,8964.5390625,5746.6826171875,17197.1328125,-962.4163208007812,8602.142578125,0.0,22533.734375,6939.56982421875,24556.318359375,19617.080078125,9502.5703125,11437.7333984375,22869.109375,29187.203125,22443.13671875,19416.80859375,21016.59765625,7063.5478515625,28860.568359375,555.5152587890625,0.0,985.4635009765625,13639.1328125,6622.47314453125,25637.9453125,15978.8134765625,14940.1025390625,24598.439453125,9291.966796875,13948.28125,8601.34765625,3795.623779296875,22543.271484375,9214.8779296875,16829.171875,11460.78125,8752.345703125,12056.8271484375,11530.716796875,1839.796630859375,10038.216796875,3192.4248046875,16527.970703125,6153.58349609375,7778.80322265625,1840.5914306640625,11005.4013671875,4615.78369140625,23563.703125,4134.17822265625,17797.947265625,3104.2099609375,9340.4453125,26167.234375,21235.1484375,11711.12109375,-0.0,-44067.69921875,19296.8046875,4234.31396484375,0.0,6760.755859375,0.0,0.0
15147.5263671875,15118.9169921875,33360.3203125,10898.11328125,27902.921875,6469.0908203125,7958.412109375,9102.8212890625,8962.94921875,5756.21923828125,17204.28515625,-955.2637939453125,8643.4677734375,0.0,22533.734375,6949.10693359375,24568.23828125,19620.259765625,9504.9541015625,11442.501953125,22877.05859375,29196.73828125,22439.162109375,19420.78125,21053.94921875,7085.00537109375,28825.6015625,562.6678466796875,0.0,998.973876953125,13647.8740234375,6632.009765625,25650.66015625,15989.1455078125,14943.2822265625,24604.001953125,9290.3779296875,13953.0498046875,8608.5,3797.21337890625,22555.193359375,9222.0302734375,16815.662109375,11467.1396484375,8746.783203125,12062.390625,11557.73828125,1845.35986328125,10072.390625,3195.603515625,16508.8984375,6161.53076171875,7768.47216796875,1846.94921875,11045.138671875,4630.8837890625,23593.90234375,4146.09912109375,17797.15234375,3116.130859375,9349.982421875,26171.20703125,21236.73828125,11706.3525390625,-0.0,-44066.90625,19297.599609375,4239.08251953125,0.0,6773.4716796875,0.0,0.0
15145.9375,15125.2744140625,33369.0625,10909.240234375,27896.5625,6474.65380859375,7940.92822265625,9109.1796875,8960.564453125,5767.34521484375,17202.6953125,-950.4954223632812,8654.5947265625,0.0,22528.966796875,6966.5908203125,24571.41796875,19623.4375,9505.7490234375,11448.0654296875,22879.44140625,29201.5078125,22433.599609375,19427.140625,21055.541015625,7091.36328125,28807.322265625,568.23095703125,0.0,1006.1264038085938,13651.0537109375,6637.5732421875,25655.427734375,15994.70703125,14943.2822265625,24610.361328125,9284.01953125,13957.818359375,8611.6787109375,3797.21337890625,22558.37109375,9229.9775390625,16797.384765625,11471.1123046875,8740.4248046875,12070.337890625,11572.837890625,1850.128173828125,10090.6689453125,3197.193115234375,16481.080078125,6171.06787109375,7771.65087890625,1846.154541015625,11064.2119140625,4637.2412109375,23605.02734375,4158.81494140625,17791.58984375,3134.40966796875,9353.1611328125,26171.20703125,21239.123046875,11715.0947265625,-0.0,-44062.9296875,19288.859375,4254.9765625,0.0,6801.287109375,0.0,0.0
15157.8583984375,15130.04296875,33367.47265625,10898.11328125,27906.89453125,6479.421875,7952.849609375,9116.33203125,8968.5126953125,5770.5244140625,17196.3359375,-940.9586791992188,8638.69921875,0.0,22528.171875,6972.154296875,24579.3671875,19630.58984375,9512.1064453125,11453.62890625,22885.798828125,29207.865234375,22442.341796875,19433.498046875,21048.38671875,7094.5419921875,28822.421875,572.20458984375,0.0,1014.868408203125,13658.2060546875,6643.13671875,25660.197265625,16001.859375,14951.2294921875,24617.513671875,9293.556640625,13964.970703125,8620.421875,3820.26025390625,22562.345703125,9237.1298828125,16808.509765625,11477.470703125,8749.9619140625,12076.6953125,11557.73828125,1857.28076171875,10080.337890625,3197.98779296875,16493.796875,6175.041015625,7792.31396484375,1859.6649169921875,11060.23828125,4638.83056640625,23597.08203125,4163.58349609375,17796.357421875,3137.58837890625,9355.544921875,26178.359375,21247.86328125,11718.2734375,-0.0,-44052.6015625,19294.419921875,4256.56640625,0.0,6794.134765625,0.0,0.0
15184.87890625,15122.095703125,33369.0625,10902.0869140625,27917.2265625,6481.80615234375,7960.001953125,9114.7421875,8968.5126953125,5765.75634765625,17205.080078125,-940.1639404296875,8632.3427734375,0.0,22526.58203125,6965.00146484375,24582.544921875,19637.7421875,9514.4912109375,11453.62890625,22890.568359375,29211.83984375,22445.51953125,19435.087890625,21067.4609375,7093.74755859375,28831.958984375,572.20458984375,0.0,1014.868408203125,13662.974609375,6646.31494140625,25664.171875,16005.8349609375,14955.9970703125,24619.8984375,9297.5302734375,13965.765625,8627.57421875,3829.00244140625,22571.0859375,9240.3095703125,16816.45703125,11479.060546875,8753.140625,12074.3115234375,11541.84375,1856.4859619140625,10086.6953125,3197.98779296875,16501.74609375,6173.45166015625,7807.41357421875,1862.8438720703125,11060.23828125,4633.26806640625,23590.72265625,4160.404296875,17794.767578125,3128.0517578125,9347.59765625,26182.33203125,21248.658203125,11710.326171875,-0.0,-44048.625,19298.39453125,4248.619140625,0.0,6780.62451171875,0.0,0.0
15194.416015625,15117.328125,33373.83203125,10912.41796875,27926.763671875,6488.16455078125,7967.94873046875,9120.3046875,8973.28125,5770.5244140625,17227.33203125,-940.9586791992188,8643.4677734375,0.0,22532.14453125,6965.00146484375,24585.724609375,19640.921875,9520.8486328125,11456.8076171875,22898.515625,29215.8125,22452.673828125,19440.650390625,21092.095703125,7097.72119140625,28843.87890625,577.7677001953125,0.0,1008.5106201171875,13667.7431640625,6647.90478515625,25667.349609375,16009.8076171875,14961.560546875,24624.666015625,9304.6826171875,13970.5341796875,8624.39453125,3829.00244140625,22581.419921875,9241.8984375,16824.404296875,11483.033203125,8759.4990234375,12080.6689453125,11556.1484375,1850.9229736328125,10104.9736328125,3203.551025390625,16508.8984375,6175.8359375,7811.3876953125,1864.433349609375,11086.4638671875,4629.2939453125,23593.90234375,4161.19921875,17802.71484375,3132.025390625,9349.982421875,26187.1015625,21253.427734375,11712.7099609375,-0.0,-44047.0390625,19303.1640625,4255.771484375,0.0,6791.75048828125,0.0,0.0
15176.13671875,15130.04296875,33370.65625,10919.5712890625,27915.63671875,6492.1376953125,7967.154296875,9123.484375,8978.048828125,5774.498046875,17220.974609375,-938.574462890625,8629.9580078125,0.0,22530.556640625,6970.564453125,24583.33984375,19638.5390625,9520.8486328125,11459.986328125,22891.36328125,29217.40234375,22450.2890625,19440.650390625,21061.1015625,7104.07861328125,28836.7265625,580.9465942382812,0.0,1004.5369873046875,13666.947265625,6647.90478515625,25662.580078125,16009.0126953125,14958.3818359375,24626.255859375,9303.0927734375,13973.712890625,8625.189453125,3825.823486328125,22567.11328125,9249.05078125,16817.251953125,11485.4169921875,8760.29296875,12082.2587890625,11564.890625,1836.6177978515625,10087.490234375,3208.3193359375,16508.1015625,6179.0146484375,7809.7978515625,1877.14892578125,11057.853515625,4633.26806640625,23586.75,4161.99365234375,17804.3046875,3136.7939453125,9355.544921875,26186.30859375,21255.8125,11717.478515625,-0.0,-44042.26953125,19306.341796875,4260.5400390625,0.0,6798.90283203125,0.0,0.0
15149.9111328125,15118.1220703125,33358.734375,10912.41796875,27897.357421875,6483.39599609375,7955.2333984375,9112.3583984375,8966.9228515625,5767.34521484375,17205.080078125,-956.8532104492188,8616.447265625,0.0,22520.22265625,6961.822265625,24572.21484375,19628.20703125,9509.72265625,11451.244140625,22878.646484375,29207.865234375,22436.77734375,19430.318359375,21027.72265625,7092.95263671875,28824.806640625,571.4098510742188,0.0,994.2054443359375,13655.0263671875,6635.98388671875,25651.455078125,16000.2705078125,14945.666015625,24615.923828125,9291.966796875,13963.3818359375,8631.546875,3800.39208984375,22551.21875,9244.283203125,16802.15234375,11475.0859375,8749.1669921875,12071.1328125,11548.99609375,1815.16015625,10066.8271484375,3197.98779296875,16496.9765625,6171.06787109375,7801.0556640625,1869.9964599609375,11039.57421875,4622.93603515625,23578.0078125,4151.662109375,17792.3828125,3129.641357421875,9333.29296875,26175.9765625,21245.48046875,11707.146484375,-0.0,-44059.75390625,19299.189453125,4248.619140625,0.0,6790.1611328125,0.0,0.0
15137.1953125,15090.306640625,33348.3984375,10896.5234375,27887.025390625,6470.68017578125,7944.10693359375,9100.4375,8953.412109375,5754.62939453125,17198.720703125,-971.1583251953125,8601.34765625,0.0,22510.6875,6948.3125,24561.8828125,19616.28515625,9498.595703125,11440.1181640625,22869.90625,29198.328125,22425.65234375,19420.78125,21015.009765625,7077.05810546875,28809.705078125,557.8994750976562,0.0,985.4635009765625,13646.28515625,6625.65234375,25642.712890625,15989.1455078125,14935.333984375,24607.9765625,9283.224609375,13952.2548828125,8621.2158203125,3790.060791015625,22540.091796875,9232.361328125,16789.435546875,11464.7548828125,8738.041015625,12060.8017578125,11536.2802734375,1803.2392578125,10051.7275390625,3186.06689453125,16485.056640625,6155.9677734375,7792.31396484375,1852.5123291015625,11032.421875,4607.83642578125,23566.880859375,4136.5625,17780.462890625,3118.51513671875,9311.8349609375,26167.234375,21234.353515625,11689.6630859375,-0.0,-44074.8515625,19288.859375,4235.9033203125,0.0,6780.62451171875,0.0,0.0
15134.8115234375,15082.359375,33351.58203125,10897.318359375,27891.0,6472.26953125,7945.69677734375,9106.794921875,8955.7958984375,5762.5771484375,17202.6953125,-968.774169921875,8605.3212890625,0.0,22512.27734375,6953.08056640625,24562.677734375,19620.259765625,9503.3642578125,11446.4755859375,22871.494140625,29199.123046875,22429.625,19424.7578125,21022.162109375,7077.8525390625,28812.08984375,562.6678466796875,0.0,991.0265502929688,13648.6689453125,6624.857421875,25647.482421875,15988.349609375,14936.923828125,24608.76953125,9283.224609375,13956.2294921875,8602.9365234375,3809.13427734375,22544.06640625,9224.4150390625,16791.8203125,11467.93359375,8742.0146484375,12067.1591796875,11541.048828125,1830.2598876953125,10049.3427734375,3193.219482421875,16486.64453125,6159.94140625,7798.671875,1842.180908203125,11042.75390625,4609.42578125,23568.47265625,4139.7412109375,17781.2578125,3126.462158203125,9303.0927734375,26170.412109375,21239.123046875,11692.841796875,-0.0,-44071.67578125,19288.859375,4238.28759765625,0.0,6794.134765625,0.0,0.0
15154.6796875,15097.458984375,33361.91015625,10905.265625,27898.15234375,6480.216796875,7953.6435546875,9113.15234375,8962.154296875,5772.90869140625,17210.642578125,-964.800537109375,8610.0888671875,0.0,22516.25,6960.2333984375,24569.830078125,19629.001953125,9511.3115234375,11452.0390625,22878.646484375,29204.6875,22436.77734375,19432.703125,21034.875,7087.3896484375,28819.2421875,570.6151123046875,0.0,998.973876953125,13655.822265625,6631.21533203125,25652.25,15996.2978515625,14944.076171875,24619.8984375,9290.3779296875,13963.3818359375,8610.884765625,3816.286865234375,22552.80859375,9229.9775390625,16798.177734375,11478.2646484375,8749.1669921875,12075.9013671875,11546.611328125,1860.459716796875,10055.701171875,3204.345703125,16490.6171875,6166.29931640625,7816.95068359375,1836.6177978515625,11040.3701171875,4617.373046875,23571.650390625,4147.6884765625,17787.615234375,3135.9990234375,9323.755859375,26178.359375,21247.86328125,11696.8154296875,-0.0,-44068.49609375,19300.779296875,4243.0556640625,0.0,6805.26123046875,0.0,0.0
15157.0634765625,15104.611328125,33349.19921875,10894.9345703125,27891.794921875,6476.24365234375,7945.69677734375,9109.9736328125,8952.6171875,5771.31884765625,17201.10546875,-965.59521484375,8612.4736328125,0.0,22509.892578125,6949.9013671875,24565.0625,19625.822265625,9506.54296875,11443.2978515625,22872.2890625,29200.712890625,22432.0078125,19426.345703125,21030.107421875,7084.2109375,28816.857421875,562.6678466796875,0.0,992.6160278320312,13650.2578125,6624.06298828125,25642.712890625,15992.3232421875,14940.8974609375,24615.12890625,9285.609375,13960.2021484375,8591.8115234375,3800.39208984375,22545.65625,9226.0048828125,16795.0,11472.7021484375,8741.2197265625,12071.1328125,11535.4853515625,1861.25439453125,10055.701171875,3197.193115234375,16484.259765625,6159.14697265625,7816.1552734375,1827.875732421875,11032.421875,4613.3994140625,23565.29296875,4138.15185546875,17778.873046875,3132.025390625,9338.0615234375,26172.796875,21243.095703125,11678.5361328125,-0.0,-44070.08203125,19292.83203125,4235.10888671875,0.0,6803.67138671875,0.0,0.0
15157.0634765625,15114.943359375,33352.375,10890.166015625,27894.177734375,6476.24365234375,7949.669921875,9113.15234375,8960.564453125,5778.4716796875,17210.642578125,-962.4163208007812,8613.2685546875,0.0,22515.455078125,6955.46484375,24566.650390625,19629.001953125,9510.517578125,11450.4501953125,22875.466796875,29202.302734375,22435.984375,19430.318359375,21035.671875,7082.62109375,28821.626953125,565.052001953125,0.0,991.0265502929688,13651.84765625,6624.857421875,25645.890625,15992.3232421875,14942.486328125,24615.12890625,9290.3779296875,13961.7919921875,8587.8369140625,3808.33935546875,22548.041015625,9228.388671875,16797.384765625,11475.0859375,8747.578125,12077.4912109375,11539.458984375,1858.8701171875,10058.8798828125,3190.835205078125,16489.82421875,6164.70947265625,7801.8505859375,1831.0546875,11041.1640625,4615.78369140625,23565.29296875,4142.919921875,17785.23046875,3137.58837890625,9345.2138671875,26175.9765625,21247.86328125,11687.2783203125,-0.0,-44072.46875,19288.859375,4236.6982421875,0.0,6805.26123046875,0.0,0.0
15172.9580078125,15126.0693359375,33364.296875,10903.67578125,27905.306640625,6489.75390625,7964.7705078125,9125.869140625,8978.84375,5788.80322265625,17220.177734375,-952.0848388671875,8621.2158203125,0.0,22526.58203125,6966.5908203125,24577.775390625,19640.921875,9522.4384765625,11465.5498046875,22888.978515625,29213.427734375,22448.697265625,19441.447265625,21046.00390625,7097.72119140625,28831.1640625,576.9729614257812,0.0,998.1790771484375,13664.5634765625,6635.18896484375,25657.01953125,16001.06640625,14953.61328125,24627.84375,9304.6826171875,13975.302734375,8616.447265625,3817.876220703125,22561.55078125,9244.283203125,16809.3046875,11486.212890625,8762.6767578125,12090.2060546875,11549.7900390625,1851.7176513671875,10073.1845703125,3205.140380859375,16503.333984375,6175.8359375,7772.44580078125,1850.128173828125,11052.291015625,4625.3203125,23576.41796875,4155.6357421875,17801.126953125,3148.71484375,9348.392578125,26189.486328125,21261.373046875,11709.53125,-0.0,-44060.546875,19294.419921875,4251.00341796875,0.0,6811.61865234375,0.0,0.0
15191.2373046875,15126.0693359375,33373.83203125,10917.1865234375,27918.81640625,6500.8798828125,7971.9228515625,9128.2529296875,8987.5859375,5776.08740234375,17224.154296875,-936.9849853515625,8629.1630859375,0.0,22536.119140625,6967.3857421875,24589.697265625,19650.458984375,9531.1806640625,11464.7548828125,22899.30859375,29226.14453125,22460.619140625,19449.392578125,21053.15625,7109.64208984375,28839.111328125,584.12548828125,0.0,1015.6631469726562,13676.484375,6646.31494140625,25668.939453125,16015.37109375,14967.1240234375,24640.560546875,9314.2197265625,13983.25,8633.931640625,3824.23388671875,22574.265625,9259.3828125,16819.634765625,11494.9541015625,8771.419921875,12090.2060546875,11558.533203125,1840.5914306640625,10080.337890625,3214.677001953125,16513.666015625,6176.63037109375,7797.08251953125,1871.5858154296875,11054.6748046875,4642.009765625,23588.337890625,4162.78857421875,17811.45703125,3136.7939453125,9348.392578125,26198.228515625,21265.34765625,11718.2734375,-0.0,-44047.0390625,19303.95703125,4254.18212890625,0.0,6783.80322265625,0.0,0.0
15185.673828125,15142.7587890625,33392.11328125,10933.08203125,27933.12109375,6510.41650390625,7986.22802734375,9134.6103515625,9005.0693359375,5773.703125,17232.89453125,-921.0904541015625,8637.9052734375,0.0,22547.244140625,6972.154296875,24605.591796875,19667.1484375,9542.3056640625,11475.880859375,22913.615234375,29240.44921875,22474.923828125,19461.3125,21071.43359375,7119.1787109375,28847.853515625,592.8675537109375,0.0,1037.91552734375,13690.7890625,6663.00439453125,25684.833984375,16031.265625,14983.8134765625,24652.48046875,9325.3447265625,13993.5810546875,8625.984375,3843.3076171875,22591.75,9267.330078125,16833.94140625,11504.4912109375,8786.51953125,12094.974609375,11576.0166015625,1866.022705078125,10090.6689453125,3225.803466796875,16525.587890625,6182.19384765625,7826.4873046875,1883.5068359375,11067.390625,4653.1357421875,23589.9296875,4168.3515625,17825.76171875,3132.025390625,9366.671875,26210.943359375,21275.677734375,11745.2939453125,-0.0,-44033.52734375,19319.853515625,4266.10302734375,0.0,6777.4453125,0.0,0.0
15172.1640625,15157.8583984375,33400.05859375,10941.8232421875,27937.888671875,6522.33740234375,7994.1748046875,9145.736328125,9016.1962890625,5791.1875,17229.71484375,-921.8851928710938,8637.9052734375,0.0,22553.6015625,6980.89599609375,24612.74609375,19677.48046875,9551.8427734375,11488.5966796875,22920.767578125,29249.19140625,22484.4609375,19471.64453125,21094.48046875,7135.8681640625,28855.005859375,603.198974609375,0.0,1032.3524169921875,13701.12109375,6672.541015625,25693.57421875,16039.212890625,14990.9658203125,24661.22265625,9331.703125,14002.3232421875,8629.9580078125,3852.049560546875,22595.724609375,9278.45703125,16841.09375,11514.8232421875,8796.0556640625,12105.3056640625,11592.7060546875,1901.7855224609375,10097.0263671875,3240.903076171875,16533.533203125,6193.31982421875,7824.89794921875,1873.969970703125,11072.1591796875,4661.8779296875,23593.90234375,4174.70947265625,17834.505859375,3147.125244140625,9378.5927734375,26221.275390625,21286.01171875,11755.6259765625,-0.0,-44027.96484375,19327.005859375,4274.84521484375,0.0,6800.49267578125,0.0,0.0
15157.0634765625,15140.3740234375,33385.75390625,10928.3134765625,27926.763671875,6508.8271484375,7980.6640625,9133.021484375,9002.685546875,5783.23974609375,17193.158203125,-937.7797241210938,8631.546875,0.0,22545.65625,6969.77001953125,24599.234375,19663.17578125,9539.126953125,11475.0859375,22906.4609375,29235.681640625,22471.74609375,19457.33984375,21084.150390625,7125.53662109375,28848.6484375,592.0728149414062,0.0,1014.868408203125,13685.2265625,6657.44140625,25679.26953125,16024.908203125,14977.455078125,24647.712890625,9318.1923828125,13989.607421875,8647.44140625,3840.92333984375,22579.828125,9260.9716796875,16829.171875,11502.1064453125,8782.5458984375,12093.384765625,11585.552734375,1891.4541015625,10088.2841796875,3230.57177734375,16523.203125,6181.39892578125,7824.103515625,1846.154541015625,11065.005859375,4652.34130859375,23588.337890625,4159.609375,17821.7890625,3140.767333984375,9361.107421875,26206.17578125,21274.08984375,11737.3466796875,-0.0,-44046.2421875,19320.646484375,4265.30859375,0.0,6803.67138671875,0.0,0.0
15186.46875,15137.1953125,33392.90625,10934.6708984375,27931.53125,6509.6220703125,7981.45947265625,9130.63671875,8997.9169921875,5780.06103515625,17218.58984375,-938.574462890625,8616.447265625,0.0,22542.4765625,6967.3857421875,24600.82421875,19662.380859375,9537.537109375,11468.728515625,22908.052734375,29236.474609375,22472.5390625,19456.544921875,21076.203125,7119.1787109375,28848.6484375,589.6885986328125,0.0,1010.894775390625,13686.81640625,6661.4150390625,25682.44921875,16028.0859375,14978.25,24646.91796875,9317.3984375,13987.2236328125,8668.10546875,3834.5654296875,22585.392578125,9262.5615234375,16829.171875,11499.72265625,8778.572265625,12087.822265625,11590.3212890625,1872.380615234375,10088.2841796875,3226.59814453125,16520.818359375,6179.8095703125,7828.076171875,1842.9755859375,11069.7744140625,4650.75146484375,23584.365234375,4160.404296875,17817.81640625,3139.97265625,9368.2607421875,26206.17578125,21269.322265625,11728.6044921875,-0.0,-44048.625,19310.31640625,4265.30859375,0.0,6805.26123046875,0.0,0.0
15206.3369140625,15145.142578125,33398.46875,10936.259765625,27937.09375,6511.21142578125,7987.81689453125,9134.6103515625,9007.4541015625,5784.82958984375,17243.2265625,-929.8324584960938,8607.705078125,0.0,22550.423828125,6971.359375,24606.38671875,19667.943359375,9543.8955078125,11475.0859375,22915.205078125,29239.654296875,22478.103515625,19458.9296875,21076.203125,7117.58935546875,28858.185546875,592.0728149414062,0.0,1014.07373046875,13693.96875,6666.18359375,25688.806640625,16032.060546875,14985.40234375,24650.892578125,9322.9609375,13990.40234375,8644.263671875,3835.3603515625,22590.16015625,9267.330078125,16837.119140625,11505.2861328125,8787.314453125,12091.7958984375,11589.52734375,1866.8175048828125,10089.080078125,3225.0087890625,16528.765625,6185.373046875,7803.43994140625,1863.6385498046875,11062.6220703125,4657.10986328125,23589.134765625,4170.73583984375,17825.76171875,3143.151611328125,9375.4130859375,26212.533203125,21274.08984375,11734.16796875,-0.0,-44034.3203125,19311.904296875,4264.513671875,0.0,6804.46630859375,0.0,0.0
15184.87890625,15126.0693359375,33377.01171875,10908.4443359375,27919.611328125,6487.36962890625,7976.69140625,9117.126953125,8995.533203125,5767.34521484375,17217.794921875,-945.72705078125,8607.705078125,0.0,22544.861328125,6956.25927734375,24584.927734375,19644.896484375,9526.412109375,11462.37109375,22894.541015625,29217.40234375,22462.208984375,19438.267578125,21045.20703125,7094.5419921875,28857.388671875,570.6151123046875,0.0,1001.3580322265625,13671.7158203125,6645.5205078125,25664.96484375,16009.8076171875,14965.5341796875,24629.435546875,9308.6552734375,13971.3291015625,8600.552734375,3816.286865234375,22568.703125,9245.078125,16822.814453125,11483.033203125,8775.3935546875,12076.6953125,11564.095703125,1858.075439453125,10079.54296875,3201.96142578125,16522.408203125,6169.47802734375,7780.39306640625,1860.459716796875,11051.4951171875,4630.0888671875,23585.955078125,4153.25146484375,17817.81640625,3126.462158203125,9356.33984375,26193.4609375,21258.990234375,11720.6572265625,-0.0,-44052.6015625,19307.931640625,4244.6455078125,0.0,6784.59765625,0.0,0.0
15180.111328125,15131.6328125,33377.01171875,10914.0078125,27921.19921875,6490.548828125,7979.86962890625,9119.5107421875,8997.123046875,5772.11376953125,17211.4375,-943.3428344726562,8605.3212890625,0.0,22546.44921875,6958.6435546875,24587.3125,19646.486328125,9527.2060546875,11462.37109375,22895.3359375,29219.78515625,22463.798828125,19440.650390625,21039.64453125,7100.900390625,28865.337890625,572.9993286132812,0.0,1007.7158203125,13672.5107421875,6647.90478515625,25664.96484375,16013.7802734375,14967.1240234375,24631.818359375,9311.0400390625,13973.712890625,8596.5791015625,3813.902587890625,22569.498046875,9245.8720703125,16826.787109375,11486.212890625,8776.982421875,12079.875,11564.095703125,1869.9964599609375,10077.953125,3205.935302734375,16525.587890625,6172.6572265625,7795.49267578125,1864.433349609375,11062.6220703125,4633.26806640625,23589.134765625,4158.81494140625,17817.81640625,3132.820068359375,9366.671875,26195.048828125,21259.78515625,11714.298828125,-0.0,-44049.421875,19304.751953125,4250.20849609375,0.0,6792.54541015625,0.0,0.0
15153.884765625,15118.1220703125,33365.08984375,10905.265625,27915.63671875,6477.8330078125,7964.7705078125,9104.4111328125,8977.25390625,5753.8349609375,17197.1328125,-960.826904296875,8602.142578125,0.0,22528.171875,6943.5439453125,24576.982421875,19631.38671875,9512.9013671875,11442.501953125,22885.798828125,29207.072265625,22449.494140625,19427.140625,21038.8515625,7087.3896484375,28838.31640625,562.6678466796875,0.0,993.4107055664062,13659.0,6635.18896484375,25657.01953125,16001.859375,14954.4072265625,24618.306640625,9295.1455078125,13960.2021484375,8598.9638671875,3797.21337890625,22561.55078125,9233.951171875,16814.07421875,11473.49609375,8759.4990234375,12062.390625,11556.1484375,1853.30712890625,10051.7275390625,3193.219482421875,16508.8984375,6157.55712890625,7783.57177734375,1842.180908203125,11045.138671875,4618.962890625,23569.265625,4149.2783203125,17799.53515625,3113.74658203125,9352.3662109375,26179.15625,21241.505859375,11690.45703125,-0.0,-44062.9296875,19292.03515625,4232.724609375,0.0,6775.85595703125,0.0,0.0
15128.453125,15119.7119140625,33353.16796875,10906.060546875,27909.279296875,6477.0380859375,7961.5908203125,9102.02734375,8976.4599609375,5752.24560546875,17174.87890625,-956.8532104492188,8611.6787109375,0.0,22527.376953125,6945.92822265625,24573.802734375,19625.029296875,9509.72265625,11440.9130859375,22881.03125,29203.892578125,22443.9296875,19427.140625,21030.90234375,7085.00537109375,28826.39453125,565.8467407226562,0.0,999.7686157226562,13657.41015625,6637.5732421875,25653.04296875,16000.2705078125,14948.8447265625,24616.71875,9291.966796875,13959.408203125,8621.2158203125,3809.928955078125,22552.013671875,9233.1572265625,16810.89453125,11473.49609375,8757.1142578125,12060.8017578125,11529.9228515625,1854.896484375,10031.064453125,3194.014404296875,16505.71875,6158.35205078125,7788.34033203125,1849.3333740234375,11036.396484375,4616.57861328125,23560.5234375,4138.15185546875,17797.947265625,3112.951904296875,9338.85546875,26175.9765625,21239.123046875,11692.841796875,-0.0,-44062.13671875,19290.447265625,4229.54541015625,0.0,6777.4453125,0.0,0.0
15122.095703125,15113.353515625,33350.78515625,10898.9072265625,27896.5625,6477.8330078125,7966.359375,9106.794921875,8985.2021484375,5760.19287109375,17182.826171875,-953.67431640625,8606.1162109375,0.0,22540.888671875,6958.6435546875,24572.21484375,19623.4375,9511.3115234375,11447.2705078125,22876.26171875,29202.302734375,22443.13671875,19427.140625,21033.287109375,7083.416015625,28840.69921875,567.4362182617188,0.0,995.794921875,13655.0263671875,6635.98388671875,25651.455078125,15997.0908203125,14942.486328125,24615.12890625,9293.556640625,13960.998046875,8637.1103515625,3811.518310546875,22547.244140625,9230.7734375,16806.921875,11474.2919921875,8762.6767578125,12066.3642578125,11532.306640625,1857.28076171875,10050.1376953125,3198.78271484375,16520.818359375,6163.1201171875,7787.5458984375,1850.128173828125,11037.9853515625,4627.70458984375,23560.5234375,4147.6884765625,17812.251953125,3120.899169921875,9323.755859375,26173.591796875,21243.890625,11707.146484375,-0.0,-44059.75390625,19302.3671875,4240.671875,0.0,6786.1875,0.0,0.0
15159.447265625,15115.73828125,33361.91015625,10905.265625,27905.306640625,6488.16455078125,7980.6640625,9117.9208984375,8995.533203125,5771.31884765625,17205.080078125,-949.70068359375,8610.0888671875,0.0,22552.80859375,6961.822265625,24582.544921875,19632.181640625,9520.0537109375,11458.396484375,22885.00390625,29212.6328125,22451.08203125,19435.8828125,21048.38671875,7096.92626953125,28843.083984375,577.7677001953125,0.0,1001.3580322265625,13662.1787109375,6645.5205078125,25661.787109375,16007.423828125,14952.8193359375,24623.87109375,9303.8876953125,13969.7392578125,8643.4677734375,3820.26025390625,22558.37109375,9241.1044921875,16814.8671875,11483.828125,8775.3935546875,12076.6953125,11556.943359375,1870.7911376953125,10069.2109375,3208.3193359375,16537.5078125,6171.06787109375,7800.26123046875,1848.5386962890625,11031.6279296875,4643.59912109375,23568.47265625,4161.19921875,17832.12109375,3132.025390625,9338.0615234375,26183.923828125,21253.427734375,11719.0673828125,-0.0,-44060.546875,19322.236328125,4257.36083984375,0.0,6794.9296875,0.0,0.0
15178.521484375,15121.30078125,33360.3203125,10901.2919921875,27902.921875,6483.39599609375,7971.12744140625,9113.15234375,8992.3544921875,5768.9345703125,17201.900390625,-953.67431640625,8625.984375,0.0,22548.833984375,6951.49072265625,24580.955078125,19630.58984375,9514.4912109375,11455.21875,22882.619140625,29211.83984375,22446.314453125,19430.318359375,21050.771484375,7095.3369140625,28826.39453125,569.8204345703125,0.0,1002.9474487304688,13662.974609375,6644.7255859375,25660.9921875,16008.21875,14948.05078125,24621.486328125,9295.9404296875,13964.17578125,8635.5205078125,3817.08154296875,22556.78125,9237.1298828125,16806.125,11478.2646484375,8767.4453125,12071.9267578125,11549.7900390625,1868.4068603515625,10084.3115234375,3203.551025390625,16526.380859375,6163.1201171875,7809.7978515625,1838.207275390625,11037.9853515625,4629.2939453125,23591.517578125,4150.86767578125,17819.404296875,3129.641357421875,9347.59765625,26179.15625,21247.86328125,11718.2734375,-0.0,-44060.546875,19319.056640625,4263.71923828125,0.0,6800.49267578125,0.0,0.0
15188.853515625,15126.0693359375,33354.7578125,10898.11328125,27891.794921875,6477.8330078125,7947.28564453125,9102.8212890625,8978.84375,5760.19287109375,17196.3359375,-952.0848388671875,8617.2421875,0.0,22536.119140625,6947.517578125,24578.572265625,19623.4375,9503.3642578125,11444.091796875,22875.466796875,29204.6875,22431.21484375,19422.373046875,21028.51953125,7090.568359375,28810.501953125,562.6678466796875,0.0,1002.9474487304688,13656.6162109375,6642.341796875,25655.427734375,16001.859375,14937.71875,24615.12890625,9280.8408203125,13953.8447265625,8625.189453125,3809.928955078125,22547.244140625,9232.361328125,16786.255859375,11471.1123046875,8749.9619140625,12062.390625,11537.869140625,1858.075439453125,10066.8271484375,3197.193115234375,16494.591796875,6157.55712890625,7815.36083984375,1833.4388427734375,11029.2431640625,4614.98876953125,23597.875,4141.33056640625,17801.919921875,3120.1044921875,9358.7236328125,26168.02734375,21235.943359375,11710.326171875,-0.0,-44058.1640625,19308.724609375,4257.36083984375,0.0,6793.34033203125,0.0,0.0
15179.31640625,15137.990234375,33364.296875,10906.85546875,27903.71484375,6486.57470703125,7953.6435546875,9107.58984375,8981.2275390625,5760.98779296875,17212.232421875,-942.548095703125,8631.546875,0.0,22540.091796875,6953.08056640625,24586.51953125,19631.38671875,9509.72265625,11447.2705078125,22887.388671875,29213.427734375,22438.3671875,19430.318359375,21040.439453125,7090.568359375,28823.216796875,567.4362182617188,0.0,1010.894775390625,13666.1533203125,6650.2890625,25664.96484375,16009.0126953125,14948.05078125,24623.076171875,9287.1982421875,13960.998046875,8637.1103515625,3817.876220703125,22558.37109375,9241.1044921875,16794.205078125,11478.2646484375,8753.935546875,12067.9541015625,11534.6904296875,1854.101806640625,10071.5947265625,3207.524658203125,16500.154296875,6162.3251953125,7799.466796875,1841.38623046875,11045.9326171875,4626.90966796875,23597.875,4144.509765625,17803.509765625,3124.078125,9368.2607421875,26176.771484375,21240.7109375,11711.9150390625,-0.0,-44049.421875,19306.341796875,4258.95068359375,0.0,6798.90283203125,0.0,0.0
15158.6533203125,15129.2490234375,33365.88671875,10899.703125,27905.306640625,6478.62744140625,7956.02783203125,9103.6162109375,8978.048828125,5758.603515625,17212.232421875,-954.4690551757812,8637.1103515625,0.0,22537.708984375,6945.92822265625,24579.3671875,19629.796875,9505.7490234375,11441.7080078125,22885.798828125,29209.455078125,22439.162109375,19426.345703125,21054.744140625,7074.67431640625,28831.1640625,564.25732421875,0.0,1006.921142578125,13661.384765625,6645.5205078125,25660.197265625,16003.4501953125,14948.8447265625,24618.306640625,9288.7880859375,13957.818359375,8636.3154296875,3797.21337890625,22563.93359375,9231.5673828125,16798.97265625,11473.49609375,8754.73046875,12063.98046875,11534.6904296875,1842.180908203125,10076.36328125,3200.3720703125,16506.513671875,6157.55712890625,7783.57177734375,1835.822998046875,11061.0322265625,4629.2939453125,23593.90234375,4138.9462890625,17799.53515625,3119.3095703125,9361.9033203125,26176.771484375,21238.326171875,11706.3525390625,-0.0,-44061.34375,19299.984375,4249.4140625,0.0,6790.9560546875,0.0,0.0
15158.6533203125,15122.095703125,33365.88671875,10898.11328125,27903.71484375,6475.44873046875,7957.61767578125,9101.2314453125,8977.25390625,5754.62939453125,17203.490234375,-955.2637939453125,8623.599609375,0.0,22540.091796875,6942.7490234375,24579.3671875,19630.58984375,9504.1591796875,11438.529296875,22885.798828125,29206.275390625,22439.95703125,19425.55078125,21041.234375,7082.62109375,28831.1640625,561.078369140625,0.0,1006.1264038085938,13660.58984375,6641.546875,25660.9921875,16001.06640625,14949.6396484375,24619.1015625,9288.7880859375,13957.818359375,8612.4736328125,3802.7763671875,22562.345703125,9229.18359375,16797.384765625,11472.7021484375,8757.1142578125,12060.005859375,11532.306640625,1838.207275390625,10071.5947265625,3195.603515625,16511.28125,6155.9677734375,7803.43994140625,1836.6177978515625,11051.4951171875,4619.75732421875,23591.517578125,4139.7412109375,17802.71484375,3112.1572265625,9359.5185546875,26176.771484375,21236.73828125,11699.994140625,-0.0,-44064.5234375,19308.724609375,4235.9033203125,0.0,6775.85595703125,0.0,0.0
15157.8583984375,15116.5322265625,33361.1171875,10893.3447265625,27898.947265625,6469.88525390625,7952.05419921875,9096.462890625,8970.1015625,5748.27197265625,17192.36328125,-960.826904296875,8610.884765625,0.0,22533.734375,6939.56982421875,24574.59765625,19627.412109375,9499.390625,11429.787109375,22882.619140625,29201.5078125,22436.77734375,19420.78125,21029.314453125,7084.2109375,28826.39453125,553.131103515625,0.0,996.5896606445312,13658.2060546875,6635.98388671875,25657.8125,15997.88671875,14944.076171875,24614.333984375,9281.6357421875,13953.0498046875,8587.04296875,3809.928955078125,22555.193359375,9228.388671875,16792.615234375,11467.1396484375,8749.9619140625,12054.443359375,11541.048828125,1837.4124755859375,10065.23828125,3185.272216796875,16507.306640625,6149.60986328125,7793.9033203125,1830.2598876953125,11035.6015625,4619.75732421875,23587.544921875,4134.97314453125,17793.974609375,3108.978271484375,9348.392578125,26171.20703125,21229.5859375,11687.2783203125,-0.0,-44069.2890625,19304.751953125,4234.31396484375,0.0,6773.4716796875,0.0,0.0
15182.4951171875,15122.095703125,33375.421875,10901.2919921875,27909.279296875,6473.064453125,7960.79638671875,9103.6162109375,8978.048828125,5754.62939453125,17206.66796875,-953.67431640625,8615.6533203125,0.0,22537.708984375,6948.3125,24583.33984375,19635.359375,9507.3388671875,11437.7333984375,22891.36328125,29210.248046875,22443.9296875,19425.55078125,21039.64453125,7087.3896484375,28837.5234375,559.4889526367188,0.0,995.794921875,13666.1533203125,6647.90478515625,25667.349609375,16007.423828125,14953.61328125,24619.8984375,9287.1982421875,13957.818359375,8610.884765625,3813.902587890625,22566.318359375,9231.5673828125,16803.7421875,11471.9072265625,8756.3203125,12061.595703125,11570.4541015625,1846.154541015625,10078.748046875,3180.50390625,16515.255859375,6155.1728515625,7780.39306640625,1830.2598876953125,11035.6015625,4623.73095703125,23590.72265625,4142.12548828125,17799.53515625,3115.336181640625,9352.3662109375,26177.564453125,21237.53125,11696.021484375,-0.0,-44058.9609375,19303.95703125,4241.46630859375,0.0,6783.0087890625,0.0,0.0
15182.4951171875,15132.4267578125,33391.31640625,10918.7763671875,27928.3515625,6489.75390625,7978.2802734375,9122.689453125,9000.3017578125,5780.85546875,17213.822265625,-939.3692016601562,8637.1103515625,0.0,22555.986328125,6970.564453125,24602.4140625,19653.638671875,9525.6162109375,11460.78125,22907.2578125,29226.14453125,22462.208984375,19443.830078125,21062.693359375,7100.10546875,28855.80078125,577.7677001953125,0.0,1008.5106201171875,13682.841796875,6664.59423828125,25684.0390625,16027.2919921875,14971.0966796875,24638.17578125,9307.0673828125,13976.8916015625,8640.2890625,3826.6181640625,22584.595703125,9247.4619140625,16822.01953125,11489.3916015625,8777.77734375,12083.84765625,11580.78515625,1867.6121826171875,10101.794921875,3201.166748046875,16534.328125,6175.8359375,7786.7509765625,1837.4124755859375,11056.263671875,4630.8837890625,23604.234375,4161.99365234375,17819.404296875,3140.767333984375,9358.7236328125,26196.638671875,21255.8125,11726.2197265625,-0.0,-44043.859375,19311.904296875,4276.4345703125,0.0,6825.923828125,0.0,0.0
15169.779296875,15134.0166015625,33384.9609375,10921.1611328125,27930.736328125,6494.52197265625,7981.45947265625,9127.4580078125,9001.8916015625,5780.85546875,17205.873046875,-938.574462890625,8650.6201171875,0.0,22562.345703125,6968.97509765625,24605.591796875,19658.40625,9530.384765625,11463.1650390625,22909.640625,29228.529296875,22466.978515625,19449.392578125,21071.43359375,7104.07861328125,28862.158203125,579.357177734375,0.0,1009.3053588867188,13686.0205078125,6667.77294921875,25686.421875,16028.880859375,14974.2763671875,24642.1484375,9310.2451171875,13980.865234375,8649.826171875,3843.3076171875,22586.98046875,9253.025390625,16825.994140625,11490.9814453125,8779.3662109375,12086.232421875,11566.4794921875,1869.20166015625,10104.9736328125,3208.3193359375,16538.30078125,6178.22021484375,7808.20849609375,1835.0283203125,11067.390625,4636.4462890625,23610.591796875,4161.19921875,17824.173828125,3140.767333984375,9365.8759765625,26199.818359375,21258.1953125,11727.015625,-0.0,-44044.65625,19308.724609375,4266.10302734375,0.0,6817.9765625,0.0,0.0
15168.1904296875,15126.0693359375,33380.984375,10922.75,27923.583984375,6488.16455078125,7975.89599609375,9118.7158203125,8989.1748046875,5769.7294921875,17213.822265625,-947.3164672851562,8641.083984375,0.0,22553.6015625,6957.05419921875,24601.6171875,19651.25390625,9520.8486328125,11450.4501953125,22903.283203125,29224.5546875,22459.029296875,19442.240234375,21063.486328125,7100.900390625,28853.416015625,570.6151123046875,0.0,1005.3316650390625,13683.63671875,6663.79931640625,25682.44921875,16026.4970703125,14967.1240234375,24635.791015625,9302.298828125,13972.123046875,8655.388671875,3841.718017578125,22579.828125,9250.640625,16817.251953125,11484.623046875,8768.2412109375,12075.9013671875,11570.4541015625,1863.6385498046875,10092.2587890625,3203.551025390625,16531.1484375,6167.888671875,7820.923828125,1837.4124755859375,11065.80078125,4631.67822265625,23605.02734375,4150.86767578125,17812.251953125,3128.0517578125,9360.3134765625,26193.4609375,21250.248046875,11710.326171875,-0.0,-44053.39453125,19303.95703125,4240.671875,0.0,6792.54541015625,0.0,0.0
15157.8583984375,15105.4072265625,33368.26953125,10907.650390625,27906.099609375,6471.47509765625,7956.822265625,9098.84765625,8958.1806640625,5745.8876953125,17205.080078125,-967.9794311523438,8630.7529296875,0.0,22534.529296875,6938.775390625,24582.544921875,19632.181640625,9500.185546875,11423.4287109375,22885.00390625,29209.455078125,22438.3671875,19422.373046875,21041.234375,7085.00537109375,28837.5234375,553.131103515625,0.0,991.0265502929688,13665.3583984375,6644.7255859375,25665.759765625,16009.8076171875,14947.2548828125,24619.8984375,9284.01953125,13953.0498046875,8630.7529296875,3801.186767578125,22563.138671875,9234.74609375,16799.767578125,11467.1396484375,8743.603515625,12056.033203125,11563.30078125,1834.233642578125,10071.5947265625,3186.06689453125,16513.666015625,6150.404296875,7785.9560546875,1823.107421875,11057.0595703125,4611.81005859375,23592.314453125,4132.5888671875,17788.41015625,3106.593994140625,9335.6767578125,26174.38671875,21227.201171875,11671.3837890625,-0.0,-44074.05859375,19296.8046875,4225.572265625,0.0,6771.087890625,0.0,0.0
15153.884765625,15083.1533203125,33353.96484375,10868.708984375,27889.41015625,6450.81201171875,7940.13330078125,9079.7734375,8939.107421875,5723.63525390625,17189.98046875,-986.2581787109375,8606.9111328125,0.0,22521.814453125,6916.52294921875,24561.8828125,19609.927734375,9482.701171875,11402.7666015625,22866.7265625,29187.203125,22420.8828125,19402.50390625,21026.134765625,7063.5478515625,28823.216796875,535.6470947265625,0.0,971.9530639648438,13643.10546875,6628.03662109375,25649.865234375,15985.9658203125,14927.3876953125,24600.029296875,9266.5361328125,13935.56640625,8603.732421875,3779.729248046875,22546.44921875,9211.69921875,16782.283203125,11447.2705078125,8725.3251953125,12036.9599609375,11550.5859375,1810.3917236328125,10055.701171875,3168.5830078125,16497.76953125,6131.3310546875,7766.087890625,1809.5970458984375,11034.01171875,4589.5576171875,23577.212890625,4111.92578125,17774.900390625,3089.110107421875,9316.603515625,26155.314453125,21207.33203125,11651.515625,-0.0,-44093.1328125,19294.419921875,4198.55126953125,0.0,6744.06689453125,0.0,0.0
15152.294921875,15087.1279296875,33360.3203125,10869.5029296875,27895.76953125,6455.580078125,7943.3125,9082.158203125,8943.0810546875,5727.609375,17183.623046875,-976.721435546875,8603.732421875,0.0,22523.40234375,6921.29150390625,24565.0625,19611.517578125,9486.6748046875,11406.7392578125,22871.494140625,29189.5859375,22424.0625,19406.4765625,21037.259765625,7065.931640625,28824.806640625,540.4154663085938,0.0,979.900390625,13646.28515625,6628.83154296875,25651.455078125,15989.9384765625,14929.771484375,24601.6171875,9269.71484375,13937.9501953125,8609.294921875,3802.7763671875,22552.013671875,9212.494140625,16785.462890625,11450.4501953125,8729.298828125,12039.34375,11550.5859375,1809.5970458984375,10061.263671875,3174.94091796875,16499.361328125,6132.1259765625,7765.29296875,1808.007568359375,11030.8330078125,4595.12109375,23574.828125,4117.48876953125,17779.66796875,3092.2890625,9315.80859375,26158.490234375,21211.3046875,11661.052734375,-0.0,-44085.1875,19287.267578125,4204.1142578125,0.0,6748.04052734375,0.0,0.0
15154.6796875,15115.73828125,33393.69921875,10906.85546875,27930.736328125,6482.60107421875,7972.71728515625,9107.58984375,8968.5126953125,5752.24560546875,17191.568359375,-961.62158203125,8645.0576171875,0.0,22547.244140625,6944.33837890625,24592.876953125,19636.94921875,9512.1064453125,11434.5546875,22900.900390625,29218.197265625,22450.2890625,19431.91015625,21081.765625,7092.95263671875,28858.185546875,565.052001953125,0.0,993.4107055664062,13673.3056640625,6651.87841796875,25680.064453125,16016.9599609375,14960.765625,24626.255859375,9298.32421875,13962.5859375,8645.0576171875,3828.207763671875,22588.572265625,9241.1044921875,16817.251953125,11476.67578125,8756.3203125,12064.7744140625,11583.9638671875,1840.5914306640625,10105.76953125,3200.3720703125,16528.765625,6153.58349609375,7759.72998046875,1811.1864013671875,11068.1845703125,4622.1416015625,23599.466796875,4138.15185546875,17805.099609375,3111.362548828125,9347.59765625,26183.923828125,21238.326171875,11689.6630859375,-0.0,-44063.7265625,19297.599609375,4227.9560546875,0.0,6776.65087890625,0.0,0.0
15139.580078125,15138.78515625,33406.41796875,10921.1611328125,27947.42578125,6496.111328125,7988.6123046875,9119.5107421875,8982.0224609375,5768.14013671875,17211.4375,-951.2901611328125,8670.4892578125,0.0,22563.138671875,6957.84912109375,24604.796875,19650.458984375,9526.412109375,11449.654296875,22915.998046875,29227.734375,22463.798828125,19447.802734375,21093.6875,7108.052734375,28879.642578125,577.7677001953125,0.0,1002.1527709960938,13684.431640625,6663.79931640625,25695.166015625,16029.6767578125,14975.865234375,24639.765625,9313.423828125,13976.8916015625,8653.7998046875,3840.128662109375,22606.0546875,9251.435546875,16833.146484375,11490.9814453125,8772.2138671875,12080.6689453125,11596.6796875,1861.25439453125,10126.431640625,3216.2666015625,16547.044921875,6168.68359375,7776.4189453125,1818.3389892578125,11092.0263671875,4642.009765625,23611.38671875,4147.6884765625,17820.994140625,3126.462158203125,9366.671875,26197.43359375,21251.8359375,11707.146484375,-0.0,-44052.6015625,19311.109375,4240.671875,0.0,6791.75048828125,0.0,0.0
15158.6533203125,15148.322265625,33401.6484375,10926.7236328125,27941.068359375,6503.26416015625,7986.22802734375,9124.279296875,8978.048828125,5771.31884765625,17223.357421875,-940.9586791992188,8660.9521484375,0.0,22559.9609375,6967.3857421875,24607.9765625,19651.25390625,9527.2060546875,11448.0654296875,22915.998046875,29231.70703125,22462.208984375,19450.982421875,21083.35546875,7119.9736328125,28868.517578125,584.9202270507812,0.0,1015.6631469726562,13686.81640625,6666.18359375,25695.958984375,16032.060546875,14973.4814453125,24644.533203125,9314.2197265625,13980.0712890625,8638.69921875,3835.3603515625,22602.08203125,9256.9990234375,16828.37890625,11498.927734375,8770.625,12082.2587890625,11584.7587890625,1863.6385498046875,10104.9736328125,3227.392822265625,16541.48046875,6175.8359375,7799.466796875,1838.207275390625,11075.337890625,4644.39404296875,23607.412109375,4158.81494140625,17819.404296875,3133.61474609375,9375.4130859375,26197.43359375,21251.8359375,11703.173828125,-0.0,-44043.0625,19300.779296875,4245.43994140625,0.0,6797.3134765625,0.0,0.0
15169.779296875,15124.48046875,33388.9296875,10904.4716796875,27924.37890625,6493.72705078125,7978.2802734375,9115.537109375,8973.28125,5765.75634765625,17216.205078125,-945.72705078125,8645.0576171875,0.0,22550.423828125,6960.2333984375,24595.259765625,19639.333984375,9518.4638671875,11444.091796875,22902.48828125,29218.9921875,22450.2890625,19437.470703125,21072.228515625,7112.8212890625,28851.033203125,578.5624389648438,0.0,1010.894775390625,13674.099609375,6654.2626953125,25684.0390625,16018.548828125,14959.17578125,24633.408203125,9304.6826171875,13970.5341796875,8637.9052734375,3827.412841796875,22583.802734375,9245.8720703125,16817.251953125,11488.5966796875,8763.47265625,12075.1064453125,11570.4541015625,1840.5914306640625,10090.6689453125,3218.65087890625,16532.740234375,6166.29931640625,7832.8447265625,1842.9755859375,11080.10546875,4621.34716796875,23598.671875,4153.25146484375,17809.8671875,3127.257080078125,9354.7509765625,26187.1015625,21245.48046875,11703.173828125,-0.0,-44049.421875,19302.3671875,4250.20849609375,0.0,6798.90283203125,0.0,0.0
15179.31640625,15123.6845703125,33392.11328125,10896.5234375,27931.53125,6495.31689453125,7989.40673828125,9121.89453125,8986.791015625,5778.4716796875,17233.689453125,-940.1639404296875,8641.87890625,0.0,22563.138671875,6967.3857421875,24599.234375,19644.896484375,9527.2060546875,11458.396484375,22907.2578125,29222.169921875,22458.234375,19443.830078125,21065.076171875,7112.0263671875,28863.748046875,584.12548828125,0.0,1008.5106201171875,13678.8681640625,6657.44140625,25686.421875,16020.1396484375,14963.150390625,24636.587890625,9310.2451171875,13978.4814453125,8672.078125,3835.3603515625,22585.392578125,9246.6669921875,16828.37890625,11490.9814453125,8773.8037109375,12083.0537109375,11583.1689453125,1848.5386962890625,10093.8486328125,3218.65087890625,16544.66015625,6172.6572265625,7856.6865234375,1849.3333740234375,11096.0009765625,4619.75732421875,23608.20703125,4162.78857421875,17824.96875,3136.7939453125,9356.33984375,26194.25390625,21256.60546875,11725.42578125,-0.0,-44041.47265625,19323.03125,4267.6923828125,0.0,6818.771484375,0.0,0.0
15196.7998046875,15132.4267578125,33395.2890625,10906.060546875,27941.861328125,6494.52197265625,7991.791015625,9121.1005859375,8982.8173828125,5778.4716796875,17247.99609375,-940.9586791992188,8640.2890625,0.0,22560.75390625,6963.41162109375,24600.82421875,19644.896484375,9525.6162109375,11452.833984375,22911.23046875,29225.349609375,22462.208984375,19443.03515625,21077.791015625,7112.0263671875,28877.2578125,582.5360717773438,0.0,1004.5369873046875,13680.4580078125,6661.4150390625,25689.6015625,16024.908203125,14968.712890625,24637.380859375,9311.0400390625,13976.8916015625,8661.7470703125,3836.155029296875,22593.33984375,9252.23046875,16837.119140625,11489.3916015625,8775.3935546875,12082.2587890625,11591.1171875,1864.433349609375,10095.4375,3214.677001953125,16547.044921875,6171.8623046875,7847.9453125,1850.128173828125,11099.1796875,4630.8837890625,23610.591796875,4160.404296875,17820.19921875,3134.40966796875,9368.2607421875,26194.25390625,21255.015625,11715.0947265625,-0.0,-44042.26953125,19317.46875,4262.92431640625,0.0,6825.923828125,0.0,0.0
15193.6220703125,15126.8642578125,33380.984375,10896.5234375,27929.94140625,6482.60107421875,7982.25390625,9111.5634765625,8978.84375,5769.7294921875,17232.89453125,-955.2637939453125,8637.1103515625,0.0,22554.3984375,6952.28564453125,24588.904296875,19632.974609375,9513.6953125,11444.8857421875,22898.515625,29214.224609375,22450.2890625,19429.525390625,21078.5859375,7096.1318359375,28874.078125,568.23095703125,0.0,995.794921875,13668.537109375,6651.08349609375,25675.296875,16010.6025390625,14956.7919921875,24626.255859375,9300.708984375,13965.765625,8630.7529296875,3827.412841796875,22583.802734375,9240.3095703125,16825.994140625,11477.470703125,8765.8564453125,12071.9267578125,11579.990234375,1849.3333740234375,10093.8486328125,3200.3720703125,16539.09765625,6163.1201171875,7824.103515625,1835.0283203125,11083.28515625,4628.49951171875,23607.412109375,4150.86767578125,17809.8671875,3126.462158203125,9365.8759765625,26182.33203125,21243.095703125,11706.3525390625,-0.0,-44055.77734375,19305.546875,4254.18212890625,0.0,6819.56640625,0.0,0.0
15184.87890625,15137.1953125,33388.13671875,10904.4716796875,27933.916015625,6485.7802734375,7990.201171875,9114.7421875,8984.40625,5774.498046875,17233.689453125,-939.3692016601562,8649.03125,0.0,22560.75390625,6960.2333984375,24597.64453125,19641.71875,9519.259765625,11450.4501953125,22904.873046875,29222.169921875,22458.234375,19437.470703125,21076.998046875,7096.92626953125,28882.822265625,572.9993286132812,0.0,1004.5369873046875,13677.279296875,6657.44140625,25683.244140625,16017.755859375,14962.35546875,24634.203125,9307.861328125,13971.3291015625,8640.2890625,3832.18115234375,22586.1875,9242.6943359375,16828.37890625,11482.23828125,8773.009765625,12076.6953125,11579.1962890625,1854.896484375,10106.5634765625,3203.551025390625,16546.25,6169.47802734375,7837.61328125,1841.38623046875,11076.1328125,4638.0361328125,23610.591796875,4158.02001953125,17816.224609375,3135.9990234375,9373.0283203125,26188.69140625,21249.453125,11712.7099609375,-0.0,-44039.08984375,19306.341796875,4256.56640625,0.0,6820.36083984375,0.0,0.0
15191.2373046875,15122.890625,33396.08203125,10907.650390625,27929.94140625,6480.216796875,7982.25390625,9106.0,8978.84375,5760.19287109375,17243.2265625,-944.9323120117188,8655.388671875,0.0,22551.21875,6949.10693359375,24595.259765625,19641.71875,9513.6953125,11436.939453125,22906.4609375,29218.9921875,22457.44140625,19431.91015625,21078.5859375,7088.1845703125,28873.28515625,566.6414794921875,0.0,1000.5632934570312,13675.689453125,6656.646484375,25686.421875,16018.548828125,14962.35546875,24631.0234375,9300.708984375,13963.3818359375,8648.236328125,3829.00244140625,22588.572265625,9237.92578125,16822.814453125,11478.2646484375,8766.6513671875,12067.9541015625,11591.9111328125,1856.4859619140625,10100.205078125,3194.80908203125,16540.685546875,6159.14697265625,7855.89208984375,1838.207275390625,11086.4638671875,4630.8837890625,23594.697265625,4146.89404296875,17807.484375,3121.69384765625,9365.8759765625,26185.51171875,21240.7109375,11704.7626953125,-0.0,-44049.421875,19300.779296875,4242.26123046875,0.0,6805.26123046875,0.0,0.0
15219.052734375,15137.990234375,33411.98046875,10934.6708984375,27948.220703125,6502.4697265625,8000.533203125,9125.0732421875,9000.3017578125,5773.703125,17259.12109375,-930.627197265625,8660.9521484375,0.0,22567.11328125,6966.5908203125,24617.513671875,19663.17578125,9533.564453125,11456.8076171875,22927.125,29240.44921875,22475.71875,19450.982421875,21089.712890625,7110.43701171875,28878.052734375,586.5097045898438,0.0,1025.199951171875,13697.94140625,6678.8994140625,25704.703125,16040.8017578125,14983.8134765625,24651.685546875,9317.3984375,13983.25,8672.873046875,3848.075927734375,22608.439453125,9257.79296875,16839.50390625,11498.1337890625,8785.724609375,12085.4375,11614.958984375,1884.301513671875,10112.1259765625,3218.65087890625,16556.58203125,6177.42529296875,7875.76025390625,1858.8701171875,11098.384765625,4645.18896484375,23605.02734375,4166.76171875,17825.76171875,3135.204345703125,9384.1552734375,26205.380859375,21258.1953125,11731.7841796875,-0.0,-44029.55078125,19307.13671875,4265.30859375,0.0,6816.38720703125,0.0,0.0
15194.416015625,15141.9638671875,33416.75,10931.4921875,27956.962890625,6504.05859375,8008.47998046875,9125.0732421875,9004.275390625,5774.498046875,17263.888671875,-929.0377197265625,8662.541015625,0.0,22576.650390625,6967.3857421875,24622.28125,19666.353515625,9537.537109375,11459.986328125,22932.6875,29243.626953125,22483.66796875,19454.95703125,21092.892578125,7115.205078125,28889.974609375,585.7149658203125,0.0,1025.99462890625,13702.7099609375,6681.28369140625,25711.85546875,16043.1865234375,14990.1708984375,24656.453125,9326.140625,13985.6337890625,8663.3369140625,3849.665283203125,22613.20703125,9257.79296875,16852.220703125,11498.927734375,8791.287109375,12086.232421875,11613.369140625,1881.12255859375,10120.869140625,3220.240234375,16567.70703125,6177.42529296875,7864.63427734375,1854.101806640625,11110.3056640625,4643.59912109375,23623.30859375,4167.556640625,17835.298828125,3132.820068359375,9386.5390625,26210.150390625,21262.16796875,11729.3994140625,-0.0,-44027.16796875,19312.701171875,4264.513671875,0.0,6808.43994140625,0.0,0.0
15170.57421875,15137.990234375,33398.46875,10911.6240234375,27935.505859375,6487.36962890625,7988.6123046875,9111.5634765625,8987.5859375,5764.16650390625,17249.583984375,-941.75341796875,8660.9521484375,0.0,22561.55078125,6952.28564453125,24609.56640625,19654.431640625,9521.6435546875,11447.2705078125,22915.998046875,29228.529296875,22465.38671875,19438.267578125,21078.5859375,7104.07861328125,28866.92578125,571.4098510742188,0.0,1009.3053588867188,13688.4052734375,6670.95166015625,25697.55078125,16025.701171875,14971.892578125,24641.35546875,9309.451171875,13970.5341796875,8651.416015625,3844.10205078125,22595.724609375,9247.4619140625,16828.37890625,11483.033203125,8769.830078125,12071.1328125,11593.5009765625,1866.022705078125,10118.484375,3202.756103515625,16547.044921875,6161.53076171875,7847.9453125,1838.207275390625,11091.232421875,4628.49951171875,23621.716796875,4153.25146484375,17818.609375,3123.283447265625,9371.439453125,26195.048828125,21248.658203125,11715.0947265625,-0.0,-44045.44921875,19302.3671875,4252.5927734375,0.0,6809.234375,0.0,0.0
15215.0791015625,15160.2431640625,33421.515625,10937.849609375,27955.373046875,6513.595703125,8000.533203125,9133.021484375,9000.3017578125,5784.03466796875,17263.888671875,-915.52734375,8672.873046875,0.0,22571.0859375,6972.94873046875,24632.611328125,19675.890625,9541.51171875,11464.7548828125,22940.634765625,29253.958984375,22480.48828125,19462.109375,21103.224609375,7131.89453125,28885.20703125,595.251708984375,0.0,1031.5577392578125,13710.658203125,6693.20458984375,25717.416015625,16050.3388671875,14993.349609375,24665.197265625,9326.140625,13990.40234375,8671.2841796875,3863.175537109375,22617.181640625,9277.6611328125,16840.298828125,11505.2861328125,8784.134765625,12091.7958984375,11603.83203125,1890.6593017578125,10130.4052734375,3231.366455078125,16556.58203125,6182.98876953125,7851.1240234375,1861.25439453125,11117.4580078125,4654.7255859375,23612.9765625,4172.3251953125,17831.326171875,3143.9462890625,9391.3076171875,26217.302734375,21266.9375,11731.7841796875,-0.0,-44022.3984375,19318.26171875,4269.28173828125,0.0,6829.8974609375,0.0,0.0
15214.2841796875,15153.0908203125,33420.72265625,10933.8759765625,27950.60546875,6510.41650390625,8001.32763671875,9128.2529296875,8993.1484375,5780.06103515625,17259.12109375,-924.2693481445312,8660.1572265625,0.0,22566.318359375,6970.564453125,24627.05078125,19670.328125,9536.7431640625,11459.986328125,22935.8671875,29250.779296875,22474.923828125,19458.134765625,21092.095703125,7124.7421875,28878.052734375,591.278076171875,0.0,1021.2262573242188,13706.6845703125,6687.64111328125,25711.05859375,16047.1591796875,14987.7861328125,24661.22265625,9324.55078125,13988.017578125,8680.8203125,3853.638916015625,22612.4140625,9272.0986328125,16837.916015625,11500.517578125,8781.7509765625,12088.6162109375,11587.142578125,1882.7120361328125,10114.5107421875,3230.57177734375,16559.759765625,6179.8095703125,7823.30810546875,1852.5123291015625,11108.7158203125,4650.75146484375,23595.4921875,4165.17236328125,17828.146484375,3139.97265625,9384.94921875,26214.91796875,21262.16796875,11723.0419921875,-0.0,-44035.1171875,19320.646484375,4258.95068359375,0.0,6833.07666015625,0.0,0.0
15200.7744140625,15136.4013671875,33409.59375,10922.75,27939.478515625,6497.701171875,7993.38037109375,9116.33203125,8979.6376953125,5768.14013671875,17237.6640625,-940.9586791992188,8650.6201171875,0.0,22559.9609375,6961.822265625,24611.94921875,19657.611328125,9524.822265625,11449.654296875,22920.767578125,29236.474609375,22464.59375,19444.623046875,21080.17578125,7110.43701171875,28862.158203125,578.5624389648438,0.0,1006.1264038085938,13692.37890625,6673.3359375,25696.75390625,16036.033203125,14975.865234375,24647.712890625,9313.423828125,13976.0966796875,8681.615234375,3833.770751953125,22598.90234375,9255.4091796875,16829.171875,11488.5966796875,8772.2138671875,12077.4912109375,11572.04296875,1869.20166015625,10102.58984375,3218.65087890625,16555.78515625,6168.68359375,7812.18212890625,1839.001953125,11080.9013671875,4637.2412109375,23603.439453125,4152.45654296875,17823.376953125,3126.462158203125,9377.0029296875,26201.40625,21251.8359375,11708.736328125,-0.0,-44055.77734375,19316.673828125,4240.671875,0.0,6817.9765625,0.0,0.0
15182.4951171875,15123.6845703125,33389.73046875,10911.6240234375,27929.94140625,6484.9853515625,7974.30712890625,9107.58984375,8966.9228515625,5759.39794921875,17220.177734375,-953.67431640625,8647.44140625,0.0,22545.65625,6949.10693359375,24600.82421875,19645.69140625,9512.1064453125,11440.9130859375,22910.4375,29223.759765625,22452.673828125,19431.91015625,21083.35546875,7093.74755859375,28847.853515625,565.8467407226562,0.0,996.5896606445312,13680.4580078125,6661.4150390625,25685.62890625,16022.5234375,14963.9443359375,24634.203125,9299.119140625,13965.765625,8620.421875,3822.64453125,22588.572265625,9241.8984375,16814.8671875,11475.0859375,8756.3203125,12066.3642578125,11564.890625,1860.459716796875,10099.4111328125,3202.756103515625,16526.380859375,6155.9677734375,7820.923828125,1832.6441650390625,11078.5166015625,4622.1416015625,23610.591796875,4140.53564453125,17805.89453125,3117.720458984375,9364.287109375,26187.896484375,21239.123046875,11704.7626953125,-0.0,-44059.75390625,19310.31640625,4232.724609375,0.0,6801.287109375,0.0,0.0
15177.7265625,15128.453125,33395.2890625,10918.7763671875,27934.708984375,6490.548828125,7973.51171875,9113.15234375,8970.1015625,5771.31884765625,17231.306640625,-944.1375732421875,8655.388671875,0.0,22545.65625,6953.875,24607.9765625,19649.6640625,9517.669921875,11446.4755859375,22915.205078125,29227.734375,22454.26171875,19436.677734375,21092.892578125,7102.4892578125,28848.6484375,572.20458984375,0.0,1006.1264038085938,13686.0205078125,6666.18359375,25693.57421875,16028.880859375,14967.1240234375,24641.35546875,9302.298828125,13971.3291015625,8620.421875,3836.155029296875,22594.1328125,9248.2568359375,16815.662109375,11482.23828125,8757.9091796875,12075.1064453125,11577.6064453125,1870.7911376953125,10108.1533203125,3203.551025390625,16521.611328125,6161.53076171875,7832.8447265625,1835.822998046875,11084.8740234375,4630.0888671875,23615.359375,4146.89404296875,17803.509765625,3128.846435546875,9368.2607421875,26193.4609375,21244.68359375,11711.9150390625,-0.0,-44045.44921875,19308.724609375,4252.5927734375,0.0,6827.51318359375,0.0,0.0
15180.111328125,15115.73828125,33389.73046875,10917.9814453125,27927.556640625,6488.16455078125,7969.53857421875,9107.58984375,8959.7705078125,5764.16650390625,17226.537109375,-948.1112060546875,8648.236328125,0.0,22541.681640625,6948.3125,24604.796875,19644.896484375,9512.9013671875,11436.939453125,22908.052734375,29223.759765625,22447.109375,19432.703125,21077.791015625,7099.310546875,28849.443359375,569.0256958007812,0.0,1002.1527709960938,13681.2529296875,6663.00439453125,25688.806640625,16026.4970703125,14961.560546875,24638.17578125,9295.9404296875,13964.17578125,8641.87890625,3834.5654296875,22583.802734375,9245.8720703125,16810.099609375,11479.8544921875,8753.140625,12067.1591796875,11576.0166015625,1860.459716796875,10101.794921875,3201.166748046875,16521.611328125,6158.35205078125,7816.95068359375,1829.4652099609375,11075.337890625,4626.90966796875,23605.82421875,4145.30419921875,17794.767578125,3120.899169921875,9362.697265625,26185.51171875,21238.326171875,11693.63671875,-0.0,-44051.80859375,19299.189453125,4240.671875,0.0,6816.38720703125,0.0,0.0
15193.6220703125,15126.0693359375,33392.11328125,10920.365234375,27921.19921875,6490.548828125,7970.3330078125,9110.7685546875,8966.1279296875,5769.7294921875,17239.251953125,-941.75341796875,8640.2890625,0.0,22543.271484375,6954.669921875,24605.591796875,19646.486328125,9513.6953125,11441.7080078125,22907.2578125,29226.9375,22445.51953125,19435.8828125,21064.28125,7091.36328125,28844.67578125,572.9993286132812,0.0,1010.1000366210938,13682.841796875,6667.77294921875,25688.013671875,16031.265625,14961.560546875,24638.970703125,9297.5302734375,13967.3544921875,8644.263671875,3836.94970703125,22579.03515625,9249.05078125,16807.71484375,11482.23828125,8757.1142578125,12071.1328125,11579.990234375,1867.6121826171875,10086.6953125,3204.345703125,16523.99609375,6166.29931640625,7812.97705078125,1842.180908203125,11075.337890625,4632.47314453125,23601.849609375,4152.45654296875,17799.53515625,3128.846435546875,9369.0556640625,26187.1015625,21240.7109375,11698.4052734375,-0.0,-44045.44921875,19297.599609375,4239.87744140625,0.0,6825.923828125,0.0,0.0
15209.515625,15156.26953125,33417.54296875,10941.8232421875,27940.2734375,6516.7744140625,7994.96923828125,9141.7626953125,8996.3271484375,5805.4921875,17269.453125,-916.3220825195312,8651.416015625,0.0,22560.75390625,6986.45947265625,24627.84375,19666.353515625,9539.921875,11472.7021484375,22928.71484375,29251.576171875,22468.56640625,19460.51953125,21080.970703125,7130.3046875,28863.748046875,600.0200805664062,0.0,1036.3260498046875,13705.8896484375,6690.025390625,25711.05859375,16054.3115234375,14981.4287109375,24663.607421875,9321.3720703125,13994.3759765625,8655.388671875,3863.970458984375,22600.4921875,9276.072265625,16829.966796875,11506.875,8784.134765625,12104.51171875,11596.6796875,1893.8382568359375,10101.794921875,3230.57177734375,16547.837890625,6198.08837890625,7833.64013671875,1866.022705078125,11098.384765625,4658.69921875,23612.181640625,4179.4775390625,17824.96875,3163.814453125,9394.486328125,26213.328125,21269.322265625,11735.7568359375,-0.0,-44018.4296875,19314.2890625,4270.87158203125,0.0,6872.81298828125,0.0,0.0
15170.57421875,15154.6796875,33406.41796875,10933.8759765625,27937.09375,6513.595703125,7994.96923828125,9139.37890625,8993.1484375,5805.4921875,17263.09375,-923.474609375,8653.7998046875,0.0,22559.166015625,6984.86962890625,24619.1015625,19660.791015625,9535.94921875,11473.49609375,22921.5625,29246.01171875,22463.798828125,19458.134765625,21076.998046875,7124.7421875,28866.92578125,600.8148193359375,0.0,1030.7630615234375,13698.7373046875,6682.078125,25705.49609375,16045.5703125,14978.25,24658.044921875,9318.1923828125,13993.5810546875,8654.5947265625,3850.4599609375,22594.9296875,9271.3037109375,16826.787109375,11502.90234375,8782.5458984375,12102.126953125,11571.248046875,1877.943603515625,10103.384765625,3229.777099609375,16548.6328125,6196.4990234375,7826.4873046875,1852.5123291015625,11096.0009765625,4649.162109375,23609.796875,4176.298828125,17825.76171875,3163.814453125,9381.771484375,26209.353515625,21268.525390625,11734.962890625,-0.0,-44027.16796875,19314.2890625,4281.99755859375,0.0,6875.19677734375,0.0,0.0
15163.421875,15141.169921875,33389.73046875,10917.9814453125,27924.37890625,6494.52197265625,7981.45947265625,9120.3046875,8975.6650390625,5780.06103515625,17250.37890625,-941.75341796875,8654.5947265625,0.0,22555.193359375,6963.41162109375,24603.208984375,19646.486328125,9522.4384765625,11452.833984375,22908.845703125,29230.1171875,22451.876953125,19441.447265625,21069.845703125,7104.87353515625,28863.748046875,582.5360717773438,0.0,1022.0209350585938,13681.2529296875,6666.18359375,25690.396484375,16027.2919921875,14964.740234375,24642.1484375,9304.6826171875,13976.8916015625,8648.236328125,3826.6181640625,22581.419921875,9252.23046875,16815.662109375,11487.8017578125,8768.2412109375,12082.2587890625,11565.685546875,1856.4859619140625,10097.8212890625,3214.677001953125,16540.685546875,6177.42529296875,7823.30810546875,1836.6177978515625,11086.4638671875,4629.2939453125,23606.619140625,4155.6357421875,17814.63671875,3139.97265625,9360.3134765625,26194.25390625,21254.220703125,11708.736328125,-0.0,-44054.19140625,19292.83203125,4247.82421875,0.0,6833.87158203125,0.0,0.0
15174.5478515625,15125.2744140625,33385.75390625,10917.9814453125,27921.99609375,6492.1376953125,7978.2802734375,9116.33203125,8971.69140625,5760.19287109375,17232.099609375,-939.3692016601562,8643.4677734375,0.0,22555.193359375,6959.4384765625,24600.82421875,19644.1015625,9517.669921875,11443.2978515625,22904.078125,29226.14453125,22447.904296875,19436.677734375,21070.638671875,7108.84716796875,28857.388671875,578.5624389648438,0.0,1018.04736328125,13679.6640625,6663.00439453125,25685.62890625,16026.4970703125,14959.9716796875,24639.765625,9300.708984375,13969.7392578125,8639.4951171875,3823.439453125,22579.03515625,9247.4619140625,16812.482421875,11482.23828125,8765.8564453125,12074.3115234375,11574.427734375,1860.459716796875,10091.4638671875,3213.087890625,16537.5078125,6170.27294921875,7832.8447265625,1840.5914306640625,11080.9013671875,4634.0625,23603.439453125,4157.22509765625,17814.63671875,3122.48876953125,9362.697265625,26189.486328125,21250.248046875,11704.7626953125,-0.0,-44048.625,19293.626953125,4237.4931640625,0.0,6801.287109375,0.0,0.0
15178.521484375,15116.5322265625,33375.421875,10908.4443359375,27914.046875,6481.01171875,7970.3330078125,9099.642578125,8958.9755859375,5730.78759765625,17220.177734375,-942.548095703125,8634.7265625,0.0,22550.423828125,6939.56982421875,24593.671875,19633.76953125,9504.1591796875,11427.40234375,22895.3359375,29216.607421875,22436.77734375,19423.166015625,21058.716796875,7104.87353515625,28847.05859375,561.8731079101562,0.0,1000.5632934570312,13671.7158203125,6659.03076171875,25677.681640625,16017.755859375,14949.6396484375,24630.228515625,9291.966796875,13956.2294921875,8643.4677734375,3817.876220703125,22569.498046875,9239.5146484375,16802.9453125,11467.1396484375,8753.935546875,12053.6494140625,11556.1484375,1860.459716796875,10083.5166015625,3197.193115234375,16529.560546875,6151.994140625,7837.61328125,1838.207275390625,11068.98046875,4632.47314453125,23598.671875,4144.509765625,17807.484375,3088.315185546875,9349.982421875,26176.771484375,21235.1484375,11692.841796875,-0.0,-44050.21484375,19308.724609375,4216.82958984375,0.0,6743.2724609375,0.0,0.0
15174.5478515625,15115.73828125,33368.26953125,10898.11328125,27906.099609375,6469.0908203125,7962.38623046875,9092.490234375,8950.2333984375,5736.35107421875,17201.900390625,-950.4954223632812,8636.3154296875,0.0,22543.271484375,6930.033203125,24584.927734375,19625.822265625,9498.595703125,11423.4287109375,22885.798828125,29207.865234375,22430.419921875,19415.220703125,21048.38671875,7095.3369140625,28839.111328125,550.7469482421875,0.0,992.6160278320312,13662.1787109375,6651.08349609375,25667.349609375,16007.423828125,14942.486328125,24619.1015625,9284.8134765625,13949.076171875,8637.9052734375,3794.8291015625,22559.9609375,9229.18359375,16794.205078125,11459.19140625,8747.578125,12052.853515625,11533.896484375,1856.4859619140625,10071.5947265625,3185.272216796875,16521.611328125,6144.046875,7813.771484375,1827.875732421875,11056.263671875,4630.8837890625,23590.72265625,4135.767578125,17803.509765625,3094.673095703125,9346.0078125,26168.02734375,21228.791015625,11684.1005859375,-0.0,-44061.34375,19303.1640625,4223.982421875,0.0,6765.5244140625,0.0,0.0
15179.31640625,15125.2744140625,33374.625,10910.0341796875,27916.431640625,6481.01171875,7973.51171875,9106.0,8959.7705078125,5753.04052734375,17208.2578125,-939.3692016601562,8649.826171875,0.0,22550.423828125,6942.7490234375,24594.46484375,19636.154296875,9508.927734375,11435.349609375,22894.541015625,29217.40234375,22439.162109375,19427.935546875,21061.1015625,7104.87353515625,28848.6484375,562.6678466796875,0.0,1009.3053588867188,13670.9208984375,6657.44140625,25676.884765625,16016.1650390625,14953.61328125,24629.435546875,9295.1455078125,13961.7919921875,8656.1845703125,3813.902587890625,22568.703125,9239.5146484375,16805.330078125,11469.5234375,8757.1142578125,12064.7744140625,11546.611328125,1850.128173828125,10086.6953125,3194.80908203125,16530.35546875,6156.7626953125,7810.5927734375,1831.0546875,11065.005859375,4634.0625,23600.259765625,4146.89404296875,17814.63671875,3114.541259765625,9360.3134765625,26177.564453125,21239.123046875,11695.2255859375,-0.0,-44051.80859375,19302.3671875,4243.8505859375,0.0,6800.49267578125,0.0,0.0
15168.984375,15134.0166015625,33392.11328125,10917.9814453125,27934.708984375,6492.9326171875,7983.04833984375,9114.7421875,8966.9228515625,5758.603515625,17198.720703125,-935.3955688476562,8663.3369140625,0.0,22555.986328125,6951.49072265625,24604.796875,19647.279296875,9519.259765625,11442.501953125,22911.23046875,29229.322265625,22451.08203125,19438.267578125,21082.560546875,7114.41015625,28860.568359375,572.9993286132812,0.0,1014.868408203125,13683.63671875,6665.388671875,25691.19140625,16028.0859375,14967.1240234375,24641.35546875,9304.6826171875,13971.3291015625,8672.873046875,3809.13427734375,22589.365234375,9256.2041015625,16817.251953125,11479.8544921875,8763.47265625,12073.5166015625,11574.427734375,1846.94921875,10105.76953125,3205.935302734375,16538.30078125,6164.70947265625,7824.103515625,1835.822998046875,11099.974609375,4633.26806640625,23607.412109375,4157.22509765625,17816.224609375,3120.1044921875,9369.0556640625,26189.486328125,21247.068359375,11700.7890625,-0.0,-44041.47265625,19312.701171875,4243.8505859375,0.0,6801.287109375,0.0,0.0
15173.7529296875,15133.2216796875,33402.44140625,10922.75,27939.478515625,6484.1904296875,7981.45947265625,9107.58984375,8962.94921875,5747.47705078125,17214.6171875,-944.1375732421875,8649.826171875,0.0,22555.193359375,6941.9541015625,24604.001953125,19646.486328125,9514.4912109375,11436.14453125,22913.615234375,29226.9375,22449.494140625,19431.91015625,21091.302734375,7102.4892578125,28862.158203125,565.8467407226562,0.0,1007.7158203125,13683.63671875,6663.79931640625,25693.57421875,16028.0859375,14967.1240234375,24637.380859375,9303.8876953125,13967.3544921875,8668.8994140625,3795.623779296875,22598.90234375,9247.4619140625,16818.841796875,11474.2919921875,8760.29296875,12065.5703125,11580.78515625,1856.4859619140625,10108.947265625,3199.577392578125,16536.712890625,6155.9677734375,7831.255859375,1831.0546875,11103.1533203125,4622.1416015625,23606.619140625,4156.4306640625,17814.63671875,3106.593994140625,9372.234375,26187.896484375,21243.095703125,11694.431640625,-0.0,-44051.80859375,19317.46875,4224.77734375,0.0,6771.087890625,0.0,0.0
15185.673828125,15141.169921875,33404.828125,10937.0546875,27945.837890625,6492.9326171875,7990.201171875,9114.7421875,8968.5126953125,5753.04052734375,17261.505859375,-929.8324584960938,8645.0576171875,0.0,22562.345703125,6952.28564453125,24611.94921875,19656.0234375,9523.232421875,11444.091796875,22919.177734375,29235.681640625,22458.234375,19440.650390625,21094.48046875,7108.052734375,28872.490234375,573.7940673828125,0.0,1010.1000366210938,13691.5849609375,6671.74658203125,25699.93359375,16036.033203125,14975.0712890625,24646.123046875,9312.6298828125,13973.712890625,8660.1572265625,3847.28125,22599.697265625,9253.8193359375,16826.787109375,11483.828125,8768.2412109375,12072.72265625,11572.04296875,1869.20166015625,10108.1533203125,3208.3193359375,16546.25,6162.3251953125,7827.28173828125,1842.180908203125,11108.7158203125,4633.26806640625,23611.38671875,4151.662109375,17825.76171875,3112.1572265625,9387.333984375,26198.228515625,21251.04296875,11706.3525390625,-0.0,-44042.26953125,19311.109375,4236.6982421875,0.0,6779.82958984375,0.0,0.0
15168.1904296875,15135.60546875,33396.08203125,10922.75,27947.42578125,6491.34326171875,7990.201171875,9113.9482421875,8961.3603515625,5753.8349609375,17244.01953125,-934.600830078125,8640.2890625,0.0,22559.166015625,6951.49072265625,24607.181640625,19651.25390625,9520.8486328125,11441.7080078125,22915.998046875,29231.70703125,22459.029296875,19442.240234375,21080.17578125,7107.2578125,28875.669921875,572.9993286132812,0.0,1002.1527709960938,13687.6103515625,6668.56787109375,25695.166015625,16030.4697265625,14975.865234375,24643.740234375,9311.0400390625,13972.123046875,8632.3427734375,3850.4599609375,22591.75,9252.23046875,16829.171875,11483.033203125,8765.0615234375,12073.5166015625,11576.0166015625,1846.94921875,10092.2587890625,3208.3193359375,16546.25,6158.35205078125,7811.3876953125,1842.180908203125,11091.232421875,4628.49951171875,23601.0546875,4144.509765625,17821.7890625,3113.74658203125,9384.1552734375,26197.43359375,21249.453125,11698.4052734375,-0.0,-44046.2421875,19303.95703125,4235.10888671875,0.0,6784.59765625,0.0,0.0
15172.9580078125,15122.095703125,33395.2890625,10909.240234375,27945.041015625,6487.36962890625,7987.0224609375,9108.3837890625,8955.001953125,5748.27197265625,17231.306640625,-942.548095703125,8633.931640625,0.0,22556.78125,6939.56982421875,24602.4140625,19647.279296875,9516.080078125,11432.1708984375,22913.615234375,29226.14453125,22455.8515625,19437.470703125,21066.666015625,7102.4892578125,28878.052734375,568.23095703125,0.0,996.5896606445312,13682.841796875,6665.388671875,25691.986328125,16025.701171875,14972.6865234375,24638.970703125,9305.4775390625,13966.560546875,8630.7529296875,3837.744384765625,22588.572265625,9247.4619140625,16829.171875,11477.470703125,8761.087890625,12065.5703125,11595.8857421875,1839.796630859375,10074.7744140625,3205.935302734375,16547.044921875,6152.78857421875,7805.029296875,1839.001953125,11077.7216796875,4624.525390625,23592.314453125,4138.9462890625,17817.81640625,3108.18359375,9358.7236328125,26191.869140625,21242.30078125,11684.89453125,-0.0,-44058.9609375,19305.546875,4227.9560546875,0.0,6781.41943359375,0.0,0.0
15167.3955078125,15114.943359375,33392.11328125,10896.5234375,27929.94140625,6479.421875,7981.45947265625,9098.84765625,8953.412109375,5738.7353515625,17232.89453125,-954.4690551757812,8632.3427734375,0.0,22552.013671875,6933.21240234375,24592.876953125,19639.333984375,9508.1328125,11425.0185546875,22903.283203125,29214.224609375,22445.51953125,19429.525390625,21061.896484375,7092.95263671875,28874.078125,562.6678466796875,0.0,987.0529174804688,13674.099609375,6657.44140625,25681.654296875,16014.576171875,14962.35546875,24629.435546875,9298.32421875,13958.61328125,8647.44140625,3824.23388671875,22580.623046875,9233.1572265625,16817.251953125,11470.3173828125,8755.5244140625,12056.8271484375,11594.2958984375,1845.35986328125,10077.1591796875,3201.96142578125,16541.48046875,6144.841796875,7796.28759765625,1823.902099609375,11072.1591796875,4622.1416015625,23595.4921875,4133.38330078125,17808.279296875,3097.85205078125,9330.11328125,26183.12890625,21232.763671875,11680.9208984375,-0.0,-44065.31640625,19310.31640625,4225.572265625,0.0,6779.82958984375,0.0,0.0
15188.853515625,15130.837890625,33405.62109375,10903.67578125,27937.888671875,6487.36962890625,7989.40673828125,9107.58984375,8965.3330078125,5747.47705078125,17262.30078125,-946.521728515625,8648.236328125,0.0,22556.78125,6943.5439453125,24604.001953125,19648.07421875,9517.669921875,11435.349609375,22913.615234375,29225.349609375,22456.646484375,19438.267578125,21086.53515625,7100.10546875,28865.337890625,569.8204345703125,0.0,1006.921142578125,13683.63671875,6670.15673828125,25692.78125,16024.908203125,14971.0966796875,24638.17578125,9305.4775390625,13968.9443359375,8673.66796875,3832.97607421875,22594.1328125,9237.92578125,16824.404296875,11481.4443359375,8765.8564453125,12064.7744140625,11591.1171875,1866.8175048828125,10101.0009765625,3205.935302734375,16547.837890625,6155.9677734375,7839.203125,1831.8494873046875,11084.080078125,4627.70458984375,23607.412109375,4143.71484375,17814.63671875,3107.388671875,9348.392578125,26191.076171875,21242.30078125,11695.2255859375,-0.0,-44051.80859375,19309.521484375,4234.31396484375,0.0,6790.1611328125,0.0,0.0
15196.7998046875,15139.580078125,33399.265625,10910.0341796875,27935.505859375,6494.52197265625,7982.25390625,9113.15234375,8970.1015625,5755.42431640625,17260.708984375,-942.548095703125,8655.388671875,0.0,22558.37109375,6950.6962890625,24605.591796875,19650.458984375,9519.259765625,11437.7333984375,22915.205078125,29228.529296875,22458.234375,19439.85546875,21089.712890625,7106.462890625,28855.005859375,575.3834838867188,0.0,1016.4578857421875,13686.0205078125,6671.74658203125,25693.57421875,16029.6767578125,14971.0966796875,24642.1484375,9303.0927734375,13972.123046875,8655.388671875,3828.207763671875,22593.33984375,9244.283203125,16815.662109375,11485.4169921875,8767.4453125,12070.337890625,11584.7587890625,1878.7384033203125,10124.8427734375,3211.498291015625,16537.5078125,6163.1201171875,7859.07080078125,1840.5914306640625,11094.4111328125,4630.8837890625,23617.744140625,4152.45654296875,17813.841796875,3116.130859375,9367.4658203125,26193.4609375,21243.890625,11703.9677734375,-0.0,-44045.44921875,19303.1640625,4243.8505859375,0.0,6802.876953125,0.0,0.0
15199.978515625,15146.732421875,33403.23828125,10910.0341796875,27945.837890625,6499.29052734375,7990.201171875,9116.33203125,8986.791015625,5762.5771484375,17248.7890625,-933.8060913085938,8668.8994140625,0.0,22568.703125,6955.46484375,24607.181640625,19657.611328125,9526.412109375,11448.0654296875,22920.767578125,29232.501953125,22466.978515625,19444.623046875,21094.48046875,7111.2314453125,28877.2578125,580.9465942382812,0.0,1018.8421020507812,13691.5849609375,6672.541015625,25698.34375,16035.23828125,14979.044921875,24647.712890625,9311.0400390625,13977.6865234375,8656.1845703125,3848.075927734375,22601.28515625,9247.4619140625,16826.787109375,11490.185546875,8776.982421875,12076.6953125,11586.3486328125,1885.09619140625,10137.5576171875,3213.88232421875,16548.6328125,6168.68359375,7862.25048828125,1848.5386962890625,11095.2060546875,4634.0625,23626.486328125,4158.81494140625,17824.173828125,3124.078125,9377.796875,26198.228515625,21250.248046875,11721.4521484375,-0.0,-44035.1171875,19308.724609375,4248.619140625,0.0,6811.61865234375,0.0,0.0
15193.6220703125,15133.2216796875,33394.49609375,10898.11328125,27937.888671875,6486.57470703125,7986.22802734375,9105.205078125,8979.6376953125,5749.06689453125,17241.63671875,-944.1375732421875,8660.9521484375,0.0,22564.73046875,6941.15966796875,24596.849609375,19648.07421875,9515.28515625,11435.349609375,22909.640625,29220.58203125,22458.234375,19433.498046875,21082.560546875,7095.3369140625,28876.462890625,566.6414794921875,0.0,1004.5369873046875,13682.0478515625,6660.6201171875,25688.013671875,16023.3173828125,14970.302734375,24636.587890625,9302.298828125,13965.765625,8650.6201171875,3837.744384765625,22591.75,9237.92578125,16822.814453125,11477.470703125,8769.03515625,12064.7744140625,11575.2216796875,1866.022705078125,10122.4580078125,3193.219482421875,16546.25,6155.1728515625,7844.765625,1837.4124755859375,11094.4111328125,4625.3203125,23619.333984375,4146.09912109375,17818.609375,3112.1572265625,9361.9033203125,26187.896484375,21239.123046875,11706.3525390625,-0.0,-44043.859375,19307.931640625,4233.51904296875,0.0,6799.69775390625,0.0,0.0
15192.0322265625,15122.890625,33384.1640625,10890.9609375,27921.19921875,6478.62744140625,7971.12744140625,9095.6689453125,8966.9228515625,5738.7353515625,17241.63671875,-950.4954223632812,8660.9521484375,0.0,22547.244140625,6929.23876953125,24591.287109375,19634.564453125,9504.1591796875,11419.455078125,22899.30859375,29211.83984375,22447.904296875,19423.166015625,21068.25390625,7089.7734375,28848.6484375,557.8994750976562,0.0,998.973876953125,13673.3056640625,6655.85205078125,25678.4765625,16015.37109375,14957.5869140625,24627.05078125,9287.1982421875,13954.6396484375,8647.44140625,3817.876220703125,22578.240234375,9236.3359375,16804.537109375,11467.1396484375,8756.3203125,12051.2646484375,11572.04296875,1842.9755859375,10094.642578125,3185.272216796875,16530.35546875,6143.251953125,7831.255859375,1834.233642578125,11096.0009765625,4620.55224609375,23607.412109375,4134.97314453125,17802.71484375,3100.236083984375,9353.1611328125,26178.359375,21226.40625,11684.89453125,-0.0,-44053.39453125,19302.3671875,4223.18798828125,0.0,6788.57177734375,0.0,0.0
15196.7998046875,15119.7119140625,33369.859375,10894.1396484375,27910.07421875,6475.44873046875,7963.1806640625,9090.900390625,8966.1279296875,5737.9404296875,17224.947265625,-952.0848388671875,8655.388671875,0.0,22536.912109375,6928.44384765625,24584.134765625,19626.6171875,9498.595703125,11421.0439453125,22891.36328125,29207.865234375,22440.751953125,19417.603515625,21058.716796875,7087.3896484375,28833.546875,555.5152587890625,0.0,998.973876953125,13665.3583984375,6651.87841796875,25667.349609375,16011.396484375,14948.8447265625,24622.28125,9280.8408203125,13950.6650390625,8661.7470703125,3805.955078125,22565.5234375,9229.9775390625,16795.79296875,11466.34375,8751.5517578125,12048.880859375,11555.3544921875,1839.001953125,10081.1318359375,3185.272216796875,16520.818359375,6140.0732421875,7827.28173828125,1831.8494873046875,11076.1328125,4616.57861328125,23588.337890625,4127.8203125,17796.357421875,3097.057373046875,9360.3134765625,26171.20703125,21223.2265625,11689.6630859375,-0.0,-44060.546875,19296.8046875,4216.82958984375,0.0,6789.3662109375,0.0,0.0
15166.6005859375,15105.4072265625,33357.14453125,10879.833984375,27901.330078125,6466.70654296875,7960.001953125,9085.337890625,8959.7705078125,5731.58251953125,17197.1328125,-963.2110595703125,8630.7529296875,0.0,22538.50390625,6922.880859375,24569.830078125,19616.28515625,9490.6494140625,11413.8916015625,22878.646484375,29197.53515625,22430.419921875,19408.861328125,21047.591796875,7078.6474609375,28844.67578125,549.157470703125,0.0,990.2318725585938,13651.84765625,6632.009765625,25653.83984375,15997.88671875,14937.71875,24611.94921875,9276.072265625,13944.30859375,8604.5263671875,3808.33935546875,22553.6015625,9220.4404296875,16790.232421875,11457.6025390625,8747.578125,12042.5224609375,11541.84375,1836.6177978515625,10072.390625,3179.709228515625,16523.99609375,6134.51025390625,7805.029296875,1816.74951171875,11058.6484375,4603.86279296875,23566.880859375,4123.8466796875,17793.177734375,3092.2890625,9347.59765625,26160.08203125,21216.869140625,11680.9208984375,-0.0,-44071.67578125,19282.5,4206.49853515625,0.0,6784.59765625,0.0,0.0
15157.0634765625,15119.7119140625,33373.83203125,10890.9609375,27915.63671875,6484.1904296875,7981.45947265625,9101.2314453125,8978.84375,5747.47705078125,17212.232421875,-948.1112060546875,8624.39453125,0.0,22561.55078125,6939.56982421875,24584.134765625,19631.38671875,9508.1328125,11430.5810546875,22892.15625,29212.6328125,22447.109375,19424.7578125,21058.716796875,7094.5419921875,28865.337890625,563.4625854492188,0.0,1010.1000366210938,13666.1533203125,6640.75244140625,25671.32421875,16010.6025390625,14951.2294921875,24627.84375,9293.556640625,13959.408203125,8607.705078125,3829.00244140625,22570.291015625,9237.92578125,16809.3046875,11475.0859375,8765.8564453125,12060.8017578125,11562.5068359375,1842.9755859375,10088.2841796875,3200.3720703125,16551.8125,6152.78857421875,7823.30810546875,1832.6441650390625,11061.0322265625,4618.16796875,23586.75,4142.12548828125,17819.404296875,3112.951904296875,9353.1611328125,26175.9765625,21234.353515625,11699.994140625,-0.0,-44059.75390625,19285.6796875,4229.54541015625,0.0,6799.69775390625,0.0,0.0
15156.26953125,15143.5537109375,33404.03515625,10916.392578125,27942.658203125,6507.23779296875,8010.06982421875,9122.689453125,9005.8642578125,5770.5244140625,17245.611328125,-923.474609375,8641.083984375,0.0,22585.392578125,6958.6435546875,24610.361328125,19656.0234375,9532.76953125,11457.6025390625,22918.3828125,29237.26953125,22471.74609375,19451.77734375,21080.970703125,7119.9736328125,28886.794921875,585.7149658203125,0.0,1026.789306640625,13693.173828125,6668.56787109375,25698.34375,16036.8291015625,14975.865234375,24650.892578125,9320.5771484375,13983.25,8648.236328125,3855.228515625,22597.3125,9264.1513671875,16835.53125,11497.337890625,8792.876953125,12083.84765625,11590.3212890625,1857.28076171875,10113.7158203125,3221.034912109375,16576.44921875,6175.041015625,7843.97119140625,1851.7176513671875,11080.9013671875,4647.57275390625,23627.28125,4162.78857421875,17848.015625,3130.43603515625,9374.6181640625,26201.40625,21260.580078125,11725.42578125,-0.0,-44035.1171875,19319.853515625,4250.20849609375,0.0,6817.9765625,0.0,0.0
15179.31640625,15147.5263671875,33409.59375,10922.75,27939.478515625,6511.21142578125,8001.32763671875,9125.869140625,9011.427734375,5772.11376953125,17251.96875,-930.627197265625,8663.3369140625,0.0,22571.8828125,6965.00146484375,24614.333984375,19659.201171875,9532.76953125,11460.78125,22919.97265625,29239.654296875,22470.951171875,19450.982421875,21077.791015625,7123.947265625,28882.822265625,590.4833374023438,0.0,1017.2525634765625,13693.96875,6673.3359375,25699.93359375,16041.59765625,14975.0712890625,24654.865234375,9317.3984375,13985.6337890625,8660.1572265625,3864.76513671875,22596.517578125,9266.5361328125,16829.171875,11500.517578125,8791.287109375,12085.4375,11595.8857421875,1869.9964599609375,10114.5107421875,3223.419189453125,16554.197265625,6179.0146484375,7827.28173828125,1857.28076171875,11088.0537109375,4649.162109375,23634.43359375,4166.76171875,17834.505859375,3130.43603515625,9377.796875,26202.998046875,21262.96484375,11731.7841796875,-0.0,-44033.52734375,19331.7734375,4248.619140625,0.0,6821.15576171875,0.0,0.0
15208.720703125,15152.294921875,33408.80078125,10931.4921875,27939.478515625,6515.18505859375,8001.32763671875,9130.63671875,9019.375,5775.29296875,17252.763671875,-928.2429809570312,8670.4892578125,0.0,22571.8828125,6967.3857421875,24619.1015625,19658.40625,9535.1533203125,11465.5498046875,22919.97265625,29242.0390625,22473.3359375,19451.77734375,21076.203125,7129.51025390625,28882.02734375,595.251708984375,0.0,1033.94189453125,13697.1474609375,6678.1044921875,25702.318359375,16043.1865234375,14976.6611328125,24658.837890625,9317.3984375,13988.8125,8676.0517578125,3869.533447265625,22595.724609375,9268.919921875,16829.171875,11502.90234375,8797.6455078125,12089.412109375,11588.732421875,1897.01708984375,10114.5107421875,3229.777099609375,16555.78515625,6182.98876953125,7821.71923828125,1869.9964599609375,11092.822265625,4651.54638671875,23628.869140625,4171.5302734375,17832.12109375,3132.820068359375,9381.771484375,26205.380859375,21265.34765625,11739.73046875,-0.0,-44031.9375,19329.388671875,4253.3876953125,0.0,6821.15576171875,0.0,0.0
15203.158203125,15150.7060546875,33410.390625,10938.64453125,27943.453125,6522.33740234375,8006.89013671875,9137.7900390625,9032.8857421875,5785.6240234375,17250.37890625,-915.52734375,8671.2841796875,0.0,22575.060546875,6973.74365234375,24624.666015625,19664.763671875,9541.51171875,11474.2919921875,22925.53515625,29249.986328125,22478.8984375,19458.9296875,21084.943359375,7139.841796875,28873.28515625,601.6095581054688,0.0,1048.2469482421875,13702.7099609375,6684.4619140625,25708.67578125,16051.1337890625,14981.4287109375,24663.607421875,9322.166015625,13995.1708984375,8688.767578125,3867.1494140625,22601.28515625,9276.072265625,16831.556640625,11510.0546875,8805.5927734375,12096.564453125,11584.7587890625,1911.322265625,10113.7158203125,3238.51904296875,16563.734375,6189.34619140625,7835.22900390625,1876.354248046875,11104.7431640625,4660.28857421875,23624.1015625,4177.88818359375,17839.2734375,3145.53564453125,9387.333984375,26209.353515625,21272.501953125,11752.4462890625,-0.0,-44020.015625,19327.005859375,4273.255859375,0.0,6843.408203125,0.0,0.0
15201.568359375,15153.884765625,33401.6484375,10936.259765625,27940.2734375,6519.953125,8004.50634765625,9134.6103515625,9029.7060546875,5786.4189453125,17225.7421875,-911.5537109375,8667.3095703125,0.0,22572.67578125,6972.154296875,24619.8984375,19661.583984375,9537.537109375,11471.9072265625,22923.150390625,29247.6015625,22476.515625,19455.751953125,21084.150390625,7138.25244140625,28870.10546875,598.4306640625,0.0,1046.6575927734375,13698.7373046875,6684.4619140625,25700.7265625,16047.9541015625,14978.25,24661.22265625,9320.5771484375,13991.1962890625,8664.130859375,3859.2021484375,22600.4921875,9272.892578125,16828.37890625,11507.669921875,8801.619140625,12093.384765625,11564.095703125,1908.1434326171875,10108.1533203125,3235.340087890625,16560.5546875,6186.9619140625,7826.4873046875,1866.022705078125,11096.794921875,4653.1357421875,23619.333984375,4175.50439453125,17838.478515625,3146.33056640625,9388.12890625,26205.380859375,21268.525390625,11748.4736328125,-0.0,-44016.04296875,19324.62109375,4276.4345703125,0.0,6852.94482421875,0.0,0.0
15223.0263671875,15154.6796875,33398.46875,10937.0546875,27936.30078125,6516.7744140625,7999.73779296875,9127.4580078125,9021.7587890625,5779.2666015625,17220.974609375,-913.1431884765625,8662.541015625,0.0,22567.11328125,6966.5908203125,24618.306640625,19659.201171875,9533.564453125,11465.5498046875,22918.3828125,29241.244140625,22470.951171875,19450.982421875,21084.943359375,7135.8681640625,28865.337890625,596.8411865234375,0.0,1041.094482421875,13696.3525390625,6686.0517578125,25699.93359375,16047.9541015625,14974.2763671875,24655.66015625,9314.2197265625,13986.4287109375,8651.416015625,3858.4072265625,22593.33984375,9270.5087890625,16824.404296875,11503.6962890625,8793.671875,12085.4375,11570.4541015625,1900.9908447265625,10104.9736328125,3234.54541015625,16554.990234375,6180.6044921875,7837.61328125,1858.075439453125,11103.1533203125,4657.904296875,23615.359375,4169.14599609375,17831.326171875,3134.40966796875,9388.12890625,26200.61328125,21262.16796875,11740.525390625,-0.0,-44019.22265625,19319.853515625,4260.5400390625,0.0,6839.43408203125,0.0,0.0
15218.2578125,15157.8583984375,33408.00390625,10933.8759765625,27945.041015625,6519.15869140625,8000.533203125,9126.6630859375,9017.78515625,5769.7294921875,17224.947265625,-909.9642333984375,8674.4619140625,0.0,22567.11328125,6965.00146484375,24623.87109375,19663.96875,9532.76953125,11458.396484375,22925.53515625,29245.21875,22474.130859375,19451.77734375,21100.044921875,7133.48388671875,28870.10546875,593.6622314453125,0.0,1037.91552734375,13700.326171875,6690.025390625,25707.0859375,16048.75,14979.044921875,24660.4296875,9315.80859375,13985.6337890625,8660.9521484375,3859.996826171875,22602.876953125,9270.5087890625,16825.994140625,11503.6962890625,8792.876953125,12082.2587890625,11596.6796875,1892.248779296875,10116.1005859375,3237.724365234375,16555.78515625,6178.22021484375,7856.6865234375,1862.8438720703125,11107.921875,4657.904296875,23620.12890625,4165.96728515625,17828.146484375,3128.846435546875,9374.6181640625,26203.791015625,21259.78515625,11727.8095703125,-0.0,-44020.8125,19313.494140625,4254.18212890625,0.0,6819.56640625,0.0,0.0
15196.005859375,15150.7060546875,33400.8515625,10921.955078125,27937.888671875,6522.33740234375,7994.1748046875,9122.689453125,9009.837890625,5760.19287109375,17222.5625,-920.2957153320312,8664.92578125,0.0,22562.345703125,6960.2333984375,24619.1015625,19660.791015625,9524.822265625,11451.244140625,22917.58984375,29245.21875,22469.361328125,19447.802734375,21084.943359375,7134.27880859375,28864.54296875,592.8675537109375,0.0,1025.199951171875,13696.3525390625,6684.4619140625,25699.93359375,16044.775390625,14974.2763671875,24658.044921875,9309.451171875,13980.0712890625,8660.9521484375,3854.433837890625,22592.544921875,9273.6884765625,16820.431640625,11502.1064453125,8786.51953125,12075.1064453125,11595.08984375,1885.09619140625,10107.3583984375,3240.903076171875,16551.017578125,6175.041015625,7851.91845703125,1859.6649169921875,11096.794921875,4653.1357421875,23612.181640625,4168.3515625,17826.556640625,3123.283447265625,9362.697265625,26200.61328125,21252.6328125,11717.478515625,-0.0,-44024.78515625,19311.109375,4247.82421875,0.0,6810.029296875,0.0,0.0
15177.7265625,15144.34765625,33394.49609375,10912.41796875,27929.1484375,6507.23779296875,7986.22802734375,9113.15234375,9001.8916015625,5754.62939453125,17233.689453125,-937.7797241210938,8649.826171875,0.0,22558.37109375,6951.49072265625,24604.001953125,19650.458984375,9515.28515625,11445.681640625,22908.052734375,29232.501953125,22459.029296875,19439.85546875,21078.5859375,7109.64208984375,28859.7734375,583.330810546875,0.0,1016.4578857421875,13686.0205078125,6670.95166015625,25688.806640625,16031.265625,14964.740234375,24646.123046875,9300.708984375,13970.5341796875,8650.6201171875,3838.5390625,22585.392578125,9260.177734375,16811.689453125,11490.185546875,8776.982421875,12067.9541015625,11580.78515625,1866.8175048828125,10101.794921875,3228.1875,16544.66015625,6165.50439453125,7830.46044921875,1852.5123291015625,11080.10546875,4649.162109375,23606.619140625,4162.78857421875,17821.7890625,3116.130859375,9363.4921875,26190.28125,21244.68359375,11716.68359375,-0.0,-44039.08984375,19313.494140625,4237.4931640625,0.0,6799.69775390625,0.0,0.0
15165.8056640625,15138.78515625,33391.31640625,10904.4716796875,27929.94140625,6492.1376953125,7985.4326171875,9109.9736328125,8996.3271484375,5754.62939453125,17224.947265625,-935.3955688476562,8641.87890625,0.0,22557.576171875,6947.517578125,24597.64453125,19644.896484375,9512.9013671875,11444.8857421875,22904.873046875,29226.14453125,22456.646484375,19434.29296875,21075.40625,7108.84716796875,28862.158203125,572.9993286132812,0.0,1015.6631469726562,13679.6640625,6661.4150390625,25686.421875,16025.701171875,14962.35546875,24641.35546875,9299.119140625,13968.9443359375,8647.44140625,3828.207763671875,22583.802734375,9246.6669921875,16810.099609375,11482.23828125,8773.009765625,12069.54296875,11560.9169921875,1852.5123291015625,10103.384765625,3206.72998046875,16543.865234375,6161.53076171875,7810.5927734375,1848.5386962890625,11076.1328125,4646.7783203125,23608.20703125,4159.609375,17818.609375,3116.925537109375,9371.439453125,26187.1015625,21243.890625,11710.326171875,-0.0,-44041.47265625,19313.494140625,4230.34033203125,0.0,6802.876953125,0.0,0.0
15142.7587890625,15126.8642578125,33382.57421875,10904.4716796875,27924.37890625,6484.1904296875,7981.45947265625,9107.58984375,8989.1748046875,5754.62939453125,17204.28515625,-935.3955688476562,8636.3154296875,0.0,22554.3984375,6942.7490234375,24590.4921875,19637.7421875,9510.517578125,11440.1181640625,22896.92578125,29218.197265625,22449.494140625,19427.935546875,21056.333984375,7103.2841796875,28860.568359375,568.23095703125,0.0,1009.3053588867188,13672.5107421875,6652.67333984375,25676.884765625,16018.548828125,14956.7919921875,24634.99609375,9295.9404296875,13964.970703125,8635.5205078125,3809.13427734375,22574.265625,9240.3095703125,16806.921875,11475.880859375,8767.4453125,12065.5703125,11546.611328125,1850.128173828125,10103.384765625,3194.014404296875,16537.5078125,6156.7626953125,7801.8505859375,1836.6177978515625,11075.337890625,4641.21484375,23605.02734375,4149.2783203125,17813.841796875,3114.541259765625,9367.4658203125,26180.744140625,21240.7109375,11701.583984375,-0.0,-44040.6796875,19307.931640625,4229.54541015625,0.0,6802.876953125,0.0,0.0
15158.6533203125,15121.30078125,33371.44921875,10895.7294921875,27920.404296875,6477.0380859375,7971.9228515625,9099.642578125,8976.4599609375,5743.50341796875,17224.154296875,-947.3164672851562,8631.546875,0.0,22547.244140625,6935.5966796875,24581.75,19629.796875,9502.5703125,11429.787109375,22888.978515625,29210.248046875,22442.341796875,19421.578125,21045.20703125,7103.2841796875,28851.828125,561.078369140625,0.0,1000.5632934570312,13663.7685546875,6643.93115234375,25666.5546875,16009.0126953125,14950.4345703125,24628.638671875,9287.1982421875,13957.0234375,8635.5205078125,3800.39208984375,22565.5234375,9233.951171875,16801.357421875,11468.728515625,8757.1142578125,12056.8271484375,11552.1748046875,1854.101806640625,10086.6953125,3190.835205078125,16529.560546875,6150.404296875,7822.513671875,1827.875732421875,11076.1328125,4627.70458984375,23599.466796875,4136.5625,17805.099609375,3106.593994140625,9357.134765625,26172.001953125,21231.970703125,11688.0732421875,-0.0,-44050.21484375,19300.779296875,4223.18798828125,0.0,6789.3662109375,0.0,0.0
15180.9052734375,15126.0693359375,33377.80859375,10893.3447265625,27929.94140625,6483.39599609375,7974.30712890625,9106.0,8978.048828125,5748.27197265625,17246.404296875,-946.521728515625,8648.236328125,0.0,22552.013671875,6945.13330078125,24584.134765625,19632.974609375,9505.7490234375,11432.96484375,22894.541015625,29212.6328125,22447.904296875,19424.7578125,21060.30859375,7107.2578125,28856.595703125,567.4362182617188,0.0,1002.9474487304688,13666.947265625,6647.10986328125,25671.32421875,16007.423828125,14956.7919921875,24631.818359375,9289.58203125,13961.7919921875,8645.8525390625,3820.26025390625,22574.265625,9233.951171875,16807.71484375,11475.0859375,8759.4990234375,12062.390625,11572.837890625,1864.433349609375,10080.337890625,3200.3720703125,16533.533203125,6157.55712890625,7843.97119140625,1831.0546875,11072.1591796875,4628.49951171875,23599.466796875,4147.6884765625,17809.8671875,3112.951904296875,9358.7236328125,26176.771484375,21235.943359375,11694.431640625,-0.0,-44051.01171875,19305.546875,4231.134765625,0.0,6793.34033203125,0.0,0.0
15196.7998046875,15134.8115234375,33391.31640625,10908.4443359375,27932.326171875,6492.1376953125,7979.0751953125,9113.15234375,8982.0224609375,5757.80859375,17247.99609375,-932.2166748046875,8662.541015625,0.0,22555.986328125,6953.08056640625,24591.287109375,19638.5390625,9512.9013671875,11442.501953125,22902.48828125,29219.78515625,22450.2890625,19432.703125,21072.228515625,7115.205078125,28858.185546875,577.7677001953125,0.0,1013.2789306640625,13674.099609375,6652.67333984375,25676.091796875,16016.9599609375,14963.150390625,24637.380859375,9294.3505859375,13969.7392578125,8648.236328125,3825.823486328125,22584.595703125,9241.8984375,16809.3046875,11483.828125,8764.2666015625,12069.54296875,11585.552734375,1870.7911376953125,10095.4375,3211.498291015625,16535.91796875,6160.736328125,7848.73974609375,1845.35986328125,11089.642578125,4635.65185546875,23607.412109375,4159.609375,17812.251953125,3120.1044921875,9369.8505859375,26183.12890625,21242.30078125,11703.9677734375,-0.0,-44038.296875,19307.931640625,4235.9033203125,0.0,6808.43994140625,0.0,0.0
15186.46875,15134.8115234375,33392.11328125,10911.6240234375,27924.37890625,6488.958984375,7975.89599609375,9113.15234375,8974.8701171875,5755.42431640625,17236.07421875,-934.600830078125,8665.720703125,0.0,22552.80859375,6957.05419921875,24591.287109375,19634.564453125,9510.517578125,11437.7333984375,22900.10546875,29219.78515625,22446.314453125,19432.703125,21069.05078125,7108.84716796875,28858.185546875,576.9729614257812,0.0,1011.6895141601562,13671.7158203125,6650.2890625,25676.091796875,16017.755859375,14957.5869140625,24636.587890625,9292.76171875,13967.3544921875,8629.9580078125,3821.05517578125,22583.802734375,9242.6943359375,16802.15234375,11482.23828125,8758.7041015625,12070.337890625,11580.78515625,1866.022705078125,10108.1533203125,3208.3193359375,16534.328125,6163.1201171875,7830.46044921875,1846.94921875,11116.6640625,4631.67822265625,23606.619140625,4161.19921875,17809.8671875,3120.1044921875,9357.134765625,26183.12890625,21239.916015625,11696.8154296875,-0.0,-44033.52734375,19295.21484375,4244.6455078125,0.0,6815.59228515625,0.0,0.0
15184.87890625,15148.322265625,33400.8515625,10935.4658203125,27941.068359375,6506.44287109375,7994.1748046875,9133.021484375,8997.9169921875,5779.2666015625,17248.7890625,-918.7062377929688,8661.7470703125,0.0,22566.318359375,6976.12744140625,24610.361328125,19651.25390625,9529.5908203125,11461.5751953125,22915.998046875,29239.654296875,22463.00390625,19448.599609375,21084.150390625,7127.92041015625,28871.6953125,596.0464477539062,0.0,1031.5577392578125,13688.4052734375,6668.56787109375,25695.958984375,16037.6220703125,14971.0966796875,24654.865234375,9312.6298828125,13986.4287109375,8659.36328125,3827.412841796875,22595.724609375,9263.3564453125,16822.01953125,11501.3125,8780.9560546875,12090.2060546875,11584.7587890625,1876.354248046875,10114.5107421875,3228.1875,16551.017578125,6182.98876953125,7840.79248046875,1854.101806640625,11116.6640625,4654.7255859375,23611.38671875,4181.06689453125,17831.326171875,3142.35693359375,9370.64453125,26201.40625,21259.78515625,11727.015625,-0.0,-44014.453125,19310.31640625,4270.07666015625,0.0,6841.02392578125,0.0,0.0
15170.57421875,15137.990234375,33386.546875,10917.9814453125,27934.708984375,6499.29052734375,7988.6123046875,9124.279296875,8997.123046875,5771.31884765625,17240.046875,-925.8588256835938,8646.6474609375,0.0,22560.75390625,6964.20654296875,24600.029296875,19638.5390625,9522.4384765625,11458.396484375,22904.873046875,29226.9375,22455.8515625,19439.0625,21076.998046875,7120.76806640625,28870.900390625,588.0991821289062,0.0,1022.815673828125,13676.484375,6663.79931640625,25686.421875,16028.0859375,14961.560546875,24642.9453125,9305.4775390625,13977.6865234375,8666.515625,3829.00244140625,22583.0078125,9253.025390625,16816.45703125,11491.775390625,8777.77734375,12081.4638671875,11568.8642578125,1864.433349609375,10099.4111328125,3220.240234375,16545.453125,6175.8359375,7842.38134765625,1838.207275390625,11088.84765625,4649.95703125,23604.234375,4173.91455078125,17822.583984375,3132.025390625,9366.671875,26191.076171875,21252.6328125,11728.6044921875,-0.0,-44020.8125,19312.701171875,4254.9765625,0.0,6821.15576171875,0.0,0.0
15165.01171875,15128.453125,33386.546875,10902.0869140625,27933.916015625,6488.958984375,7983.84375,9113.9482421875,8986.791015625,5759.39794921875,17206.66796875,-935.3955688476562,8645.0576171875,0.0,22552.80859375,6952.28564453125,24589.697265625,19629.001953125,9514.4912109375,11444.8857421875,22898.515625,29215.8125,22449.494140625,19427.140625,21080.970703125,7104.07861328125,28874.078125,576.17822265625,0.0,1013.2789306640625,13667.7431640625,6655.85205078125,25678.4765625,16017.755859375,14955.9970703125,24631.0234375,9297.5302734375,13967.3544921875,8653.0048828125,3824.23388671875,22580.623046875,9241.8984375,16814.07421875,11479.060546875,8769.03515625,12071.1328125,11576.0166015625,1858.075439453125,10090.6689453125,3209.114013671875,16543.0703125,6165.50439453125,7821.71923828125,1832.6441650390625,11085.669921875,4638.0361328125,23590.72265625,4162.78857421875,17813.046875,3120.1044921875,9360.3134765625,26181.5390625,21243.095703125,11710.326171875,-0.0,-44033.52734375,19296.01171875,4244.6455078125,0.0,6810.82373046875,0.0,0.0
15181.701171875,15130.837890625,33399.265625,10898.11328125,27935.505859375,6490.548828125,7989.40673828125,9115.537109375,8996.3271484375,5763.3720703125,17206.66796875,-939.3692016601562,8645.0576171875,0.0,22561.55078125,6954.669921875,24591.287109375,19631.38671875,9516.875,11449.654296875,22903.283203125,29217.40234375,22454.26171875,19427.935546875,21097.66015625,7104.07861328125,28881.23046875,577.7677001953125,0.0,1012.4841918945312,13669.33203125,6656.646484375,25680.861328125,16018.548828125,14960.765625,24633.408203125,9301.5029296875,13970.5341796875,8644.263671875,3829.00244140625,22589.365234375,9243.48828125,16818.841796875,11481.4443359375,8776.982421875,12075.1064453125,11579.1962890625,1860.459716796875,10101.794921875,3207.524658203125,16553.40234375,6167.888671875,7802.64501953125,1841.38623046875,11088.0537109375,4638.0361328125,23599.466796875,4159.609375,17820.19921875,3124.872802734375,9365.08203125,26183.12890625,21247.86328125,11717.478515625,-0.0,-44040.6796875,19310.31640625,4245.43994140625,0.0,6818.771484375,0.0,0.0
15190.4423828125,15131.6328125,33404.828125,10898.9072265625,27941.068359375,6493.72705078125,7997.353515625,9119.5107421875,9005.8642578125,5768.9345703125,17253.556640625,-941.75341796875,8642.673828125,0.0,22565.5234375,6957.84912109375,24592.08203125,19633.76953125,9518.4638671875,11456.0126953125,22905.66796875,29218.197265625,22458.234375,19431.11328125,21109.580078125,7113.61572265625,28874.078125,581.7413330078125,0.0,1010.1000366210938,13673.3056640625,6658.23583984375,25682.44921875,16020.93359375,14960.765625,24635.791015625,9307.0673828125,13972.9189453125,8631.546875,3829.00244140625,22597.3125,9245.8720703125,16822.814453125,11485.4169921875,8784.9306640625,12079.080078125,11573.6318359375,1858.8701171875,10108.947265625,3214.677001953125,16559.759765625,6172.6572265625,7808.20849609375,1842.9755859375,11096.0009765625,4636.4462890625,23606.619140625,4158.02001953125,17825.76171875,3128.846435546875,9359.5185546875,26184.716796875,21251.8359375,11727.015625,-0.0,-44043.859375,19321.44140625,4248.619140625,0.0,6827.51318359375,0.0,0.0
15188.853515625,15122.890625,33389.73046875,10893.3447265625,27919.611328125,6488.958984375,7981.45947265625,9113.15234375,8996.3271484375,5760.19287109375,17251.96875,-946.521728515625,8641.87890625,0.0,22555.986328125,6955.46484375,24586.51953125,19624.232421875,9508.1328125,11445.681640625,22892.15625,29210.248046875,22443.9296875,19421.578125,21075.40625,7112.0263671875,28852.62109375,580.9465942382812,0.0,1002.1527709960938,13662.974609375,6651.87841796875,25672.912109375,16013.7802734375,14946.4609375,24629.435546875,9292.76171875,13964.17578125,8604.5263671875,3823.439453125,22578.240234375,9240.3095703125,16806.125,11479.8544921875,8773.009765625,12071.1328125,11581.580078125,1855.6912841796875,10103.384765625,3216.2666015625,16540.685546875,6166.29931640625,7805.82421875,1845.35986328125,11092.0263671875,4623.73095703125,23608.20703125,4154.04638671875,17815.431640625,3123.283447265625,9351.5712890625,26172.796875,21241.505859375,11715.888671875,-0.0,-44047.83203125,19313.494140625,4246.23486328125,0.0,6821.9501953125,0.0,0.0
15193.6220703125,15126.0693359375,33393.69921875,10901.2919921875,27918.01953125,6490.548828125,7978.2802734375,9113.15234375,8997.123046875,5766.55078125,17254.353515625,-939.3692016601562,8656.1845703125,0.0,22559.9609375,6956.25927734375,24591.287109375,19625.029296875,9510.517578125,11449.654296875,22892.951171875,29215.017578125,22441.544921875,19422.373046875,21062.693359375,7115.99951171875,28862.953125,580.15185546875,0.0,1009.3053588867188,13666.1533203125,6657.44140625,25678.4765625,16016.1650390625,14945.666015625,24631.0234375,9291.966796875,13965.765625,8637.9052734375,3829.797119140625,22575.060546875,9241.1044921875,16802.15234375,11481.4443359375,8772.2138671875,12071.9267578125,11602.2421875,1866.8175048828125,10104.9736328125,3214.677001953125,16538.30078125,6168.68359375,7843.97119140625,1854.896484375,11080.9013671875,4621.34716796875,23615.359375,4157.22509765625,17818.609375,3128.846435546875,9357.134765625,26175.9765625,21243.890625,11718.2734375,-0.0,-44045.44921875,19321.44140625,4251.79833984375,0.0,6829.10302734375,0.0,0.0
15199.978515625,15125.2744140625,33392.90625,10906.85546875,27924.37890625,6490.548828125,7984.63818359375,9113.9482421875,9004.275390625,5773.703125,17249.583984375,-933.0113525390625,8653.7998046875,0.0,22563.93359375,6958.6435546875,24591.287109375,19628.20703125,9514.4912109375,11457.6025390625,22895.3359375,29218.9921875,22446.314453125,19424.7578125,21072.228515625,7115.205078125,28868.517578125,576.17822265625,0.0,1007.7158203125,13670.126953125,6655.0576171875,25677.681640625,16019.3447265625,14949.6396484375,24633.408203125,9297.5302734375,13966.560546875,8660.1572265625,3832.97607421875,22579.03515625,9245.8720703125,16806.125,11481.4443359375,8776.982421875,12075.9013671875,11590.3212890625,1870.7911376953125,10105.76953125,3209.114013671875,16545.453125,6169.47802734375,7837.61328125,1847.7440185546875,11084.080078125,4627.70458984375,23607.412109375,4158.81494140625,17824.173828125,3135.204345703125,9362.697265625,26175.9765625,21246.275390625,11728.6044921875,-0.0,-44039.88671875,19329.388671875,4251.79833984375,0.0,6844.20263671875,0.0,0.0
15184.0849609375,15131.6328125,33390.5234375,10912.41796875,27925.171875,6492.9326171875,7986.22802734375,9116.33203125,9002.685546875,5780.06103515625,17255.1484375,-929.0377197265625,8666.515625,0.0,22563.138671875,6961.02783203125,24595.259765625,19632.181640625,9516.080078125,11459.19140625,22898.515625,29222.96484375,22447.109375,19427.935546875,21079.3828125,7119.9736328125,28858.185546875,576.9729614257812,0.0,1009.3053588867188,13671.7158203125,6655.0576171875,25680.064453125,16020.93359375,14953.61328125,24638.17578125,9299.9140625,13968.150390625,8647.44140625,3817.876220703125,22583.0078125,9249.8466796875,16806.125,11483.033203125,8775.3935546875,12079.875,11584.7587890625,1874.7647705078125,10107.3583984375,3208.3193359375,16543.865234375,6171.8623046875,7836.0244140625,1840.5914306640625,11099.974609375,4635.65185546875,23609.00390625,4161.19921875,17824.173828125,3139.177978515625,9365.08203125,26179.94921875,21247.068359375,11731.7841796875,-0.0,-44034.3203125,19313.494140625,4254.9765625,0.0,6848.970703125,0.0,0.0
15173.7529296875,15140.3740234375,33390.5234375,10918.7763671875,27925.96875,6498.49560546875,7988.6123046875,9117.126953125,8997.9169921875,5776.08740234375,17263.09375,-930.627197265625,8657.7734375,0.0,22560.75390625,6959.4384765625,24598.439453125,19636.94921875,9516.080078125,11455.21875,22899.30859375,29226.9375,22447.904296875,19431.91015625,21071.43359375,7124.7421875,28862.158203125,580.15185546875,0.0,1013.2789306640625,13677.279296875,6659.03076171875,25683.244140625,16025.701171875,14955.203125,24642.1484375,9301.5029296875,13969.7392578125,8658.568359375,3819.465576171875,22581.419921875,9256.9990234375,16808.509765625,11484.623046875,8775.3935546875,12079.080078125,11581.580078125,1874.7647705078125,10104.9736328125,3209.114013671875,16547.837890625,6171.06787109375,7867.0185546875,1846.154541015625,11091.232421875,4648.3671875,23593.107421875,4158.81494140625,17823.376953125,3132.820068359375,9369.8505859375,26183.923828125,21248.658203125,11725.42578125,-0.0,-44037.50390625,19312.701171875,4248.619140625,0.0,6832.28173828125,0.0,0.0
15182.4951171875,15137.1953125,33387.34375,10917.9814453125,27925.96875,6500.8798828125,7991.791015625,9115.537109375,8992.3544921875,5764.96142578125,17251.96875,-929.8324584960938,8660.9521484375,0.0,22560.75390625,6957.05419921875,24597.64453125,19637.7421875,9515.28515625,11450.4501953125,22899.30859375,29226.14453125,22448.697265625,19434.29296875,21069.05078125,7123.947265625,28870.10546875,581.7413330078125,0.0,1014.868408203125,13675.689453125,6659.82568359375,25683.244140625,16026.4970703125,14955.9970703125,24644.533203125,9301.5029296875,13971.3291015625,8665.720703125,3828.207763671875,22579.03515625,9256.2041015625,16810.89453125,11485.4169921875,8775.3935546875,12075.9013671875,11583.9638671875,1862.049072265625,10104.1796875,3219.445556640625,16555.78515625,6168.68359375,7869.40283203125,1850.9229736328125,11085.669921875,4651.54638671875,23585.955078125,4161.99365234375,17822.583984375,3125.66748046875,9367.4658203125,26184.716796875,21244.68359375,11720.6572265625,-0.0,-44037.50390625,19317.46875,4251.00341796875,0.0,6823.53955078125,0.0,0.0
15171.3681640625,15115.73828125,33373.0390625,10902.8818359375,27915.63671875,6483.39599609375,7981.45947265625,9101.2314453125,8978.048828125,5744.29833984375,17216.205078125,-940.1639404296875,8655.388671875,0.0,22559.9609375,6936.39111328125,24583.33984375,19625.822265625,9501.7744140625,11434.5546875,22886.595703125,29211.83984375,22437.572265625,19419.98828125,21065.87109375,7106.462890625,28859.7734375,562.6678466796875,0.0,1002.9474487304688,13663.7685546875,6645.5205078125,25668.939453125,16010.6025390625,14941.6923828125,24630.228515625,9291.171875,13956.2294921875,8648.236328125,3812.31298828125,22567.11328125,9237.1298828125,16802.15234375,11469.5234375,8763.47265625,12056.033203125,11562.5068359375,1846.154541015625,10091.4638671875,3201.96142578125,16551.017578125,6149.60986328125,7840.79248046875,1831.0546875,11075.337890625,4632.47314453125,23599.466796875,4142.919921875,17816.224609375,3101.82568359375,9345.2138671875,26173.591796875,21231.173828125,11703.173828125,-0.0,-44049.421875,19315.083984375,4224.77734375,0.0,6794.134765625,0.0,0.0
15165.8056640625,15106.201171875,33369.0625,10902.0869140625,27913.251953125,6483.39599609375,7968.7431640625,9099.642578125,8971.69140625,5741.119140625,17205.080078125,-944.9323120117188,8644.263671875,0.0,22552.80859375,6939.56982421875,24581.75,19622.64453125,9500.185546875,11430.5810546875,22884.2109375,29210.248046875,22434.392578125,19416.80859375,21070.638671875,7104.87353515625,28846.263671875,564.25732421875,0.0,1004.5369873046875,13661.384765625,6644.7255859375,25668.14453125,16009.8076171875,14940.8974609375,24629.435546875,9285.609375,13954.6396484375,8640.2890625,3812.31298828125,22564.73046875,9237.92578125,16793.41015625,11469.5234375,8754.73046875,12052.0595703125,11540.25390625,1847.7440185546875,10083.5166015625,3199.577392578125,16527.970703125,6148.81494140625,7827.28173828125,1822.312744140625,11077.7216796875,4631.67822265625,23612.181640625,4148.4833984375,17807.484375,3101.031005859375,9341.240234375,26172.001953125,21228.791015625,11699.19921875,-0.0,-44049.421875,19305.546875,4227.9560546875,0.0,6788.57177734375,0.0,0.0
15162.626953125,15100.638671875,33369.859375,10898.11328125,27915.63671875,6485.7802734375,7966.359375,9102.02734375,8974.0751953125,5745.0927734375,17213.025390625,-948.9059448242188,8645.8525390625,0.0,22552.80859375,6946.72265625,24582.544921875,19624.232421875,9502.5703125,11433.7607421875,22888.978515625,29214.224609375,22434.392578125,19419.98828125,21075.40625,7104.07861328125,28847.853515625,569.0256958007812,0.0,998.973876953125,13663.7685546875,6642.341796875,25666.5546875,16011.396484375,14943.2822265625,24631.818359375,9285.609375,13957.818359375,8633.13671875,3809.928955078125,22567.908203125,9239.5146484375,16791.8203125,11473.49609375,8753.935546875,12056.033203125,11556.943359375,1843.7703857421875,10087.490234375,3200.3720703125,16523.99609375,6151.19921875,7809.7978515625,1813.5706787109375,11083.28515625,4632.47314453125,23612.9765625,4156.4306640625,17807.484375,3105.79931640625,9338.85546875,26171.20703125,21230.37890625,11706.3525390625,-0.0,-44047.0390625,19307.13671875,4234.31396484375,0.0,6797.3134765625,0.0,0.0
15151.5009765625,15110.9697265625,33369.0625,10893.3447265625,27914.046875,6484.9853515625,7970.3330078125,9101.2314453125,8975.6650390625,5749.06689453125,17220.974609375,-950.4954223632812,8645.0576171875,0.0,22553.6015625,6943.5439453125,24580.955078125,19625.029296875,9503.3642578125,11436.14453125,22888.978515625,29215.017578125,22435.1875,19422.373046875,21061.896484375,7102.4892578125,28852.62109375,568.23095703125,0.0,995.000244140625,13663.7685546875,6643.93115234375,25666.5546875,16010.6025390625,14944.87109375,24633.408203125,9287.1982421875,13960.2021484375,8627.57421875,3804.365966796875,22568.703125,9237.92578125,16794.205078125,11474.2919921875,8754.73046875,12059.2119140625,11572.837890625,1838.207275390625,10089.8740234375,3200.3720703125,16529.560546875,6151.994140625,7811.3876953125,1815.16015625,11085.669921875,4632.47314453125,23607.412109375,4154.8408203125,17807.484375,3109.77294921875,9341.240234375,26173.591796875,21231.970703125,11708.736328125,-0.0,-44047.83203125,19316.673828125,4231.134765625,0.0,6801.287109375,0.0,0.0
15188.853515625,15132.4267578125,33384.9609375,10906.060546875,27927.556640625,6500.08544921875,7983.84375,9118.7158203125,8989.9697265625,5768.14013671875,17242.431640625,-936.1903076171875,8653.0048828125,0.0,22565.5234375,6958.6435546875,24598.439453125,19637.7421875,9518.4638671875,11452.833984375,22902.48828125,29228.529296875,22449.494140625,19436.677734375,21062.693359375,7116.79443359375,28864.54296875,582.5360717773438,0.0,1018.04736328125,13681.2529296875,6659.82568359375,25682.44921875,16026.4970703125,14959.17578125,24649.30078125,9301.5029296875,13976.0966796875,8644.263671875,3826.6181640625,22579.03515625,9252.23046875,16808.509765625,11489.3916015625,8766.6513671875,12076.6953125,11585.552734375,1848.5386962890625,10101.0009765625,3216.2666015625,16543.0703125,6167.09375,7850.32958984375,1841.38623046875,11092.822265625,4638.83056640625,23615.359375,4165.17236328125,17821.7890625,3128.846435546875,9357.9296875,26189.486328125,21247.068359375,11726.2197265625,-0.0,-44037.50390625,19325.4140625,4252.5927734375,0.0,6829.10302734375,0.0,0.0
15210.310546875,15135.60546875,33389.73046875,10912.41796875,27932.326171875,6502.4697265625,7988.6123046875,9124.279296875,8993.1484375,5774.498046875,17254.353515625,-930.627197265625,8655.388671875,0.0,22565.5234375,6964.20654296875,24601.6171875,19643.306640625,9523.232421875,11458.396484375,22906.4609375,29232.501953125,22452.673828125,19441.447265625,21065.87109375,7118.3837890625,28869.310546875,584.9202270507812,0.0,1022.0209350585938,13684.431640625,6663.79931640625,25687.216796875,16031.265625,14963.150390625,24651.685546875,9303.8876953125,13979.275390625,8653.0048828125,3835.3603515625,22583.802734375,9252.23046875,16812.482421875,11492.5703125,8770.625,12082.2587890625,11585.552734375,1860.459716796875,10101.794921875,3217.061279296875,16545.453125,6172.6572265625,7876.5556640625,1850.128173828125,11095.2060546875,4634.0625,23612.9765625,4165.96728515625,17824.173828125,3134.40966796875,9361.107421875,26192.666015625,21251.8359375,11733.373046875,-0.0,-44038.296875,19323.03125,4257.36083984375,0.0,6837.0498046875,0.0,0.0
15207.9267578125,15137.1953125,33389.73046875,10915.5966796875,27934.708984375,6501.6748046875,7989.40673828125,9121.89453125,8987.5859375,5771.31884765625,17257.53125,-919.5009765625,8660.9521484375,0.0,22563.93359375,6963.41162109375,24603.208984375,19644.896484375,9522.4384765625,11455.21875,22909.640625,29231.70703125,22453.466796875,19439.0625,21072.228515625,7115.99951171875,28866.1328125,585.7149658203125,0.0,1026.789306640625,13684.431640625,6665.388671875,25689.6015625,16032.8544921875,14965.5341796875,24650.892578125,9304.6826171875,13977.6865234375,8653.0048828125,3840.92333984375,22587.775390625,9249.05078125,16813.27734375,11494.16015625,8769.03515625,12079.080078125,11578.400390625,1874.7647705078125,10101.794921875,3216.2666015625,16544.66015625,6171.8623046875,7865.4287109375,1858.075439453125,11100.76953125,4641.21484375,23615.359375,4164.3779296875,17822.583984375,3129.641357421875,9362.697265625,26192.666015625,21251.04296875,11727.015625,-0.0,-44032.734375,19311.904296875,4244.6455078125,0.0,6824.33447265625,0.0,0.0
