15610.8544921875,15434.4248046875,34407.77734375,12174.447265625,28680.958984375,7046.8583984375,8637.9052734375,9734.630859375,9749.73046875,6887.91259765625,17650.126953125,-1275.5394287109375,9102.02734375,0.0,23283.958984375,7850.32958984375,25350.251953125,20340.28515625,10122.4580078125,12342.9296875,23547.013671875,29932.658203125,23206.076171875,20103.455078125,22050.5390625,7989.40673828125,29620.328125,1221.4979248046875,0.0,1627.6041259765625,14142.1953125,7442.63330078125,26458.10546875,16694.068359375,15647.4111328125,25334.357421875,9818.87109375,14600.75390625,9663.8994140625,4806.5185546875,23275.216796875,10015.169921875,17453.828125,11963.0498046875,9432.6337890625,12731.5517578125,12418.4296875,2235.571533203125,10947.38671875,4162.78857421875,17406.14453125,6935.5966796875,8545.7158203125,1782.576171875,11840.6611328125,5492.369140625,24261.474609375,4461.6064453125,18647.51171875,3840.92333984375,9980.2021484375,27038.255859375,22080.740234375,11971.791015625,-0.0,-43718.01953125,19974.708984375,5309.58154296875,0.0,7406.076171875,0.0,0.0
15617.2109375,15428.8603515625,34411.74609375,12170.4736328125,28686.5234375,7054.8056640625,8641.87890625,9737.0146484375,9756.087890625,6887.91259765625,17647.744140625,-1277.1287841796875,9097.2587890625,0.0,23281.57421875,7856.6865234375,25347.8671875,20340.28515625,10126.431640625,12342.9296875,23547.013671875,29933.453125,23212.43359375,20105.837890625,22054.513671875,7995.7646484375,29626.6875,1227.855712890625,0.0,1627.6041259765625,14142.990234375,7439.45458984375,26457.310546875,16694.865234375,15651.384765625,25337.537109375,9824.435546875,14603.9326171875,9650.3896484375,4805.7236328125,23277.6015625,10020.732421875,17460.1875,11969.4072265625,9438.9912109375,12734.73046875,12413.6611328125,2234.77685546875,10952.94921875,4169.14599609375,17411.708984375,6940.36474609375,8543.33203125,1783.3709716796875,11842.2509765625,5492.369140625,24257.501953125,4465.580078125,18649.1015625,3842.512939453125,9981.791015625,27043.0234375,22082.328125,11967.0224609375,-0.0,-43709.27734375,19973.119140625,5314.35009765625,0.0,7405.28125,0.0,0.0
15608.4697265625,15421.7080078125,34414.9296875,12175.2421875,28696.060546875,7061.16357421875,8647.44140625,9744.1669921875,9759.2666015625,6892.68115234375,17650.126953125,-1277.1287841796875,9094.0791015625,0.0,23279.986328125,7867.0185546875,25351.046875,20345.845703125,10131.9951171875,12344.51953125,23552.576171875,29938.220703125,23220.380859375,20111.40234375,22059.283203125,8003.7119140625,29630.66015625,1236.59765625,0.0,1635.551513671875,14146.9638671875,7440.2490234375,26462.078125,16698.837890625,15656.9482421875,25344.689453125,9830.7919921875,14611.0849609375,9655.158203125,4810.4921875,23283.162109375,10028.6796875,17468.134765625,11975.765625,9444.5546875,12741.0888671875,12406.5087890625,2240.340087890625,10958.5126953125,4177.09375,17418.06640625,6948.3125,8532.2060546875,1779.3973388671875,11847.01953125,5501.90576171875,24252.732421875,4479.88525390625,18648.306640625,3850.4599609375,9988.9443359375,27046.203125,22086.302734375,11966.228515625,-0.0,-43705.3046875,19970.736328125,5320.7080078125,0.0,7413.228515625,0.0,0.0
15599.7275390625,15424.8876953125,34414.1328125,12186.3681640625,28702.41796875,7065.13720703125,8653.0048828125,9748.935546875,9762.4462890625,6897.44970703125,17646.154296875,-1271.5657958984375,9098.052734375,0.0,23283.162109375,7869.40283203125,25355.021484375,20349.025390625,10136.763671875,12347.6982421875,23557.34375,29943.78515625,23225.1484375,20116.96484375,22063.255859375,8010.06982421875,29637.814453125,1242.1607666015625,0.0,1638.7303466796875,14150.142578125,7440.2490234375,26464.462890625,16704.400390625,15661.716796875,25349.458984375,9834.7666015625,14617.443359375,9662.310546875,4811.287109375,23287.138671875,10033.4482421875,17476.08203125,11981.328125,9446.9384765625,12745.0625,12400.150390625,2246.69775390625,10952.1552734375,4182.65673828125,17422.833984375,6952.28564453125,8527.4384765625,1764.2974853515625,11839.072265625,5509.853515625,24255.91015625,4487.83251953125,18650.689453125,3856.81787109375,9992.123046875,27049.3828125,22091.0703125,11970.9970703125,-0.0,-43702.125,19973.9140625,5315.939453125,0.0,7415.61279296875,0.0,0.0
15608.4697265625,15424.0927734375,34411.74609375,12183.9833984375,28701.623046875,7061.16357421875,8654.5947265625,9749.73046875,9767.21484375,6899.03857421875,17650.126953125,-1269.976318359375,9104.4111328125,0.0,23288.7265625,7863.044921875,25352.63671875,20345.845703125,10136.763671875,12351.671875,23555.755859375,29941.400390625,23223.55859375,20115.375,22066.435546875,8002.1220703125,29637.814453125,1235.802978515625,0.0,1633.167236328125,14150.142578125,7434.68603515625,26463.666015625,16705.1953125,15660.1279296875,25347.8671875,9835.560546875,14615.853515625,9669.462890625,4810.4921875,23286.341796875,10030.26953125,17479.26171875,11978.1494140625,9447.7333984375,12745.0625,12400.9443359375,2234.77685546875,10942.6181640625,4176.298828125,17426.013671875,6949.10693359375,8530.6171875,1761.913330078125,11835.892578125,5502.70068359375,24258.294921875,4479.09033203125,18656.25390625,3855.228515625,9986.5595703125,27047.79296875,22093.455078125,11982.123046875,-0.0,-43699.7421875,19977.888671875,5305.6083984375,0.0,7421.17529296875,0.0,0.0
15616.4169921875,15420.9140625,34411.74609375,12179.2158203125,28692.087890625,7057.18994140625,8650.6201171875,9745.7568359375,9763.2412109375,6894.2705078125,17658.076171875,-1278.7183837890625,9113.15234375,0.0,23285.546875,7867.0185546875,25350.251953125,20341.873046875,10131.9951171875,12346.1083984375,23552.576171875,29935.041015625,23217.201171875,20111.40234375,22076.765625,7993.38037109375,29635.4296875,1232.6240234375,0.0,1629.98828125,14146.9638671875,7431.50732421875,26462.873046875,16700.42578125,15654.5634765625,25343.099609375,9830.7919921875,14613.46875,9670.2578125,4810.4921875,23284.75390625,10023.1171875,17469.724609375,11974.17578125,9442.169921875,12741.0888671875,12401.740234375,2214.114013671875,10958.5126953125,4168.3515625,17421.24609375,6949.10693359375,8525.8486328125,1767.4764404296875,11858.9404296875,5493.958984375,24259.88671875,4479.09033203125,18652.28125,3854.433837890625,9980.2021484375,27044.615234375,22088.685546875,11975.765625,-0.0,-43703.71484375,19972.32421875,5296.0712890625,0.0,7416.4072265625,0.0,0.0
15618.0068359375,15419.32421875,34410.16015625,12167.294921875,28685.728515625,7053.21630859375,8647.44140625,9743.373046875,9764.03515625,6894.2705078125,17653.306640625,-1285.870849609375,9107.58984375,0.0,23283.958984375,7870.197265625,25344.689453125,20337.900390625,10129.611328125,12346.1083984375,23549.3984375,29931.068359375,23215.61328125,20109.017578125,22065.638671875,7987.81689453125,29630.66015625,1234.2135009765625,0.0,1615.6832275390625,14142.1953125,7425.1494140625,26455.720703125,16694.068359375,15650.5908203125,25341.51171875,9826.0244140625,14611.0849609375,9664.6943359375,4804.92919921875,23283.162109375,10017.5546875,17464.95703125,11974.17578125,9438.9912109375,12740.294921875,12402.5341796875,2218.88232421875,10959.3076171875,4162.78857421875,17418.861328125,6950.6962890625,8525.0537109375,1770.6552734375,11854.171875,5489.98486328125,24257.501953125,4483.8583984375,18649.1015625,3859.2021484375,9977.0234375,27039.845703125,22087.09765625,11982.91796875,-0.0,-43711.6640625,19965.171875,5299.25,0.0,7408.4599609375,0.0,0.0
15621.9794921875,15420.9140625,34406.98046875,12164.1162109375,28686.5234375,7054.8056640625,8649.826171875,9744.9619140625,9775.162109375,6902.2177734375,17645.359375,-1285.076171875,9096.462890625,0.0,23285.546875,7862.25048828125,25344.689453125,20337.10546875,10133.583984375,12357.2353515625,23547.013671875,29931.068359375,23217.99609375,20110.607421875,22052.923828125,7988.6123046875,29627.482421875,1231.03466796875,0.0,1620.4515380859375,14142.1953125,7426.73876953125,26454.130859375,16691.685546875,15649.7958984375,25340.71484375,9829.203125,14613.46875,9664.6943359375,4803.33935546875,23277.6015625,10016.7587890625,17465.75,11973.380859375,9444.5546875,12740.294921875,12403.3291015625,2237.160888671875,10950.5654296875,4163.58349609375,17420.451171875,6949.9013671875,8525.8486328125,1773.0394287109375,11844.634765625,5487.6005859375,24258.294921875,4476.7060546875,18657.048828125,3856.023193359375,9978.6123046875,27041.435546875,22092.66015625,12005.169921875,-0.0,-43722.7890625,19975.50390625,5311.9658203125,0.0,7421.97021484375,0.0,0.0
15625.158203125,15418.529296875,34406.18359375,12158.552734375,28686.5234375,7048.4482421875,8649.826171875,9743.373046875,9775.162109375,6903.80712890625,17646.154296875,-1286.66552734375,9088.5166015625,0.0,23285.546875,7856.6865234375,25343.099609375,20331.541015625,10131.9951171875,12358.8251953125,23543.0390625,29923.916015625,23215.61328125,20108.22265625,22056.103515625,7984.63818359375,29633.83984375,1223.0872802734375,0.0,1625.219970703125,14136.6318359375,7425.94384765625,26452.541015625,16688.505859375,15648.20703125,25336.7421875,9828.408203125,14611.8798828125,9671.84765625,4804.13427734375,23275.216796875,10008.017578125,17467.33984375,11970.9970703125,9442.9658203125,12740.294921875,12408.09765625,2245.1083984375,10952.94921875,4159.609375,17420.451171875,6946.72265625,8529.02734375,1765.886962890625,11846.224609375,5482.0380859375,24256.70703125,4464.78515625,18658.638671875,3852.049560546875,9975.43359375,27039.05078125,22090.27734375,12005.169921875,-0.0,-43725.96875,19973.9140625,5319.11865234375,0.0,7430.71240234375,0.0,0.0
15603.701171875,15412.966796875,34400.625,12153.78515625,28684.935546875,7047.6533203125,8650.6201171875,9744.9619140625,9770.3935546875,6906.986328125,17639.001953125,-1290.6392822265625,9095.6689453125,0.0,23285.546875,7865.4287109375,25339.126953125,20327.568359375,10131.2001953125,12357.2353515625,23539.06640625,29919.1484375,23214.021484375,20105.837890625,22055.306640625,7983.04833984375,29641.787109375,1223.882080078125,0.0,1624.42529296875,14132.6591796875,7421.17529296875,26450.15625,16683.736328125,15645.02734375,25333.5625,9827.6142578125,14611.8798828125,9655.9521484375,4796.98193359375,23272.83203125,10004.837890625,17469.724609375,11969.4072265625,9439.7861328125,12742.6787109375,12409.6875,2241.134765625,10955.333984375,4160.404296875,17422.041015625,6949.9013671875,8533.0009765625,1757.939697265625,11835.892578125,5480.4482421875,24257.501953125,4463.99072265625,18656.25390625,3849.665283203125,9969.8701171875,27038.255859375,22088.685546875,11998.8125,-0.0,-43724.375,19978.681640625,5323.091796875,0.0,7437.0703125,0.0,0.0
15578.26953125,15408.9931640625,34399.03125,12146.6318359375,28679.37109375,7044.47412109375,8645.0576171875,9740.98828125,9765.625,6902.2177734375,17631.849609375,-1291.4339599609375,9092.490234375,0.0,23280.779296875,7864.63427734375,25334.357421875,20322.798828125,10126.431640625,12353.2607421875,23535.09375,29913.583984375,23208.458984375,20101.0703125,22048.94921875,7969.53857421875,29637.814453125,1222.2926025390625,0.0,1616.47802734375,14126.30078125,7417.2021484375,26444.59375,16678.96875,15637.875,25328.794921875,9822.05078125,14607.90625,9659.130859375,4785.06103515625,23265.6796875,10004.837890625,17463.365234375,11967.818359375,9433.4287109375,12739.4990234375,12403.3291015625,2229.213623046875,10946.591796875,4159.609375,17418.06640625,6945.92822265625,8521.8740234375,1753.9659423828125,11824.767578125,5479.65380859375,24255.1171875,4460.8115234375,18653.869140625,3844.89697265625,9960.333984375,27034.283203125,22084.712890625,11994.0439453125,-0.0,-43729.94140625,19977.888671875,5318.32373046875,0.0,7435.48046875,0.0,0.0
15577.4755859375,15409.787109375,34399.82421875,12147.4267578125,28675.3984375,7043.6796875,8640.2890625,9739.3994140625,9762.4462890625,6900.62841796875,17639.001953125,-1291.4339599609375,9097.2587890625,0.0,23279.189453125,7866.22314453125,25331.177734375,20319.62109375,10124.046875,12353.2607421875,23531.119140625,29912.791015625,23204.484375,20099.482421875,22048.94921875,7969.53857421875,29621.125,1222.2926025390625,0.0,1612.50439453125,14125.5068359375,7413.228515625,26442.208984375,16676.583984375,15632.310546875,25326.41015625,9818.0771484375,14604.7275390625,9665.4892578125,4793.802734375,23263.296875,10000.865234375,17457.0078125,11965.43359375,9430.2490234375,12739.4990234375,12400.150390625,2218.88232421875,10938.64453125,4161.19921875,17411.708984375,6945.92822265625,8508.3642578125,1769.860595703125,11832.7138671875,5480.4482421875,24250.349609375,4462.40087890625,18650.689453125,3843.3076171875,9961.9228515625,27029.513671875,22083.125,11993.2490234375,-0.0,-43731.52734375,19975.50390625,5312.7607421875,0.0,7431.50732421875,0.0,0.0
15586.216796875,15409.787109375,34398.23828125,12158.552734375,28671.423828125,7047.6533203125,8635.5205078125,9739.3994140625,9756.087890625,6901.4228515625,17650.126953125,-1290.6392822265625,9108.3837890625,0.0,23275.216796875,7867.81298828125,25331.974609375,20319.62109375,10122.4580078125,12351.671875,23528.734375,29913.583984375,23198.126953125,20098.685546875,22042.59375,7986.22802734375,29606.0234375,1223.882080078125,0.0,1614.09375,14123.9169921875,7412.43359375,26443.00390625,16678.17578125,15629.9267578125,25326.41015625,9816.4873046875,14603.9326171875,9665.4892578125,4790.6240234375,23262.5,10004.0439453125,17452.240234375,11968.6123046875,9426.2763671875,12739.4990234375,12397.765625,2217.292724609375,10937.849609375,4167.556640625,17406.14453125,6946.72265625,8514.7216796875,1772.2447509765625,11833.5087890625,5486.80615234375,24249.552734375,4466.375,18644.33203125,3843.3076171875,9958.744140625,27030.310546875,22083.125,11995.6328125,-0.0,-43730.734375,19969.14453125,5318.32373046875,0.0,7433.89111328125,0.0,0.0
15585.4228515625,15404.224609375,34388.703125,12160.1416015625,28664.26953125,7044.47412109375,8631.546875,9734.630859375,9750.525390625,6899.03857421875,17639.001953125,-1289.844482421875,9095.6689453125,0.0,23270.44921875,7867.0185546875,25327.205078125,20313.263671875,10118.484375,12345.314453125,23522.376953125,29909.611328125,23191.771484375,20093.123046875,22030.671875,7990.201171875,29609.203125,1219.9083251953125,0.0,1618.0673828125,14118.353515625,7410.04931640625,26435.8515625,16672.611328125,15623.5693359375,25322.4375,9812.5146484375,14599.1640625,9653.568359375,4776.31884765625,23254.552734375,10004.0439453125,17448.267578125,11967.0224609375,9421.5078125,12734.73046875,12384.255859375,2220.4716796875,10933.08203125,4165.17236328125,17404.556640625,6942.7490234375,8514.7216796875,1745.2239990234375,11816.0244140625,5494.75341796875,24245.580078125,4463.99072265625,18641.94921875,3843.3076171875,9953.181640625,27024.74609375,22079.1484375,11990.865234375,-0.0,-43726.76171875,19971.529296875,5319.11865234375,0.0,7432.3017578125,0.0,0.0
15602.111328125,15407.4033203125,34390.2890625,12161.7314453125,28670.62890625,7050.03759765625,8635.5205078125,9738.6044921875,9749.73046875,6903.0126953125,17643.76953125,-1283.4866943359375,9092.490234375,0.0,23268.857421875,7870.99169921875,25333.5625,20320.416015625,10124.046875,12347.6982421875,23527.14453125,29915.96875,23198.923828125,20097.890625,22044.181640625,7998.943359375,29613.97265625,1226.2662353515625,0.0,1626.8094482421875,14123.1220703125,7417.2021484375,26440.62109375,16679.763671875,15626.7490234375,25328.001953125,9815.693359375,14603.9326171875,9653.568359375,4793.00830078125,23259.3203125,10008.017578125,17453.828125,11972.5869140625,9424.6865234375,12738.705078125,12390.61328125,2236.3662109375,10936.259765625,4169.94091796875,17407.736328125,6945.92822265625,8518.6962890625,1739.660888671875,11829.53515625,5487.6005859375,24244.78515625,4472.732421875,18639.564453125,3848.075927734375,9966.69140625,27028.71875,22082.328125,11997.22265625,-0.0,-43716.4296875,19969.939453125,5318.32373046875,0.0,7435.48046875,0.0,0.0
15607.6748046875,15395.482421875,34381.55078125,12162.5263671875,28666.654296875,7051.62646484375,8633.931640625,9740.193359375,9750.525390625,6903.80712890625,17630.2578125,-1283.4866943359375,9086.1318359375,0.0,23269.65234375,7871.787109375,25331.177734375,20317.236328125,10124.8427734375,12348.4921875,23523.966796875,29915.96875,23198.126953125,20097.09765625,22044.181640625,7995.7646484375,29609.998046875,1229.445068359375,0.0,1629.193603515625,14121.5322265625,7414.02294921875,26435.8515625,16680.55859375,15625.9541015625,25328.001953125,9814.8984375,14605.5224609375,9642.44140625,4791.41845703125,23252.16796875,10009.6064453125,17454.625,11973.380859375,9423.0966796875,12738.705078125,12384.255859375,2230.00830078125,10932.2861328125,4169.94091796875,17405.3515625,6947.517578125,8509.1591796875,1752.3765869140625,11829.53515625,5482.83251953125,24241.60546875,4473.52734375,18635.591796875,3846.486328125,9964.306640625,27030.310546875,22080.740234375,11997.22265625,-0.0,-43716.4296875,19960.404296875,5319.91357421875,0.0,7430.71240234375,0.0,0.0
15600.5224609375,15389.9189453125,34390.2890625,12162.5263671875,28671.423828125,7054.0107421875,8639.4951171875,9744.9619140625,9758.47265625,6906.986328125,17631.0546875,-1287.4603271484375,9091.6953125,0.0,23276.009765625,7874.17138671875,25335.154296875,20322.00390625,10130.4052734375,12353.2607421875,23528.734375,29918.3515625,23204.484375,20101.0703125,22052.923828125,7992.5849609375,29616.35546875,1233.4188232421875,0.0,1633.167236328125,14124.7109375,7417.9970703125,26441.416015625,16681.353515625,15630.7216796875,25331.177734375,9821.255859375,14610.291015625,9644.03125,4789.0341796875,23257.732421875,10011.990234375,17460.98046875,11975.765625,9431.8388671875,12742.6787109375,12389.0234375,2214.90869140625,10936.259765625,4171.5302734375,17411.708984375,6952.28564453125,8509.953125,1769.06591796875,11835.0986328125,5489.1904296875,24247.96484375,4478.2958984375,18641.154296875,3849.665283203125,9954.7705078125,27035.078125,22085.5078125,12003.5810546875,-0.0,-43721.9921875,19966.759765625,5322.29736328125,0.0,7434.68603515625,0.0,0.0
15602.90625,15393.8935546875,34398.23828125,12167.294921875,28676.19140625,7056.39501953125,8641.87890625,9748.1416015625,9757.677734375,6909.37060546875,17629.46484375,-1287.4603271484375,9093.2841796875,0.0,23273.626953125,7878.939453125,25339.126953125,20326.7734375,10133.583984375,12354.056640625,23531.9140625,29921.53125,23207.6640625,20105.04296875,22048.94921875,7996.55908203125,29617.150390625,1237.3924560546875,0.0,1641.1146240234375,14127.890625,7421.97021484375,26445.388671875,16686.916015625,15635.490234375,25335.947265625,9826.0244140625,14613.46875,9657.5419921875,4783.4716796875,23262.5,10015.169921875,17464.16015625,11980.533203125,9433.4287109375,12745.0625,12387.4345703125,2221.2666015625,10937.0546875,4177.88818359375,17411.708984375,6954.669921875,8521.080078125,1769.860595703125,11837.482421875,5493.958984375,24246.375,4480.68017578125,18641.154296875,3852.049560546875,9952.3857421875,27039.05078125,22087.09765625,12000.4013671875,-0.0,-43723.58203125,19970.736328125,5323.88671875,0.0,7433.89111328125,0.0,0.0
15605.2900390625,15406.6083984375,34399.82421875,12164.1162109375,28674.6015625,7056.39501953125,8641.87890625,9749.73046875,9754.498046875,6907.78125,17640.58984375,-1279.5130615234375,9091.6953125,0.0,23269.65234375,7882.91259765625,25342.306640625,20329.15625,10134.37890625,12352.466796875,23533.501953125,29923.12109375,23206.076171875,20105.837890625,22033.849609375,8000.533203125,29614.767578125,1240.5714111328125,0.0,1638.7303466796875,14132.6591796875,7425.94384765625,26448.568359375,16688.505859375,15637.0791015625,25337.537109375,9826.8193359375,14615.05859375,9665.4892578125,4786.650390625,23261.705078125,10015.169921875,17462.572265625,11982.91796875,9433.4287109375,12748.2412109375,12395.3818359375,2231.597900390625,10934.6708984375,4179.4775390625,17410.119140625,6955.46484375,8528.232421875,1762.7080078125,11832.7138671875,5496.34326171875,24241.60546875,4486.24267578125,18641.154296875,3851.254638671875,9968.28125,27040.640625,22089.48046875,11994.0439453125,-0.0,-43717.22265625,19968.3515625,5335.0126953125,0.0,7431.50732421875,0.0,0.0
15613.23828125,15424.8876953125,34408.5703125,12157.7578125,28682.55078125,7057.98486328125,8646.6474609375,9752.1142578125,9759.2666015625,6910.16552734375,17655.69140625,-1273.1552734375,9094.8740234375,0.0,23273.626953125,7883.7080078125,25347.07421875,20333.130859375,10139.1474609375,12356.4404296875,23542.24609375,29928.68359375,23214.021484375,20109.8125,22044.9765625,7998.14892578125,29625.09765625,1242.95556640625,0.0,1621.246337890625,14137.427734375,7430.71240234375,26454.92578125,16690.888671875,15641.84765625,25340.71484375,9830.7919921875,14620.6220703125,9663.8994140625,4793.00830078125,23269.65234375,10015.96484375,17468.9296875,11984.5078125,9438.197265625,12750.6259765625,12415.25,2228.4189453125,10938.64453125,4182.65673828125,17415.681640625,6956.25927734375,8531.4111328125,1755.5555419921875,11839.072265625,5493.1640625,24232.068359375,4489.421875,18645.12890625,3855.228515625,9979.4072265625,27044.615234375,22093.455078125,11999.607421875,-0.0,-43708.484375,19971.529296875,5340.576171875,0.0,7429.91796875,0.0,0.0
15618.80078125,15433.62890625,34420.4921875,12172.8583984375,28696.85546875,7064.34228515625,8659.36328125,9760.0625,9771.1875,6920.49658203125,17662.84375,-1273.1552734375,9105.205078125,0.0,23283.958984375,7890.8603515625,25357.404296875,20340.28515625,10147.888671875,12365.181640625,23554.9609375,29935.041015625,23225.1484375,20117.759765625,22060.076171875,8005.30126953125,29644.169921875,1246.1343994140625,0.0,1621.246337890625,14148.552734375,7438.65966796875,26465.2578125,16702.017578125,15652.974609375,25350.251953125,9841.125,14629.3642578125,9675.0263671875,4791.41845703125,23286.341796875,10024.70703125,17482.439453125,11992.4541015625,9447.7333984375,12756.9833984375,12425.58203125,2244.3134765625,10956.1279296875,4181.86181640625,17430.783203125,6962.6171875,8525.8486328125,1756.3502197265625,11860.5302734375,5499.52197265625,24232.068359375,4496.57421875,18654.6640625,3863.175537109375,9980.99609375,27054.15234375,22101.40234375,12011.5283203125,-0.0,-43702.125,19978.681640625,5342.96044921875,0.0,7439.45458984375,0.0,0.0
15617.2109375,15436.80859375,34418.8984375,12175.2421875,28696.060546875,7062.75341796875,8660.9521484375,9756.8828125,9770.3935546875,6914.138671875,17652.51171875,-1271.5657958984375,9093.2841796875,0.0,23281.57421875,7884.50244140625,25356.611328125,20339.48828125,10147.0947265625,12361.208984375,23554.166015625,29934.248046875,23225.943359375,20112.9921875,22053.71875,8003.7119140625,29637.814453125,1242.1607666015625,0.0,1633.9620361328125,14149.3486328125,7438.65966796875,26466.05078125,16702.017578125,15652.974609375,25347.8671875,9841.125,14623.005859375,9680.5888671875,4803.33935546875,23284.75390625,10025.5009765625,17484.029296875,11990.865234375,9445.349609375,12753.8046875,12422.40234375,2244.3134765625,10954.5390625,4179.4775390625,17435.55078125,6960.2333984375,8496.443359375,1767.4764404296875,11853.376953125,5497.1376953125,24238.427734375,4491.01123046875,18653.07421875,3856.81787109375,9991.328125,27051.767578125,22098.22265625,12009.9384765625,-0.0,-43696.5625,19974.708984375,5329.4501953125,0.0,7436.275390625,0.0,0.0
15610.8544921875,15422.50390625,34409.36328125,12160.1416015625,28682.55078125,7052.42138671875,8641.083984375,9744.9619140625,9754.498046875,6899.03857421875,17644.564453125,-1287.4603271484375,9077.3896484375,0.0,23267.26953125,7870.197265625,25342.306640625,20329.953125,10131.2001953125,12345.314453125,23543.0390625,29923.12109375,23211.63671875,20098.685546875,22040.208984375,7993.38037109375,29609.203125,1230.2398681640625,0.0,1624.42529296875,14135.837890625,7426.73876953125,26455.720703125,16688.505859375,15640.2587890625,25334.357421875,9824.435546875,14607.90625,9663.10546875,4798.5712890625,23272.037109375,10010.4013671875,17466.544921875,11978.943359375,9428.66015625,12739.4990234375,12406.5087890625,2228.4189453125,10930.697265625,4171.5302734375,17412.50390625,6945.92822265625,8486.111328125,1761.913330078125,11834.3037109375,5476.474609375,24241.60546875,4474.32177734375,18636.384765625,3843.3076171875,9982.5859375,27035.87109375,22081.533203125,11998.8125,-0.0,-43712.45703125,19963.58203125,5308.787109375,0.0,7419.5859375,0.0,0.0
15616.4169921875,15412.966796875,34406.18359375,12157.7578125,28684.138671875,7056.39501953125,8633.931640625,9744.9619140625,9756.8828125,6901.4228515625,17639.001953125,-1286.66552734375,9086.9267578125,0.0,23265.6796875,7868.607421875,25343.89453125,20330.748046875,10129.611328125,12346.9033203125,23544.630859375,29925.50390625,23210.84375,20101.0703125,22041.796875,7998.943359375,29609.998046875,1232.6240234375,0.0,1626.0146484375,14138.2216796875,7429.123046875,26455.720703125,16692.48046875,15641.84765625,25338.33203125,9820.4609375,14608.701171875,9663.10546875,4784.26611328125,23272.83203125,10015.169921875,17463.365234375,11980.533203125,9424.6865234375,12739.4990234375,12391.408203125,2234.77685546875,10931.4921875,4179.4775390625,17395.814453125,6948.3125,8498.828125,1764.2974853515625,11823.177734375,5478.85888671875,24251.9375,4474.32177734375,18633.20703125,3844.89697265625,9977.0234375,27037.462890625,22080.740234375,12005.96484375,-0.0,-43714.046875,19969.14453125,5315.939453125,0.0,7422.76513671875,0.0,0.0
15627.54296875,15414.5556640625,34422.08203125,12169.6787109375,28696.85546875,7070.7001953125,8648.236328125,9757.677734375,9770.3935546875,6916.52294921875,17655.69140625,-1267.592041015625,9100.4375,0.0,23278.39453125,7886.88671875,25360.583984375,20341.873046875,10142.326171875,12362.0029296875,23557.34375,29942.990234375,23222.765625,20116.169921875,22059.283203125,8013.24853515625,29625.09765625,1247.723876953125,0.0,1642.7039794921875,14154.1162109375,7445.81201171875,26470.8203125,16709.169921875,15655.359375,25353.431640625,9833.9716796875,14623.80078125,9697.2783203125,4808.90283203125,23285.546875,10027.8857421875,17476.08203125,11994.0439453125,9436.607421875,12754.599609375,12412.0712890625,2256.234375,10948.181640625,4193.78271484375,17412.50390625,6965.00146484375,8525.0537109375,1777.01318359375,11835.892578125,5500.31640625,24259.08984375,4492.60107421875,18648.306640625,3862.380859375,9986.5595703125,27052.560546875,22095.044921875,12021.859375,-0.0,-43698.94921875,19984.24609375,5334.21826171875,0.0,7435.48046875,0.0,0.0
15617.2109375,15409.787109375,34439.5625,12186.3681640625,28704.80078125,7077.05810546875,8654.5947265625,9764.03515625,9770.3935546875,6921.29150390625,17675.55859375,-1259.6448974609375,9106.794921875,0.0,23283.162109375,7899.60205078125,25368.53125,20348.23046875,10147.888671875,12365.181640625,23567.67578125,29947.7578125,23226.73828125,20123.32421875,22091.865234375,8019.6064453125,29632.25,1254.87646484375,0.0,1644.29345703125,14163.6533203125,7450.58056640625,26479.5625,16717.91015625,15661.716796875,25361.37890625,9839.53515625,14630.158203125,9675.8203125,4821.61865234375,23300.6484375,10037.421875,17483.234375,12000.4013671875,9438.9912109375,12759.3681640625,12438.296875,2264.181884765625,10977.5859375,4196.9619140625,17422.041015625,6972.94873046875,8548.8955078125,1781.781494140625,11851.787109375,5517.80078125,24262.26953125,4505.31640625,18652.28125,3867.944091796875,9992.123046875,27058.919921875,22100.607421875,12021.859375,-0.0,-43692.58984375,19984.24609375,5346.1396484375,0.0,7439.45458984375,0.0,0.0
15599.7275390625,15401.0458984375,34423.66796875,12176.037109375,28691.291015625,7063.5478515625,8641.083984375,9752.1142578125,9755.2939453125,6909.37060546875,17657.279296875,-1271.5657958984375,9089.310546875,0.0,23275.216796875,7888.4765625,25357.404296875,20335.515625,10136.763671875,12357.2353515625,23552.576171875,29938.220703125,23211.63671875,20111.40234375,22068.818359375,8002.1220703125,29621.919921875,1241.3660888671875,0.0,1626.8094482421875,14148.552734375,7435.48046875,26466.845703125,16704.400390625,15649.0,25348.6640625,9826.8193359375,14617.443359375,9660.720703125,4796.18701171875,23285.546875,10024.70703125,17470.517578125,11986.0966796875,9426.2763671875,12746.6513671875,12420.0185546875,2253.0556640625,10960.1025390625,4181.86181640625,17412.50390625,6958.6435546875,8543.33203125,1774.6290283203125,11847.01953125,5510.6484375,24251.9375,4496.57421875,18645.921875,3856.81787109375,9980.2021484375,27048.587890625,22089.48046875,12013.1181640625,-0.0,-43699.7421875,19979.4765625,5342.96044921875,0.0,7425.94384765625,0.0,0.0
15596.548828125,15405.814453125,34410.16015625,12164.91015625,28680.166015625,7054.8056640625,8635.5205078125,9745.7568359375,9746.5517578125,6904.60205078125,17655.69140625,-1278.7183837890625,9082.953125,0.0,23274.421875,7878.14404296875,25349.458984375,20330.748046875,10130.4052734375,12353.2607421875,23545.423828125,29928.68359375,23202.896484375,20103.455078125,22051.333984375,7992.5849609375,29617.9453125,1234.2135009765625,0.0,1627.6041259765625,14139.8115234375,7428.328125,26456.513671875,16696.453125,15640.2587890625,25340.71484375,9822.845703125,14611.0849609375,9670.2578125,4798.5712890625,23272.83203125,10015.169921875,17463.365234375,11978.1494140625,9421.5078125,12741.0888671875,12405.712890625,2244.3134765625,10941.0283203125,4176.298828125,17410.9140625,6951.49072265625,8528.232421875,1769.06591796875,11840.6611328125,5505.0849609375,24248.7578125,4491.01123046875,18644.33203125,3852.049560546875,9974.638671875,27041.435546875,22084.712890625,12006.759765625,-0.0,-43697.35546875,19982.65625,5335.8076171875,0.0,7423.5595703125,0.0,0.0
15614.033203125,15408.9931640625,34403.80078125,12175.2421875,28675.3984375,7060.369140625,8633.931640625,9749.73046875,9742.5771484375,6905.39697265625,17648.5390625,-1273.1552734375,9077.3896484375,0.0,23268.857421875,7881.32373046875,25347.8671875,20330.748046875,10129.611328125,12350.08203125,23542.24609375,29931.068359375,23200.51171875,20105.837890625,22039.4140625,8002.1220703125,29611.587890625,1238.1871337890625,0.0,1633.9620361328125,14139.8115234375,7427.53369140625,26454.130859375,16699.6328125,15636.2861328125,25345.484375,9821.255859375,14612.6748046875,9675.0263671875,4800.955078125,23268.064453125,10023.9111328125,17462.572265625,11982.123046875,9419.1240234375,12742.6787109375,12399.35546875,2245.1083984375,10927.517578125,4181.86181640625,17406.94140625,6953.08056640625,8524.2587890625,1770.6552734375,11821.587890625,5505.0849609375,24241.60546875,4493.3955078125,18639.564453125,3853.638916015625,9977.0234375,27040.640625,22084.712890625,12001.197265625,-0.0,-43698.15234375,19980.271484375,5328.6552734375,0.0,7429.123046875,0.0,0.0
15610.8544921875,15399.4560546875,34399.82421875,12168.08984375,28675.3984375,7059.57421875,8633.13671875,9748.935546875,9744.1669921875,6906.19140625,17646.947265625,-1273.1552734375,9087.7216796875,0.0,23267.26953125,7879.73388671875,25343.89453125,20326.7734375,10129.611328125,12354.056640625,23539.06640625,29927.888671875,23195.744140625,20105.04296875,22042.59375,8003.7119140625,29603.638671875,1237.3924560546875,0.0,1628.39892578125,14135.04296875,7421.97021484375,26450.15625,16694.068359375,15634.6953125,25341.51171875,9821.255859375,14612.6748046875,9651.18359375,4806.5185546875,23264.884765625,10019.9384765625,17460.1875,11982.123046875,9419.1240234375,12741.8828125,12395.3818359375,2241.134765625,10927.517578125,4183.451171875,17403.76171875,6951.49072265625,8521.8740234375,1763.502685546875,11834.3037109375,5497.1376953125,24244.78515625,4490.216796875,18642.744140625,3851.254638671875,9975.43359375,27038.255859375,22083.91796875,12006.759765625,-0.0,-43702.91796875,19983.44921875,5320.7080078125,0.0,7426.73876953125,0.0,0.0
15594.958984375,15393.8935546875,34396.6484375,12164.1162109375,28676.19140625,7059.57421875,8635.5205078125,9748.935546875,9743.373046875,6907.78125,17659.6640625,-1269.976318359375,9095.6689453125,0.0,23268.064453125,7880.5283203125,25344.689453125,20325.18359375,10129.611328125,12354.8505859375,23536.681640625,29928.68359375,23194.154296875,20105.837890625,22044.9765625,8006.89013671875,29601.255859375,1237.3924560546875,0.0,1637.140869140625,14134.248046875,7425.1494140625,26452.541015625,16694.068359375,15634.6953125,25339.921875,9823.6396484375,14613.46875,9658.3369140625,4816.85009765625,23264.08984375,10019.1435546875,17460.98046875,11983.7119140625,9419.1240234375,12743.47265625,12396.9716796875,2243.518798828125,10931.4921875,4186.63037109375,17402.966796875,6953.08056640625,8537.76953125,1762.7080078125,11850.9931640625,5496.34326171875,24244.78515625,4488.626953125,18643.537109375,3849.665283203125,9972.2548828125,27039.05078125,22083.91796875,12009.1435546875,-0.0,-43700.53515625,19983.44921875,5320.7080078125,0.0,7425.1494140625,0.0,0.0
15594.958984375,15389.9189453125,34393.47265625,12159.34765625,28674.6015625,7054.8056640625,8633.13671875,9744.9619140625,9735.4248046875,6906.19140625,17654.896484375,-1275.5394287109375,9082.953125,0.0,23264.884765625,7874.9658203125,25342.306640625,20321.2109375,10126.431640625,12350.876953125,23531.119140625,29924.7109375,23190.974609375,20099.482421875,22030.671875,8001.32763671875,29602.845703125,1231.829345703125,0.0,1632.37255859375,14130.2744140625,7422.76513671875,26449.361328125,16691.685546875,15628.337890625,25335.947265625,9818.0771484375,14607.90625,9655.158203125,4808.90283203125,23261.705078125,10016.7587890625,17457.8046875,11980.533203125,9415.9443359375,12737.91015625,12381.87109375,2243.518798828125,10929.90234375,4181.06689453125,17399.787109375,6945.92822265625,8536.1796875,1766.681640625,11841.4560546875,5491.57470703125,24237.6328125,4482.26953125,18637.9765625,3846.486328125,9963.5126953125,27034.283203125,22079.9453125,12003.5810546875,-0.0,-43701.33203125,19977.888671875,5315.939453125,0.0,7421.17529296875,0.0,0.0
15601.3173828125,15391.5087890625,34387.11328125,12156.962890625,28673.806640625,7051.62646484375,8630.7529296875,9741.783203125,9729.0673828125,6902.2177734375,17628.669921875,-1277.923583984375,9072.62109375,0.0,23266.474609375,7874.17138671875,25338.33203125,20314.8515625,10123.2529296875,12349.2880859375,23528.734375,29920.736328125,23187.794921875,20094.712890625,22027.4921875,7995.7646484375,29606.818359375,1227.0609130859375,0.0,1622.8358154296875,14124.7109375,7419.5859375,26443.00390625,16687.7109375,15624.3642578125,25332.76953125,9816.4873046875,14603.9326171875,9648.7998046875,4796.18701171875,23259.3203125,10009.6064453125,17460.98046875,11974.17578125,9412.765625,12735.5263671875,12367.56640625,2230.00830078125,10924.3388671875,4173.1201171875,17401.376953125,6941.9541015625,8517.9013671875,1756.3502197265625,11827.1513671875,5489.1904296875,24240.017578125,4487.03759765625,18639.564453125,3847.28125,9962.7177734375,27030.310546875,22077.560546875,11998.8125,-0.0,-43706.89453125,19973.9140625,5323.091796875,0.0,7425.1494140625,0.0,0.0
15604.49609375,15397.072265625,34390.2890625,12156.1689453125,28680.958984375,7050.03759765625,8635.5205078125,9740.193359375,9725.888671875,6902.2177734375,17623.10546875,-1276.3341064453125,9072.62109375,0.0,23270.44921875,7876.5556640625,25337.537109375,20315.646484375,10123.2529296875,12351.671875,23530.32421875,29918.3515625,23188.591796875,20094.712890625,22040.208984375,7994.96923828125,29615.560546875,1227.0609130859375,0.0,1626.0146484375,14125.5068359375,7417.9970703125,26441.416015625,16686.12109375,15627.54296875,25332.76953125,9819.6669921875,14604.7275390625,9648.7998046875,4789.8291015625,23263.296875,10007.22265625,17469.724609375,11974.17578125,9414.35546875,12735.5263671875,12380.2822265625,2226.82958984375,10925.1337890625,4172.3251953125,17406.94140625,6941.15966796875,8512.337890625,1749.992431640625,11816.0244140625,5493.958984375,24243.197265625,4490.216796875,18644.33203125,3848.075927734375,9962.7177734375,27031.103515625,22080.740234375,12001.197265625,-0.0,-43714.83984375,19974.708984375,5319.91357421875,0.0,7424.3544921875,0.0,0.0
15587.0126953125,15398.6611328125,34391.0859375,12149.810546875,28680.166015625,7046.8583984375,8634.7265625,9739.3994140625,9721.1201171875,6899.83349609375,17621.517578125,-1275.5394287109375,9086.9267578125,0.0,23272.83203125,7874.17138671875,25333.5625,20315.646484375,10121.6630859375,12348.4921875,23530.32421875,29919.1484375,23184.6171875,20093.91796875,22044.181640625,7992.5849609375,29617.9453125,1226.2662353515625,0.0,1630.7830810546875,14123.1220703125,7417.2021484375,26442.208984375,16682.1484375,15627.54296875,25328.794921875,9818.0771484375,14602.34375,9619.3955078125,4783.4716796875,23262.5,10006.427734375,17467.33984375,11973.380859375,9410.380859375,12735.5263671875,12389.0234375,2228.4189453125,10921.955078125,4173.1201171875,17408.529296875,6941.15966796875,8499.6220703125,1759.529052734375,11816.0244140625,5489.98486328125,24245.580078125,4489.421875,18644.33203125,3848.075927734375,9961.9228515625,27028.71875,22080.740234375,11999.607421875,-0.0,-43713.25390625,19975.50390625,5311.9658203125,0.0,7418.79150390625,0.0,0.0
15570.3232421875,15389.125,34392.671875,12148.220703125,28667.44921875,7046.06396484375,8629.9580078125,9734.630859375,9717.146484375,6899.83349609375,17628.669921875,-1279.5130615234375,9090.1064453125,0.0,23268.857421875,7867.81298828125,25330.384765625,20310.083984375,10118.484375,12345.314453125,23527.14453125,29914.37890625,23179.0546875,20089.9453125,22037.029296875,7990.201171875,29611.587890625,1223.0872802734375,0.0,1633.167236328125,14119.9423828125,7416.4072265625,26439.82421875,16678.17578125,15621.9794921875,25325.6171875,9814.103515625,14598.369140625,9628.13671875,4781.8818359375,23258.52734375,10000.865234375,17457.8046875,11970.2021484375,9405.61328125,12730.7578125,12385.05078125,2227.624267578125,10936.259765625,4173.91455078125,17407.736328125,6937.185546875,8492.4697265625,1766.681640625,11827.1513671875,5482.0380859375,24244.78515625,4479.88525390625,18641.94921875,3844.89697265625,9961.1279296875,27024.74609375,22076.765625,11999.607421875,-0.0,-43710.8671875,19969.14453125,5305.6083984375,0.0,7414.81787109375,0.0,0.0
15572.70703125,15382.7666015625,34389.49609375,12149.810546875,28668.24609375,7047.6533203125,8627.57421875,9733.041015625,9715.556640625,6897.44970703125,17631.0546875,-1286.66552734375,9086.1318359375,0.0,23271.2421875,7867.0185546875,25329.58984375,20306.90625,10116.1005859375,12342.9296875,23525.556640625,29911.19921875,23177.46484375,20087.560546875,22028.287109375,7987.0224609375,29607.615234375,1221.4979248046875,0.0,1636.34619140625,14119.1484375,7413.228515625,26437.44140625,16677.37890625,15619.595703125,25323.232421875,9812.5146484375,14595.9853515625,9641.6474609375,4781.08740234375,23259.3203125,9999.275390625,17457.8046875,11968.6123046875,9404.818359375,12728.373046875,12385.8447265625,2228.4189453125,10929.90234375,4173.1201171875,17408.529296875,6934.8017578125,8497.23828125,1769.860595703125,11828.740234375,5481.2431640625,24242.400390625,4479.88525390625,18641.94921875,3835.3603515625,9949.20703125,27020.7734375,22073.587890625,11997.22265625,-0.0,-43718.81640625,19964.376953125,5299.25,0.0,7414.02294921875,0.0,0.0
15573.501953125,15385.1513671875,34392.671875,12157.7578125,28673.013671875,7050.83203125,8633.13671875,9737.8095703125,9719.53125,6900.62841796875,17640.58984375,-1280.3077392578125,9088.5166015625,0.0,23274.421875,7875.76025390625,25336.7421875,20310.87890625,10120.07421875,12346.9033203125,23529.529296875,29915.96875,23183.02734375,20092.328125,22036.234375,7990.99658203125,29610.79296875,1227.855712890625,0.0,1641.9093017578125,14123.9169921875,7421.17529296875,26443.00390625,16684.53125,15626.7490234375,25327.205078125,9816.4873046875,14600.75390625,9655.9521484375,4784.26611328125,23261.705078125,10002.4541015625,17464.16015625,11973.380859375,9408.7919921875,12731.5517578125,12396.1767578125,2230.00830078125,10932.2861328125,4177.88818359375,17414.09375,6941.15966796875,8515.517578125,1772.2447509765625,11830.330078125,5484.42236328125,24246.375,4485.4482421875,18647.51171875,3841.718017578125,9957.154296875,27023.951171875,22076.765625,11997.22265625,-0.0,-43716.4296875,19972.32421875,5312.7607421875,0.0,7415.61279296875,0.0,0.0
15579.859375,15376.408203125,34392.671875,12145.0419921875,28673.013671875,7049.24267578125,8633.13671875,9737.0146484375,9719.53125,6898.244140625,17643.76953125,-1276.3341064453125,9089.310546875,0.0,23269.65234375,7871.787109375,25336.7421875,20307.69921875,10119.279296875,12346.1083984375,23529.529296875,29916.763671875,23183.02734375,20091.533203125,22042.59375,7994.1748046875,29612.3828125,1223.0872802734375,0.0,1637.9356689453125,14123.1220703125,7419.5859375,26443.80078125,16686.916015625,15625.158203125,25328.001953125,9816.4873046875,14600.75390625,9654.3623046875,4783.4716796875,23257.732421875,10008.8115234375,17463.365234375,11971.791015625,9407.203125,12731.5517578125,12391.408203125,2215.703369140625,10933.08203125,4172.3251953125,17410.9140625,6937.98046875,8512.337890625,1767.4764404296875,11832.7138671875,5490.77978515625,24245.580078125,4484.6533203125,18641.94921875,3841.718017578125,9966.69140625,27023.15625,22076.765625,11998.017578125,-0.0,-43710.8671875,19977.091796875,5316.734375,0.0,7414.81787109375,0.0,0.0
15588.6015625,15376.408203125,34393.47265625,12148.220703125,28675.3984375,7047.6533203125,8633.931640625,9737.0146484375,9718.7353515625,6897.44970703125,17642.974609375,-1278.7183837890625,9091.6953125,0.0,23272.037109375,7873.3759765625,25336.7421875,20307.69921875,10118.484375,12345.314453125,23527.94140625,29919.943359375,23183.822265625,20091.533203125,22044.9765625,7992.5849609375,29615.560546875,1222.2926025390625,0.0,1635.551513671875,14123.9169921875,7417.9970703125,26443.80078125,16686.916015625,15626.7490234375,25327.205078125,9818.0771484375,14598.369140625,9655.158203125,4786.650390625,23260.1171875,10006.427734375,17466.544921875,11970.9970703125,9407.9970703125,12732.3466796875,12387.4345703125,2221.2666015625,10937.0546875,4169.14599609375,17412.50390625,6940.36474609375,8494.853515625,1758.734375,11828.740234375,5497.1376953125,24247.96484375,4484.6533203125,18644.33203125,3842.512939453125,9965.1025390625,27024.74609375,22074.380859375,11994.8388671875,-0.0,-43710.8671875,19976.296875,5309.58154296875,0.0,7411.638671875,0.0,0.0
15603.701171875,15379.587890625,34396.6484375,12160.1416015625,28677.78125,7048.4482421875,8634.7265625,9734.630859375,9715.556640625,6895.0654296875,17643.76953125,-1283.4866943359375,9093.2841796875,0.0,23273.626953125,7864.63427734375,25340.71484375,20310.083984375,10120.07421875,12342.9296875,23533.501953125,29919.943359375,23184.6171875,20093.91796875,22048.94921875,7992.5849609375,29619.53515625,1220.703125,0.0,1637.9356689453125,14128.6845703125,7418.79150390625,26446.18359375,16692.48046875,15629.1328125,25331.177734375,9819.6669921875,14599.1640625,9659.9267578125,4790.6240234375,23263.296875,10005.6337890625,17469.724609375,11970.2021484375,9408.7919921875,12729.16796875,12395.3818359375,2234.77685546875,10938.64453125,4169.14599609375,17414.888671875,6938.775390625,8494.853515625,1757.1448974609375,11832.7138671875,5488.3955078125,24250.349609375,4474.32177734375,18642.744140625,3837.744384765625,9968.28125,27026.333984375,22075.17578125,11990.865234375,-0.0,-43718.01953125,19967.556640625,5300.83984375,0.0,7411.638671875,0.0,0.0
15604.49609375,15377.998046875,34402.2109375,12160.9375,28680.958984375,7045.26904296875,8633.13671875,9732.24609375,9713.1728515625,6892.68115234375,17638.20703125,-1292.228759765625,9090.1064453125,0.0,23271.2421875,7860.66064453125,25342.306640625,20314.8515625,10120.869140625,12338.9560546875,23536.681640625,29922.326171875,23183.822265625,20092.328125,22052.12890625,7988.6123046875,29618.740234375,1216.7294921875,0.0,1637.140869140625,14131.86328125,7417.2021484375,26449.361328125,16691.685546875,15630.7216796875,25330.384765625,9817.2822265625,14599.1640625,9662.310546875,4793.00830078125,23268.064453125,10004.0439453125,17469.724609375,11967.818359375,9404.818359375,12727.578125,12395.3818359375,2236.3662109375,10941.0283203125,4165.96728515625,17411.708984375,6935.5966796875,8490.0859375,1757.939697265625,11834.3037109375,5474.88525390625,24248.7578125,4468.75927734375,18637.1796875,3836.155029296875,9965.1025390625,27025.541015625,22074.380859375,11987.6865234375,-0.0,-43728.3515625,19964.376953125,5298.45556640625,0.0,7405.28125,0.0,0.0
15616.4169921875,15383.5615234375,34406.18359375,12164.91015625,28686.5234375,7051.62646484375,8634.7265625,9736.220703125,9709.994140625,6891.88623046875,17638.20703125,-1284.2813720703125,9089.310546875,0.0,23269.65234375,7867.81298828125,25348.6640625,20317.236328125,10124.8427734375,12337.3671875,23542.24609375,29928.68359375,23186.20703125,20096.302734375,22056.103515625,7994.1748046875,29618.740234375,1223.0872802734375,0.0,1643.498779296875,14138.2216796875,7427.53369140625,26457.310546875,16698.041015625,15636.2861328125,25335.154296875,9819.6669921875,14601.5478515625,9661.515625,4801.75,23274.421875,10008.8115234375,17472.90234375,11974.17578125,9404.818359375,12730.7578125,12399.35546875,2241.92919921875,10946.591796875,4172.3251953125,17414.09375,6940.36474609375,8496.443359375,1772.2447509765625,11835.0986328125,5484.42236328125,24246.375,4479.88525390625,18636.384765625,3839.333740234375,9969.8701171875,27029.513671875,22073.587890625,11982.123046875,-0.0,-43721.9921875,19967.556640625,5300.83984375,0.0,7401.3076171875,0.0,0.0
15628.337890625,15393.8935546875,34414.9296875,12170.4736328125,28695.265625,7057.18994140625,8638.69921875,9740.98828125,9715.556640625,6893.47607421875,17648.5390625,-1280.3077392578125,9095.6689453125,0.0,23271.2421875,7873.3759765625,25357.404296875,20321.2109375,10128.021484375,12338.9560546875,23550.986328125,29936.6328125,23192.564453125,20101.0703125,22062.458984375,7998.14892578125,29625.892578125,1227.855712890625,0.0,1649.8565673828125,14145.3740234375,7437.0703125,26463.666015625,16706.78515625,15644.2314453125,25342.306640625,9825.2294921875,14607.90625,9655.9521484375,4806.5185546875,23283.162109375,10017.5546875,17479.26171875,11978.943359375,9409.5869140625,12731.5517578125,12412.865234375,2246.69775390625,10954.5390625,4177.88818359375,17416.4765625,6944.33837890625,8501.2119140625,1782.576171875,11841.4560546875,5491.57470703125,24251.142578125,4484.6533203125,18641.154296875,3839.333740234375,9980.99609375,27035.87109375,22076.765625,11985.3017578125,-0.0,-43714.83984375,19968.3515625,5302.42919921875,0.0,7398.92333984375,0.0,0.0
15621.185546875,15386.740234375,34413.3359375,12164.1162109375,28691.291015625,7052.42138671875,8637.9052734375,9736.220703125,9719.53125,6892.68115234375,17651.716796875,-1288.255126953125,9090.1064453125,0.0,23270.44921875,7867.81298828125,25353.431640625,20319.62109375,10124.046875,12338.9560546875,23549.3984375,29930.2734375,23190.974609375,20097.890625,22056.103515625,7991.791015625,29625.892578125,1222.2926025390625,0.0,1640.31982421875,14142.990234375,7437.0703125,26462.873046875,16704.400390625,15641.84765625,25337.537109375,9822.845703125,14603.9326171875,9655.158203125,4799.3662109375,23279.189453125,10012.7861328125,17476.876953125,11974.970703125,9411.970703125,12729.9619140625,12416.83984375,2237.955810546875,10953.744140625,4173.1201171875,17416.4765625,6938.775390625,8500.4169921875,1773.0394287109375,11836.6884765625,5478.85888671875,24250.349609375,4476.7060546875,18642.744140625,3835.3603515625,9978.6123046875,27031.103515625,22075.970703125,11988.48046875,-0.0,-43713.25390625,19968.3515625,5308.787109375,0.0,7404.486328125,0.0,0.0
15604.49609375,15393.8935546875,34413.3359375,12160.9375,28684.935546875,7051.62646484375,8635.5205078125,9733.8359375,9721.9150390625,6888.70751953125,17632.642578125,-1290.6392822265625,9078.9794921875,0.0,23271.2421875,7861.455078125,25352.63671875,20319.62109375,10121.6630859375,12336.5712890625,23547.013671875,29926.30078125,23190.1796875,20094.712890625,22051.333984375,7990.99658203125,29626.6875,1221.4979248046875,0.0,1633.167236328125,14139.8115234375,7434.68603515625,26459.693359375,16702.017578125,15636.2861328125,25334.357421875,9819.6669921875,14599.958984375,9650.3896484375,4800.16064453125,23276.009765625,10012.7861328125,17473.697265625,11974.17578125,9412.765625,12725.9892578125,12416.83984375,2231.597900390625,10945.796875,4173.91455078125,17415.681640625,6934.00732421875,8491.67578125,1766.681640625,11836.6884765625,5470.1171875,24248.7578125,4468.75927734375,18641.94921875,3830.591796875,9978.6123046875,27028.71875,22072.79296875,11984.5078125,-0.0,-43720.40625,19968.3515625,5301.63427734375,0.0,7398.92333984375,0.0,0.0
15598.93359375,15396.27734375,34416.515625,12163.3212890625,28691.291015625,7058.779296875,8641.87890625,9740.193359375,9728.2724609375,6891.091796875,17622.3125,-1278.7183837890625,9095.6689453125,0.0,23276.806640625,7868.607421875,25355.021484375,20322.798828125,10126.431640625,12338.9560546875,23550.19140625,29932.658203125,23198.923828125,20100.275390625,22056.8984375,7997.353515625,29638.609375,1229.445068359375,0.0,1633.9620361328125,14144.580078125,7438.65966796875,26465.2578125,16706.78515625,15641.84765625,25339.126953125,9826.0244140625,14605.5224609375,9651.978515625,4800.955078125,23281.57421875,10019.1435546875,17481.646484375,11983.7119140625,9419.1240234375,12730.7578125,12417.6337890625,2233.982177734375,10958.5126953125,4183.451171875,17424.42578125,6941.15966796875,8499.6220703125,1768.2711181640625,11833.5087890625,5477.26953125,24258.294921875,4478.2958984375,18645.12890625,3837.744384765625,9980.99609375,27034.283203125,22075.970703125,11982.91796875,-0.0,-43716.4296875,19969.939453125,5296.86572265625,0.0,7394.94921875,0.0,0.0
15604.49609375,15389.125,34418.8984375,12169.6787109375,28697.6484375,7061.16357421875,8647.44140625,9740.193359375,9737.0146484375,6895.0654296875,17631.849609375,-1291.4339599609375,9103.6162109375,0.0,23279.986328125,7870.99169921875,25355.81640625,20323.595703125,10129.611328125,12343.724609375,23551.783203125,29935.8359375,23202.896484375,20101.865234375,22065.638671875,8005.30126953125,29642.58203125,1231.03466796875,0.0,1624.42529296875,14146.1689453125,7437.0703125,26467.642578125,16710.7578125,15646.6162109375,25340.71484375,9828.408203125,14607.1123046875,9649.5947265625,4797.77685546875,23284.75390625,10025.5009765625,17489.591796875,11985.3017578125,9424.6865234375,12731.5517578125,12420.8134765625,2233.982177734375,10967.2548828125,4181.86181640625,17429.986328125,6940.36474609375,8519.490234375,1762.7080078125,11831.919921875,5480.4482421875,24259.08984375,4482.26953125,18649.896484375,3842.512939453125,9973.84375,27035.078125,22079.1484375,11989.2763671875,-0.0,-43718.01953125,19969.939453125,5296.0712890625,0.0,7400.5126953125,0.0,0.0
15604.49609375,15373.23046875,34406.18359375,12157.7578125,28683.34375,7049.24267578125,8635.5205078125,9729.0673828125,9733.041015625,6890.296875,17629.46484375,-1308.91796875,9102.02734375,0.0,23269.65234375,7863.044921875,25341.51171875,20312.466796875,10121.6630859375,12338.1611328125,23539.861328125,29922.326171875,23194.154296875,20089.9453125,22051.333984375,7988.6123046875,29623.5078125,1218.3189697265625,0.0,1611.7095947265625,14133.453125,7424.3544921875,26454.92578125,16698.041015625,15633.1064453125,25330.384765625,9816.4873046875,14597.5751953125,9636.87890625,4787.4453125,23272.83203125,10016.7587890625,17475.287109375,11971.791015625,9412.765625,12722.015625,12404.9189453125,2220.4716796875,10945.0029296875,4162.78857421875,17418.861328125,6929.23876953125,8515.517578125,1744.42919921875,11834.3037109375,5467.73291015625,24244.78515625,4479.09033203125,18638.76953125,3833.770751953125,9953.9755859375,27024.74609375,22071.203125,11986.0966796875,-0.0,-43733.9140625,19963.58203125,5289.71337890625,0.0,7397.33349609375,0.0,0.0
15603.701171875,15364.4873046875,34381.55078125,12142.658203125,28664.26953125,7039.70556640625,8626.7783203125,9724.2998046875,9726.68359375,6883.939453125,17621.517578125,-1308.123291015625,9086.9267578125,0.0,23260.1171875,7861.455078125,25330.384765625,20299.75390625,10114.5107421875,12329.4189453125,23523.171875,29910.40625,23184.6171875,20081.201171875,22022.724609375,7969.53857421875,29613.17578125,1210.37158203125,0.0,1611.7095947265625,14121.5322265625,7415.61279296875,26441.416015625,16683.736328125,15617.2109375,25319.2578125,9810.1298828125,14592.01171875,9632.1103515625,4777.11328125,23251.375,9999.275390625,17463.365234375,11966.228515625,9406.4072265625,12718.8369140625,12377.8984375,2213.319091796875,10916.392578125,4151.662109375,17410.119140625,6925.2646484375,8496.443359375,1736.4820556640625,11829.53515625,5461.375,24233.66015625,4475.11669921875,18626.84765625,3827.412841796875,9942.849609375,27014.4140625,22063.255859375,11978.943359375,-0.0,-43735.50390625,19946.89453125,5287.3291015625,0.0,7397.33349609375,0.0,0.0
15614.033203125,15375.6142578125,34396.6484375,12157.7578125,28682.55078125,7054.8056640625,8648.236328125,9742.5771484375,9746.5517578125,6899.83349609375,17631.0546875,-1293.0234375,9092.490234375,0.0,23276.806640625,7877.349609375,25344.689453125,20314.05859375,10131.2001953125,12348.4921875,23536.681640625,29923.916015625,23202.1015625,20098.685546875,22032.26171875,7983.84375,29634.634765625,1225.471435546875,0.0,1626.0146484375,14135.04296875,7429.123046875,26454.130859375,16698.041015625,15633.9013671875,25334.357421875,9829.203125,14609.49609375,9646.416015625,4789.8291015625,23264.884765625,10011.1962890625,17484.822265625,11982.91796875,9427.865234375,12738.705078125,12386.6396484375,2229.213623046875,10928.3134765625,4163.58349609375,17432.37109375,6941.9541015625,8496.443359375,1754.7607421875,11832.7138671875,5474.88525390625,24249.552734375,4484.6533203125,18645.921875,3844.89697265625,9959.5380859375,27031.103515625,22080.740234375,11997.22265625,-0.0,-43720.40625,19966.759765625,5302.42919921875,0.0,7408.4599609375,0.0,0.0
15615.6220703125,15385.1513671875,34407.77734375,12160.1416015625,28689.703125,7058.779296875,8654.5947265625,9746.5517578125,9753.7041015625,6903.80712890625,17636.6171875,-1293.0234375,9106.794921875,0.0,23279.986328125,7870.99169921875,25348.6640625,20319.62109375,10136.763671875,12352.466796875,23543.0390625,29927.095703125,23209.25390625,20104.25,22048.94921875,7987.81689453125,29626.6875,1230.2398681640625,0.0,1627.6041259765625,14139.8115234375,7433.09619140625,26457.310546875,16701.220703125,15641.0537109375,25336.7421875,9833.1767578125,14615.05859375,9654.3623046875,4796.18701171875,23274.421875,10014.375,17493.56640625,11990.0703125,9433.4287109375,12741.8828125,12396.9716796875,2235.571533203125,10940.234375,4171.5302734375,17437.138671875,6941.9541015625,8497.23828125,1763.502685546875,11834.3037109375,5474.88525390625,24256.70703125,4483.8583984375,18650.689453125,3849.665283203125,9964.306640625,27035.87109375,22086.302734375,11999.607421875,-0.0,-43717.22265625,19966.759765625,5306.40283203125,0.0,7406.87060546875,0.0,0.0
15606.8798828125,15381.1767578125,34409.36328125,12153.78515625,28682.55078125,7057.98486328125,8639.4951171875,9740.98828125,9752.9091796875,6897.44970703125,17642.1796875,-1299.3812255859375,9109.1796875,0.0,23273.626953125,7863.83935546875,25344.689453125,20314.8515625,10129.611328125,12343.724609375,23539.861328125,29920.736328125,23203.69140625,20100.275390625,22061.666015625,7986.22802734375,29612.3828125,1225.471435546875,0.0,1621.246337890625,14135.837890625,7427.53369140625,26455.720703125,16696.453125,15636.2861328125,25331.177734375,9824.435546875,14607.90625,9651.18359375,4794.59765625,23276.009765625,10013.580078125,17479.26171875,11987.6865234375,9426.2763671875,12733.1416015625,12396.9716796875,2231.597900390625,10960.1025390625,4169.14599609375,17418.861328125,6935.5966796875,8502.80078125,1769.860595703125,11839.072265625,5469.322265625,24259.08984375,4479.88525390625,18642.744140625,3842.512939453125,9959.5380859375,27030.310546875,22079.1484375,11991.66015625,-0.0,-43721.19921875,19965.966796875,5306.40283203125,0.0,7402.89697265625,0.0,0.0
15602.111328125,15372.435546875,34407.77734375,12153.78515625,28680.166015625,7060.369140625,8637.1103515625,9740.98828125,9760.8564453125,6895.8603515625,17627.080078125,-1296.9970703125,9087.7216796875,0.0,23269.65234375,7865.4287109375,25343.099609375,20316.443359375,10128.8154296875,12343.724609375,23539.861328125,29920.736328125,23203.69140625,20099.482421875,22048.154296875,7990.201171875,29613.97265625,1224.6767578125,0.0,1618.8621826171875,14133.453125,7423.5595703125,26454.130859375,16695.658203125,15633.9013671875,25332.76953125,9822.05078125,14607.90625,9648.7998046875,4795.392578125,23271.2421875,10015.169921875,17473.697265625,11989.2763671875,9427.0703125,12733.9365234375,12381.0771484375,2231.597900390625,10952.1552734375,4171.5302734375,17415.681640625,6938.775390625,8505.185546875,1769.06591796875,11821.587890625,5474.0908203125,24250.349609375,4479.88525390625,18642.744140625,3844.10205078125,9953.181640625,27027.92578125,22075.970703125,11996.4287109375,-0.0,-43719.609375,19969.939453125,5312.7607421875,0.0,7405.28125,0.0,0.0
15587.806640625,15373.23046875,34396.6484375,12152.1953125,28676.986328125,7064.34228515625,8641.083984375,9743.373046875,9767.21484375,6898.244140625,17604.828125,-1297.7918701171875,9070.2373046875,0.0,23268.857421875,7869.40283203125,25338.33203125,20313.263671875,10129.611328125,12344.51953125,23533.501953125,29919.943359375,23206.076171875,20100.275390625,22029.08203125,7995.7646484375,29621.125,1229.445068359375,0.0,1620.4515380859375,14132.6591796875,7420.380859375,26446.978515625,16694.865234375,15633.1064453125,25335.947265625,9823.6396484375,14610.291015625,9644.826171875,4789.0341796875,23264.884765625,10018.3486328125,17477.669921875,11993.2490234375,9431.044921875,12736.3203125,12368.361328125,2222.855712890625,10937.0546875,4176.298828125,17423.62890625,6942.7490234375,8487.701171875,1761.1185302734375,11812.845703125,5478.06396484375,24232.068359375,4481.474609375,18643.537109375,3845.691650390625,9950.796875,27029.513671875,22078.35546875,11996.4287109375,-0.0,-43714.046875,19968.3515625,5315.939453125,0.0,7406.076171875,0.0,0.0
15588.6015625,15377.998046875,34404.59375,12157.7578125,28688.908203125,7069.90576171875,8653.7998046875,9748.1416015625,9773.572265625,6902.2177734375,17608.80078125,-1290.6392822265625,9072.62109375,0.0,23276.806640625,7873.3759765625,25342.306640625,20318.826171875,10135.9677734375,12348.4921875,23540.654296875,29924.7109375,23213.228515625,20106.634765625,22046.56640625,7999.73779296875,29638.609375,1237.3924560546875,0.0,1625.219970703125,14137.427734375,7423.5595703125,26451.74609375,16696.453125,15639.4638671875,25339.921875,9832.3818359375,14616.6484375,9646.416015625,4786.650390625,23274.421875,10023.9111328125,17489.591796875,11997.22265625,9438.197265625,12741.8828125,12388.2294921875,2223.650634765625,10945.0029296875,4181.86181640625,17437.138671875,6947.517578125,8464.654296875,1761.1185302734375,11816.0244140625,5482.0380859375,24231.275390625,4487.83251953125,18652.28125,3848.87060546875,9954.7705078125,27035.87109375,22083.125,11999.607421875,-0.0,-43710.8671875,19969.14453125,5307.19775390625,0.0,7402.89697265625,0.0,0.0
15588.6015625,15383.5615234375,34412.54296875,12162.5263671875,28701.623046875,7074.67431640625,8664.130859375,9752.9091796875,9780.724609375,6907.78125,17617.544921875,-1285.076171875,9086.9267578125,0.0,23284.75390625,7874.9658203125,25347.8671875,20325.978515625,10143.12109375,12354.056640625,23546.21875,29928.68359375,23222.765625,20112.9921875,22066.435546875,8002.91748046875,29640.197265625,1242.1607666015625,0.0,1631.577880859375,14143.7841796875,7427.53369140625,26458.8984375,16701.220703125,15647.4111328125,25345.484375,9840.3291015625,14623.005859375,9644.03125,4789.8291015625,23286.341796875,10027.8857421875,17502.30859375,12001.197265625,9445.349609375,12746.6513671875,12402.5341796875,2230.80322265625,10958.5126953125,4185.041015625,17449.85546875,6949.9013671875,8459.8857421875,1761.1185302734375,11816.0244140625,5486.80615234375,24247.96484375,4491.01123046875,18661.021484375,3851.254638671875,9959.5380859375,27043.0234375,22088.685546875,12004.375,-0.0,-43707.6875,19976.296875,5302.42919921875,0.0,7404.486328125,0.0,0.0
15583.8330078125,15394.6875,34406.98046875,12158.552734375,28682.55078125,7071.4951171875,8644.263671875,9748.1416015625,9775.9560546875,6905.39697265625,17617.544921875,-1283.4866943359375,9092.490234375,0.0,23274.421875,7873.3759765625,25343.89453125,20318.03125,10136.763671875,12352.466796875,23537.4765625,29924.7109375,23209.25390625,20108.22265625,22046.56640625,8003.7119140625,29612.3828125,1238.1871337890625,0.0,1631.577880859375,14138.2216796875,7427.53369140625,26453.3359375,16697.248046875,15636.2861328125,25340.71484375,9828.408203125,14617.443359375,9641.6474609375,4785.06103515625,23270.44921875,10023.9111328125,17481.646484375,12000.4013671875,9434.2236328125,12741.0888671875,12406.5087890625,2231.597900390625,10945.0029296875,4185.83544921875,17424.42578125,6945.13330078125,8490.8798828125,1762.7080078125,11825.5615234375,5486.80615234375,24257.501953125,4487.03759765625,18648.306640625,3849.665283203125,9961.1279296875,27033.48828125,22080.740234375,12003.5810546875,-0.0,-43706.1015625,19979.4765625,5303.22412109375,0.0,7406.87060546875,0.0,0.0
15588.6015625,15384.3564453125,34404.59375,12158.552734375,28666.654296875,7074.67431640625,8633.931640625,9752.1142578125,9774.3671875,6908.57568359375,17623.10546875,-1282.69189453125,9099.642578125,0.0,23269.65234375,7880.5283203125,25343.89453125,20317.236328125,10135.173828125,12350.876953125,23535.09375,29928.68359375,23203.69140625,20108.22265625,22027.4921875,8008.47998046875,29598.87109375,1242.1607666015625,0.0,1634.7567138671875,14138.2216796875,7427.53369140625,26452.541015625,16698.041015625,15630.7216796875,25343.099609375,9822.845703125,14616.6484375,9643.2373046875,4785.85595703125,23262.5,10026.2958984375,17466.544921875,12005.169921875,9428.66015625,12743.47265625,12389.0234375,2235.571533203125,10938.64453125,4192.193359375,17407.736328125,6949.9013671875,8502.80078125,1771.4500732421875,11835.892578125,5489.98486328125,24265.447265625,4491.80615234375,18641.94921875,3854.433837890625,9959.5380859375,27033.48828125,22079.1484375,12005.96484375,-0.0,-43705.3046875,19976.296875,5313.55517578125,0.0,7414.02294921875,0.0,0.0
15590.9853515625,15370.845703125,34403.0078125,12147.4267578125,28669.0390625,7065.13720703125,8633.931640625,9747.345703125,9768.0087890625,6903.0126953125,17623.90234375,-1302.5601806640625,9095.6689453125,0.0,23264.08984375,7878.14404296875,25339.126953125,20312.466796875,10131.9951171875,12347.6982421875,23531.9140625,29921.53125,23200.51171875,20103.455078125,22029.876953125,7991.791015625,29602.845703125,1235.00830078125,0.0,1622.0411376953125,14132.6591796875,7422.76513671875,26446.978515625,16690.095703125,15628.337890625,25336.7421875,9820.4609375,14611.8798828125,9644.826171875,4784.26611328125,23262.5,10015.96484375,17468.134765625,11999.607421875,9426.2763671875,12741.8828125,12376.30859375,2226.034912109375,10941.8232421875,4181.86181640625,17409.32421875,6946.72265625,8489.291015625,1761.913330078125,11834.3037109375,5471.70654296875,24251.9375,4488.626953125,18640.359375,3850.4599609375,9955.5654296875,27030.310546875,22077.560546875,11998.8125,-0.0,-43722.7890625,19964.376953125,5303.22412109375,0.0,7406.076171875,0.0,0.0
15582.244140625,15357.3349609375,34387.11328125,12137.095703125,28664.26953125,7059.57421875,8631.546875,9743.373046875,9771.9833984375,6903.80712890625,17619.927734375,-1309.7127685546875,9090.900390625,0.0,23262.5,7877.349609375,25330.384765625,20306.90625,10128.8154296875,12349.2880859375,23525.556640625,29913.583984375,23198.126953125,20099.482421875,22026.697265625,7982.25390625,29600.462890625,1230.2398681640625,0.0,1609.325439453125,14125.5068359375,7413.228515625,26438.236328125,16683.736328125,15620.390625,25331.974609375,9819.6669921875,14608.701171875,9632.9052734375,4779.49755859375,23255.34765625,10008.017578125,17465.75,11995.6328125,9427.0703125,12741.0888671875,12379.4873046875,2219.677001953125,10935.4658203125,4174.70947265625,17410.119140625,6944.33837890625,8490.8798828125,1744.42919921875,11821.587890625,5468.52734375,24246.375,4489.421875,18639.564453125,3851.254638671875,9946.0283203125,27024.74609375,22075.17578125,12001.197265625,-0.0,-43731.52734375,19965.966796875,5307.99267578125,0.0,7407.6650390625,0.0,0.0
15590.9853515625,15367.6669921875,34383.93359375,12141.8642578125,28664.26953125,7063.5478515625,8633.931640625,9748.935546875,9776.751953125,6909.37060546875,17605.623046875,-1296.9970703125,9082.158203125,0.0,23264.08984375,7884.50244140625,25331.974609375,20308.494140625,10129.611328125,12356.4404296875,23525.556640625,29916.763671875,23197.33203125,20101.0703125,22023.51953125,7988.6123046875,29601.255859375,1238.1871337890625,0.0,1608.5306396484375,14127.095703125,7414.02294921875,26437.44140625,16686.916015625,15621.185546875,25333.5625,9818.87109375,14614.2646484375,9660.720703125,4779.49755859375,23252.96484375,10011.990234375,17464.16015625,11999.607421875,9428.66015625,12744.267578125,12372.3349609375,2224.4453125,10933.08203125,4181.06689453125,17414.09375,6949.10693359375,8488.49609375,1742.83984375,11808.078125,5479.65380859375,24244.78515625,4497.369140625,18642.744140625,3858.4072265625,9948.4130859375,27026.333984375,22079.9453125,12011.5283203125,-0.0,-43719.609375,19976.296875,5315.939453125,0.0,7418.79150390625,0.0,0.0
15591.7802734375,15368.4619140625,34382.34375,12138.6845703125,28663.4765625,7057.98486328125,8630.7529296875,9746.5517578125,9771.9833984375,6906.19140625,17588.138671875,-1296.9970703125,9083.748046875,0.0,23260.912109375,7886.09228515625,25327.205078125,20299.75390625,10124.8427734375,12350.876953125,23522.376953125,29911.994140625,23192.564453125,20097.09765625,22025.904296875,7972.71728515625,29602.05078125,1235.802978515625,0.0,1606.146484375,14122.3271484375,7410.04931640625,26433.46875,16682.1484375,15618.80078125,25326.41015625,9815.693359375,14609.49609375,9624.9580078125,4765.1923828125,23252.16796875,10007.22265625,17463.365234375,11993.2490234375,9423.0966796875,12740.294921875,12362.0029296875,2221.2666015625,10937.0546875,4177.09375,17409.32421875,6948.3125,8480.548828125,1747.608154296875,11822.3828125,5479.65380859375,24241.60546875,4493.3955078125,18638.76953125,3858.4072265625,9940.46484375,27020.7734375,22075.17578125,12006.759765625,-0.0,-43723.58203125,19973.9140625,5308.787109375,0.0,7408.4599609375,0.0,0.0
15588.6015625,15361.30859375,34380.75390625,12130.7373046875,28661.091796875,7051.62646484375,8625.984375,9740.193359375,9766.4189453125,6903.0126953125,17550.787109375,-1303.3548583984375,9074.2109375,0.0,23257.732421875,7876.5556640625,25324.025390625,20293.39453125,10120.07421875,12346.1083984375,23519.9921875,29908.021484375,23188.591796875,20090.73828125,22021.9296875,7972.71728515625,29596.486328125,1228.650390625,0.0,1606.941162109375,14119.1484375,7405.28125,26433.46875,16681.353515625,15614.033203125,25320.84765625,9810.9248046875,14602.34375,9607.474609375,4765.1923828125,23250.580078125,9999.275390625,17461.77734375,11986.8916015625,9418.328125,12733.9365234375,12362.0029296875,2220.4716796875,10932.2861328125,4172.3251953125,17405.3515625,6942.7490234375,8478.1650390625,1757.939697265625,11819.203125,5474.88525390625,24237.6328125,4487.03759765625,18635.591796875,3854.433837890625,9936.4921875,27015.208984375,22069.61328125,12003.5810546875,-0.0,-43730.734375,19973.119140625,5307.19775390625,0.0,7403.69189453125,0.0,0.0
15580.654296875,15362.103515625,34385.51953125,12133.916015625,28665.861328125,7054.0107421875,8629.1630859375,9739.3994140625,9766.4189453125,6906.19140625,17568.26953125,-1301.765380859375,9064.6748046875,0.0,23257.732421875,7874.17138671875,25325.6171875,20294.984375,10123.2529296875,12349.2880859375,23523.171875,29910.40625,23189.38671875,20089.150390625,22022.724609375,7985.4326171875,29598.078125,1228.650390625,0.0,1610.1201171875,14121.5322265625,7406.076171875,26436.646484375,16684.53125,15617.2109375,25321.642578125,9813.30859375,14602.34375,9613.037109375,4771.55078125,23255.34765625,10004.837890625,17464.95703125,11987.6865234375,9419.91796875,12734.73046875,12370.74609375,2222.855712890625,10936.259765625,4173.91455078125,17406.94140625,6941.9541015625,8473.396484375,1763.502685546875,11817.6142578125,5474.0908203125,24235.248046875,4486.24267578125,18635.591796875,3851.254638671875,9938.8759765625,27017.59375,22071.99609375,12010.7333984375,-0.0,-43724.375,19975.50390625,5313.55517578125,0.0,7413.228515625,0.0,0.0
15577.4755859375,15367.6669921875,34391.87890625,12137.8896484375,28681.755859375,7056.39501953125,8637.1103515625,9744.1669921875,9772.77734375,6912.54931640625,17611.98046875,-1295.4075927734375,9079.7734375,0.0,23265.6796875,7882.91259765625,25332.76953125,20303.7265625,10129.611328125,12354.8505859375,23533.501953125,29917.55859375,23199.716796875,20093.123046875,22036.234375,7987.81689453125,29613.97265625,1232.6240234375,0.0,1614.8885498046875,14129.4794921875,7411.638671875,26443.80078125,16688.505859375,15626.7490234375,25326.41015625,9824.435546875,14609.49609375,9629.7265625,4778.703125,23265.6796875,10009.6064453125,17478.466796875,11991.66015625,9425.48046875,12740.294921875,12382.6669921875,2220.4716796875,10950.5654296875,4178.6826171875,17414.888671875,6949.9013671875,8479.7548828125,1766.681640625,11822.3828125,5472.50146484375,24244.78515625,4493.3955078125,18644.33203125,3858.4072265625,9942.849609375,27025.541015625,22079.1484375,12018.6806640625,-0.0,-43716.4296875,19978.681640625,5319.11865234375,0.0,7422.76513671875,0.0,0.0
15575.091796875,15362.103515625,34386.31640625,12131.53125,28680.958984375,7049.24267578125,8635.5205078125,9737.0146484375,9766.4189453125,6906.986328125,17615.16015625,-1303.3548583984375,9071.0322265625,0.0,23264.884765625,7877.349609375,25328.001953125,20300.546875,10124.046875,12354.056640625,23528.734375,29911.19921875,23193.359375,20087.560546875,22031.46484375,7983.04833984375,29613.17578125,1224.6767578125,0.0,1605.351806640625,14124.7109375,7407.6650390625,26438.236328125,16682.1484375,15624.3642578125,25320.84765625,9822.05078125,14602.34375,9633.7001953125,4770.755859375,23260.912109375,10004.0439453125,17477.669921875,11983.7119140625,9419.91796875,12733.1416015625,12377.1025390625,2214.114013671875,10934.6708984375,4173.1201171875,17413.296875,6941.9541015625,8483.7275390625,1757.1448974609375,11788.208984375,5463.7587890625,24242.400390625,4481.474609375,18643.537109375,3853.638916015625,9937.2861328125,27020.7734375,22073.587890625,12019.474609375,-0.0,-43722.7890625,19977.091796875,5310.37646484375,0.0,7417.2021484375,0.0,0.0
15575.8857421875,15358.9248046875,34379.9609375,12126.763671875,28666.654296875,7043.6796875,8628.3681640625,9734.630859375,9758.47265625,6903.0126953125,17617.544921875,-1307.32861328125,9067.8525390625,0.0,23263.296875,7876.5556640625,25324.822265625,20294.984375,10119.279296875,12350.08203125,23520.7890625,29904.841796875,23186.20703125,20081.99609375,22019.544921875,7982.25390625,29602.05078125,1219.1136474609375,0.0,1606.146484375,14117.55859375,7406.076171875,26432.671875,16676.583984375,15616.4169921875,25316.080078125,9816.4873046875,14598.369140625,9631.31640625,4772.34521484375,23250.580078125,9999.275390625,17467.33984375,11978.943359375,9412.765625,12729.16796875,12367.56640625,2209.345458984375,10919.5712890625,4170.73583984375,17407.736328125,6938.775390625,8487.701171875,1749.1976318359375,11795.361328125,5461.375,24236.04296875,4480.68017578125,18641.94921875,3850.4599609375,9941.2607421875,27016.00390625,22070.408203125,12014.70703125,-0.0,-43729.14453125,19977.091796875,5309.58154296875,0.0,7413.228515625,0.0,0.0
15571.1171875,15354.15625,34383.93359375,12121.9951171875,28663.4765625,7042.884765625,8626.7783203125,9733.041015625,9752.1142578125,6901.4228515625,17618.337890625,-1308.91796875,9085.337890625,0.0,23262.5,7879.73388671875,25320.84765625,20291.8046875,10117.6904296875,12346.9033203125,23519.9921875,29901.662109375,23184.6171875,20081.99609375,22034.64453125,7980.6640625,29605.23046875,1219.1136474609375,0.0,1595.8150634765625,14114.3798828125,7402.10205078125,26432.671875,16672.611328125,15615.6220703125,25312.900390625,9814.8984375,14598.369140625,9622.57421875,4764.39794921875,23255.34765625,9997.685546875,17464.16015625,11978.943359375,9409.5869140625,12729.16796875,12369.9501953125,2198.21923828125,10945.796875,4175.50439453125,17408.529296875,6937.185546875,8482.138671875,1740.45556640625,11816.8193359375,5461.375,24240.8125,4487.03759765625,18640.359375,3851.254638671875,9934.90234375,27016.798828125,22070.408203125,12007.5537109375,-0.0,-43732.328125,19972.32421875,5311.9658203125,0.0,7415.61279296875,0.0,0.0
15571.912109375,15358.130859375,34379.9609375,12120.40625,28659.501953125,7046.06396484375,8626.7783203125,9736.220703125,9751.3203125,6901.4228515625,17619.927734375,-1308.123291015625,9072.62109375,0.0,23260.1171875,7886.88671875,25318.46484375,20293.39453125,10119.279296875,12346.1083984375,23516.8125,29898.484375,23183.822265625,20082.79296875,22027.4921875,7980.6640625,29602.05078125,1225.471435546875,0.0,1592.6361083984375,14111.99609375,7401.3076171875,26429.494140625,16671.021484375,15615.6220703125,25312.900390625,9817.2822265625,14601.5478515625,9616.2158203125,4762.013671875,23247.400390625,9994.5068359375,17465.75,11979.7392578125,9409.5869140625,12730.7578125,12371.5400390625,2207.756103515625,10933.8759765625,4177.88818359375,17409.32421875,6941.15966796875,8478.958984375,1744.42919921875,11813.640625,5462.96435546875,24236.837890625,4494.98486328125,18639.564453125,3853.638916015625,9926.955078125,27017.59375,22069.61328125,12005.96484375,-0.0,-43724.375,19973.119140625,5307.19775390625,0.0,7406.87060546875,0.0,0.0
15576.6806640625,15354.951171875,34368.83203125,12123.5849609375,28656.32421875,7042.08984375,8624.39453125,9734.630859375,9749.73046875,6900.62841796875,17615.16015625,-1303.3548583984375,9064.6748046875,0.0,23257.732421875,7886.88671875,25316.080078125,20291.8046875,10118.484375,12343.724609375,23512.044921875,29897.689453125,23180.642578125,20081.99609375,22014.775390625,7979.0751953125,29594.8984375,1222.2926025390625,0.0,1591.046630859375,14109.611328125,7399.7177734375,26423.13671875,16667.84375,15610.8544921875,25312.10546875,9812.5146484375,14598.369140625,9614.626953125,4764.39794921875,23237.0703125,9989.73828125,17462.572265625,11978.1494140625,9409.5869140625,12728.373046875,12365.181640625,2210.934814453125,10921.1611328125,4172.3251953125,17404.556640625,6942.7490234375,8472.6015625,1742.0450439453125,11794.5673828125,5466.14306640625,24231.275390625,4496.57421875,18638.76953125,3850.4599609375,9924.5712890625,27016.00390625,22066.435546875,12005.96484375,-0.0,-43722.7890625,19969.939453125,5307.19775390625,0.0,7394.94921875,0.0,0.0
15565.5546875,15350.9775390625,34367.24609375,12131.53125,28659.501953125,7043.6796875,8621.2158203125,9734.630859375,9748.935546875,6899.03857421875,17598.470703125,-1297.7918701171875,9071.8271484375,0.0,23255.34765625,7883.7080078125,25314.490234375,20291.8046875,10117.6904296875,12342.1357421875,23512.044921875,29898.484375,23181.4375,20083.5859375,22015.572265625,7982.25390625,29589.333984375,1222.2926025390625,0.0,1587.072998046875,14111.99609375,7398.92333984375,26422.341796875,16670.2265625,15610.8544921875,25313.6953125,9813.30859375,14596.7802734375,9613.8310546875,4765.1923828125,23243.427734375,9994.5068359375,17463.365234375,11978.943359375,9407.9970703125,12727.578125,12358.8251953125,2206.96142578125,10929.107421875,4169.14599609375,17400.583984375,6942.7490234375,8471.01171875,1742.83984375,11783.4404296875,5475.6796875,24234.453125,4496.57421875,18635.591796875,3847.28125,9923.775390625,27016.00390625,22065.638671875,12002.7861328125,-0.0,-43714.83984375,19967.556640625,5319.11865234375,0.0,7395.744140625,0.0,0.0
15548.865234375,15346.2099609375,34371.21484375,12131.53125,28660.296875,7043.6796875,8620.421875,9732.24609375,9744.1669921875,6893.47607421875,17602.443359375,-1303.3548583984375,9075.80078125,0.0,23254.552734375,7879.73388671875,25312.10546875,20290.216796875,10115.3056640625,12338.1611328125,23511.251953125,29897.689453125,23179.849609375,20082.79296875,22027.4921875,7979.0751953125,29590.12890625,1220.703125,0.0,1585.4835205078125,14108.8173828125,7393.3603515625,26422.341796875,16666.25390625,15609.2646484375,25313.6953125,9811.71875,14595.19140625,9608.2685546875,4752.47705078125,23246.607421875,9995.30078125,17464.16015625,11979.7392578125,9404.0234375,12725.1943359375,12364.3876953125,2201.398193359375,10935.4658203125,4167.556640625,17398.9921875,6939.56982421875,8466.244140625,1734.8924560546875,11800.1298828125,5472.50146484375,24236.04296875,4491.01123046875,18633.20703125,3844.89697265625,9918.212890625,27013.62109375,22063.255859375,11997.22265625,-0.0,-43718.01953125,19962.787109375,5319.11865234375,0.0,7393.3603515625,0.0,0.0
15552.0439453125,15343.8251953125,34366.44921875,12131.53125,28652.349609375,7050.83203125,8618.037109375,9729.8623046875,9744.9619140625,6892.68115234375,17604.828125,-1308.91796875,9070.2373046875,0.0,23252.96484375,7878.14404296875,25312.10546875,20288.625,10116.1005859375,12339.7509765625,23506.482421875,29896.89453125,23176.669921875,20082.79296875,22017.955078125,7987.81689453125,29587.74609375,1225.471435546875,0.0,1586.2783203125,14107.2275390625,7394.94921875,26419.162109375,16667.046875,15606.0859375,25314.490234375,9810.1298828125,14595.9853515625,9608.2685546875,4742.9404296875,23238.658203125,10001.6591796875,17459.392578125,11981.328125,9404.0234375,12724.3994140625,12358.8251953125,2195.04052734375,10921.955078125,4173.91455078125,17398.9921875,6937.98046875,8461.4755859375,1737.2767333984375,11798.541015625,5476.474609375,24232.865234375,4494.98486328125,18631.6171875,3843.3076171875,9924.5712890625,27012.029296875,22062.458984375,11997.22265625,-0.0,-43727.55859375,19963.58203125,5309.58154296875,0.0,7396.5390625,0.0,0.0
15561.5810546875,15344.6201171875,34362.4765625,12133.916015625,28645.197265625,7054.8056640625,8618.83203125,9733.041015625,9754.498046875,6898.244140625,17596.880859375,-1308.91796875,9062.2900390625,0.0,23254.552734375,7884.50244140625,25310.515625,20287.037109375,10118.484375,12346.1083984375,23502.5078125,29898.484375,23177.46484375,20085.17578125,22002.85546875,7991.791015625,29586.15625,1229.445068359375,0.0,1585.4835205078125,14105.6376953125,7392.5654296875,26415.982421875,16667.046875,15602.90625,25316.873046875,9810.1298828125,14597.5751953125,9610.6533203125,4725.4560546875,23232.30078125,10004.0439453125,17457.0078125,11984.5078125,9408.7919921875,12728.373046875,12354.056640625,2198.21923828125,10910.828125,4178.6826171875,17400.583984375,6941.15966796875,8467.833984375,1746.8134765625,11804.8984375,5471.70654296875,24232.068359375,4501.3427734375,18635.591796875,3851.254638671875,9927.75,27012.82421875,22067.228515625,12011.5283203125,-0.0,-43724.375,19973.9140625,5297.66064453125,0.0,7405.28125,0.0,0.0
15567.1435546875,15353.3623046875,34359.29296875,12125.1748046875,28642.8125,7046.8583984375,8615.6533203125,9724.2998046875,9757.677734375,6895.0654296875,17579.396484375,-1313.6864013671875,9051.1640625,0.0,23253.759765625,7871.787109375,25303.36328125,20279.884765625,10111.33203125,12342.9296875,23497.740234375,29890.537109375,23174.28515625,20078.0234375,21999.677734375,7980.6640625,29584.56640625,1217.524169921875,0.0,1582.3045654296875,14099.2802734375,7384.6181640625,26411.21484375,16659.89453125,15596.548828125,25312.10546875,9806.15625,14590.4228515625,9599.5263671875,4736.58251953125,23227.533203125,9996.0966796875,17453.828125,11978.1494140625,9405.61328125,12722.015625,12346.9033203125,2201.398193359375,10914.0078125,4169.94091796875,17397.404296875,6930.828125,8453.5283203125,1757.1448974609375,11800.9248046875,5457.4013671875,24227.30078125,4479.88525390625,18635.591796875,3844.89697265625,9915.8291015625,27004.876953125,22061.666015625,12014.70703125,-0.0,-43733.9140625,19976.296875,5282.56103515625,0.0,7397.33349609375,0.0,0.0
15563.96484375,15363.693359375,34356.91015625,12118.021484375,28642.8125,7045.26904296875,8615.6533203125,9723.50390625,9759.2666015625,6894.2705078125,17571.44921875,-1306.5338134765625,9048.779296875,0.0,23252.16796875,7870.197265625,25301.775390625,20276.705078125,10108.947265625,12342.1357421875,23494.5625,29889.7421875,23172.697265625,20076.43359375,22005.240234375,7977.48583984375,29589.333984375,1219.1136474609375,0.0,1584.6888427734375,14096.1005859375,7385.41259765625,26408.830078125,16655.921875,15594.1650390625,25312.900390625,9805.361328125,14587.2431640625,9594.7578125,4750.88720703125,23226.73828125,9993.712890625,17453.828125,11978.943359375,9405.61328125,12720.42578125,12338.1611328125,2202.98779296875,10919.5712890625,4169.14599609375,17398.19921875,6930.828125,8447.96484375,1749.1976318359375,11795.361328125,5455.81201171875,24228.890625,4481.474609375,18634.0,3845.691650390625,9913.4443359375,27001.69921875,22060.076171875,12011.5283203125,-0.0,-43727.55859375,19977.091796875,5294.48193359375,0.0,7393.3603515625,0.0,0.0
15560.7861328125,15366.8720703125,34361.6796875,12114.0478515625,28647.58203125,7047.6533203125,8620.421875,9725.09375,9764.03515625,6896.65478515625,17576.216796875,-1303.3548583984375,9063.8798828125,0.0,23256.14453125,7870.99169921875,25303.36328125,20275.912109375,10111.33203125,12343.724609375,23496.947265625,29887.357421875,23173.490234375,20076.43359375,22020.33984375,7975.89599609375,29600.462890625,1220.703125,0.0,1586.2783203125,14098.4853515625,7388.591796875,26412.009765625,16655.921875,15597.34375,25313.6953125,9806.9501953125,14590.4228515625,9597.142578125,4760.42431640625,23232.30078125,9992.123046875,17458.59765625,11981.328125,9410.380859375,12721.220703125,12340.5458984375,2194.24560546875,10929.90234375,4169.94091796875,17402.966796875,6931.623046875,8447.96484375,1733.3031005859375,11785.0302734375,5456.6064453125,24233.66015625,4482.26953125,18637.1796875,3844.10205078125,9919.0068359375,27004.083984375,22060.87109375,12013.912109375,-0.0,-43719.609375,19976.296875,5306.40283203125,0.0,7396.5390625,0.0,0.0
15546.4814453125,15362.103515625,34372.01171875,12118.81640625,28649.96484375,7050.83203125,8618.83203125,9728.2724609375,9767.21484375,6896.65478515625,17593.703125,-1307.32861328125,9069.4423828125,0.0,23255.34765625,7878.14404296875,25308.1328125,20275.912109375,10111.33203125,12344.51953125,23503.302734375,29894.509765625,23175.08203125,20078.81640625,22023.51953125,7979.0751953125,29596.486328125,1219.9083251953125,0.0,1590.251953125,14102.458984375,7390.97607421875,26416.779296875,16662.279296875,15597.34375,25315.28515625,9806.9501953125,14591.216796875,9601.1162109375,4760.42431640625,23237.86328125,10000.0693359375,17459.392578125,11983.7119140625,9409.5869140625,12721.220703125,12354.8505859375,2195.04052734375,10930.697265625,4169.94091796875,17402.171875,6933.21240234375,8456.70703125,1737.2767333984375,11794.5673828125,5458.1962890625,24228.095703125,4487.03759765625,18639.564453125,3847.28125,9923.775390625,27003.2890625,22061.666015625,12013.1181640625,-0.0,-43725.17578125,19973.9140625,5315.939453125,0.0,7402.10205078125,0.0,0.0
15553.6337890625,15364.4873046875,34368.0390625,12120.40625,28641.224609375,7052.42138671875,8613.2685546875,9730.65625,9770.3935546875,6902.2177734375,17592.111328125,-1300.970703125,9073.4169921875,0.0,23249.78515625,7888.4765625,25311.3125,20275.115234375,10110.537109375,12346.1083984375,23500.919921875,29895.3046875,23169.517578125,20079.61328125,22001.265625,7983.84375,29577.4140625,1222.2926025390625,0.0,1593.430908203125,14104.048828125,7392.5654296875,26419.162109375,16666.25390625,15590.9853515625,25316.080078125,9803.771484375,14592.806640625,9604.294921875,4758.8349609375,23230.7109375,10002.4541015625,17450.650390625,11986.0966796875,9407.9970703125,12725.1943359375,12358.8251953125,2212.5244140625,10916.392578125,4168.3515625,17396.607421875,6939.56982421875,8451.14453125,1763.502685546875,11801.7197265625,5462.16943359375,24224.123046875,4499.75341796875,18634.796875,3855.228515625,9930.1337890625,27001.69921875,22063.255859375,12018.6806640625,-0.0,-43714.046875,19976.296875,5329.4501953125,0.0,7410.04931640625,0.0,0.0
15568.7333984375,15367.6669921875,34369.62890625,12121.9951171875,28642.8125,7055.6005859375,8617.2421875,9735.4248046875,9772.77734375,6906.986328125,17589.7265625,-1293.0234375,9072.62109375,0.0,23251.375,7893.24462890625,25315.28515625,20280.6796875,10112.921875,12348.4921875,23501.71484375,29896.89453125,23171.90234375,20082.79296875,22001.265625,7987.0224609375,29585.361328125,1228.650390625,0.0,1603.7623291015625,14104.8427734375,7397.33349609375,26422.341796875,16668.638671875,15594.1650390625,25318.46484375,9806.15625,14595.9853515625,9600.3212890625,4760.42431640625,23232.30078125,10002.4541015625,17454.625,11990.865234375,9410.380859375,12729.9619140625,12364.3876953125,2227.624267578125,10914.802734375,4171.5302734375,17400.583984375,6945.13330078125,8454.3232421875,1773.834228515625,11804.8984375,5466.14306640625,24220.943359375,4510.87939453125,18635.591796875,3858.4072265625,9934.90234375,27001.69921875,22065.638671875,12024.2431640625,-0.0,-43700.53515625,19974.708984375,5327.06591796875,0.0,7410.04931640625,0.0,0.0
15574.2958984375,15362.103515625,34366.44921875,12121.2001953125,28643.607421875,7049.24267578125,8621.2158203125,9733.041015625,9772.77734375,6905.39697265625,17589.7265625,-1296.2022705078125,9059.90625,0.0,23255.34765625,7881.32373046875,25313.6953125,20275.912109375,10111.33203125,12348.4921875,23499.330078125,29891.33203125,23171.90234375,20078.81640625,22001.265625,7981.45947265625,29602.05078125,1221.4979248046875,0.0,1598.993896484375,14103.2529296875,7396.5390625,26420.751953125,16666.25390625,15591.7802734375,25315.28515625,9805.361328125,14595.19140625,9596.34765625,4756.45068359375,23231.505859375,9996.890625,17457.8046875,11985.3017578125,9409.5869140625,12726.7841796875,12356.4404296875,2228.4189453125,10909.240234375,4167.556640625,17408.529296875,6938.775390625,8455.1171875,1756.3502197265625,11800.1298828125,5457.4013671875,24220.943359375,4496.57421875,18637.9765625,3852.84423828125,9926.16015625,26999.314453125,22064.05078125,12023.44921875,-0.0,-43713.25390625,19972.32421875,5314.35009765625,0.0,7410.84423828125,0.0,0.0
15574.2958984375,15365.283203125,34368.0390625,12131.53125,28649.96484375,7050.83203125,8625.984375,9734.630859375,9772.77734375,6904.60205078125,17604.828125,-1297.7918701171875,9051.958984375,0.0,23257.732421875,7878.14404296875,25314.490234375,20275.912109375,10113.7158203125,12350.08203125,23501.71484375,29895.3046875,23175.08203125,20080.408203125,22002.0625,7983.04833984375,29603.638671875,1220.703125,0.0,1602.1728515625,14104.048828125,7400.5126953125,26423.13671875,16669.431640625,15596.548828125,25316.080078125,9808.5400390625,14594.3955078125,9597.9375,4758.8349609375,23235.478515625,9999.275390625,17465.75,11986.8916015625,9411.970703125,12726.7841796875,12357.2353515625,2230.00830078125,10911.6240234375,4169.94091796875,17413.296875,6937.185546875,8462.26953125,1755.5555419921875,11795.361328125,5458.99072265625,24225.7109375,4488.626953125,18640.359375,3852.84423828125,9927.75,27000.904296875,22066.435546875,12024.2431640625,-0.0,-43719.609375,19975.50390625,5310.37646484375,0.0,7409.25439453125,0.0,0.0
15575.091796875,15374.8193359375,34366.44921875,12134.7109375,28652.349609375,7059.57421875,8629.1630859375,9740.98828125,9775.9560546875,6912.54931640625,17604.828125,-1294.6129150390625,9064.6748046875,0.0,23260.1171875,7886.09228515625,25319.2578125,20282.267578125,10119.279296875,12354.056640625,23505.6875,29901.662109375,23179.849609375,20085.17578125,22002.0625,7990.99658203125,29589.333984375,1225.471435546875,0.0,1613.299072265625,14111.201171875,7406.076171875,26426.314453125,16674.99609375,15602.111328125,25324.025390625,9815.693359375,14599.958984375,9612.2431640625,4765.9873046875,23235.478515625,10007.22265625,17469.724609375,11991.66015625,9415.9443359375,12733.1416015625,12351.671875,2238.75048828125,10920.365234375,4177.88818359375,17414.888671875,6942.7490234375,8463.859375,1761.913330078125,11808.8720703125,5472.50146484375,24234.453125,4490.216796875,18643.537109375,3860.79150390625,9936.4921875,27008.056640625,22071.99609375,12034.5751953125,-0.0,-43714.83984375,19978.681640625,5309.58154296875,0.0,7415.61279296875,0.0,0.0
15568.7333984375,15374.0244140625,34372.8046875,12132.3271484375,28649.96484375,7060.369140625,8619.6259765625,9738.6044921875,9768.0087890625,6910.16552734375,17607.212890625,-1293.0234375,9077.3896484375,0.0,23258.52734375,7884.50244140625,25320.052734375,20283.857421875,10115.3056640625,12350.876953125,23508.072265625,29903.25390625,23176.669921875,20083.5859375,22009.21484375,7992.5849609375,29587.74609375,1223.0872802734375,0.0,1610.1201171875,14111.201171875,7405.28125,26426.314453125,16673.40625,15600.5224609375,25324.822265625,9809.3349609375,14597.5751953125,9614.626953125,4762.80810546875,23239.455078125,10007.22265625,17460.1875,11989.2763671875,9409.5869140625,12731.5517578125,12359.619140625,2226.82958984375,10937.849609375,4177.88818359375,17403.76171875,6940.36474609375,8459.0908203125,1757.1448974609375,11820.79296875,5474.0908203125,24243.197265625,4489.421875,18640.359375,3858.4072265625,9935.6962890625,27004.876953125,22068.818359375,12034.5751953125,-0.0,-43714.83984375,19971.529296875,5305.6083984375,0.0,7412.43359375,0.0,0.0
15557.6064453125,15358.9248046875,34372.8046875,12131.53125,28655.529296875,7056.39501953125,8620.421875,9733.041015625,9761.6513671875,6905.39697265625,17607.212890625,-1298.5865478515625,9076.595703125,0.0,23259.3203125,7879.73388671875,25316.873046875,20287.037109375,10112.921875,12348.4921875,23509.66015625,29900.869140625,23175.08203125,20080.408203125,22012.392578125,7984.63818359375,29598.078125,1219.9083251953125,0.0,1595.8150634765625,14111.99609375,7402.10205078125,26426.314453125,16670.2265625,15602.90625,25322.4375,9810.9248046875,14595.19140625,9609.0634765625,4754.861328125,23241.837890625,10002.4541015625,17462.572265625,11987.6865234375,9405.61328125,12728.373046875,12358.8251953125,2212.5244140625,10935.4658203125,4172.3251953125,17402.966796875,6937.98046875,8452.7333984375,1749.1976318359375,11812.845703125,5464.5537109375,24243.197265625,4485.4482421875,18638.76953125,3852.84423828125,9926.955078125,27005.671875,22066.435546875,12028.2177734375,-0.0,-43714.83984375,19964.376953125,5301.63427734375,0.0,7408.4599609375,0.0,0.0
15559.9912109375,15354.15625,34378.3671875,12133.916015625,28663.4765625,7057.98486328125,8628.3681640625,9735.4248046875,9761.6513671875,6907.78125,17615.16015625,-1301.765380859375,9082.953125,0.0,23262.5,7883.7080078125,25320.84765625,20292.6015625,10117.6904296875,12349.2880859375,23513.634765625,29905.638671875,23182.234375,20085.970703125,22015.572265625,7982.25390625,29602.845703125,1222.2926025390625,0.0,1591.84130859375,14116.763671875,7405.28125,26431.87890625,16673.40625,15610.05859375,25326.41015625,9815.693359375,14598.369140625,9620.189453125,4756.45068359375,23246.607421875,10004.0439453125,17472.90234375,11990.0703125,9407.9970703125,12731.5517578125,12363.5927734375,2214.114013671875,10932.2861328125,4173.91455078125,17410.119140625,6939.56982421875,8461.4755859375,1747.608154296875,11812.05078125,5465.3486328125,24243.990234375,4487.83251953125,18641.94921875,3854.433837890625,9930.1337890625,27012.029296875,22068.0234375,12029.806640625,-0.0,-43714.046875,19969.939453125,5304.8134765625,0.0,7409.25439453125,0.0,0.0
15569.52734375,15357.3349609375,34383.13671875,12135.505859375,28659.501953125,7057.98486328125,8625.984375,9735.4248046875,9755.2939453125,6905.39697265625,17627.080078125,-1301.765380859375,9095.6689453125,0.0,23260.912109375,7882.1181640625,25324.025390625,20291.8046875,10116.89453125,12346.1083984375,23516.01953125,29909.611328125,23179.849609375,20086.765625,22029.08203125,7983.04833984375,29599.666015625,1220.703125,0.0,1591.84130859375,14118.353515625,7406.87060546875,26433.46875,16674.99609375,15611.6484375,25329.58984375,9814.8984375,14595.9853515625,9624.1640625,4747.708984375,23248.1953125,10005.6337890625,17470.517578125,11990.0703125,9404.818359375,12728.373046875,12373.1298828125,2219.677001953125,10941.8232421875,4174.70947265625,17409.32421875,6937.98046875,8476.5751953125,1741.2503662109375,11818.4091796875,5467.73291015625,24243.197265625,4491.01123046875,18640.359375,3852.84423828125,9932.517578125,27014.4140625,22065.638671875,12030.6015625,-0.0,-43716.4296875,19969.14453125,5303.22412109375,0.0,7403.69189453125,0.0,0.0
15588.6015625,15367.6669921875,34393.47265625,12137.095703125,28665.06640625,7062.75341796875,8629.9580078125,9739.3994140625,9756.087890625,6909.37060546875,17635.02734375,-1297.7918701171875,9098.84765625,0.0,23264.08984375,7886.09228515625,25328.794921875,20297.369140625,10121.6630859375,12350.08203125,23522.376953125,29912.791015625,23187.001953125,20089.9453125,22042.59375,7988.6123046875,29604.435546875,1224.6767578125,0.0,1598.19921875,14123.9169921875,7412.43359375,26439.03125,16680.55859375,15617.2109375,25333.5625,9820.4609375,14602.34375,9634.4951171875,4766.7822265625,23253.759765625,10011.1962890625,17474.4921875,11994.0439453125,9407.203125,12731.5517578125,12382.6669921875,2228.4189453125,10952.1552734375,4180.2724609375,17414.09375,6941.15966796875,8487.701171875,1746.018798828125,11813.640625,5470.1171875,24240.8125,4496.57421875,18645.12890625,3857.612548828125,9939.6708984375,27019.181640625,22071.99609375,12038.548828125,-0.0,-43710.0703125,19972.32421875,5309.58154296875,0.0,7406.87060546875,0.0,0.0
15598.93359375,15367.6669921875,34398.23828125,12133.12109375,28673.806640625,7060.369140625,8633.931640625,9737.0146484375,9753.7041015625,6906.19140625,17643.76953125,-1297.7918701171875,9090.1064453125,0.0,23264.08984375,7883.7080078125,25329.58984375,20299.75390625,10123.2529296875,12349.2880859375,23525.556640625,29911.19921875,23188.591796875,20090.73828125,22048.94921875,7987.0224609375,29618.740234375,1224.6767578125,0.0,1596.6097412109375,14125.5068359375,7417.2021484375,26442.208984375,16682.1484375,15620.390625,25335.154296875,9822.845703125,14602.34375,9642.44140625,4781.8818359375,23261.705078125,10008.8115234375,17480.849609375,11992.4541015625,9408.7919921875,12729.9619140625,12394.587890625,2230.00830078125,10956.923828125,4176.298828125,17421.24609375,6941.9541015625,8491.67578125,1753.9659423828125,11822.3828125,5468.52734375,24227.30078125,4491.01123046875,18646.716796875,3857.612548828125,9944.4384765625,27019.978515625,22071.203125,12033.7802734375,-0.0,-43712.45703125,19973.9140625,5307.19775390625,0.0,7401.3076171875,0.0,0.0
15594.958984375,15362.8984375,34390.2890625,12135.505859375,28675.3984375,7059.57421875,8635.5205078125,9735.4248046875,9750.525390625,6906.19140625,17630.2578125,-1292.228759765625,9082.953125,0.0,23268.064453125,7880.5283203125,25329.58984375,20298.162109375,10124.046875,12349.2880859375,23524.76171875,29911.19921875,23186.20703125,20092.328125,22041.001953125,7983.84375,29625.09765625,1222.2926025390625,0.0,1596.6097412109375,14122.3271484375,7416.4072265625,26441.416015625,16681.353515625,15620.390625,25335.947265625,9826.0244140625,14601.5478515625,9622.57421875,4778.703125,23259.3203125,10007.22265625,17487.20703125,11989.2763671875,9409.5869140625,12727.578125,12386.6396484375,2231.597900390625,10957.7177734375,4173.91455078125,17430.783203125,6940.36474609375,8484.5224609375,1760.3238525390625,11828.740234375,5470.1171875,24230.48046875,4489.421875,18651.486328125,3855.228515625,9946.8232421875,27019.978515625,22071.203125,11991.66015625,-0.0,-43713.25390625,19977.888671875,5300.044921875,0.0,7392.5654296875,0.0,0.0
15579.064453125,15354.951171875,34374.3984375,12129.1474609375,28665.06640625,7053.21630859375,8633.13671875,9727.478515625,9743.373046875,6902.2177734375,17612.775390625,-1296.9970703125,9084.5419921875,0.0,23268.857421875,7874.17138671875,25320.84765625,20291.009765625,10117.6904296875,12346.1083984375,23513.634765625,29905.638671875,23177.46484375,20085.970703125,22012.392578125,7979.0751953125,29614.767578125,1215.1400146484375,0.0,1595.020263671875,14114.3798828125,7408.4599609375,26428.69921875,16676.583984375,15610.05859375,25328.794921875,9821.255859375,14593.6015625,9611.447265625,4770.755859375,23242.6328125,10000.865234375,17481.646484375,11982.91796875,9403.228515625,12721.220703125,12365.181640625,2218.88232421875,10947.38671875,4171.5302734375,17430.783203125,6934.00732421875,8468.6279296875,1751.581787109375,11810.4619140625,5467.73291015625,24244.78515625,4487.03759765625,18650.689453125,3844.10205078125,9938.8759765625,27012.82421875,22065.638671875,11955.1015625,-0.0,-43716.4296875,19975.50390625,5288.9189453125,0.0,7378.26025390625,0.0,0.0
15564.7587890625,15341.44140625,34365.65234375,12116.4326171875,28652.349609375,7038.1162109375,8610.0888671875,9714.7626953125,9721.1201171875,6890.296875,17605.623046875,-1300.176025390625,9075.005859375,0.0,23256.14453125,7867.0185546875,25309.720703125,20275.115234375,10100.205078125,12334.1875,23501.71484375,29892.126953125,23159.185546875,20070.87109375,22002.0625,7967.154296875,29594.8984375,1204.0137939453125,0.0,1590.251953125,14103.2529296875,7398.92333984375,26416.779296875,16664.6640625,15593.369140625,25314.490234375,9803.771484375,14580.0908203125,9610.6533203125,4752.47705078125,23232.30078125,9984.9697265625,17461.77734375,11969.4072265625,9380.9765625,12709.2998046875,12362.7978515625,2198.21923828125,10933.8759765625,4161.99365234375,17397.404296875,6923.67578125,8455.1171875,1742.83984375,11812.05078125,5459.78564453125,24249.552734375,4479.09033203125,18633.20703125,3834.5654296875,9928.5439453125,26996.931640625,22052.923828125,11935.234375,-0.0,-43725.96875,19968.3515625,5278.58740234375,0.0,7365.544921875,0.0,0.0
15559.1962890625,15343.8251953125,34362.4765625,12114.0478515625,28648.376953125,7035.732421875,8604.5263671875,9714.7626953125,9714.7626953125,6891.88623046875,17599.263671875,-1305.739013671875,9067.05859375,0.0,23252.96484375,7864.63427734375,25309.720703125,20269.552734375,10097.8212890625,12332.5986328125,23499.330078125,29891.33203125,23152.828125,20069.28125,22002.0625,7969.53857421875,29588.541015625,1200.0401611328125,0.0,1574.357421875,14098.4853515625,7397.33349609375,26415.189453125,16659.1015625,15590.9853515625,25312.900390625,9799.7978515625,14580.0908203125,9599.5263671875,4746.9140625,23232.30078125,9986.5595703125,17456.212890625,11968.6123046875,9377.0029296875,12709.2998046875,12354.8505859375,2185.503662109375,10912.41796875,4160.404296875,17389.455078125,6922.08642578125,8447.169921875,1736.4820556640625,11813.640625,5451.837890625,24242.400390625,4471.14306640625,18629.232421875,3836.94970703125,9922.9814453125,26994.546875,22052.12890625,11935.234375,-0.0,-43731.52734375,19969.14453125,5282.56103515625,0.0,7364.75,0.0,0.0
15552.837890625,15353.3623046875,34370.421875,12121.9951171875,28657.9140625,7042.884765625,8614.0634765625,9720.3251953125,9717.94140625,6895.8603515625,17608.0078125,-1310.5074462890625,9071.8271484375,0.0,23256.9375,7868.607421875,25312.900390625,20275.115234375,10104.9736328125,12336.5712890625,23504.892578125,29893.716796875,23157.595703125,20074.84375,22014.775390625,7978.2802734375,29593.30859375,1205.603271484375,0.0,1571.178466796875,14103.2529296875,7400.5126953125,26419.162109375,16662.279296875,15597.34375,25316.873046875,9806.9501953125,14586.4482421875,9595.5537109375,4748.50341796875,23240.248046875,9991.328125,17466.544921875,11973.380859375,9384.1552734375,12714.86328125,12355.6455078125,2194.24560546875,10909.240234375,4166.76171875,17398.9921875,6926.0595703125,8445.580078125,1732.50830078125,11808.8720703125,5456.6064453125,24241.60546875,4472.732421875,18634.796875,3840.128662109375,9919.0068359375,27000.109375,22057.69140625,11941.591796875,-0.0,-43728.3515625,19967.556640625,5289.71337890625,0.0,7369.51806640625,0.0,0.0
15555.22265625,15352.56640625,34375.984375,12124.37890625,28651.556640625,7045.26904296875,8611.6787109375,9725.888671875,9717.94140625,6899.03857421875,17615.16015625,-1306.5338134765625,9081.36328125,0.0,23256.9375,7873.3759765625,25312.10546875,20275.912109375,10105.76953125,12340.5458984375,23502.5078125,29894.509765625,23155.212890625,20077.228515625,22022.724609375,7983.04833984375,29590.92578125,1210.37158203125,0.0,1579.92041015625,14101.6640625,7400.5126953125,26421.546875,16664.6640625,15594.958984375,25318.46484375,9806.15625,14589.626953125,9605.08984375,4748.50341796875,23238.658203125,9991.328125,17461.77734375,11977.35546875,9384.94921875,12718.8369140625,12358.8251953125,2206.16650390625,10917.1865234375,4171.5302734375,17400.583984375,6930.033203125,8451.9384765625,1736.4820556640625,11816.0244140625,5458.99072265625,24243.990234375,4477.5009765625,18637.9765625,3844.10205078125,9920.5966796875,27000.109375,22061.666015625,11946.3603515625,-0.0,-43723.58203125,19968.3515625,5292.892578125,0.0,7371.107421875,0.0,0.0
15544.0966796875,15350.1826171875,34371.21484375,12125.1748046875,28648.376953125,7045.26904296875,8610.884765625,9727.478515625,9716.3515625,6903.0126953125,17604.033203125,-1304.9443359375,9091.6953125,0.0,23259.3203125,7875.76025390625,25309.720703125,20273.52734375,10106.5634765625,12343.724609375,23502.5078125,29894.509765625,23152.828125,20076.43359375,22029.08203125,7981.45947265625,29591.71875,1213.550537109375,0.0,1578.3310546875,14100.0751953125,7397.33349609375,26418.3671875,16664.6640625,15592.5751953125,25317.66796875,9805.361328125,14588.8330078125,9604.294921875,4749.2978515625,23238.658203125,9991.328125,17457.0078125,11977.35546875,9384.94921875,12719.630859375,12347.6982421875,2212.5244140625,10937.849609375,4171.5302734375,17398.9921875,6932.41748046875,8443.1962890625,1745.2239990234375,11816.0244140625,5452.6328125,24243.197265625,4481.474609375,18637.9765625,3848.87060546875,9920.5966796875,26996.134765625,22060.87109375,11947.94921875,-0.0,-43724.375,19970.736328125,5301.63427734375,0.0,7374.28662109375,0.0,0.0
15539.328125,15350.1826171875,34368.0390625,12121.2001953125,28649.171875,7040.50048828125,8606.9111328125,9724.2998046875,9712.37890625,6902.2177734375,17594.49609375,-1309.7127685546875,9080.5693359375,0.0,23256.9375,7871.787109375,25308.1328125,20271.142578125,10103.384765625,12341.33984375,23501.71484375,29891.33203125,23149.6484375,20071.6640625,22029.08203125,7974.30712890625,29589.333984375,1209.576904296875,0.0,1576.7415771484375,14099.2802734375,7396.5390625,26416.779296875,16662.279296875,15589.396484375,25315.28515625,9806.15625,14588.0380859375,9603.5,4754.861328125,23237.86328125,9985.7646484375,17457.0078125,11974.17578125,9380.9765625,12718.8369140625,12345.314453125,2210.934814453125,10932.2861328125,4165.96728515625,17396.607421875,6928.44384765625,8432.865234375,1746.018798828125,11803.3095703125,5445.48046875,24239.220703125,4481.474609375,18636.384765625,3848.075927734375,9922.9814453125,26993.751953125,22058.486328125,11947.94921875,-0.0,-43726.76171875,19967.556640625,5297.66064453125,0.0,7374.28662109375,0.0,0.0
15548.0703125,15347.00390625,34367.24609375,12125.96875,28647.58203125,7037.32177734375,8605.3212890625,9720.3251953125,9710.7890625,6898.244140625,17585.75390625,-1314.4810791015625,9075.80078125,0.0,23256.14453125,7871.787109375,25306.54296875,20269.552734375,10101.794921875,12337.3671875,23497.740234375,29889.7421875,23148.060546875,20070.87109375,22033.056640625,7969.53857421875,29589.333984375,1206.39794921875,0.0,1576.7415771484375,14097.6904296875,7395.744140625,26415.982421875,16661.486328125,15586.216796875,25311.3125,9803.771484375,14584.064453125,9612.2431640625,4757.24560546875,23238.658203125,9982.5859375,17457.0078125,11971.791015625,9377.796875,12716.4521484375,12346.1083984375,2213.319091796875,10929.90234375,4162.78857421875,17394.224609375,6926.8544921875,8424.91796875,1744.42919921875,11802.513671875,5443.09619140625,24237.6328125,4475.91162109375,18634.0,3844.89697265625,9924.5712890625,26992.95703125,22054.513671875,11950.333984375,-0.0,-43729.14453125,19965.966796875,5289.71337890625,0.0,7369.51806640625,0.0,0.0
15541.712890625,15340.6455078125,34360.09375,12125.1748046875,28638.83984375,7035.732421875,8601.34765625,9715.556640625,9709.994140625,6895.8603515625,17588.93359375,-1317.6600341796875,9071.8271484375,0.0,23253.759765625,7866.22314453125,25300.98046875,20267.16796875,10098.6162109375,12334.982421875,23491.3828125,29886.564453125,23142.49609375,20066.896484375,22017.955078125,7967.94873046875,29585.361328125,1204.0137939453125,0.0,1569.5889892578125,14092.921875,7388.591796875,26410.421875,16658.306640625,15580.654296875,25308.927734375,9799.00390625,14580.8857421875,9586.0166015625,4749.2978515625,23230.7109375,9981.791015625,17453.03515625,11967.818359375,9373.0283203125,12714.068359375,12339.7509765625,2208.55078125,10920.365234375,4161.99365234375,17391.046875,6922.08642578125,8419.3544921875,1741.2503662109375,11808.078125,5439.9169921875,24236.04296875,4467.16943359375,18633.20703125,3842.512939453125,9917.4189453125,26988.1875,22053.71875,11955.1015625,-0.0,-43734.7109375,19968.3515625,5284.94482421875,0.0,7364.75,0.0,0.0
15549.66015625,15346.2099609375,34358.5,12132.3271484375,28635.66015625,7045.26904296875,8602.142578125,9717.94140625,9712.37890625,6897.44970703125,17589.7265625,-1308.123291015625,9059.90625,0.0,23251.375,7866.22314453125,25307.3359375,20273.52734375,10098.6162109375,12338.9560546875,23493.767578125,29892.921875,23144.0859375,20070.076171875,22000.470703125,7979.0751953125,29577.4140625,1209.576904296875,0.0,1571.97314453125,14097.6904296875,7394.15478515625,26412.009765625,16663.07421875,15583.0380859375,25316.080078125,9801.3876953125,14583.2705078125,9583.6328125,4750.0927734375,23228.326171875,9990.533203125,17449.85546875,11974.17578125,9373.82421875,12716.4521484375,12338.1611328125,2212.5244140625,10908.4443359375,4170.73583984375,17392.634765625,6922.880859375,8418.5595703125,1746.018798828125,11796.951171875,5452.6328125,24234.453125,4471.9375,18634.796875,3844.89697265625,9922.1865234375,26989.779296875,22056.8984375,11955.8974609375,-0.0,-43732.328125,19968.3515625,5282.56103515625,0.0,7368.7236328125,0.0,0.0
15548.0703125,15340.6455078125,34352.140625,12126.763671875,28629.302734375,7041.29541015625,8600.552734375,9714.7626953125,9713.1728515625,6897.44970703125,17579.396484375,-1312.096923828125,9051.958984375,0.0,23248.990234375,7867.0185546875,25304.158203125,20272.732421875,10097.0263671875,12341.33984375,23489.79296875,29891.33203125,23141.703125,20066.896484375,21993.318359375,7974.30712890625,29573.44140625,1204.80859375,0.0,1568.794189453125,14096.1005859375,7392.5654296875,26407.2421875,16660.689453125,15579.859375,25313.6953125,9799.00390625,14579.2958984375,9589.1953125,4746.9140625,23218.791015625,9988.9443359375,17446.67578125,11969.4072265625,9375.4130859375,12714.068359375,12327.830078125,2210.934814453125,10902.8818359375,4162.78857421875,17391.046875,6922.08642578125,8413.7919921875,1743.634521484375,11785.0302734375,5451.04345703125,24228.890625,4472.732421875,18634.796875,3844.10205078125,9911.8544921875,26987.39453125,22056.8984375,11959.076171875,-0.0,-43737.09375,19970.736328125,5285.73974609375,0.0,7370.31298828125,0.0,0.0
15548.0703125,15337.466796875,34356.1171875,12125.1748046875,28635.66015625,7040.50048828125,8604.5263671875,9718.7353515625,9718.7353515625,6902.2177734375,17589.7265625,-1309.7127685546875,9061.49609375,0.0,23252.96484375,7873.3759765625,25308.1328125,20278.294921875,10101.794921875,12342.9296875,23494.5625,29894.509765625,23146.470703125,20070.076171875,22002.0625,7973.51171875,29582.181640625,1205.603271484375,0.0,1576.7415771484375,14100.0751953125,7395.744140625,26411.21484375,16665.458984375,15585.4228515625,25316.080078125,9801.3876953125,14582.474609375,9595.5537109375,4749.2978515625,23221.173828125,9988.9443359375,17453.03515625,11970.9970703125,9380.181640625,12716.4521484375,12334.982421875,2210.934814453125,10914.0078125,4159.609375,17395.01953125,6925.2646484375,8427.302734375,1736.4820556640625,11798.541015625,5451.04345703125,24232.068359375,4479.88525390625,18638.76953125,3848.075927734375,9903.11328125,26993.751953125,22058.486328125,11964.638671875,-0.0,-43729.14453125,19975.50390625,5293.6875,0.0,7374.28662109375,0.0,0.0
15556.8125,15336.6728515625,34359.29296875,12119.6103515625,28640.427734375,7035.732421875,8606.1162109375,9717.94140625,9718.7353515625,6901.4228515625,17600.05859375,-1315.2757568359375,9059.90625,0.0,23252.96484375,7875.76025390625,25308.1328125,20279.884765625,10101.794921875,12342.9296875,23497.740234375,29895.3046875,23151.240234375,20069.28125,22003.650390625,7964.7705078125,29583.7734375,1202.4244384765625,0.0,1578.3310546875,14100.0751953125,7397.33349609375,26413.599609375,16666.25390625,15587.806640625,25316.873046875,9802.9775390625,14581.6806640625,9597.142578125,4750.88720703125,23225.1484375,9984.17578125,17455.419921875,11968.6123046875,9379.38671875,12716.4521484375,12347.6982421875,2207.756103515625,10914.0078125,4148.4833984375,17395.814453125,6927.64892578125,8450.3486328125,1731.713623046875,11801.7197265625,5447.06982421875,24231.275390625,4480.68017578125,18637.9765625,3848.87060546875,9904.7021484375,26995.33984375,22058.486328125,11965.43359375,-0.0,-43731.52734375,19970.736328125,5295.27685546875,0.0,7376.6708984375,0.0,0.0
15563.1708984375,15339.8515625,34361.6796875,12116.4326171875,28645.197265625,7036.52734375,8606.9111328125,9717.94140625,9717.94140625,6900.62841796875,17609.595703125,-1316.070556640625,9059.111328125,0.0,23250.580078125,7877.349609375,25308.1328125,20283.857421875,10104.1796875,12340.5458984375,23500.919921875,29894.509765625,23156.0078125,20070.076171875,22010.802734375,7963.1806640625,29587.74609375,1202.4244384765625,0.0,1579.92041015625,14104.048828125,7395.744140625,26414.39453125,16667.046875,15594.1650390625,25319.2578125,9805.361328125,14583.2705078125,9597.142578125,4744.52978515625,23229.91796875,9984.17578125,17460.98046875,11969.4072265625,9378.5927734375,12718.041015625,12352.466796875,2207.756103515625,10915.5966796875,4147.6884765625,17394.224609375,6929.23876953125,8452.7333984375,1719.792724609375,11806.48828125,5446.275390625,24228.890625,4481.474609375,18634.796875,3850.4599609375,9910.265625,26999.314453125,22057.69140625,11963.0498046875,-0.0,-43737.09375,19961.19921875,5296.0712890625,0.0,7374.28662109375,0.0,0.0
15581.4482421875,15364.4873046875,34384.7265625,12133.12109375,28672.21875,7055.6005859375,8625.984375,9736.220703125,9733.041015625,6916.52294921875,17635.822265625,-1300.176025390625,9059.90625,0.0,23260.1171875,7893.24462890625,25330.384765625,20307.69921875,10124.046875,12354.056640625,23523.966796875,29916.763671875,23178.259765625,20091.533203125,22039.4140625,7982.25390625,29612.3828125,1221.4979248046875,0.0,1595.020263671875,14126.30078125,7414.02294921875,26435.8515625,16686.916015625,15617.2109375,25341.51171875,9826.8193359375,14601.5478515625,9631.31640625,4760.42431640625,23254.552734375,10001.6591796875,17484.029296875,11989.2763671875,9395.2822265625,12734.73046875,12371.5400390625,2225.239990234375,10933.8759765625,4169.14599609375,17410.9140625,6945.92822265625,8458.296875,1738.8662109375,11827.9453125,5460.58056640625,24232.068359375,4496.57421875,18648.306640625,3867.1494140625,9930.9287109375,27020.7734375,22073.587890625,11977.35546875,-0.0,-43720.40625,19974.708984375,5315.939453125,0.0,7388.591796875,0.0,0.0
15576.6806640625,15374.0244140625,34391.87890625,12145.8369140625,28686.5234375,7071.4951171875,8641.083984375,9744.9619140625,9743.373046875,6925.2646484375,17628.669921875,-1289.0498046875,9060.7001953125,0.0,23269.65234375,7902.78125,25339.126953125,20317.236328125,10136.763671875,12364.3876953125,23535.09375,29926.30078125,23194.154296875,20104.25,22034.64453125,7999.73779296875,29637.814453125,1235.00830078125,0.0,1600.5833740234375,14134.248046875,7421.17529296875,26444.59375,16698.837890625,15628.337890625,25351.84375,9841.125,14613.46875,9624.1640625,4769.16650390625,23261.705078125,10014.375,17502.30859375,12003.5810546875,9408.7919921875,12742.6787109375,12373.1298828125,2237.955810546875,10944.20703125,4186.63037109375,17426.013671875,6954.669921875,8463.859375,1756.3502197265625,11819.9990234375,5472.50146484375,24242.400390625,4507.70068359375,18658.638671875,3871.917724609375,9936.4921875,27034.283203125,22085.5078125,11986.0966796875,-0.0,-43705.3046875,19978.681640625,5319.91357421875,0.0,7395.744140625,0.0,0.0
15574.2958984375,15375.6142578125,34390.2890625,12156.1689453125,28685.728515625,7078.6474609375,8647.44140625,9750.525390625,9747.345703125,6930.033203125,17613.568359375,-1277.923583984375,9058.31640625,0.0,23273.626953125,7911.52294921875,25342.306640625,20318.03125,10141.5322265625,12367.56640625,23535.09375,29931.86328125,23195.744140625,20106.634765625,22017.955078125,8009.2744140625,29634.634765625,1242.1607666015625,0.0,1609.325439453125,14137.427734375,7425.94384765625,26446.978515625,16702.017578125,15629.1328125,25355.81640625,9845.09765625,14618.2373046875,9611.447265625,4774.7294921875,23259.3203125,10023.9111328125,17506.28125,12009.9384765625,9412.765625,12747.447265625,12372.3349609375,2242.72412109375,10932.2861328125,4200.140625,17431.578125,6960.2333984375,8471.01171875,1771.4500732421875,11803.3095703125,5483.62744140625,24249.552734375,4515.64794921875,18661.818359375,3881.45458984375,9939.6708984375,27035.87109375,22088.685546875,11990.0703125,-0.0,-43698.94921875,19979.4765625,5318.32373046875,0.0,7396.5390625,0.0,0.0
15569.52734375,15350.9775390625,34383.13671875,12146.6318359375,28671.423828125,7065.13720703125,8631.546875,9739.3994140625,9735.4248046875,6921.29150390625,17611.185546875,-1291.4339599609375,9062.2900390625,0.0,23259.3203125,7902.78125,25331.177734375,20303.7265625,10127.2265625,12361.208984375,23522.376953125,29918.3515625,23179.849609375,20094.712890625,22010.0078125,7993.38037109375,29587.74609375,1229.445068359375,0.0,1598.19921875,14126.30078125,7416.4072265625,26437.44140625,16690.095703125,15615.6220703125,25343.099609375,9831.587890625,14606.31640625,9610.6533203125,4761.21923828125,23249.78515625,10012.7861328125,17487.20703125,11996.4287109375,9398.4599609375,12736.3203125,12372.3349609375,2223.650634765625,10915.5966796875,4185.041015625,17413.296875,6947.517578125,8467.833984375,1764.2974853515625,11798.541015625,5474.0908203125,24236.837890625,4504.52197265625,18649.896484375,3871.123046875,9929.33984375,27020.7734375,22077.560546875,11987.6865234375,-0.0,-43710.8671875,19978.681640625,5315.14501953125,0.0,7388.591796875,0.0,0.0
15559.1962890625,15343.0302734375,34377.57421875,12135.505859375,28663.4765625,7057.18994140625,8613.2685546875,9732.24609375,9725.09375,6912.54931640625,17611.98046875,-1300.970703125,9086.1318359375,0.0,23256.14453125,7895.62890625,25324.822265625,20291.8046875,10118.484375,12353.2607421875,23516.01953125,29911.994140625,23168.72265625,20085.970703125,22018.751953125,7984.63818359375,29571.8515625,1223.882080078125,0.0,1592.6361083984375,14118.353515625,7408.4599609375,26432.671875,16681.353515625,15606.0859375,25334.357421875,9818.87109375,14597.5751953125,9605.08984375,4756.45068359375,23246.607421875,10006.427734375,17468.9296875,11989.2763671875,9386.5390625,12729.9619140625,12365.9775390625,2216.498046875,10923.544921875,4173.91455078125,17395.814453125,6939.56982421875,8461.4755859375,1755.5555419921875,11804.103515625,5471.70654296875,24243.197265625,4500.5478515625,18645.12890625,3863.970458984375,9923.775390625,27010.44140625,22069.61328125,11978.1494140625,-0.0,-43714.046875,19979.4765625,5312.7607421875,0.0,7380.64453125,0.0,0.0
15553.6337890625,15348.59375,34372.8046875,12133.12109375,28660.296875,7056.39501953125,8615.6533203125,9732.24609375,9724.2998046875,6911.75439453125,17608.80078125,-1296.2022705078125,9079.7734375,0.0,23255.34765625,7890.8603515625,25321.642578125,20287.83203125,10116.89453125,12352.466796875,23515.224609375,29908.021484375,23167.1328125,20083.5859375,22028.287109375,7983.84375,29579.796875,1220.703125,0.0,1587.86767578125,14115.173828125,7405.28125,26429.494140625,16679.763671875,15605.2900390625,25330.384765625,9819.6669921875,14597.5751953125,9607.474609375,4756.45068359375,23247.400390625,10000.0693359375,17469.724609375,11990.0703125,9386.5390625,12728.373046875,12355.6455078125,2218.08740234375,10934.6708984375,4173.91455078125,17398.19921875,6934.8017578125,8455.912109375,1748.4029541015625,11808.078125,5466.14306640625,24241.60546875,4498.95849609375,18644.33203125,3863.970458984375,9926.16015625,27007.26171875,22068.818359375,11978.1494140625,-0.0,-43710.0703125,19976.296875,5305.6083984375,0.0,7373.49169921875,0.0,0.0
15552.0439453125,15350.1826171875,34370.421875,12118.81640625,28653.939453125,7049.24267578125,8613.2685546875,9727.478515625,9725.09375,6909.37060546875,17600.05859375,-1299.3812255859375,9074.2109375,0.0,23251.375,7880.5283203125,25316.080078125,20282.267578125,10114.5107421875,12349.2880859375,23508.072265625,29900.07421875,23162.365234375,20076.43359375,22022.724609375,7971.12744140625,29576.619140625,1211.1663818359375,0.0,1579.92041015625,14108.8173828125,7402.89697265625,26423.13671875,16673.40625,15598.1376953125,25322.4375,9816.4873046875,14592.806640625,9604.294921875,4757.24560546875,23241.04296875,9994.5068359375,17468.134765625,11982.123046875,9384.94921875,12724.3994140625,12349.2880859375,2210.14013671875,10937.0546875,4159.609375,17396.607421875,6927.64892578125,8448.759765625,1734.0977783203125,11805.693359375,5454.22216796875,24236.837890625,4492.60107421875,18639.564453125,3856.81787109375,9922.9814453125,27000.109375,22066.435546875,11979.7392578125,-0.0,-43714.83984375,19969.939453125,5298.45556640625,0.0,7377.4658203125,0.0,0.0
15554.427734375,15352.56640625,34370.421875,12115.6376953125,28653.939453125,7046.8583984375,8614.0634765625,9726.68359375,9733.041015625,6911.75439453125,17601.6484375,-1294.6129150390625,9070.2373046875,0.0,23254.552734375,7886.88671875,25312.900390625,20281.47265625,10114.5107421875,12354.056640625,23504.892578125,29896.1015625,23162.365234375,20073.255859375,22012.392578125,7954.43798828125,29582.9765625,1212.755859375,0.0,1576.7415771484375,14104.8427734375,7404.486328125,26420.751953125,16667.84375,15594.958984375,25319.2578125,9815.693359375,14592.806640625,9602.7060546875,4753.271484375,23237.86328125,9991.328125,17469.724609375,11981.328125,9388.923828125,12725.9892578125,12349.2880859375,2207.756103515625,10928.3134765625,4158.81494140625,17398.9921875,6929.23876953125,8456.70703125,1730.9189453125,11804.103515625,5458.99072265625,24236.04296875,4493.3955078125,18643.537109375,3856.81787109375,9921.3916015625,26999.314453125,22068.0234375,11982.91796875,-0.0,-43710.0703125,19977.888671875,5299.25,0.0,7380.64453125,0.0,0.0
