836.0545043945312,-1363.7542724609375,12794.3349609375,-6813.2080078125,8581.4794921875,3727.277099609375,3976.027099609375,-4732.60888671875,0.0,-4806.5185546875,-1276.3341064453125,-8953.412109375,0.0,0.0,0.0,-3197.193115234375,4226.36669921875,12864.2724609375,-0.0,-820.159912109375,6478.62744140625,10382.3349609375,7914.70263671875,3818.6708984375,3182.887939453125,-8144.37890625,-5002.02197265625,8117.3583984375,881.35400390625,-850.359619140625,11416.2763671875,-5134.7412109375,9729.0673828125,9124.279296875,6079.673828125,9245.078125,3240.1083984375,-977.5161743164062,6517.56884765625,-0.0,5114.87353515625,-14290.015625,2627.372802734375,13879.935546875,3038.247314453125,-6804.46630859375,5130.767578125,5755.42431640625,2593.994140625,5040.9638671875,3633.4990234375,-3845.691650390625,-8356.5712890625,-3682.7724609375,2858.638671875,-3983.1796875,0.0,-5679.13037109375,0.0,-6692.40966796875,-8436.8388671875,4685.7197265625,-9963.5126953125,0.0,-11440.1181640625,-696.9769897460938,0.0,-5787.2138671875,0.0,6006.55908203125,-0.0,-5339.78125
832.080810546875,-1370.9068603515625,12787.978515625,-6814.7978515625,8575.916015625,3724.09814453125,3976.82177734375,-4734.9931640625,0.0,-4808.10791015625,-1271.5657958984375,-8961.3603515625,0.0,0.0,0.0,-3200.3720703125,4223.982421875,12861.0927734375,-0.0,-820.9546508789062,6473.859375,10379.1552734375,7913.11279296875,3817.08154296875,3174.94091796875,-8138.0205078125,-5005.20068359375,8112.58984375,871.8172607421875,-853.5385131835938,11413.09765625,-5134.7412109375,9724.2998046875,9121.89453125,6075.7001953125,9242.6943359375,3242.49267578125,-978.3109130859375,6512.00634765625,-0.0,5107.720703125,-14287.630859375,2625.783203125,13877.55078125,3038.247314453125,-6804.46630859375,5123.615234375,5759.39794921875,2586.841552734375,5036.98974609375,3635.088623046875,-3848.87060546875,-8367.697265625,-3699.461669921875,2849.10205078125,-3993.51123046875,0.0,-5687.078125,0.0,-6690.8203125,-8445.580078125,4683.3359375,-9963.5126953125,0.0,-11432.1708984375,-705.718994140625,0.0,-5751.451171875,0.0,5998.611328125,-0.0,-5347.728515625
806.6495361328125,-1401.9012451171875,12773.6728515625,-6823.53955078125,8564.7900390625,3711.382568359375,3968.87451171875,-4748.50341796875,0.0,-4817.64453125,-1281.1025390625,-8977.25390625,0.0,0.0,0.0,-3215.471923828125,4212.0615234375,12849.171875,-0.0,-830.4913940429688,6461.1435546875,10368.82421875,7902.78125,3805.16064453125,3168.5830078125,-8153.12109375,-5009.96923828125,8096.69482421875,867.0488891601562,-862.280517578125,11402.7666015625,-5143.4833984375,9713.1728515625,9109.9736328125,6064.57373046875,9233.951171875,3233.75048828125,-991.0265502929688,6499.29052734375,-0.0,5096.59423828125,-14302.73046875,2617.8359375,13864.8349609375,3032.684326171875,-6814.7978515625,5105.33642578125,5756.21923828125,2578.894287109375,5021.09521484375,3626.3466796875,-3861.58642578125,-8389.9501953125,-3714.5615234375,2843.5390625,-3992.71630859375,0.0,-5707.74072265625,0.0,-6700.35693359375,-8467.0380859375,4673.00390625,-9971.458984375,0.0,-11446.4755859375,-727.9713745117188,0.0,-5758.603515625,0.0,5986.6904296875,-0.0,-5373.95458984375
807.4442749023438,-1406.669677734375,12779.236328125,-6814.0029296875,8570.353515625,3718.53515625,3974.437744140625,-4743.73486328125,0.0,-4815.26025390625,-1278.7183837890625,-8971.69140625,0.0,0.0,0.0,-3209.114013671875,4219.2138671875,12856.32421875,-0.0,-826.5177612304688,6465.912109375,10375.1826171875,7906.75439453125,3809.928955078125,3174.94091796875,-8150.73681640625,-5005.20068359375,8106.2314453125,874.9962158203125,-851.9490356445312,11407.5341796875,-5139.509765625,9717.94140625,9116.33203125,6070.93212890625,9241.1044921875,3238.51904296875,-983.8739624023438,6506.44287109375,-0.0,5102.15771484375,-14299.5517578125,2623.39892578125,13871.9873046875,3036.657958984375,-6812.41357421875,5106.92578125,5768.14013671875,2586.046875,5025.86376953125,3631.114990234375,-3855.228515625,-8375.64453125,-3694.693359375,2850.691650390625,-3980.0009765625,0.0,-5696.61474609375,0.0,-6704.33056640625,-8456.70703125,4679.36181640625,-9968.28125,0.0,-11444.091796875,-700.1558837890625,0.0,-5790.392578125,0.0,5977.15380859375,-0.0,-5354.88134765625
811.4179077148438,-1391.5697021484375,12777.646484375,-6814.0029296875,8571.1474609375,3720.91943359375,3976.027099609375,-4738.171875,0.0,-4812.08203125,-1283.4866943359375,-8989.1748046875,0.0,0.0,0.0,-3190.835205078125,4220.0087890625,12857.119140625,-0.0,-824.133544921875,6466.70654296875,10375.9765625,7908.34423828125,3812.31298828125,3174.14599609375,-8157.09423828125,-5004.40576171875,8112.58984375,872.6119995117188,-853.5385131835938,11409.123046875,-5143.4833984375,9717.146484375,9113.9482421875,6072.52099609375,9241.1044921875,3240.903076171875,-979.1055908203125,6508.0322265625,-0.0,5101.36279296875,-14304.3203125,2624.19384765625,13876.755859375,3039.042236328125,-6809.234375,5104.5419921875,5766.55078125,2590.0205078125,5033.01611328125,3631.90966796875,-3846.486328125,-8370.08203125,-3697.8720703125,2850.691650390625,-3976.82177734375,0.0,-5686.283203125,0.0,-6693.20458984375,-8438.427734375,4683.3359375,-9963.5126953125,0.0,-11447.2705078125,-703.3348388671875,0.0,-5802.3134765625,0.0,5958.080078125,-0.0,-5357.265625
824.133544921875,-1369.3173828125,12777.646484375,-6816.38720703125,8572.7373046875,3725.687744140625,3980.0009765625,-4730.224609375,0.0,-4804.92919921875,-1283.4866943359375,-8983.6123046875,0.0,0.0,0.0,-3183.6826171875,4219.2138671875,12861.8876953125,-0.0,-818.5704345703125,6469.0908203125,10377.56640625,7911.52294921875,3816.286865234375,3174.14599609375,-8158.68359375,-4998.8427734375,8118.947265625,876.5856323242188,-840.8228759765625,11413.09765625,-5146.662109375,9717.94140625,9113.9482421875,6074.9052734375,9242.6943359375,3244.082275390625,-974.3372802734375,6508.0322265625,-0.0,5101.36279296875,-14305.9091796875,2628.16748046875,13881.5244140625,3042.22119140625,-6801.287109375,5108.51513671875,5764.96142578125,2591.60986328125,5040.1689453125,3635.88330078125,-3840.128662109375,-8363.7236328125,-3701.051025390625,2853.870361328125,-3989.53759765625,0.0,-5689.46240234375,0.0,-6677.3095703125,-8417.765625,4684.92529296875,-9959.5380859375,0.0,-11444.091796875,-712.0768432617188,0.0,-5768.9345703125,0.0,5973.18017578125,-0.0,-5372.365234375
831.2861328125,-1362.164794921875,12784.798828125,-6821.9501953125,8577.505859375,3724.892822265625,3984.769287109375,-4734.1982421875,0.0,-4800.955078125,-1278.7183837890625,-8965.3330078125,0.0,0.0,0.0,-3199.577392578125,4220.0087890625,12865.861328125,-0.0,-815.3915405273438,6473.859375,10379.9501953125,7915.4970703125,3817.08154296875,3182.887939453125,-8158.68359375,-4994.869140625,8115.7685546875,885.32763671875,-841.6175537109375,11417.0712890625,-5144.27783203125,9722.7099609375,9113.9482421875,6078.08447265625,9244.283203125,3247.260986328125,-975.1319580078125,6511.21142578125,-0.0,5103.7470703125,-14308.29296875,2631.346435546875,13881.5244140625,3045.39990234375,-6803.67138671875,5116.462890625,5760.19287109375,2595.583740234375,5041.75830078125,3639.85693359375,-3847.28125,-8359.75,-3698.666748046875,2860.228271484375,-3983.1796875,0.0,-5698.9990234375,0.0,-6693.20458984375,-8415.3818359375,4688.10400390625,-9957.94921875,0.0,-11435.349609375,-716.0504760742188,0.0,-5735.55615234375,0.0,6018.47998046875,-0.0,-5356.470703125
832.080810546875,-1393.1593017578125,12791.1572265625,-6824.33447265625,8578.30078125,3720.91943359375,3983.974365234375,-4739.76123046875,0.0,-4804.92919921875,-1275.5394287109375,-8953.412109375,0.0,0.0,0.0,-3210.70361328125,4222.39306640625,12865.861328125,-0.0,-818.5704345703125,6475.44873046875,10378.3603515625,7914.70263671875,3815.491943359375,3187.656494140625,-8161.8623046875,-4991.68994140625,8107.02587890625,886.1223754882812,-847.9754028320312,11416.2763671875,-5134.7412109375,9725.888671875,9113.15234375,6078.08447265625,9241.8984375,3248.0556640625,-979.1055908203125,6515.97998046875,-0.0,5106.130859375,-14313.857421875,2632.935791015625,13875.1669921875,3044.605224609375,-6809.234375,5122.8203125,5751.451171875,2597.9677734375,5033.01611328125,3639.062255859375,-3853.638916015625,-8356.5712890625,-3689.925048828125,2864.201904296875,-3983.1796875,0.0,-5704.5615234375,0.0,-6704.33056640625,-8428.8916015625,4687.30908203125,-9960.333984375,0.0,-11430.5810546875,-717.639892578125,0.0,-5746.6826171875,0.0,6019.2744140625,-0.0,-5357.265625
827.3125,-1402.696044921875,12784.00390625,-6833.07666015625,8575.1220703125,3715.356201171875,3979.2060546875,-4743.73486328125,0.0,-4808.90283203125,-1275.5394287109375,-8957.3857421875,0.0,0.0,0.0,-3210.70361328125,4219.2138671875,12858.7080078125,-0.0,-819.3651733398438,6470.68017578125,10372.0029296875,7912.318359375,3809.13427734375,3187.656494140625,-8170.6044921875,-4997.25341796875,8103.05322265625,885.32763671875,-863.0752563476562,11412.302734375,-5137.92041015625,9721.9150390625,9109.1796875,6075.7001953125,9236.3359375,3245.671630859375,-984.668701171875,6514.390625,-0.0,5104.5419921875,-14322.5986328125,2628.16748046875,13868.80859375,3042.22119140625,-6811.61865234375,5118.8466796875,5739.5302734375,2593.994140625,5021.89013671875,3635.88330078125,-3856.81787109375,-8357.365234375,-3685.156494140625,2864.201904296875,-3989.53759765625,0.0,-5703.76708984375,0.0,-6705.12548828125,-8451.9384765625,4682.541015625,-9962.7177734375,0.0,-11430.5810546875,-709.692626953125,0.0,-5762.5771484375,0.0,6004.1748046875,-0.0,-5358.060546875
828.107177734375,-1376.469970703125,12786.388671875,-6823.53955078125,8579.0947265625,3720.12451171875,3979.2060546875,-4739.76123046875,0.0,-4807.3134765625,-1271.5657958984375,-8950.2333984375,0.0,0.0,0.0,-3207.524658203125,4222.39306640625,12863.4765625,-0.0,-813.8020629882812,6476.24365234375,10377.56640625,7915.4970703125,3813.902587890625,3188.451171875,-8166.630859375,-4997.25341796875,8109.41015625,885.32763671875,-859.1016235351562,11415.4814453125,-5140.3046875,9725.09375,9113.15234375,6078.87890625,9241.1044921875,3245.671630859375,-979.1055908203125,6515.97998046875,-0.0,5110.10498046875,-14319.419921875,2630.551513671875,13876.755859375,3041.426513671875,-6809.234375,5122.8203125,5753.8349609375,2597.173095703125,5029.04248046875,3635.88330078125,-3850.4599609375,-8356.5712890625,-3678.798583984375,2863.4072265625,-3983.1796875,0.0,-5696.61474609375,0.0,-6703.53564453125,-8433.6591796875,4685.7197265625,-9957.154296875,0.0,-11424.2236328125,-681.8771362304688,0.0,-5773.703125,0.0,6008.1484375,-0.0,-5347.728515625
818.5704345703125,-1382.8277587890625,12780.0302734375,-6832.28173828125,8574.326171875,3712.971923828125,3976.027099609375,-4746.9140625,0.0,-4810.4921875,-1276.3341064453125,-8956.591796875,0.0,0.0,0.0,-3216.2666015625,4212.8564453125,12854.7353515625,-0.0,-817.7757568359375,6469.88525390625,10369.6181640625,7909.93408203125,3805.955078125,3182.887939453125,-8180.1416015625,-4999.6376953125,8102.2578125,882.9434814453125,-860.6910400390625,11406.7392578125,-5154.60986328125,9717.94140625,9102.02734375,6072.52099609375,9233.1572265625,3241.697998046875,-983.0792846679688,6506.44287109375,-0.0,5105.33642578125,-14331.3408203125,2624.988525390625,13868.80859375,3039.8369140625,-6815.59228515625,5116.462890625,5744.29833984375,2593.199462890625,5021.09521484375,3633.4990234375,-3857.612548828125,-8363.7236328125,-3687.540771484375,2861.02294921875,-3995.1005859375,0.0,-5705.3564453125,0.0,-6708.3037109375,-8424.91796875,4677.7724609375,-9961.9228515625,0.0,-11432.1708984375,-698.56640625,0.0,-5780.85546875,0.0,6004.1748046875,-0.0,-5350.11279296875
808.239013671875,-1390.7750244140625,12779.236328125,-6838.6396484375,8574.326171875,3709.79296875,3980.0009765625,-4746.9140625,0.0,-4805.7236328125,-1282.69189453125,-8962.94921875,0.0,0.0,0.0,-3210.70361328125,4212.0615234375,12853.1455078125,-0.0,-813.8020629882812,6467.5009765625,10364.849609375,7909.93408203125,3805.16064453125,3181.298583984375,-8184.90966796875,-4998.04833984375,8099.87353515625,881.35400390625,-870.227783203125,11405.150390625,-5158.5830078125,9716.3515625,9097.2587890625,6070.93212890625,9228.388671875,3244.876953125,-983.0792846679688,6505.64794921875,-0.0,5104.5419921875,-14340.0830078125,2627.372802734375,13864.8349609375,3042.22119140625,-6813.2080078125,5112.4892578125,5740.32470703125,2593.994140625,5016.3271484375,3636.677978515625,-3855.228515625,-8364.5185546875,-3694.693359375,2859.433349609375,-4001.458740234375,0.0,-5706.1513671875,0.0,-6702.7412109375,-8434.455078125,4676.9775390625,-9960.333984375,0.0,-11436.14453125,-714.4609985351562,0.0,-5788.80322265625,0.0,6004.96923828125,-0.0,-5338.19189453125
806.6495361328125,-1399.51708984375,12779.236328125,-6834.666015625,8572.7373046875,3712.971923828125,3980.79541015625,-4742.1455078125,0.0,-4796.18701171875,-1284.2813720703125,-8970.896484375,0.0,0.0,0.0,-3199.577392578125,4210.47216796875,12856.32421875,-0.0,-805.8547973632812,6467.5009765625,10366.439453125,7909.93408203125,3807.544677734375,3175.7353515625,-8180.93603515625,-5000.4326171875,8105.4375,877.38037109375,-871.8172607421875,11404.35546875,-5160.96728515625,9714.7626953125,9098.052734375,6069.34228515625,9228.388671875,3247.260986328125,-979.1055908203125,6506.44287109375,-0.0,5102.95263671875,-14339.2880859375,2628.962158203125,13869.603515625,3043.015625,-6808.43994140625,5114.07861328125,5747.47705078125,2591.60986328125,5019.505859375,3637.472900390625,-3848.87060546875,-8371.6708984375,-3705.024658203125,2853.07568359375,-4002.253173828125,0.0,-5702.177734375,0.0,-6691.61474609375,-8455.912109375,4678.5673828125,-9957.154296875,0.0,-11440.1181640625,-714.4609985351562,0.0,-5787.2138671875,0.0,6024.04248046875,-0.0,-5319.91357421875
808.239013671875,-1403.49072265625,12772.8779296875,-6839.43408203125,8567.9697265625,3706.6142578125,3977.61669921875,-4746.9140625,0.0,-4796.98193359375,-1285.076171875,-8979.6376953125,0.0,0.0,0.0,-3204.345703125,4204.1142578125,12851.5556640625,-0.0,-809.8284301757812,6461.9384765625,10360.08203125,7904.3701171875,3802.7763671875,3173.351318359375,-8190.47265625,-5001.22705078125,8100.6689453125,874.2014770507812,-861.4857788085938,11398.7919921875,-5169.70947265625,9706.814453125,9091.6953125,6064.57373046875,9225.208984375,3243.287353515625,-984.668701171875,6496.111328125,-0.0,5096.59423828125,-14344.0556640625,2625.783203125,13865.6298828125,3039.8369140625,-6811.61865234375,5114.87353515625,5737.9404296875,2586.841552734375,5013.94287109375,3636.677978515625,-3852.049560546875,-8390.744140625,-3715.356201171875,2852.28076171875,-4019.7373046875,0.0,-5710.919921875,0.0,-6691.61474609375,-8457.5009765625,4676.18310546875,-9960.333984375,0.0,-11442.501953125,-723.9977416992188,0.0,-5763.3720703125,0.0,6031.990234375,-0.0,-5323.091796875
818.5704345703125,-1404.285400390625,12780.0302734375,-6838.6396484375,8570.353515625,3708.99853515625,3977.61669921875,-4747.708984375,0.0,-4801.75,-1279.5130615234375,-8971.69140625,0.0,0.0,0.0,-3205.140380859375,4208.8828125,12853.1455078125,-0.0,-814.5968017578125,6465.1171875,10364.849609375,7907.5498046875,3805.955078125,3176.530029296875,-8186.49951171875,-4998.8427734375,8104.64208984375,874.9962158203125,-852.7437744140625,11401.1767578125,-5158.5830078125,9711.5830078125,9094.0791015625,6068.5478515625,9226.798828125,3241.697998046875,-983.8739624023438,6500.08544921875,-0.0,5099.7734375,-14338.4931640625,2624.988525390625,13867.21875,3040.631591796875,-6814.7978515625,5129.97314453125,5734.76171875,2590.0205078125,5020.30029296875,3636.677978515625,-3853.638916015625,-8379.6181640625,-3710.587646484375,2853.870361328125,-4016.55810546875,0.0,-5707.74072265625,0.0,-6697.97265625,-8458.296875,4679.36181640625,-9960.333984375,0.0,-11441.7080078125,-708.1031494140625,0.0,-5762.5771484375,0.0,6019.2744140625,-0.0,-5323.091796875
834.4650268554688,-1393.9539794921875,12790.3623046875,-6821.9501953125,8579.890625,3724.892822265625,3980.79541015625,-4734.1982421875,0.0,-4798.5712890625,-1269.181640625,-8947.0546875,0.0,0.0,0.0,-3183.6826171875,4223.18798828125,12861.8876953125,-0.0,-815.3915405273438,6474.65380859375,10379.1552734375,7916.291015625,3817.876220703125,3192.4248046875,-8164.24658203125,-4994.07421875,8123.71533203125,891.6854858398438,-840.8228759765625,11413.09765625,-5145.07275390625,9723.50390625,9109.9736328125,6078.87890625,9239.5146484375,3247.260986328125,-971.9530639648438,6515.97998046875,-0.0,5110.10498046875,-14321.009765625,2629.7568359375,13881.5244140625,3043.810546875,-6805.26123046875,5136.3310546875,5754.62939453125,2598.762451171875,5041.75830078125,3638.267578125,-3837.744384765625,-8358.955078125,-3689.925048828125,2868.97021484375,-3986.358642578125,0.0,-5685.48828125,0.0,-6683.66748046875,-8453.5283203125,4688.10400390625,-9955.5654296875,0.0,-11421.83984375,-675.519287109375,0.0,-5749.06689453125,0.0,6016.095703125,-0.0,-5338.19189453125
836.8492431640625,-1384.417236328125,12785.59375,-6824.33447265625,8578.30078125,3719.329833984375,3975.232666015625,-4746.9140625,0.0,-4818.439453125,-1267.592041015625,-8950.2333984375,0.0,0.0,0.0,-3203.551025390625,4220.0087890625,12859.50390625,-0.0,-827.3125,6471.47509765625,10375.1826171875,7909.93408203125,3811.518310546875,3197.193115234375,-8166.630859375,-4998.04833984375,8111.79443359375,896.453857421875,-844.7965087890625,11410.712890625,-5148.251953125,9719.53125,9106.0,6072.52099609375,9234.74609375,3242.49267578125,-979.900390625,6511.21142578125,-0.0,5107.720703125,-14324.1884765625,2624.988525390625,13873.5771484375,3039.042236328125,-6818.771484375,5122.02587890625,5752.24560546875,2597.173095703125,5033.81103515625,3632.70458984375,-3852.84423828125,-8354.1875,-3689.130126953125,2873.738525390625,-3984.769287109375,0.0,-5697.4091796875,0.0,-6709.8935546875,-8444.7861328125,4680.95166015625,-9967.486328125,0.0,-11416.2763671875,-677.1087646484375,0.0,-5758.603515625,0.0,6004.96923828125,-0.0,-5379.51806640625
836.8492431640625,-1385.2119140625,12781.6201171875,-6832.28173828125,8575.1220703125,3714.5615234375,3973.642822265625,-4750.88720703125,0.0,-4827.97607421875,-1273.1552734375,-8962.94921875,0.0,0.0,0.0,-3206.72998046875,4216.03515625,12857.119140625,-0.0,-834.4650268554688,6469.0908203125,10370.4140625,7906.75439453125,3805.16064453125,3192.4248046875,-8172.1943359375,-4997.25341796875,8107.02587890625,893.2749633789062,-851.154296875,11407.5341796875,-5152.2255859375,9717.94140625,9101.2314453125,6069.34228515625,9230.7734375,3241.697998046875,-984.668701171875,6510.41650390625,-0.0,5104.5419921875,-14330.5458984375,2625.783203125,13868.0146484375,3038.247314453125,-6824.33447265625,5114.07861328125,5747.47705078125,2593.994140625,5027.453125,3633.4990234375,-3859.2021484375,-8351.802734375,-3698.666748046875,2870.5595703125,-3990.33203125,0.0,-5695.02490234375,0.0,-6718.6357421875,-8430.48046875,4676.18310546875,-9970.6650390625,0.0,-11422.6337890625,-677.1087646484375,0.0,-5760.19287109375,0.0,5988.27978515625,-0.0,-5400.1806640625
848.7701416015625,-1374.8804931640625,12787.978515625,-6820.36083984375,8580.6845703125,3723.303466796875,3981.59033203125,-4738.96630859375,0.0,-4817.64453125,-1263.618408203125,-8943.875,0.0,0.0,0.0,-3194.80908203125,4223.982421875,12865.861328125,-0.0,-826.5177612304688,6475.44873046875,10378.3603515625,7913.11279296875,3813.107666015625,3194.80908203125,-8161.06787109375,-4994.07421875,8118.15283203125,895.6591186523438,-836.8492431640625,11413.09765625,-5145.07275390625,9725.888671875,9109.1796875,6077.28955078125,9240.3095703125,3244.082275390625,-975.9266967773438,6518.36376953125,-0.0,5110.10498046875,-14321.009765625,2630.551513671875,13876.755859375,3043.015625,-6814.7978515625,5121.23095703125,5759.39794921875,2598.762451171875,5035.400390625,3638.267578125,-3848.075927734375,-8345.4443359375,-3692.30908203125,2872.94384765625,-3994.30615234375,0.0,-5676.74658203125,0.0,-6705.919921875,-8419.3544921875,4683.3359375,-9964.306640625,0.0,-11421.83984375,-646.1143798828125,0.0,-5743.50341796875,0.0,5993.04833984375,-0.0,-5387.46484375
857.5121459960938,-1377.2646484375,12792.74609375,-6814.7978515625,8580.6845703125,3728.072021484375,3982.38525390625,-4734.1982421875,0.0,-4808.10791015625,-1251.697509765625,-8935.1337890625,0.0,0.0,0.0,-3188.451171875,4226.36669921875,12868.2451171875,-0.0,-820.159912109375,6477.8330078125,10383.12890625,7914.70263671875,3817.876220703125,3197.193115234375,-8156.2998046875,-4994.869140625,8120.53662109375,896.453857421875,-834.4650268554688,11417.8662109375,-5139.509765625,9728.2724609375,9113.9482421875,6080.46875,9242.6943359375,3244.876953125,-971.9530639648438,6521.54296875,-0.0,5114.07861328125,-14314.6513671875,2631.346435546875,13881.5244140625,3043.015625,-6809.234375,5129.97314453125,5768.14013671875,2600.35205078125,5037.78466796875,3639.062255859375,-3843.3076171875,-8339.8818359375,-3696.28271484375,2872.149169921875,-3996.690185546875,0.0,-5670.388671875,0.0,-6696.3828125,-8416.970703125,4686.51416015625,-9960.333984375,0.0,-11419.455078125,-633.398681640625,0.0,-5752.24560546875,0.0,5997.02197265625,-0.0,-5369.9814453125
844.0017700195312,-1385.2119140625,12789.5673828125,-6820.36083984375,8577.505859375,3721.714111328125,3983.974365234375,-4738.171875,0.0,-4804.13427734375,-1260.4395751953125,-8948.6435546875,0.0,0.0,0.0,-3193.219482421875,4223.18798828125,12863.4765625,-0.0,-813.00732421875,6474.65380859375,10379.1552734375,7913.9072265625,3817.08154296875,3194.80908203125,-8162.65771484375,-4994.07421875,8114.1787109375,893.2749633789062,-840.8228759765625,11415.4814453125,-5141.099609375,9723.50390625,9108.3837890625,6076.49462890625,9238.7197265625,3248.0556640625,-975.1319580078125,6517.56884765625,-0.0,5110.10498046875,-14319.419921875,2631.346435546875,13875.1669921875,3046.989501953125,-6809.234375,5129.1787109375,5760.98779296875,2597.9677734375,5031.4267578125,3642.2412109375,-3844.89697265625,-8355.7763671875,-3695.488037109375,2870.5595703125,-3986.358642578125,0.0,-5683.89892578125,0.0,-6691.61474609375,-8428.8916015625,4684.13037109375,-9960.333984375,0.0,-11425.8125,-658.8300170898438,0.0,-5757.013671875,0.0,6012.91650390625,-0.0,-5354.08642578125
831.2861328125,-1389.9803466796875,12790.3623046875,-6824.33447265625,8577.505859375,3714.5615234375,3981.59033203125,-4744.52978515625,0.0,-4808.10791015625,-1267.592041015625,-8970.896484375,0.0,0.0,0.0,-3204.345703125,4219.2138671875,12860.2978515625,-0.0,-817.7757568359375,6474.65380859375,10377.56640625,7912.318359375,3811.518310546875,3196.3984375,-8176.962890625,-4992.48486328125,8103.05322265625,896.453857421875,-846.385986328125,11413.8916015625,-5140.3046875,9725.09375,9106.794921875,6074.1103515625,9233.951171875,3248.0556640625,-980.6951293945312,6519.15869140625,-0.0,5110.10498046875,-14326.572265625,2629.7568359375,13869.603515625,3043.810546875,-6814.0029296875,5129.97314453125,5750.65625,2599.55712890625,5019.505859375,3639.062255859375,-3853.638916015625,-8356.5712890625,-3688.33544921875,2872.94384765625,-3995.1005859375,0.0,-5705.3564453125,0.0,-6701.1513671875,-8447.169921875,4682.541015625,-9961.9228515625,0.0,-11426.6083984375,-702.5401000976562,0.0,-5764.16650390625,0.0,6014.505859375,-0.0,-5343.75537109375
836.0545043945312,-1388.390869140625,12793.541015625,-6822.74462890625,8580.6845703125,3716.15087890625,3980.0009765625,-4747.708984375,0.0,-4813.6708984375,-1260.4395751953125,-8978.048828125,0.0,0.0,0.0,-3209.114013671875,4222.39306640625,12862.6826171875,-0.0,-824.133544921875,6477.0380859375,10378.3603515625,7911.52294921875,3812.31298828125,3199.577392578125,-8173.783203125,-4991.68994140625,8102.2578125,898.8380126953125,-848.7701416015625,11415.4814453125,-5137.12548828125,9727.478515625,9111.5634765625,6074.9052734375,9236.3359375,3244.876953125,-982.2845458984375,6524.7216796875,-0.0,5112.4892578125,-14322.5986328125,2629.7568359375,13868.80859375,3043.015625,-6814.7978515625,5129.97314453125,5752.24560546875,2601.146728515625,5021.89013671875,3636.677978515625,-3856.023193359375,-8349.4189453125,-3693.8984375,2874.533447265625,-3995.1005859375,0.0,-5710.125,0.0,-6704.33056640625,-8455.1171875,4682.541015625,-9965.1025390625,0.0,-11420.25,-710.4873657226562,0.0,-5756.21923828125,0.0,6009.7373046875,-0.0,-5350.11279296875
838.4386596679688,-1386.8013916015625,12795.130859375,-6817.9765625,8583.86328125,3721.714111328125,3980.79541015625,-4742.9404296875,0.0,-4813.6708984375,-1254.87646484375,-8960.564453125,0.0,0.0,0.0,-3202.756103515625,4226.36669921875,12865.06640625,-0.0,-825.7230224609375,6479.421875,10380.7451171875,7912.318359375,3816.286865234375,3199.577392578125,-8163.4521484375,-4994.869140625,8108.61572265625,899.6327514648438,-846.385986328125,11417.0712890625,-5133.94677734375,9730.65625,9113.15234375,6077.28955078125,9242.6943359375,3244.876953125,-979.1055908203125,6523.92724609375,-0.0,5113.28369140625,-14311.47265625,2632.14111328125,13871.193359375,3042.22119140625,-6812.41357421875,5132.35693359375,5754.62939453125,2603.53076171875,5029.04248046875,3638.267578125,-3852.84423828125,-8343.85546875,-3704.22998046875,2876.122802734375,-3987.153564453125,0.0,-5706.94580078125,0.0,-6697.97265625,-8452.7333984375,4684.92529296875,-9965.896484375,0.0,-11413.8916015625,-705.718994140625,0.0,-5747.47705078125,0.0,5991.458984375,-0.0,-5369.9814453125
842.4122924804688,-1389.185546875,12797.5146484375,-6814.7978515625,8586.2470703125,3726.482421875,3980.79541015625,-4740.55615234375,0.0,-4813.6708984375,-1252.4923095703125,-8949.439453125,0.0,0.0,0.0,-3205.140380859375,4228.75048828125,12866.65625,-0.0,-824.9282836914062,6481.80615234375,10383.12890625,7913.9072265625,3817.08154296875,3203.551025390625,-8155.50537109375,-4993.27978515625,8108.61572265625,902.8117065429688,-844.7965087890625,11421.0439453125,-5135.5361328125,9732.24609375,9114.7421875,6079.673828125,9244.283203125,3245.671630859375,-978.3109130859375,6527.10595703125,-0.0,5116.462890625,-14305.115234375,2632.14111328125,13872.7822265625,3043.015625,-6812.41357421875,5133.94677734375,5758.603515625,2607.504638671875,5031.4267578125,3638.267578125,-3853.638916015625,-8337.498046875,-3703.435302734375,2880.89111328125,-3992.71630859375,0.0,-5707.74072265625,0.0,-6703.53564453125,-8440.017578125,4687.30908203125,-9965.896484375,0.0,-11411.5078125,-704.1295166015625,0.0,-5762.5771484375,0.0,6002.5849609375,-0.0,-5370.77587890625
852.7437744140625,-1379.6488037109375,12801.48828125,-6809.234375,8591.015625,3729.6611328125,3983.1796875,-4740.55615234375,0.0,-4816.05517578125,-1250.108154296875,-8945.46484375,0.0,0.0,0.0,-3215.471923828125,4232.724609375,12871.4248046875,-0.0,-823.3388061523438,6486.57470703125,10388.6923828125,7917.880859375,3820.26025390625,3209.90869140625,-8151.53125,-4988.51171875,8109.41015625,909.1694946289062,-836.8492431640625,11425.8125,-5133.15185546875,9736.220703125,9121.1005859375,6086.826171875,9250.640625,3248.8505859375,-975.9266967773438,6526.3115234375,-0.0,5122.02587890625,-14296.3720703125,2634.525390625,13875.9609375,3043.810546875,-6811.61865234375,5141.89404296875,5769.7294921875,2612.27294921875,5035.400390625,3639.85693359375,-3856.023193359375,-8327.1669921875,-3690.7197265625,2885.659423828125,-3985.563720703125,0.0,-5702.97265625,0.0,-6713.8671875,-8411.4072265625,4691.28271484375,-9963.5126953125,0.0,-11402.7666015625,-685.0560302734375,0.0,-5783.23974609375,0.0,6000.99560546875,-0.0,-5371.57080078125
863.8699951171875,-1368.522705078125,12817.3828125,-6795.724609375,8602.142578125,3741.582275390625,3991.921875,-4728.63525390625,0.0,-4808.10791015625,-1238.9818115234375,-8928.775390625,0.0,0.0,0.0,-3200.3720703125,4244.6455078125,12884.9345703125,-0.0,-816.186279296875,6498.49560546875,10401.408203125,7928.21240234375,3829.797119140625,3223.419189453125,-8136.431640625,-4974.20654296875,8121.3310546875,921.8851928710938,-824.9282836914062,11436.939453125,-5118.8466796875,9748.1416015625,9133.8154296875,6097.9521484375,9261.767578125,3258.38720703125,-964.0057983398438,6543.00048828125,-0.0,5137.12548828125,-14282.0673828125,2645.651611328125,13885.498046875,3054.14208984375,-6800.49267578125,5163.3515625,5782.4453125,2624.19384765625,5043.34765625,3649.393798828125,-3843.3076171875,-8308.0927734375,-3671.64599609375,2898.375244140625,-3968.080078125,0.0,-5683.10400390625,0.0,-6701.9462890625,-8395.5126953125,4703.99853515625,-9953.9755859375,0.0,-11394.0234375,-658.0352783203125,0.0,-5777.67724609375,0.0,6002.5849609375,-0.0,-5366.80224609375
857.5121459960938,-1373.291015625,12824.53515625,-6794.134765625,8608.5,3741.582275390625,3998.279541015625,-4722.27734375,0.0,-4800.955078125,-1231.03466796875,-8927.9814453125,0.0,0.0,0.0,-3187.656494140625,4247.82421875,12888.1142578125,-0.0,-813.00732421875,6504.05859375,10402.2021484375,7933.77587890625,3833.770751953125,3239.313720703125,-8138.0205078125,-4965.46435546875,8126.89501953125,935.3955688476562,-824.9282836914062,11441.7080078125,-5117.2578125,9752.9091796875,9136.994140625,6101.13134765625,9264.9462890625,3263.15576171875,-960.826904296875,6550.1533203125,-0.0,5142.68896484375,-14283.6572265625,2652.00927734375,13890.2666015625,3059.705078125,-6795.724609375,5175.2724609375,5774.498046875,2634.525390625,5044.14208984375,3656.54638671875,-3835.3603515625,-8314.4501953125,-3666.877685546875,2911.0908203125,-3972.848388671875,0.0,-5672.77294921875,0.0,-6692.40966796875,-8399.486328125,4707.97216796875,-9948.4130859375,0.0,-11388.4609375,-654.8563842773438,0.0,-5758.603515625,0.0,6014.505859375,-0.0,-5357.265625
834.4650268554688,-1391.5697021484375,12803.8720703125,-6814.7978515625,8586.2470703125,3721.714111328125,3982.38525390625,-4742.1455078125,0.0,-4817.64453125,-1256.4659423828125,-8958.9755859375,0.0,0.0,0.0,-3205.140380859375,4225.572265625,12865.861328125,-0.0,-828.9019165039062,6481.80615234375,10379.9501953125,7912.318359375,3815.491943359375,3213.88232421875,-8161.06787109375,-4986.921875,8108.61572265625,911.5537109375,-838.4386596679688,11420.25,-5139.509765625,9731.4521484375,9113.15234375,6080.46875,9242.6943359375,3244.876953125,-979.900390625,6529.490234375,-0.0,5119.6416015625,-14309.0888671875,2632.14111328125,13873.5771484375,3043.015625,-6814.7978515625,5146.662109375,5754.62939453125,2611.47802734375,5025.86376953125,3639.062255859375,-3853.638916015625,-8343.060546875,-3683.567138671875,2886.454345703125,-4003.8427734375,0.0,-5691.05126953125,0.0,-6709.0986328125,-8424.91796875,4688.10400390625,-9965.896484375,0.0,-11416.2763671875,-674.724609375,0.0,-5770.5244140625,0.0,5998.611328125,-0.0,-5366.80224609375
829.6966552734375,-1389.185546875,12792.74609375,-6824.33447265625,8573.5322265625,3714.5615234375,3973.642822265625,-4752.47705078125,0.0,-4827.18115234375,-1268.3868408203125,-8974.8701171875,0.0,0.0,0.0,-3216.2666015625,4217.62451171875,12857.9140625,-0.0,-836.0545043945312,6472.26953125,10374.38671875,7902.78125,3808.33935546875,3194.80908203125,-8170.6044921875,-5000.4326171875,8099.0791015625,893.2749633789062,-852.7437744140625,11411.5078125,-5145.07275390625,9723.50390625,9102.02734375,6070.13720703125,9233.1572265625,3236.9296875,-988.642333984375,6518.36376953125,-0.0,5108.51513671875,-14320.2138671875,2621.014892578125,13866.4248046875,3034.27392578125,-6825.923828125,5127.5888671875,5749.861328125,2594.788818359375,5017.916015625,3630.3203125,-3862.380859375,-8353.392578125,-3689.925048828125,2868.97021484375,-4011.789794921875,0.0,-5702.177734375,0.0,-6719.4306640625,-8440.017578125,4679.36181640625,-9975.43359375,0.0,-11427.40234375,-694.5927734375,0.0,-5786.4189453125,0.0,5989.07470703125,-0.0,-5374.74951171875
840.8228759765625,-1374.0858154296875,12799.8994140625,-6814.7978515625,8583.068359375,3720.91943359375,3979.2060546875,-4747.708984375,0.0,-4823.2080078125,-1256.4659423828125,-8959.7705078125,0.0,0.0,0.0,-3212.29296875,4227.16162109375,12866.65625,-0.0,-831.2861328125,6480.216796875,10383.12890625,7909.93408203125,3813.107666015625,3203.551025390625,-8161.8623046875,-4994.869140625,8103.05322265625,902.8117065429688,-855.1279907226562,11417.8662109375,-5133.94677734375,9733.041015625,9110.7685546875,6078.87890625,9241.8984375,3244.082275390625,-982.2845458984375,6527.10595703125,-0.0,5115.66796875,-14312.267578125,2628.16748046875,13871.193359375,3040.631591796875,-6820.36083984375,5131.5625,5757.80859375,2601.94140625,5025.86376953125,3636.677978515625,-3859.996826171875,-8349.4189453125,-3685.156494140625,2880.096435546875,-3992.71630859375,0.0,-5704.5615234375,0.0,-6716.25146484375,-8453.5283203125,4687.30908203125,-9969.8701171875,0.0,-11412.302734375,-700.1558837890625,0.0,-5784.03466796875,0.0,5989.07470703125,-0.0,-5379.51806640625
847.9754028320312,-1375.6751708984375,12803.8720703125,-6809.234375,8589.4267578125,3728.86669921875,3984.769287109375,-4740.55615234375,0.0,-4816.05517578125,-1250.90283203125,-8943.0810546875,0.0,0.0,0.0,-3200.3720703125,4234.31396484375,12873.013671875,-0.0,-824.133544921875,6486.57470703125,10388.6923828125,7917.08642578125,3821.05517578125,3211.498291015625,-8152.32568359375,-4986.921875,8113.38427734375,910.7589721679688,-838.4386596679688,11423.4287109375,-5130.767578125,9737.0146484375,9118.7158203125,6085.23681640625,9248.2568359375,3248.8505859375,-974.3372802734375,6531.8740234375,-0.0,5120.43603515625,-14305.115234375,2634.525390625,13877.55078125,3046.989501953125,-6810.82373046875,5133.15185546875,5768.14013671875,2608.29931640625,5035.400390625,3643.035888671875,-3851.254638671875,-8345.4443359375,-3677.209228515625,2888.838623046875,-3974.437744140625,0.0,-5698.2041015625,0.0,-6704.33056640625,-8457.5009765625,4694.4619140625,-9963.5126953125,0.0,-11407.5341796875,-689.0296630859375,0.0,-5756.21923828125,0.0,5996.22705078125,-0.0,-5365.212890625
851.154296875,-1378.8541259765625,12807.0517578125,-6806.0556640625,8591.015625,3732.04541015625,3984.769287109375,-4738.96630859375,0.0,-4817.64453125,-1246.1343994140625,-8944.6708984375,0.0,0.0,0.0,-3201.96142578125,4235.10888671875,12875.3974609375,-0.0,-824.9282836914062,6488.958984375,10391.076171875,7918.67529296875,3821.05517578125,3213.087890625,-8151.53125,-4984.53759765625,8117.3583984375,911.5537109375,-836.0545043945312,11426.6083984375,-5129.97314453125,9738.6044921875,9120.3046875,6087.62109375,9251.435546875,3248.0556640625,-975.1319580078125,6531.8740234375,-0.0,5123.615234375,-14303.525390625,2636.909423828125,13877.55078125,3044.605224609375,-6812.41357421875,5137.12548828125,5768.9345703125,2610.683349609375,5038.57958984375,3640.651611328125,-3848.87060546875,-8343.85546875,-3671.64599609375,2889.63330078125,-3969.66943359375,0.0,-5696.61474609375,0.0,-6705.12548828125,-8442.40234375,4694.4619140625,-9963.5126953125,0.0,-11404.35546875,-683.4666137695312,0.0,-5758.603515625,0.0,5998.611328125,-0.0,-5367.59716796875
849.5648803710938,-1382.032958984375,12805.4619140625,-6810.029296875,8590.2216796875,3727.277099609375,3983.1796875,-4744.52978515625,0.0,-4824.0029296875,-1238.1871337890625,-8955.7958984375,0.0,0.0,0.0,-3210.70361328125,4231.9296875,12870.62890625,-0.0,-829.6966552734375,6485.7802734375,10387.8974609375,7916.291015625,3814.697265625,3215.471923828125,-8157.09423828125,-4986.921875,8110.20556640625,912.3484497070312,-855.1279907226562,11424.2236328125,-5137.12548828125,9735.4248046875,9115.537109375,6084.4423828125,9246.6669921875,3247.260986328125,-979.900390625,6529.490234375,-0.0,5123.615234375,-14307.4990234375,2635.320068359375,13874.37109375,3043.015625,-6820.36083984375,5140.3046875,5764.96142578125,2609.093994140625,5034.60546875,3639.062255859375,-3855.228515625,-8340.6767578125,-3677.209228515625,2888.838623046875,-3980.0009765625,0.0,-5702.177734375,0.0,-6717.8408203125,-8411.4072265625,4688.10400390625,-9966.69140625,0.0,-11401.970703125,-689.8244018554688,0.0,-5782.4453125,0.0,6001.79052734375,-0.0,-5369.1865234375
859.8963623046875,-1377.2646484375,12808.640625,-6806.0556640625,8594.990234375,3736.813720703125,3986.358642578125,-4734.9931640625,0.0,-4817.64453125,-1232.6240234375,-8938.3125,0.0,0.0,0.0,-3194.014404296875,4236.6982421875,12876.9873046875,-0.0,-824.9282836914062,6491.34326171875,10395.0498046875,7922.6494140625,3822.64453125,3214.677001953125,-8149.94140625,-4986.12744140625,8120.53662109375,911.5537109375,-831.2861328125,11429.787109375,-5133.15185546875,9740.193359375,9118.7158203125,6088.41552734375,9253.8193359375,3249.645263671875,-971.9530639648438,6539.02685546875,-0.0,5128.3837890625,-14302.73046875,2637.7041015625,13883.1142578125,3046.989501953125,-6810.82373046875,5148.251953125,5758.603515625,2612.27294921875,5044.14208984375,3642.2412109375,-3848.075927734375,-8328.755859375,-3671.64599609375,2888.043701171875,-3972.053466796875,0.0,-5685.48828125,0.0,-6705.919921875,-8391.5400390625,4695.2568359375,-9961.1279296875,0.0,-11397.998046875,-673.1351318359375,0.0,-5758.603515625,0.0,6005.76416015625,-0.0,-5361.23876953125
859.8963623046875,-1370.112060546875,12811.8203125,-6800.49267578125,8596.5791015625,3739.197998046875,3988.742919921875,-4732.60888671875,0.0,-4816.85009765625,-1241.3660888671875,-8931.16015625,0.0,0.0,0.0,-3189.245849609375,4241.46630859375,12881.755859375,-0.0,-824.133544921875,6494.52197265625,10399.818359375,7925.828125,3826.6181640625,3216.2666015625,-8147.55712890625,-4982.9482421875,8124.5107421875,915.52734375,-819.3651733398438,11433.7607421875,-5124.41015625,9745.7568359375,9124.279296875,6092.3896484375,9256.9990234375,3251.23486328125,-967.9794311523438,6544.58984375,-0.0,5129.97314453125,-14298.7568359375,2640.08837890625,13887.087890625,3047.7841796875,-6808.43994140625,5149.84130859375,5768.9345703125,2614.6572265625,5044.93701171875,3642.2412109375,-3843.3076171875,-8326.37109375,-3682.7724609375,2889.63330078125,-3968.87451171875,0.0,-5679.13037109375,0.0,-6703.53564453125,-8401.076171875,4699.22998046875,-9961.1279296875,0.0,-11395.61328125,-669.1614990234375,0.0,-5748.27197265625,0.0,6002.5849609375,-0.0,-5366.00732421875
848.7701416015625,-1369.3173828125,12808.640625,-6802.876953125,8594.990234375,3733.635009765625,3988.742919921875,-4736.58251953125,0.0,-4817.64453125,-1246.92919921875,-8944.6708984375,0.0,0.0,0.0,-3197.98779296875,4239.87744140625,12879.3720703125,-0.0,-824.9282836914062,6492.1376953125,10396.6396484375,7923.44384765625,3822.64453125,3217.061279296875,-8154.7099609375,-4982.1533203125,8117.3583984375,917.9114990234375,-832.080810546875,11432.1708984375,-5124.41015625,9743.373046875,9124.279296875,6091.5947265625,9253.025390625,3251.23486328125,-971.9530639648438,6543.00048828125,-0.0,5127.5888671875,-14305.115234375,2639.293701171875,13884.7041015625,3049.37353515625,-6813.2080078125,5145.86767578125,5768.9345703125,2617.041259765625,5037.78466796875,3645.420166015625,-3846.486328125,-8332.7294921875,-3710.587646484375,2892.81201171875,-3975.232666015625,0.0,-5685.48828125,0.0,-6709.0986328125,-8414.5859375,4696.05126953125,-9962.7177734375,0.0,-11391.6396484375,-677.1087646484375,0.0,-5755.42431640625,0.0,5998.611328125,-0.0,-5363.623046875
851.154296875,-1366.138427734375,12819.7666015625,-6794.9296875,8604.5263671875,3742.376953125,3995.8955078125,-4730.224609375,0.0,-4810.4921875,-1237.3924560546875,-8943.0810546875,0.0,0.0,0.0,-3191.630126953125,4249.4140625,12887.318359375,-0.0,-819.3651733398438,6501.6748046875,10405.380859375,7929.00732421875,3830.591796875,3226.59814453125,-8147.55712890625,-4972.61669921875,8123.71533203125,927.4482421875,-830.4913940429688,11441.7080078125,-5114.07861328125,9754.498046875,9133.021484375,6101.13134765625,9260.9716796875,3259.181884765625,-964.800537109375,6550.94775390625,-0.0,5137.92041015625,-14296.3720703125,2647.240966796875,13891.060546875,3056.526123046875,-6805.26123046875,5156.19921875,5778.4716796875,2627.372802734375,5045.73193359375,3650.983154296875,-3840.92333984375,-8328.755859375,-3703.435302734375,2904.73291015625,-3968.080078125,0.0,-5679.92529296875,0.0,-6701.1513671875,-8421.73828125,4702.4091796875,-9954.7705078125,0.0,-11384.4873046875,-673.9298706054688,0.0,-5756.21923828125,0.0,6008.1484375,-0.0,-5354.88134765625
861.4857788085938,-1358.98583984375,12830.0986328125,-6781.41943359375,8616.447265625,3757.476806640625,4000.663818359375,-4718.3037109375,0.0,-4799.3662109375,-1229.445068359375,-8927.185546875,0.0,0.0,0.0,-3175.7353515625,4259.7451171875,12899.2392578125,-0.0,-811.4179077148438,6512.00634765625,10417.3017578125,7938.54443359375,3843.3076171875,3239.313720703125,-8130.8681640625,-4965.46435546875,8138.81591796875,939.3692016601562,-805.8547973632812,11454.4228515625,-5103.7470703125,9764.8310546875,9144.9423828125,6111.462890625,9274.482421875,3263.950439453125,-953.67431640625,6562.86865234375,-0.0,5146.662109375,-14279.68359375,2655.188232421875,13904.5712890625,3061.29443359375,-6792.54541015625,5168.1201171875,5795.16064453125,2639.293701171875,5060.037109375,3655.75146484375,-3825.823486328125,-8329.55078125,-3689.130126953125,2914.269775390625,-3953.77490234375,0.0,-5664.03076171875,0.0,-6686.84619140625,-8426.5068359375,4713.53515625,-9946.8232421875,0.0,-11394.818359375,-654.8563842773438,0.0,-5758.603515625,0.0,6014.505859375,-0.0,-5357.265625
853.5385131835938,-1366.138427734375,12820.5615234375,-6790.9560546875,8605.3212890625,3747.93994140625,3990.33203125,-4725.4560546875,0.0,-4807.3134765625,-1239.776611328125,-8928.775390625,0.0,0.0,0.0,-3186.86181640625,4248.619140625,12890.498046875,-0.0,-818.5704345703125,6501.6748046875,10407.765625,7929.00732421875,3834.5654296875,3224.2138671875,-8141.2001953125,-4980.56396484375,8130.07373046875,922.679931640625,-816.9810180664062,11444.091796875,-5114.87353515625,9752.1142578125,9136.2001953125,6100.33642578125,9266.5361328125,3256.003173828125,-962.4163208007812,6549.3583984375,-0.0,5136.3310546875,-14287.630859375,2644.856689453125,13894.240234375,3052.552490234375,-6802.08203125,5163.3515625,5784.82958984375,2627.372802734375,5052.884765625,3646.21484375,-3835.3603515625,-8338.2919921875,-3679.59326171875,2899.169921875,-3964.90087890625,0.0,-5673.5673828125,0.0,-6696.3828125,-8424.91796875,4704.79345703125,-9954.7705078125,0.0,-11432.1708984375,-659.624755859375,0.0,-5753.8349609375,0.0,6013.71142578125,-0.0,-5358.85498046875
856.7174072265625,-1362.95947265625,12824.53515625,-6795.724609375,8603.732421875,3743.171630859375,3991.921875,-4727.04541015625,0.0,-4811.287109375,-1250.108154296875,-8932.75,0.0,0.0,0.0,-3189.245849609375,4248.619140625,12888.1142578125,-0.0,-819.3651733398438,6500.08544921875,10406.1767578125,7929.00732421875,3832.18115234375,3221.82958984375,-8146.7626953125,-4982.9482421875,8128.48388671875,917.1168212890625,-823.3388061523438,11441.7080078125,-5118.05224609375,9752.9091796875,9130.63671875,6099.5419921875,9264.1513671875,3257.592529296875,-964.800537109375,6547.76904296875,-0.0,5137.12548828125,-14290.8095703125,2642.472412109375,13889.4716796875,3053.347412109375,-6804.46630859375,5164.146484375,5776.88232421875,2622.6044921875,5048.1162109375,3647.009521484375,-3840.128662109375,-8327.9609375,-3670.8515625,2893.60693359375,-3967.28515625,0.0,-5675.95166015625,0.0,-6699.56201171875,-8421.73828125,4703.20361328125,-9953.9755859375,0.0,-11420.25,-659.624755859375,0.0,-5768.9345703125,0.0,6004.96923828125,-0.0,-5346.1396484375
882.9434814453125,-1355.0123291015625,12838.8408203125,-6786.1875,8612.4736328125,3757.476806640625,4000.663818359375,-4715.91943359375,0.0,-4801.75,-1250.90283203125,-8924.0078125,0.0,0.0,0.0,-3174.94091796875,4262.12939453125,12901.6240234375,-0.0,-811.4179077148438,6512.80078125,10418.8916015625,7940.92822265625,3844.10205078125,3235.340087890625,-8130.8681640625,-4971.02734375,8142.7890625,932.2166748046875,-813.8020629882812,11455.21875,-5102.95263671875,9768.8037109375,9143.3525390625,6111.462890625,9276.072265625,3263.950439453125,-953.67431640625,6568.431640625,-0.0,5149.04638671875,-14279.68359375,2653.598876953125,13902.1875,3059.705078125,-6796.51904296875,5178.45166015625,5788.80322265625,2633.730712890625,5063.2158203125,3654.956787109375,-3827.412841796875,-8304.9130859375,-3662.109375,2909.501220703125,-3951.390625,0.0,-5660.85205078125,0.0,-6688.43603515625,-8414.5859375,4715.91943359375,-9942.849609375,0.0,-11380.513671875,-645.3196411132812,0.0,-5772.11376953125,0.0,6012.91650390625,-0.0,-5343.75537109375
873.40673828125,-1379.6488037109375,12822.9453125,-6796.51904296875,8603.732421875,3747.1455078125,3992.71630859375,-4726.2509765625,0.0,-4811.287109375,-1266.79736328125,-8949.439453125,0.0,0.0,0.0,-3184.4775390625,4249.4140625,12890.498046875,-0.0,-818.5704345703125,6502.4697265625,10407.765625,7931.3916015625,3834.5654296875,3225.803466796875,-8143.58447265625,-4976.5908203125,8131.6630859375,921.8851928710938,-831.2861328125,11444.091796875,-5116.462890625,9752.9091796875,9129.841796875,6101.92626953125,9264.9462890625,3257.592529296875,-962.4163208007812,6557.3056640625,-0.0,5135.5361328125,-14293.193359375,2645.651611328125,13892.650390625,3054.936767578125,-6804.46630859375,5164.146484375,5774.498046875,2624.988525390625,5056.06298828125,3649.393798828125,-3836.94970703125,-8317.6298828125,-3678.798583984375,2900.759521484375,-3961.721923828125,0.0,-5674.3623046875,0.0,-6698.76708984375,-8428.0966796875,4706.3828125,-9952.3857421875,0.0,-11389.255859375,-664.3931274414062,0.0,-5776.08740234375,0.0,6005.76416015625,-0.0,-5359.6494140625
863.0752563476562,-1385.2119140625,12818.1767578125,-6798.1083984375,8604.5263671875,3748.734619140625,3997.484619140625,-4723.86669921875,0.0,-4806.5185546875,-1250.90283203125,-8945.46484375,0.0,0.0,0.0,-3178.914306640625,4248.619140625,12891.29296875,-0.0,-813.8020629882812,6500.08544921875,10406.1767578125,7932.98046875,3836.155029296875,3218.65087890625,-8147.55712890625,-4973.41162109375,8132.45751953125,915.52734375,-835.259765625,11443.2978515625,-5118.05224609375,9749.73046875,9126.6630859375,6101.13134765625,9264.9462890625,3261.566162109375,-960.0321655273438,6553.33203125,-0.0,5135.5361328125,-14296.3720703125,2648.830322265625,13894.240234375,3060.5,-6800.49267578125,5155.40478515625,5772.90869140625,2623.39892578125,5056.85791015625,3654.162109375,-3831.386474609375,-8331.9345703125,-3685.951171875,2895.1962890625,-3954.5693359375,0.0,-5676.74658203125,0.0,-6691.61474609375,-8432.865234375,4707.177734375,-9949.20703125,0.0,-11395.61328125,-661.2141723632812,0.0,-5754.62939453125,0.0,5993.84326171875,-0.0,-5362.82861328125
871.0225219726562,-1361.3701171875,12827.7138671875,-6786.1875,8614.0634765625,3758.271484375,4004.63720703125,-4718.3037109375,0.0,-4799.3662109375,-1224.6767578125,-8932.75,0.0,0.0,0.0,-3173.351318359375,4260.5400390625,12899.2392578125,-0.0,-808.239013671875,6509.6220703125,10416.5078125,7940.13330078125,3844.89697265625,3228.1875,-8136.431640625,-4964.669921875,8140.40478515625,925.8588256835938,-828.107177734375,11452.833984375,-5107.720703125,9761.6513671875,9137.7900390625,6108.2841796875,9274.482421875,3268.71875,-952.8795776367188,6562.07421875,-0.0,5145.86767578125,-14287.630859375,2657.572509765625,13903.77734375,3064.473388671875,-6792.54541015625,5164.94140625,5784.03466796875,2632.14111328125,5065.60009765625,3661.314697265625,-3824.23388671875,-8324.7822265625,-3673.235595703125,2904.73291015625,-3941.05908203125,0.0,-5674.3623046875,0.0,-6682.87255859375,-8428.8916015625,4716.71435546875,-9942.0546875,0.0,-11383.6923828125,-650.0880126953125,0.0,-5726.01953125,0.0,6008.94287109375,-0.0,-5350.11279296875
860.6910400390625,-1371.7015380859375,12818.97265625,-6792.54541015625,8607.705078125,3749.529541015625,3997.484619140625,-4726.2509765625,0.0,-4808.10791015625,-1221.4979248046875,-8939.107421875,0.0,0.0,0.0,-3185.272216796875,4251.00341796875,12892.0869140625,-0.0,-813.00732421875,6504.05859375,10409.35546875,7932.98046875,3838.5390625,3225.803466796875,-8145.1728515625,-4967.84814453125,8131.6630859375,925.0640869140625,-836.0545043945312,11446.4755859375,-5115.66796875,9752.9091796875,9130.63671875,6101.13134765625,9265.740234375,3263.15576171875,-960.826904296875,6542.2060546875,-0.0,5140.3046875,-14294.783203125,2651.214599609375,13895.03515625,3059.705078125,-6803.67138671875,5153.81494140625,5774.498046875,2628.962158203125,5055.2685546875,3654.162109375,-3833.770751953125,-8328.755859375,-3678.00390625,2904.73291015625,-3955.3642578125,0.0,-5677.541015625,0.0,-6695.58837890625,-8426.5068359375,4708.76708984375,-9950.001953125,0.0,-11385.28125,-666.7772827148438,0.0,-5727.609375,0.0,6023.248046875,-0.0,-5347.728515625
851.9490356445312,-1382.032958984375,12799.8994140625,-6803.67138671875,8591.8115234375,3738.4033203125,3987.153564453125,-4734.1982421875,0.0,-4812.08203125,-1241.3660888671875,-8939.90234375,0.0,0.0,0.0,-3190.04052734375,4232.724609375,12881.755859375,-0.0,-820.159912109375,6490.548828125,10396.6396484375,7923.44384765625,3829.00244140625,3212.29296875,-8152.32568359375,-4981.35888671875,8123.71533203125,909.9642333984375,-842.4122924804688,11432.1708984375,-5133.94677734375,9734.630859375,9113.9482421875,6088.41552734375,9255.4091796875,3252.029296875,-971.1583251953125,6519.15869140625,-0.0,5123.615234375,-14304.3203125,2637.7041015625,13887.087890625,3049.37353515625,-6808.43994140625,5131.5625,5760.19287109375,2613.067626953125,5041.75830078125,3643.83056640625,-3840.92333984375,-8336.703125,-3678.798583984375,2888.043701171875,-3980.0009765625,0.0,-5683.10400390625,0.0,-6699.56201171875,-8419.3544921875,4696.84619140625,-9957.154296875,0.0,-11400.3818359375,-681.8771362304688,0.0,-5734.76171875,0.0,6026.4267578125,-0.0,-5355.67626953125
848.7701416015625,-1390.7750244140625,12787.978515625,-6814.0029296875,8581.4794921875,3728.86669921875,3984.769287109375,-4738.96630859375,0.0,-4812.87646484375,-1254.87646484375,-8956.591796875,0.0,0.0,0.0,-3194.80908203125,4221.59814453125,12871.4248046875,-0.0,-822.5440673828125,6478.62744140625,10388.6923828125,7913.9072265625,3821.05517578125,3201.96142578125,-8160.2734375,-4989.30615234375,8116.56298828125,898.0433349609375,-854.333251953125,11421.83984375,-5147.45703125,9721.9150390625,9107.58984375,6078.08447265625,9249.05078125,3248.0556640625,-976.721435546875,6504.853515625,-0.0,5109.31005859375,-14309.0888671875,2632.935791015625,13878.345703125,3046.19482421875,-6810.82373046875,5120.43603515625,5750.65625,2601.146728515625,5034.60546875,3640.651611328125,-3845.691650390625,-8339.087890625,-3685.156494140625,2876.91748046875,-4007.81640625,0.0,-5686.283203125,0.0,-6705.12548828125,-8424.123046875,4689.693359375,-9961.9228515625,0.0,-11410.712890625,-687.4402465820312,0.0,-5751.451171875,0.0,6019.2744140625,-0.0,-5348.5234375
855.9227294921875,-1378.059326171875,12789.5673828125,-6809.234375,8585.453125,3736.01904296875,3987.947998046875,-4733.40380859375,0.0,-4806.5185546875,-1253.2869873046875,-8949.439453125,0.0,0.0,0.0,-3187.656494140625,4226.36669921875,12873.80859375,-0.0,-819.3651733398438,6481.01171875,10389.4873046875,7918.67529296875,3825.823486328125,3205.935302734375,-8152.32568359375,-4985.33251953125,8122.9208984375,901.2222290039062,-828.9019165039062,11425.8125,-5141.89404296875,9725.09375,9113.9482421875,6081.26318359375,9253.8193359375,3252.823974609375,-971.1583251953125,6510.41650390625,-0.0,5113.28369140625,-14300.3466796875,2636.909423828125,13883.1142578125,3049.37353515625,-6803.67138671875,5125.20458984375,5757.80859375,2605.9150390625,5041.75830078125,3644.62548828125,-3838.5390625,-8336.703125,-3681.9775390625,2880.096435546875,-3997.484619140625,0.0,-5674.3623046875,0.0,-6695.58837890625,-8426.5068359375,4695.2568359375,-9957.94921875,0.0,-11408.3291015625,-662.8036499023438,0.0,-5760.19287109375,0.0,6012.91650390625,-0.0,-5353.2919921875
862.280517578125,-1374.0858154296875,12791.951171875,-6808.43994140625,8585.453125,3736.01904296875,3987.947998046875,-4731.01953125,0.0,-4808.10791015625,-1249.3133544921875,-8947.849609375,0.0,0.0,0.0,-3186.86181640625,4227.9560546875,12873.013671875,-0.0,-818.5704345703125,6481.01171875,10391.076171875,7919.470703125,3825.028564453125,3206.72998046875,-8148.3525390625,-4988.51171875,8121.3310546875,904.401123046875,-813.8020629882812,11425.8125,-5139.509765625,9725.888671875,9113.15234375,6082.85302734375,9252.23046875,3252.823974609375,-972.747802734375,6518.36376953125,-0.0,5114.07861328125,-14298.7568359375,2633.730712890625,13883.908203125,3049.37353515625,-6803.67138671875,5131.5625,5757.013671875,2604.325439453125,5040.9638671875,3643.83056640625,-3836.94970703125,-8337.498046875,-3681.182861328125,2881.68603515625,-3982.38525390625,0.0,-5675.1572265625,0.0,-6695.58837890625,-8432.0703125,4696.84619140625,-9957.154296875,0.0,-11400.3818359375,-665.9825439453125,0.0,-5760.98779296875,0.0,6012.12158203125,-0.0,-5342.96044921875
863.0752563476562,-1375.6751708984375,12796.7197265625,-6810.82373046875,8587.8369140625,3733.635009765625,3988.742919921875,-4733.40380859375,0.0,-4808.90283203125,-1249.3133544921875,-8955.7958984375,0.0,0.0,0.0,-3189.245849609375,4227.9560546875,12873.80859375,-0.0,-818.5704345703125,6483.39599609375,10391.87109375,7920.26513671875,3824.23388671875,3209.90869140625,-8152.32568359375,-4985.33251953125,8117.3583984375,908.374755859375,-824.9282836914062,11425.8125,-5140.3046875,9728.2724609375,9113.15234375,6085.23681640625,9253.8193359375,3253.618896484375,-973.5425415039062,6520.748046875,-0.0,5116.462890625,-14300.3466796875,2637.7041015625,13881.5244140625,3050.963134765625,-6804.46630859375,5135.5361328125,5751.451171875,2608.29931640625,5034.60546875,3647.80419921875,-3842.512939453125,-8340.6767578125,-3685.156494140625,2885.659423828125,-3987.153564453125,0.0,-5682.3095703125,0.0,-6697.177734375,-8422.5341796875,4698.435546875,-9957.154296875,0.0,-11397.998046875,-681.8771362304688,0.0,-5764.96142578125,0.0,6009.7373046875,-0.0,-5335.8076171875
865.45947265625,-1374.0858154296875,12800.693359375,-6806.0556640625,8591.015625,3738.4033203125,3990.33203125,-4728.63525390625,0.0,-4803.33935546875,-1250.108154296875,-8960.564453125,0.0,0.0,0.0,-3184.4775390625,4231.9296875,12876.9873046875,-0.0,-814.5968017578125,6484.9853515625,10395.0498046875,7921.0595703125,3829.00244140625,3211.498291015625,-8147.55712890625,-4981.35888671875,8125.30517578125,908.374755859375,-831.2861328125,11428.9921875,-5137.12548828125,9730.65625,9116.33203125,6087.62109375,9258.587890625,3256.003173828125,-969.5689086914062,6521.54296875,-0.0,5120.43603515625,-14293.193359375,2640.08837890625,13883.1142578125,3054.14208984375,-6798.90283203125,5137.12548828125,5755.42431640625,2613.8623046875,5040.9638671875,3648.598876953125,-3838.5390625,-8341.4716796875,-3683.567138671875,2887.2490234375,-3976.82177734375,0.0,-5677.541015625,0.0,-6689.23046875,-8416.970703125,4699.22998046875,-9955.5654296875,0.0,-11399.5869140625,-674.724609375,0.0,-5750.65625,0.0,6016.89013671875,-0.0,-5344.5498046875
860.6910400390625,-1375.6751708984375,12801.48828125,-6801.287109375,8591.015625,3739.992919921875,3991.921875,-4730.224609375,0.0,-4806.5185546875,-1246.92919921875,-8953.412109375,0.0,0.0,0.0,-3186.86181640625,4235.9033203125,12880.166015625,-0.0,-816.186279296875,6487.36962890625,10397.4345703125,7922.6494140625,3829.797119140625,3215.471923828125,-8140.40478515625,-4980.56396484375,8126.89501953125,913.1431884765625,-827.3125,11430.5810546875,-5134.7412109375,9733.8359375,9118.7158203125,6089.21044921875,9259.3828125,3257.592529296875,-969.5689086914062,6529.490234375,-0.0,5122.8203125,-14288.42578125,2640.88330078125,13887.087890625,3055.7314453125,-6797.3134765625,5138.71533203125,5763.3720703125,2617.8359375,5047.3212890625,3648.598876953125,-3838.5390625,-8339.087890625,-3674.0302734375,2892.81201171875,-3966.490234375,0.0,-5675.95166015625,0.0,-6692.40966796875,-8424.123046875,4700.8193359375,-9954.7705078125,0.0,-11395.61328125,-661.2141723632812,0.0,-5751.451171875,0.0,6008.1484375,-0.0,-5352.4970703125
843.20703125,-1377.2646484375,12802.283203125,-6802.876953125,8594.1953125,3739.197998046875,3994.30615234375,-4728.63525390625,0.0,-4804.13427734375,-1245.3397216796875,-8951.0283203125,0.0,0.0,0.0,-3186.06689453125,4237.4931640625,12880.9609375,-0.0,-813.00732421875,6488.958984375,10399.818359375,7924.2392578125,3829.797119140625,3218.65087890625,-8145.96826171875,-4978.1796875,8128.48388671875,917.1168212890625,-828.107177734375,11431.3759765625,-5133.15185546875,9735.4248046875,9115.537109375,6090.00537109375,9257.79296875,3259.9765625,-967.9794311523438,6534.25830078125,-0.0,5125.20458984375,-14293.193359375,2642.472412109375,13889.4716796875,3056.526123046875,-6797.3134765625,5138.71533203125,5764.16650390625,2619.425537109375,5048.91064453125,3649.393798828125,-3836.94970703125,-8339.087890625,-3671.64599609375,2894.401611328125,-3969.66943359375,0.0,-5675.1572265625,0.0,-6690.025390625,-8428.0966796875,4702.4091796875,-9952.3857421875,0.0,-11395.61328125,-669.9561767578125,0.0,-5744.29833984375,0.0,6012.12158203125,-0.0,-5348.5234375
832.080810546875,-1380.443603515625,12807.0517578125,-6804.46630859375,8595.7841796875,3740.78759765625,3995.1005859375,-4724.6611328125,0.0,-4797.77685546875,-1244.544921875,-8950.2333984375,0.0,0.0,0.0,-3180.50390625,4238.28759765625,12883.345703125,-0.0,-808.239013671875,6492.9326171875,10402.2021484375,7927.41796875,3832.18115234375,3221.034912109375,-8149.94140625,-4978.1796875,8129.279296875,918.7062377929688,-831.2861328125,11433.7607421875,-5129.1787109375,9740.193359375,9116.33203125,6092.3896484375,9260.9716796875,3261.566162109375,-965.59521484375,6539.02685546875,-0.0,5129.1787109375,-14296.3720703125,2644.856689453125,13891.060546875,3056.526123046875,-6794.9296875,5144.27783203125,5760.98779296875,2621.014892578125,5049.70556640625,3652.57275390625,-3832.97607421875,-8338.2919921875,-3675.619873046875,2897.580322265625,-3968.080078125,0.0,-5672.77294921875,0.0,-6685.2568359375,-8440.8125,4705.587890625,-9948.4130859375,0.0,-11394.818359375,-677.9035034179688,0.0,-5713.30419921875,0.0,6037.55322265625,-0.0,-5339.78125
835.259765625,-1387.59619140625,12807.845703125,-6805.26123046875,8596.5791015625,3739.992919921875,3994.30615234375,-4727.04541015625,0.0,-4800.955078125,-1242.1607666015625,-8942.2861328125,0.0,0.0,0.0,-3182.09326171875,4237.4931640625,12883.345703125,-0.0,-811.4179077148438,6492.9326171875,10398.228515625,7925.828125,3829.797119140625,3221.82958984375,-8153.91552734375,-4978.974609375,8126.099609375,919.5009765625,-833.6702880859375,11433.7607421875,-5125.99951171875,9740.193359375,9113.9482421875,6091.5947265625,9259.3828125,3260.771484375,-967.1846923828125,6538.232421875,-0.0,5129.97314453125,-14297.9619140625,2642.472412109375,13888.6767578125,3056.526123046875,-6797.3134765625,5146.662109375,5758.603515625,2622.6044921875,5046.5263671875,3651.778076171875,-3834.5654296875,-8339.087890625,-3685.156494140625,2896.78564453125,-3970.464111328125,0.0,-5675.1572265625,0.0,-6688.43603515625,-8447.96484375,4703.20361328125,-9950.001953125,0.0,-11397.998046875,-671.545654296875,0.0,-5713.30419921875,0.0,6037.55322265625,-0.0,-5342.96044921875
835.259765625,-1382.032958984375,12804.6669921875,-6806.8505859375,8595.7841796875,3736.01904296875,3993.51123046875,-4730.224609375,0.0,-4805.7236328125,-1240.5714111328125,-8935.9287109375,0.0,0.0,0.0,-3186.06689453125,4235.10888671875,12879.3720703125,-0.0,-813.8020629882812,6489.75390625,10395.0498046875,7924.2392578125,3825.823486328125,3221.034912109375,-8156.2998046875,-4979.76904296875,8123.71533203125,920.2957153320312,-830.4913940429688,11431.3759765625,-5128.3837890625,9738.6044921875,9111.5634765625,6087.62109375,9256.2041015625,3259.181884765625,-969.5689086914062,6537.4375,-0.0,5126.79443359375,-14301.140625,2641.677734375,13884.7041015625,3056.526123046875,-6801.287109375,5143.4833984375,5756.21923828125,2621.809814453125,5041.75830078125,3650.1884765625,-3838.5390625,-8338.2919921875,-3693.103759765625,2895.990966796875,-3972.848388671875,0.0,-5679.13037109375,0.0,-6693.9990234375,-8435.2490234375,4698.435546875,-9952.3857421875,0.0,-11397.2021484375,-669.9561767578125,0.0,-5734.76171875,0.0,6030.40087890625,-0.0,-5346.1396484375
839.2333984375,-1370.112060546875,12814.2041015625,-6804.46630859375,8600.552734375,3739.197998046875,3995.8955078125,-4728.63525390625,0.0,-4803.33935546875,-1235.00830078125,-8933.5439453125,0.0,0.0,0.0,-3187.656494140625,4241.46630859375,12884.9345703125,-0.0,-810.6231689453125,6497.701171875,10400.61328125,7926.62353515625,3831.386474609375,3222.62451171875,-8152.32568359375,-4975.7958984375,8124.5107421875,922.679931640625,-827.3125,11436.939453125,-5124.41015625,9744.9619140625,9116.33203125,6093.97900390625,9260.177734375,3262.36083984375,-967.1846923828125,6554.126953125,-0.0,5133.15185546875,-14300.3466796875,2644.856689453125,13887.087890625,3057.32080078125,-6798.90283203125,5154.60986328125,5760.98779296875,2624.988525390625,5044.14208984375,3652.57275390625,-3837.744384765625,-8345.4443359375,-3689.925048828125,2899.169921875,-3972.848388671875,0.0,-5678.33544921875,0.0,-6694.7939453125,-8431.275390625,4703.99853515625,-9951.591796875,0.0,-11389.255859375,-664.3931274414062,0.0,-5760.98779296875,0.0,6021.658203125,-0.0,-5349.31787109375
862.280517578125,-1366.138427734375,12819.7666015625,-6802.08203125,8604.5263671875,3743.171630859375,4000.663818359375,-4724.6611328125,0.0,-4796.18701171875,-1241.3660888671875,-8943.875,0.0,0.0,0.0,-3184.4775390625,4245.43994140625,12890.498046875,-0.0,-802.6759033203125,6502.4697265625,10406.1767578125,7934.5703125,3836.94970703125,3229.777099609375,-8155.50537109375,-4971.822265625,8128.48388671875,929.8324584960938,-831.2861328125,11441.7080078125,-5121.23095703125,9748.935546875,9121.89453125,6099.5419921875,9264.1513671875,3266.33447265625,-960.0321655273438,6554.92138671875,-0.0,5136.3310546875,-14299.5517578125,2648.03564453125,13892.650390625,3062.089111328125,-6792.54541015625,5156.99365234375,5764.96142578125,2628.16748046875,5047.3212890625,3657.341064453125,-3834.5654296875,-8340.6767578125,-3696.28271484375,2905.52783203125,-3970.464111328125,0.0,-5677.541015625,0.0,-6689.23046875,-8437.6337890625,4710.3564453125,-9945.2333984375,0.0,-11386.0771484375,-668.3667602539062,0.0,-5744.29833984375,0.0,6025.63232421875,-0.0,-5336.6025390625
875.7908935546875,-1363.7542724609375,12818.1767578125,-6794.9296875,8608.5,3749.529541015625,4003.0478515625,-4719.89306640625,0.0,-4790.6240234375,-1242.95556640625,-8940.6962890625,0.0,0.0,0.0,-3175.7353515625,4249.4140625,12896.060546875,-0.0,-797.11279296875,6504.853515625,10410.9453125,7939.3388671875,3840.92333984375,3234.54541015625,-8149.14697265625,-4968.64306640625,8136.431640625,931.4219360351562,-826.5177612304688,11447.2705078125,-5120.43603515625,9749.73046875,9125.869140625,6104.310546875,9268.125,3270.308349609375,-953.67431640625,6546.17919921875,-0.0,5139.509765625,-14294.783203125,2652.80419921875,13898.2138671875,3066.857666015625,-6786.1875,5156.99365234375,5771.31884765625,2631.346435546875,5054.4736328125,3659.72509765625,-3826.6181640625,-8325.5771484375,-3685.951171875,2909.501220703125,-3960.927490234375,0.0,-5671.97802734375,0.0,-6679.69384765625,-8441.607421875,4715.12451171875,-9938.8759765625,0.0,-11389.255859375,-657.2405395507812,0.0,-5741.119140625,0.0,6031.1953125,-0.0,-5326.27099609375
874.2014770507812,-1381.23828125,12814.2041015625,-6797.3134765625,8605.3212890625,3747.1455078125,4001.458740234375,-4723.86669921875,0.0,-4794.59765625,-1239.776611328125,-8939.107421875,0.0,0.0,0.0,-3182.887939453125,4246.23486328125,12894.470703125,-0.0,-801.8811645507812,6501.6748046875,10407.765625,7933.77587890625,3836.155029296875,3228.1875,-8149.14697265625,-4971.822265625,8134.04736328125,926.653564453125,-832.080810546875,11444.091796875,-5123.615234375,9747.345703125,9122.689453125,6101.13134765625,9267.330078125,3267.924072265625,-957.64794921875,6536.642578125,-0.0,5136.3310546875,-14299.5517578125,2648.830322265625,13895.8291015625,3062.884033203125,-6791.75048828125,5153.0205078125,5768.9345703125,2625.783203125,5052.884765625,3657.341064453125,-3829.00244140625,-8323.1923828125,-3679.59326171875,2903.938232421875,-3959.337646484375,0.0,-5675.95166015625,0.0,-6686.84619140625,-8452.7333984375,4711.1513671875,-9945.2333984375,0.0,-11392.4345703125,-654.8563842773438,0.0,-5757.013671875,0.0,6028.0166015625,-0.0,-5327.06591796875
874.9962158203125,-1393.9539794921875,12810.23046875,-6799.69775390625,8601.34765625,3743.171630859375,3998.279541015625,-4726.2509765625,0.0,-4799.3662109375,-1237.3924560546875,-8942.2861328125,0.0,0.0,0.0,-3185.272216796875,4240.671875,12891.29296875,-0.0,-809.03369140625,6497.701171875,10403.7919921875,7930.59619140625,3833.770751953125,3225.803466796875,-8153.91552734375,-4972.61669921875,8130.8681640625,925.8588256835938,-837.6439208984375,11439.3232421875,-5129.97314453125,9741.783203125,9118.7158203125,6096.36328125,9261.767578125,3264.7451171875,-962.4163208007812,6530.28466796875,-0.0,5130.767578125,-14301.9365234375,2645.651611328125,13892.650390625,3060.5,-6794.9296875,5145.86767578125,5764.16650390625,2621.809814453125,5048.1162109375,3655.75146484375,-3833.770751953125,-8323.1923828125,-3688.33544921875,2902.348876953125,-3966.490234375,0.0,-5679.92529296875,0.0,-6690.025390625,-8422.5341796875,4708.76708984375,-9948.4130859375,0.0,-11388.4609375,-658.0352783203125,0.0,-5744.29833984375,0.0,6027.2216796875,-0.0,-5338.98681640625
871.8172607421875,-1383.62255859375,12808.640625,-6796.51904296875,8600.552734375,3745.555908203125,4001.458740234375,-4723.86669921875,0.0,-4797.77685546875,-1235.802978515625,-8942.2861328125,0.0,0.0,0.0,-3182.09326171875,4239.87744140625,12892.8828125,-0.0,-805.8547973632812,6496.111328125,10404.5869140625,7933.77587890625,3834.5654296875,3225.0087890625,-8150.73681640625,-4971.02734375,8131.6630859375,924.2693481445312,-830.4913940429688,11440.1181640625,-5135.5361328125,9740.98828125,9117.9208984375,6097.9521484375,9263.3564453125,3267.129150390625,-960.0321655273438,6530.28466796875,-0.0,5133.94677734375,-14299.5517578125,2649.625,13893.4453125,3062.884033203125,-6794.134765625,5145.07275390625,5766.55078125,2623.39892578125,5050.50048828125,3658.930419921875,-3832.97607421875,-8323.1923828125,-3696.28271484375,2901.55419921875,-3978.4111328125,0.0,-5676.74658203125,0.0,-6688.43603515625,-8403.4609375,4709.56201171875,-9945.2333984375,0.0,-11386.0771484375,-654.0616455078125,0.0,-5737.14599609375,0.0,6029.60595703125,-0.0,-5343.75537109375
875.7908935546875,-1364.549072265625,12815.79296875,-6791.75048828125,8607.705078125,3752.70849609375,4006.22705078125,-4718.3037109375,0.0,-4791.41845703125,-1231.03466796875,-8934.3388671875,0.0,0.0,0.0,-3173.351318359375,4247.82421875,12897.650390625,-0.0,-800.2916870117188,6503.26416015625,10412.5341796875,7938.54443359375,3842.512939453125,3229.777099609375,-8141.99462890625,-4963.875,8138.0205078125,929.8324584960938,-816.186279296875,11447.2705078125,-5126.79443359375,9749.73046875,9123.484375,6103.515625,9271.3037109375,3273.487060546875,-954.4690551757812,6539.82177734375,-0.0,5141.099609375,-14292.3994140625,2655.188232421875,13900.59765625,3066.06298828125,-6786.98193359375,5158.5830078125,5774.498046875,2629.7568359375,5056.85791015625,3663.698974609375,-3825.028564453125,-8316.0400390625,-3685.951171875,2907.1171875,-3992.71630859375,0.0,-5665.6201171875,0.0,-6682.078125,-8411.4072265625,4713.53515625,-9940.46484375,0.0,-11385.28125,-635.7828979492188,0.0,-5738.7353515625,0.0,6031.1953125,-0.0,-5338.98681640625
865.45947265625,-1371.7015380859375,12811.8203125,-6796.51904296875,8602.9365234375,3745.555908203125,4002.253173828125,-4723.072265625,0.0,-4796.98193359375,-1238.9818115234375,-8943.875,0.0,0.0,0.0,-3178.11962890625,4243.0556640625,12892.0869140625,-0.0,-805.8547973632812,6498.49560546875,10406.1767578125,7932.98046875,3837.744384765625,3222.62451171875,-8144.37890625,-4967.0537109375,8133.251953125,923.474609375,-820.9546508789062,11441.7080078125,-5129.1787109375,9742.5771484375,9119.5107421875,6098.7470703125,9264.9462890625,3268.71875,-960.0321655273438,6531.8740234375,-0.0,5134.7412109375,-14297.9619140625,2652.00927734375,13894.240234375,3063.6787109375,-6791.75048828125,5160.1728515625,5767.34521484375,2624.988525390625,5052.884765625,3661.314697265625,-3831.386474609375,-8325.5771484375,-3684.36181640625,2899.964599609375,-3987.947998046875,0.0,-5669.59375,0.0,-6686.84619140625,-8423.328125,4708.76708984375,-9946.0283203125,0.0,-11395.61328125,-659.624755859375,0.0,-5756.21923828125,0.0,6012.12158203125,-0.0,-5341.37109375
855.9227294921875,-1377.2646484375,12803.8720703125,-6805.26123046875,8595.7841796875,3741.582275390625,4001.458740234375,-4724.6611328125,0.0,-4798.5712890625,-1250.90283203125,-8958.9755859375,0.0,0.0,0.0,-3176.530029296875,4234.31396484375,12884.9345703125,-0.0,-804.2653198242188,6490.548828125,10399.818359375,7927.41796875,3832.97607421875,3218.65087890625,-8150.73681640625,-4973.41162109375,8130.07373046875,918.7062377929688,-828.9019165039062,11433.7607421875,-5137.12548828125,9735.4248046875,9113.9482421875,6091.5947265625,9260.177734375,3267.129150390625,-963.2110595703125,6524.7216796875,-0.0,5127.5888671875,-14301.140625,2647.240966796875,13891.060546875,3062.884033203125,-6793.34033203125,5147.45703125,5757.80859375,2619.425537109375,5048.91064453125,3658.1357421875,-3833.770751953125,-8336.703125,-3685.951171875,2895.990966796875,-3972.848388671875,0.0,-5673.5673828125,0.0,-6684.4619140625,-8426.5068359375,4704.79345703125,-9948.4130859375,0.0,-11396.408203125,-677.9035034179688,0.0,-5788.00830078125,0.0,5983.51123046875,-0.0,-5340.576171875
851.154296875,-1374.8804931640625,12807.0517578125,-6805.26123046875,8598.9638671875,3742.376953125,4002.253173828125,-4726.2509765625,0.0,-4798.5712890625,-1244.544921875,-8958.1806640625,0.0,0.0,0.0,-3181.298583984375,4235.9033203125,12885.7294921875,-0.0,-803.4705810546875,6492.9326171875,10401.408203125,7929.00732421875,3834.5654296875,3223.419189453125,-8151.53125,-4974.20654296875,8130.8681640625,923.474609375,-832.080810546875,11435.349609375,-5136.3310546875,9739.3994140625,9113.9482421875,6094.77392578125,9258.587890625,3267.129150390625,-963.2110595703125,6533.4638671875,-0.0,5128.3837890625,-14300.3466796875,2647.240966796875,13891.060546875,3062.089111328125,-6793.34033203125,5145.07275390625,5755.42431640625,2622.6044921875,5048.91064453125,3658.930419921875,-3833.770751953125,-8333.5234375,-3683.567138671875,2899.964599609375,-3972.053466796875,0.0,-5679.13037109375,0.0,-6689.23046875,-8429.6865234375,4705.587890625,-9946.8232421875,0.0,-11391.6396484375,-671.545654296875,0.0,-5780.85546875,0.0,6006.55908203125,-0.0,-5340.576171875
852.7437744140625,-1372.4962158203125,12812.6142578125,-6802.08203125,8601.34765625,3740.78759765625,4003.0478515625,-4731.01953125,0.0,-4800.955078125,-1241.3660888671875,-8947.0546875,0.0,0.0,0.0,-3197.98779296875,4241.46630859375,12889.703125,-0.0,-803.4705810546875,6498.49560546875,10402.9970703125,7930.59619140625,3833.770751953125,3222.62451171875,-8153.91552734375,-4973.41162109375,8124.5107421875,920.2957153320312,-838.4386596679688,11438.529296875,-5129.97314453125,9744.1669921875,9117.126953125,6097.15771484375,9258.587890625,3265.539794921875,-966.3899536132812,6539.02685546875,-0.0,5132.35693359375,-14303.525390625,2648.03564453125,13887.087890625,3062.884033203125,-6798.90283203125,5143.4833984375,5758.603515625,2623.39892578125,5047.3212890625,3656.54638671875,-3840.128662109375,-8334.3193359375,-3681.9775390625,2898.375244140625,-3972.053466796875,0.0,-5694.23046875,0.0,-6698.76708984375,-8436.8388671875,4706.3828125,-9947.6171875,0.0,-11393.2294921875,-681.8771362304688,0.0,-5753.8349609375,0.0,6025.63232421875,-0.0,-5340.576171875
863.0752563476562,-1373.291015625,12818.97265625,-6798.90283203125,8606.9111328125,3744.76123046875,4004.63720703125,-4727.84033203125,0.0,-4800.16064453125,-1234.2135009765625,-8944.6708984375,0.0,0.0,0.0,-3193.219482421875,4250.20849609375,12894.470703125,-0.0,-802.6759033203125,6504.05859375,10407.765625,7936.16015625,3836.94970703125,3228.1875,-8151.53125,-4967.0537109375,8126.099609375,925.8588256835938,-841.6175537109375,11444.8857421875,-5121.23095703125,9751.3203125,9121.89453125,6101.92626953125,9267.330078125,3268.71875,-960.826904296875,6546.97412109375,-0.0,5141.099609375,-14301.140625,2652.00927734375,13891.060546875,3063.6787109375,-6797.3134765625,5152.2255859375,5766.55078125,2627.372802734375,5049.70556640625,3659.72509765625,-3836.155029296875,-8326.37109375,-3688.33544921875,2903.1435546875,-3969.66943359375,0.0,-5687.078125,0.0,-6694.7939453125,-8437.6337890625,4709.56201171875,-9944.4384765625,0.0,-11389.255859375,-678.6982421875,0.0,-5758.603515625,0.0,6023.248046875,-0.0,-5336.6025390625
874.9962158203125,-1373.291015625,12825.330078125,-6790.1611328125,8610.0888671875,3750.32421875,4003.0478515625,-4723.86669921875,0.0,-4799.3662109375,-1229.445068359375,-8939.107421875,0.0,0.0,0.0,-3183.6826171875,4253.3876953125,12897.650390625,-0.0,-802.6759033203125,6507.23779296875,10414.123046875,7937.7490234375,3841.718017578125,3232.9560546875,-8144.37890625,-4968.64306640625,8132.45751953125,931.4219360351562,-820.9546508789062,11448.8603515625,-5118.05224609375,9753.7041015625,9124.279296875,6106.69482421875,9270.5087890625,3268.71875,-956.8532104492188,6547.76904296875,-0.0,5145.86767578125,-14296.3720703125,2651.214599609375,13897.4189453125,3065.268310546875,-6794.134765625,5164.146484375,5780.06103515625,2628.962158203125,5056.06298828125,3660.519775390625,-3830.591796875,-8313.65625,-3681.182861328125,2908.70654296875,-3960.927490234375,0.0,-5677.541015625,0.0,-6690.8203125,-8421.73828125,4711.94580078125,-9944.4384765625,0.0,-11382.8974609375,-662.0089111328125,0.0,-5756.21923828125,0.0,6028.81103515625,-0.0,-5340.576171875
871.0225219726562,-1368.522705078125,12827.7138671875,-6789.3662109375,8610.0888671875,3752.70849609375,4003.0478515625,-4722.27734375,0.0,-4799.3662109375,-1227.855712890625,-8940.6962890625,0.0,0.0,0.0,-3178.11962890625,4255.771484375,12899.2392578125,-0.0,-805.8547973632812,6508.0322265625,10416.5078125,7939.3388671875,3844.10205078125,3232.9560546875,-8138.81591796875,-4970.232421875,8136.431640625,932.2166748046875,-806.6495361328125,11451.244140625,-5115.66796875,9755.2939453125,9125.0732421875,6108.2841796875,9272.0986328125,3267.924072265625,-955.2637939453125,6553.33203125,-0.0,5145.07275390625,-14296.3720703125,2652.00927734375,13900.59765625,3064.473388671875,-6791.75048828125,5168.9150390625,5778.4716796875,2631.346435546875,5061.62646484375,3659.72509765625,-3827.412841796875,-8314.4501953125,-3682.7724609375,2910.296142578125,-3954.5693359375,0.0,-5675.95166015625,0.0,-6687.64111328125,-8420.9443359375,4714.330078125,-9942.849609375,0.0,-11381.30859375,-659.624755859375,0.0,-5743.50341796875,0.0,6031.990234375,-0.0,-5350.90771484375
852.7437744140625,-1378.8541259765625,12819.7666015625,-6797.3134765625,8606.1162109375,3750.32421875,4001.458740234375,-4727.84033203125,0.0,-4801.75,-1237.3924560546875,-8961.3603515625,0.0,0.0,0.0,-3182.09326171875,4249.4140625,12896.060546875,-0.0,-805.8547973632812,6503.26416015625,10408.560546875,7933.77587890625,3839.333740234375,3226.59814453125,-8145.1728515625,-4971.822265625,8133.251953125,925.8588256835938,-816.9810180664062,11444.8857421875,-5125.99951171875,9751.3203125,9117.9208984375,6103.515625,9267.330078125,3265.539794921875,-960.0321655273438,6545.384765625,-0.0,5139.509765625,-14300.3466796875,2649.625,13897.4189453125,3063.6787109375,-6794.9296875,5157.78857421875,5768.14013671875,2628.16748046875,5060.037109375,3657.341064453125,-3830.591796875,-8330.3447265625,-3688.33544921875,2907.1171875,-3973.642822265625,0.0,-5683.10400390625,0.0,-6689.23046875,-8428.8916015625,4711.94580078125,-9945.2333984375,0.0,-11392.4345703125,-659.624755859375,0.0,-5749.861328125,0.0,6028.0166015625,-0.0,-5350.90771484375
851.154296875,-1381.23828125,12822.9453125,-6792.54541015625,8610.0888671875,3754.2978515625,4004.63720703125,-4720.68798828125,0.0,-4794.59765625,-1242.95556640625,-8965.3330078125,0.0,0.0,0.0,-3175.7353515625,4251.00341796875,12901.6240234375,-0.0,-801.8811645507812,6506.44287109375,10411.7392578125,7940.13330078125,3843.3076171875,3228.982177734375,-8139.6103515625,-4970.232421875,8138.0205078125,926.653564453125,-818.5704345703125,11449.654296875,-5122.8203125,9753.7041015625,9125.0732421875,6105.89990234375,9271.3037109375,3268.71875,-956.8532104492188,6549.3583984375,-0.0,5141.89404296875,-14293.98828125,2652.80419921875,13900.59765625,3066.06298828125,-6790.1611328125,5157.78857421875,5773.703125,2630.551513671875,5062.42138671875,3658.1357421875,-3825.823486328125,-8331.1396484375,-3682.7724609375,2906.322509765625,-3982.38525390625,0.0,-5679.92529296875,0.0,-6682.078125,-8426.5068359375,4715.91943359375,-9941.2607421875,0.0,-11394.818359375,-655.651123046875,0.0,-5741.119140625,0.0,6035.96337890625,-0.0,-5339.78125
856.7174072265625,-1385.2119140625,12828.509765625,-6790.9560546875,8614.0634765625,3756.68212890625,4009.405517578125,-4715.91943359375,0.0,-4790.6240234375,-1238.1871337890625,-8954.20703125,0.0,0.0,0.0,-3171.76171875,4254.9765625,12904.8037109375,-0.0,-797.11279296875,6511.21142578125,10414.123046875,7945.69677734375,3848.87060546875,3232.9560546875,-8134.841796875,-4963.080078125,8140.40478515625,931.4219360351562,-824.9282836914062,11452.833984375,-5118.8466796875,9759.2666015625,9129.0478515625,6108.2841796875,9276.072265625,3273.487060546875,-950.4954223632812,6557.3056640625,-0.0,5145.07275390625,-14290.8095703125,2656.777587890625,13904.5712890625,3070.03662109375,-6783.80322265625,5164.146484375,5772.11376953125,2635.320068359375,5061.62646484375,3664.49365234375,-3821.849853515625,-8331.9345703125,-3685.951171875,2908.70654296875,-3974.437744140625,0.0,-5668.798828125,0.0,-6678.8994140625,-8425.712890625,4720.68798828125,-9936.4921875,0.0,-11388.4609375,-641.345947265625,0.0,-5744.29833984375,0.0,6037.55322265625,-0.0,-5331.03955078125
863.0752563476562,-1388.390869140625,12826.919921875,-6793.34033203125,8614.0634765625,3754.2978515625,4011.789794921875,-4715.12451171875,0.0,-4788.23974609375,-1232.6240234375,-8949.439453125,0.0,0.0,0.0,-3168.5830078125,4254.18212890625,12904.0078125,-0.0,-793.13916015625,6510.41650390625,10413.3291015625,7945.69677734375,3849.665283203125,3236.134765625,-8142.7890625,-4959.9013671875,8140.40478515625,933.0113525390625,-827.3125,11452.833984375,-5120.43603515625,9756.8828125,9127.4580078125,6109.87353515625,9276.8671875,3275.07666015625,-950.4954223632812,6550.1533203125,-0.0,5146.662109375,-14293.98828125,2659.956787109375,13902.9814453125,3072.4208984375,-6782.2138671875,5163.3515625,5767.34521484375,2636.909423828125,5059.2421875,3666.877685546875,-3821.05517578125,-8340.6767578125,-3685.951171875,2910.296142578125,-3964.90087890625,0.0,-5662.44140625,0.0,-6675.72021484375,-8430.48046875,4721.48291015625,-9934.90234375,0.0,-11390.845703125,-637.372314453125,0.0,-5738.7353515625,0.0,6038.34765625,-0.0,-5328.6552734375
853.5385131835938,-1400.311767578125,12816.5888671875,-6806.0556640625,8602.142578125,3740.78759765625,4005.43212890625,-4725.4560546875,0.0,-4797.77685546875,-1235.802978515625,-8962.94921875,0.0,0.0,0.0,-3180.50390625,4243.0556640625,12892.8828125,-0.0,-802.6759033203125,6499.29052734375,10402.9970703125,7935.36474609375,3837.744384765625,3227.392822265625,-8155.50537109375,-4967.0537109375,8126.89501953125,924.2693481445312,-834.4650268554688,11441.7080078125,-5132.35693359375,9744.9619140625,9115.537109375,6100.33642578125,9264.9462890625,3268.71875,-961.62158203125,6536.642578125,-0.0,5136.3310546875,-14304.3203125,2650.419921875,13891.060546875,3066.06298828125,-6791.75048828125,5153.0205078125,5754.62939453125,2628.962158203125,5045.73193359375,3660.519775390625,-3832.97607421875,-8348.6240234375,-3701.845947265625,2902.348876953125,-3983.1796875,0.0,-5674.3623046875,0.0,-6685.2568359375,-8440.017578125,4708.76708984375,-9944.4384765625,0.0,-11396.408203125,-664.3931274414062,0.0,-5741.9140625,0.0,6024.04248046875,-0.0,-5338.98681640625
859.8963623046875,-1390.7750244140625,12816.5888671875,-6806.0556640625,8602.9365234375,3740.78759765625,4003.8427734375,-4726.2509765625,0.0,-4799.3662109375,-1232.6240234375,-8951.0283203125,0.0,0.0,0.0,-3179.709228515625,4243.8505859375,12893.6767578125,-0.0,-803.4705810546875,6500.8798828125,10403.7919921875,7932.98046875,3837.744384765625,3226.59814453125,-8157.88916015625,-4968.64306640625,8123.71533203125,924.2693481445312,-838.4386596679688,11440.9130859375,-5129.1787109375,9746.5517578125,9115.537109375,6099.5419921875,9264.9462890625,3268.71875,-962.4163208007812,6540.61669921875,-0.0,5137.12548828125,-14305.9091796875,2650.419921875,13888.6767578125,3063.6787109375,-6790.9560546875,5152.2255859375,5754.62939453125,2627.372802734375,5043.34765625,3658.930419921875,-3832.18115234375,-8335.11328125,-3705.024658203125,2901.55419921875,-3992.71630859375,0.0,-5673.5673828125,0.0,-6684.4619140625,-8424.91796875,4707.97216796875,-9944.4384765625,0.0,-11394.0234375,-671.545654296875,0.0,-5737.9404296875,0.0,6026.4267578125,-0.0,-5339.78125
869.43310546875,-1368.522705078125,12822.1513671875,-6797.3134765625,8607.705078125,3748.734619140625,4002.253173828125,-4723.86669921875,0.0,-4800.16064453125,-1225.471435546875,-8926.3916015625,0.0,0.0,0.0,-3174.94091796875,4251.00341796875,12897.650390625,-0.0,-806.6495361328125,6505.64794921875,10410.9453125,7935.36474609375,3839.333740234375,3231.366455078125,-8148.3525390625,-4968.64306640625,8131.6630859375,930.627197265625,-826.5177612304688,11446.4755859375,-5116.462890625,9752.9091796875,9124.279296875,6101.92626953125,9270.5087890625,3266.33447265625,-960.0321655273438,6548.5634765625,-0.0,5142.68896484375,-14301.140625,2650.419921875,13894.240234375,3061.29443359375,-6790.1611328125,5156.19921875,5768.9345703125,2628.16748046875,5050.50048828125,3657.341064453125,-3827.412841796875,-8320.80859375,-3680.38818359375,2908.70654296875,-3967.28515625,0.0,-5666.41455078125,0.0,-6680.48876953125,-8419.3544921875,4711.1513671875,-9943.64453125,0.0,-11386.87109375,-660.41943359375,0.0,-5720.45654296875,0.0,6035.1689453125,-0.0,-5352.4970703125
874.2014770507812,-1353.4227294921875,12828.509765625,-6791.75048828125,8612.4736328125,3753.503173828125,4005.43212890625,-4724.6611328125,0.0,-4801.75,-1220.703125,-8922.41796875,0.0,0.0,0.0,-3179.709228515625,4257.36083984375,12900.8291015625,-0.0,-806.6495361328125,6509.6220703125,10415.712890625,7940.13330078125,3841.718017578125,3238.51904296875,-8142.7890625,-4966.2587890625,8135.63623046875,938.574462890625,-813.00732421875,11451.244140625,-5110.10498046875,9758.47265625,9127.4580078125,6107.4892578125,9272.892578125,3270.308349609375,-958.4426879882812,6556.5107421875,-0.0,5145.86767578125,-14297.9619140625,2652.80419921875,13897.4189453125,3065.268310546875,-6792.54541015625,5164.146484375,5776.88232421875,2633.730712890625,5054.4736328125,3661.314697265625,-3829.00244140625,-8320.013671875,-3660.519775390625,2915.859130859375,-3949.006591796875,0.0,-5670.388671875,0.0,-6688.43603515625,-8431.275390625,4715.12451171875,-9943.64453125,0.0,-11380.513671875,-665.1878662109375,0.0,-5721.2509765625,0.0,6033.57958984375,-0.0,-5354.08642578125
883.7382202148438,-1339.912353515625,12833.27734375,-6787.77685546875,8616.447265625,3756.68212890625,4012.584716796875,-4717.5087890625,0.0,-4796.98193359375,-1216.7294921875,-8910.4970703125,0.0,0.0,0.0,-3175.7353515625,4262.12939453125,12904.8037109375,-0.0,-802.6759033203125,6515.18505859375,10418.8916015625,7944.9013671875,3847.28125,3244.876953125,-8135.63623046875,-4957.51708984375,8139.6103515625,944.9323120117188,-802.6759033203125,11456.8076171875,-5108.51513671875,9764.03515625,9129.841796875,6110.66796875,9276.8671875,3275.871337890625,-952.8795776367188,6561.279296875,-0.0,5150.63623046875,-14294.783203125,2659.161865234375,13902.9814453125,3070.831298828125,-6789.3662109375,5171.298828125,5776.08740234375,2641.677734375,5061.62646484375,3669.261962890625,-3824.23388671875,-8307.2978515625,-3647.80419921875,2921.42236328125,-3937.880126953125,0.0,-5665.6201171875,0.0,-6683.66748046875,-8409.0234375,4719.0986328125,-9938.0810546875,0.0,-11374.9501953125,-654.0616455078125,0.0,-5726.01953125,0.0,6031.990234375,-0.0,-5349.31787109375
872.6119995117188,-1358.191162109375,12820.5615234375,-6802.08203125,8606.1162109375,3744.76123046875,4004.63720703125,-4726.2509765625,0.0,-4804.92919921875,-1234.2135009765625,-8927.9814453125,0.0,0.0,0.0,-3183.6826171875,4247.82421875,12892.8828125,-0.0,-808.239013671875,6503.26416015625,10404.5869140625,7933.77587890625,3836.94970703125,3232.161376953125,-8149.94140625,-4966.2587890625,8129.279296875,931.4219360351562,-819.3651733398438,11444.091796875,-5127.5888671875,9750.525390625,9116.33203125,6099.5419921875,9263.3564453125,3267.924072265625,-962.4163208007812,6546.17919921875,-0.0,5140.3046875,-14308.29296875,2652.00927734375,13891.060546875,3066.06298828125,-6799.69775390625,5163.3515625,5763.3720703125,2632.14111328125,5049.70556640625,3662.904052734375,-3834.5654296875,-8320.80859375,-3667.67236328125,2909.501220703125,-3952.18505859375,0.0,-5674.3623046875,0.0,-6694.7939453125,-8409.0234375,4707.177734375,-9947.6171875,0.0,-11390.0498046875,-658.0352783203125,0.0,-5744.29833984375,0.0,6015.30078125,-0.0,-5354.08642578125
849.5648803710938,-1386.0067138671875,12807.0517578125,-6817.9765625,8594.1953125,3732.84033203125,3998.279541015625,-4736.58251953125,0.0,-4812.08203125,-1254.87646484375,-8954.20703125,0.0,0.0,0.0,-3187.656494140625,4233.51904296875,12883.345703125,-0.0,-813.8020629882812,6488.958984375,10394.255859375,7925.03369140625,3825.028564453125,3213.88232421875,-8166.630859375,-4978.1796875,8122.12646484375,913.1431884765625,-836.8492431640625,11431.3759765625,-5142.68896484375,9735.4248046875,9099.642578125,6088.41552734375,9250.640625,3262.36083984375,-971.1583251953125,6530.28466796875,-0.0,5123.615234375,-14324.1884765625,2643.267333984375,13883.1142578125,3058.910400390625,-6805.26123046875,5147.45703125,5745.0927734375,2617.8359375,5037.78466796875,3655.75146484375,-3840.92333984375,-8347.8291015625,-3693.103759765625,2892.81201171875,-3974.437744140625,0.0,-5681.5146484375,0.0,-6697.177734375,-8440.8125,4696.84619140625,-9956.359375,0.0,-11411.5078125,-670.7509155273438,0.0,-5772.11376953125,0.0,6000.20068359375,-0.0,-5371.57080078125
856.7174072265625,-1381.23828125,12814.9990234375,-6808.43994140625,8603.732421875,3740.78759765625,4004.63720703125,-4727.84033203125,0.0,-4806.5185546875,-1244.544921875,-8949.439453125,0.0,0.0,0.0,-3186.06689453125,4242.26123046875,12892.0869140625,-0.0,-809.03369140625,6498.49560546875,10403.7919921875,7933.77587890625,3833.770751953125,3223.419189453125,-8160.2734375,-4967.84814453125,8126.89501953125,921.0904541015625,-836.0545043945312,11441.7080078125,-5133.15185546875,9744.9619140625,9109.1796875,6097.15771484375,9258.587890625,3268.71875,-964.0057983398438,6539.82177734375,-0.0,5134.7412109375,-14317.0361328125,2651.214599609375,13888.6767578125,3066.857666015625,-6798.90283203125,5150.63623046875,5751.451171875,2627.372802734375,5042.552734375,3662.904052734375,-3837.744384765625,-8340.6767578125,-3689.130126953125,2899.169921875,-3976.82177734375,0.0,-5677.541015625,0.0,-6694.7939453125,-8433.6591796875,4705.587890625,-9949.20703125,0.0,-11402.7666015625,-666.7772827148438,0.0,-5766.55078125,0.0,6009.7373046875,-0.0,-5362.03369140625
878.1751098632812,-1362.164794921875,12823.7412109375,-6800.49267578125,8613.2685546875,3747.93994140625,4007.81640625,-4726.2509765625,0.0,-4804.92919921875,-1231.829345703125,-8932.75,0.0,0.0,0.0,-3188.451171875,4251.00341796875,12899.2392578125,-0.0,-805.8547973632812,6507.23779296875,10410.9453125,7940.13330078125,3840.128662109375,3236.134765625,-8153.91552734375,-4960.69580078125,8129.279296875,933.8060913085938,-835.259765625,11449.654296875,-5122.02587890625,9755.2939453125,9117.9208984375,6105.89990234375,9268.125,3273.487060546875,-960.826904296875,6550.94775390625,-0.0,5145.07275390625,-14310.677734375,2657.572509765625,13895.03515625,3070.831298828125,-6797.3134765625,5162.55712890625,5760.98779296875,2636.909423828125,5049.70556640625,3666.877685546875,-3835.3603515625,-8320.013671875,-3675.619873046875,2910.296142578125,-3968.87451171875,0.0,-5679.13037109375,0.0,-6699.56201171875,-8416.970703125,4711.94580078125,-9947.6171875,0.0,-11389.255859375,-665.1878662109375,0.0,-5760.19287109375,0.0,6016.89013671875,-0.0,-5342.16552734375
886.1223754882812,-1354.217529296875,12821.3564453125,-6798.1083984375,8607.705078125,3746.3505859375,4003.0478515625,-4729.4296875,0.0,-4807.3134765625,-1234.2135009765625,-8928.775390625,0.0,0.0,0.0,-3187.656494140625,4248.619140625,12896.85546875,-0.0,-809.03369140625,6504.05859375,10410.9453125,7936.95458984375,3840.128662109375,3234.54541015625,-8149.94140625,-4967.0537109375,8130.07373046875,933.0113525390625,-832.080810546875,11447.2705078125,-5123.615234375,9752.9091796875,9119.5107421875,6104.310546875,9268.125,3267.924072265625,-962.4163208007812,6545.384765625,-0.0,5141.89404296875,-14309.0888671875,2650.419921875,13894.240234375,3066.06298828125,-6800.49267578125,5158.5830078125,5769.7294921875,2632.14111328125,5051.294921875,3658.930419921875,-3836.94970703125,-8317.6298828125,-3668.46728515625,2909.501220703125,-3964.106201171875,0.0,-5685.48828125,0.0,-6697.97265625,-8410.61328125,4709.56201171875,-9950.001953125,0.0,-11386.0771484375,-668.3667602539062,0.0,-5757.013671875,0.0,6021.658203125,-0.0,-5349.31787109375
879.7645263671875,-1360.5753173828125,12821.3564453125,-6795.724609375,8602.9365234375,3745.555908203125,4002.253173828125,-4733.40380859375,0.0,-4807.3134765625,-1232.6240234375,-8935.1337890625,0.0,0.0,0.0,-3194.80908203125,4247.02978515625,12895.2666015625,-0.0,-809.8284301757812,6502.4697265625,10410.1494140625,7933.77587890625,3836.94970703125,3228.982177734375,-8149.94140625,-4969.43798828125,8125.30517578125,927.4482421875,-822.5440673828125,11446.4755859375,-5123.615234375,9752.9091796875,9119.5107421875,6101.92626953125,9264.9462890625,3265.539794921875,-965.59521484375,6550.1533203125,-0.0,5140.3046875,-14307.4990234375,2649.625,13889.4716796875,3064.473388671875,-6802.876953125,5155.40478515625,5770.5244140625,2629.7568359375,5050.50048828125,3658.1357421875,-3840.92333984375,-8320.80859375,-3662.904052734375,2906.322509765625,-3963.311767578125,0.0,-5695.02490234375,0.0,-6703.53564453125,-8415.3818359375,4707.97216796875,-9950.001953125,0.0,-11392.4345703125,-666.7772827148438,0.0,-5753.04052734375,0.0,6028.81103515625,-0.0,-5347.728515625
880.5592651367188,-1364.549072265625,12826.919921875,-6791.75048828125,8609.294921875,3751.118896484375,4003.8427734375,-4727.84033203125,0.0,-4803.33935546875,-1226.2662353515625,-8934.3388671875,0.0,0.0,0.0,-3189.245849609375,4252.5927734375,12900.03515625,-0.0,-807.4442749023438,6508.0322265625,10414.123046875,7936.16015625,3841.718017578125,3233.75048828125,-8145.1728515625,-4965.46435546875,8132.45751953125,932.2166748046875,-813.8020629882812,11450.4501953125,-5118.05224609375,9757.677734375,9124.279296875,6105.89990234375,9269.71484375,3268.71875,-961.62158203125,6556.5107421875,-0.0,5144.27783203125,-14302.73046875,2652.00927734375,13893.4453125,3066.06298828125,-6796.51904296875,5160.1728515625,5772.11376953125,2632.14111328125,5056.85791015625,3660.519775390625,-3835.3603515625,-8318.423828125,-3655.75146484375,2911.0908203125,-3961.721923828125,0.0,-5685.48828125,0.0,-6697.177734375,-8408.228515625,4711.1513671875,-9946.8232421875,0.0,-11390.0498046875,-656.44580078125,0.0,-5765.75634765625,0.0,6024.83740234375,-0.0,-5350.11279296875
886.1223754882812,-1358.98583984375,12832.482421875,-6787.77685546875,8614.857421875,3754.2978515625,4010.995361328125,-4722.27734375,0.0,-4801.75,-1220.703125,-8937.5185546875,0.0,0.0,0.0,-3180.50390625,4258.95068359375,12904.0078125,-0.0,-803.4705810546875,6512.00634765625,10418.09765625,7940.92822265625,3844.89697265625,3242.49267578125,-8140.40478515625,-4959.9013671875,8136.431640625,940.1639404296875,-813.00732421875,11455.21875,-5111.6943359375,9763.2412109375,9129.841796875,6110.66796875,9274.482421875,3274.28173828125,-956.8532104492188,6564.45849609375,-0.0,5149.04638671875,-14294.783203125,2656.777587890625,13897.4189453125,3071.6259765625,-6793.34033203125,5165.73583984375,5776.88232421875,2638.4990234375,5057.65283203125,3665.288330078125,-3830.591796875,-8315.24609375,-3656.54638671875,2919.0380859375,-3964.90087890625,0.0,-5671.18310546875,0.0,-6693.9990234375,-8403.4609375,4715.12451171875,-9942.0546875,0.0,-11384.4873046875,-651.6774291992188,0.0,-5771.31884765625,0.0,6005.76416015625,-0.0,-5351.7021484375
890.8907470703125,-1351.03857421875,12834.072265625,-6784.59765625,8616.447265625,3757.476806640625,4014.96875,-4714.330078125,0.0,-4793.802734375,-1218.3189697265625,-8938.3125,0.0,0.0,0.0,-3171.76171875,4262.92431640625,12907.1875,-0.0,-798.7022705078125,6515.18505859375,10421.2763671875,7944.9013671875,3848.87060546875,3245.671630859375,-8136.431640625,-4957.51708984375,8139.6103515625,941.75341796875,-815.3915405273438,11458.396484375,-5106.92578125,9765.625,9131.431640625,6113.84716796875,9280.0458984375,3276.666015625,-953.67431640625,6566.8427734375,-0.0,5151.4306640625,-14286.8359375,2660.75146484375,13902.1875,3074.804931640625,-6786.98193359375,5168.1201171875,5776.88232421875,2643.267333984375,5057.65283203125,3669.261962890625,-3824.23388671875,-8313.65625,-3660.519775390625,2922.217041015625,-3968.080078125,0.0,-5661.646484375,0.0,-6682.078125,-8397.1025390625,4719.89306640625,-9936.4921875,0.0,-11380.513671875,-646.1143798828125,0.0,-5739.5302734375,0.0,6019.2744140625,-0.0,-5335.8076171875
890.0960083007812,-1352.6280517578125,12835.662109375,-6780.62451171875,8615.6533203125,3755.88720703125,4010.995361328125,-4712.740234375,0.0,-4794.59765625,-1219.1136474609375,-8924.8017578125,0.0,0.0,0.0,-3173.351318359375,4264.513671875,12905.59765625,-0.0,-801.08642578125,6514.390625,10422.8662109375,7944.10693359375,3849.665283203125,3243.287353515625,-8131.6630859375,-4960.69580078125,8141.2001953125,937.7797241210938,-815.3915405273438,11459.986328125,-5104.5419921875,9766.4189453125,9134.6103515625,6113.84716796875,9280.8408203125,3274.28173828125,-954.4690551757812,6566.0478515625,-0.0,5151.4306640625,-14280.478515625,2658.3671875,13901.392578125,3070.831298828125,-6785.392578125,5168.9150390625,5776.08740234375,2641.677734375,5058.447265625,3666.0830078125,-3823.439453125,-8316.0400390625,-3662.904052734375,2918.243408203125,-3965.69580078125,0.0,-5660.05712890625,0.0,-6681.28369140625,-8404.2548828125,4720.68798828125,-9937.2861328125,0.0,-11380.513671875,-639.7565307617188,0.0,-5745.8876953125,0.0,6030.40087890625,-0.0,-5346.1396484375
892.480224609375,-1350.243896484375,12834.072265625,-6778.240234375,8614.0634765625,3759.06640625,4007.81640625,-4708.76708984375,0.0,-4789.8291015625,-1220.703125,-8919.2392578125,0.0,0.0,0.0,-3166.993408203125,4265.30859375,12908.7763671875,-0.0,-800.2916870117188,6515.97998046875,10423.66015625,7946.4912109375,3852.049560546875,3240.903076171875,-8129.279296875,-4963.875,8147.55712890625,935.3955688476562,-816.9810180664062,11459.986328125,-5102.15771484375,9764.03515625,9137.7900390625,6113.05224609375,9283.224609375,3272.6923828125,-949.70068359375,6564.45849609375,-0.0,5150.63623046875,-14276.5048828125,2655.98291015625,13906.9560546875,3069.24169921875,-6781.41943359375,5169.70947265625,5779.2666015625,2638.4990234375,5063.2158203125,3663.698974609375,-3819.465576171875,-8313.65625,-3665.288330078125,2916.65380859375,-3960.132568359375,0.0,-5651.3154296875,0.0,-6675.72021484375,-8409.0234375,4723.072265625,-9937.2861328125,0.0,-11382.8974609375,-630.2197875976562,0.0,-5722.0458984375,0.0,6044.7060546875,-0.0,-5346.1396484375
886.9171142578125,-1349.44921875,12829.3037109375,-6783.80322265625,8610.0888671875,3756.68212890625,4004.63720703125,-4716.71435546875,0.0,-4795.392578125,-1229.445068359375,-8920.033203125,0.0,0.0,0.0,-3172.556640625,4261.3349609375,12904.8037109375,-0.0,-804.2653198242188,6512.00634765625,10420.4814453125,7943.3125,3848.87060546875,3236.9296875,-8132.45751953125,-4966.2587890625,8140.40478515625,930.627197265625,-812.212646484375,11456.0126953125,-5108.51513671875,9760.0625,9133.8154296875,6109.0791015625,9281.6357421875,3270.308349609375,-952.8795776367188,6558.10009765625,-0.0,5146.662109375,-14282.0673828125,2654.3935546875,13902.9814453125,3065.268310546875,-6783.80322265625,5163.3515625,5780.06103515625,2631.346435546875,5060.83154296875,3661.314697265625,-3825.823486328125,-8320.013671875,-3664.49365234375,2911.885498046875,-3961.721923828125,0.0,-5656.08349609375,0.0,-6683.66748046875,-8406.638671875,4719.0986328125,-9940.46484375,0.0,-11393.2294921875,-634.9881591796875,0.0,-5714.8935546875,0.0,6039.9375,-0.0,-5336.6025390625
882.1487426757812,-1352.6280517578125,12830.8935546875,-6782.2138671875,8612.4736328125,3759.06640625,4010.995361328125,-4715.12451171875,0.0,-4789.0341796875,-1230.2398681640625,-8924.8017578125,0.0,0.0,0.0,-3170.967041015625,4259.7451171875,12906.392578125,-0.0,-797.11279296875,6513.595703125,10422.0703125,7945.69677734375,3850.4599609375,3237.724365234375,-8131.6630859375,-4961.49072265625,8141.2001953125,933.0113525390625,-807.4442749023438,11457.6025390625,-5110.10498046875,9760.8564453125,9133.8154296875,6112.25732421875,9282.4296875,3275.07666015625,-949.70068359375,6561.279296875,-0.0,5149.84130859375,-14282.8623046875,2658.3671875,13902.9814453125,3070.03662109375,-6779.82958984375,5164.94140625,5780.85546875,2636.11474609375,5060.83154296875,3664.49365234375,-3821.05517578125,-8318.423828125,-3655.75146484375,2914.269775390625,-3960.132568359375,0.0,-5656.8779296875,0.0,-6678.8994140625,-8402.6650390625,4720.68798828125,-9934.90234375,0.0,-11391.6396484375,-639.7565307617188,0.0,-5722.8408203125,0.0,6044.7060546875,-0.0,-5332.62890625
878.1751098632812,-1359.7806396484375,12831.6875,-6784.59765625,8613.2685546875,3758.271484375,4011.789794921875,-4715.12451171875,0.0,-4793.00830078125,-1234.2135009765625,-8925.59765625,0.0,0.0,0.0,-3174.14599609375,4259.7451171875,12907.1875,-0.0,-799.4969482421875,6513.595703125,10420.4814453125,7946.4912109375,3850.4599609375,3236.134765625,-8130.07373046875,-4958.3115234375,8141.2001953125,933.0113525390625,-805.8547973632812,11458.396484375,-5110.8994140625,9760.8564453125,9131.431640625,6112.25732421875,9282.4296875,3275.07666015625,-949.70068359375,6562.07421875,-0.0,5148.251953125,-14284.451171875,2659.956787109375,13902.9814453125,3072.4208984375,-6783.0087890625,5164.94140625,5776.88232421875,2639.293701171875,5061.62646484375,3666.877685546875,-3821.849853515625,-8322.3984375,-3650.983154296875,2914.269775390625,-3955.3642578125,0.0,-5658.4677734375,0.0,-6679.69384765625,-8414.5859375,4721.48291015625,-9935.6962890625,0.0,-11390.0498046875,-645.3196411132812,0.0,-5746.6826171875,0.0,6031.990234375,-0.0,-5332.62890625
882.9434814453125,-1362.164794921875,12833.27734375,-6782.2138671875,8614.857421875,3759.861083984375,4012.584716796875,-4711.94580078125,0.0,-4793.00830078125,-1227.0609130859375,-8920.8291015625,0.0,0.0,0.0,-3174.14599609375,4264.513671875,12910.3662109375,-0.0,-799.4969482421875,6514.390625,10425.25,7948.0810546875,3851.254638671875,3240.903076171875,-8130.07373046875,-4957.51708984375,8141.99462890625,936.9849853515625,-804.2653198242188,11461.5751953125,-5105.33642578125,9764.8310546875,9133.021484375,6113.84716796875,9281.6357421875,3277.460693359375,-948.9059448242188,6566.8427734375,-0.0,5150.63623046875,-14284.451171875,2661.5458984375,13904.5712890625,3074.804931640625,-6781.41943359375,5168.9150390625,5774.498046875,2641.677734375,5063.2158203125,3668.46728515625,-3821.05517578125,-8320.80859375,-3648.598876953125,2917.44873046875,-3953.77490234375,0.0,-5660.05712890625,0.0,-6679.69384765625,-8428.0966796875,4723.072265625,-9934.90234375,0.0,-11386.0771484375,-646.9090576171875,0.0,-5757.80859375,0.0,6023.248046875,-0.0,-5333.423828125
882.1487426757812,-1358.98583984375,12829.3037109375,-6789.3662109375,8610.0888671875,3755.092529296875,4009.405517578125,-4717.5087890625,0.0,-4793.00830078125,-1225.471435546875,-8933.5439453125,0.0,0.0,0.0,-3179.709228515625,4259.7451171875,12905.59765625,-0.0,-799.4969482421875,6508.0322265625,10419.6865234375,7943.3125,3848.075927734375,3238.51904296875,-8139.6103515625,-4964.669921875,8134.04736328125,935.3955688476562,-811.4179077148438,11456.8076171875,-5109.31005859375,9761.6513671875,9129.0478515625,6110.66796875,9276.8671875,3275.07666015625,-955.2637939453125,6561.279296875,-0.0,5147.45703125,-14291.6044921875,2655.98291015625,13898.2138671875,3072.4208984375,-6786.98193359375,5164.94140625,5771.31884765625,2636.909423828125,5055.2685546875,3666.0830078125,-3829.00244140625,-8324.7822265625,-3654.162109375,2915.859130859375,-3965.69580078125,0.0,-5675.1572265625,0.0,-6685.2568359375,-8430.48046875,4719.0986328125,-9939.6708984375,0.0,-11386.87109375,-657.2405395507812,0.0,-5726.01953125,0.0,6041.52685546875,-0.0,-5327.06591796875
879.7645263671875,-1348.6544189453125,12828.509765625,-6787.77685546875,8610.0888671875,3753.503173828125,4007.81640625,-4716.71435546875,0.0,-4793.00830078125,-1228.650390625,-8936.72265625,0.0,0.0,0.0,-3174.94091796875,4258.15576171875,12906.392578125,-0.0,-798.7022705078125,6509.6220703125,10419.6865234375,7942.51708984375,3848.075927734375,3236.9296875,-8137.22607421875,-4967.84814453125,8136.431640625,936.1903076171875,-817.7757568359375,11456.0126953125,-5110.8994140625,9758.47265625,9130.63671875,6109.87353515625,9280.0458984375,3272.6923828125,-953.67431640625,6554.126953125,-0.0,5145.86767578125,-14288.42578125,2653.598876953125,13900.59765625,3070.03662109375,-6785.392578125,5164.146484375,5769.7294921875,2632.14111328125,5057.65283203125,3664.49365234375,-3825.823486328125,-8332.7294921875,-3657.341064453125,2913.47509765625,-3967.28515625,0.0,-5675.1572265625,0.0,-6680.48876953125,-8402.6650390625,4719.0986328125,-9938.0810546875,0.0,-11389.255859375,-658.0352783203125,0.0,-5713.30419921875,0.0,6043.1162109375,-0.0,-5330.24462890625
870.227783203125,-1350.243896484375,12825.330078125,-6788.57177734375,8607.705078125,3752.70849609375,4007.021484375,-4718.3037109375,0.0,-4796.18701171875,-1231.829345703125,-8939.90234375,0.0,0.0,0.0,-3176.530029296875,4255.771484375,12904.0078125,-0.0,-802.6759033203125,6507.23779296875,10417.3017578125,7938.54443359375,3846.486328125,3234.54541015625,-8136.431640625,-4970.232421875,8135.63623046875,930.627197265625,-821.7493896484375,11452.833984375,-5118.05224609375,9755.2939453125,9127.4580078125,6107.4892578125,9278.45703125,3270.308349609375,-955.2637939453125,6549.3583984375,-0.0,5143.4833984375,-14288.42578125,2650.419921875,13899.0087890625,3070.03662109375,-6788.57177734375,5161.76220703125,5767.34521484375,2628.962158203125,5056.85791015625,3661.314697265625,-3827.412841796875,-8336.703125,-3678.00390625,2911.0908203125,-3973.642822265625,0.0,-5672.77294921875,0.0,-6682.87255859375,-8389.9501953125,4716.71435546875,-9939.6708984375,0.0,-11393.2294921875,-652.47216796875,0.0,-5721.2509765625,0.0,6034.3740234375,-0.0,-5342.96044921875
867.8436279296875,-1354.217529296875,12822.1513671875,-6790.1611328125,8604.5263671875,3748.734619140625,4006.22705078125,-4722.27734375,0.0,-4799.3662109375,-1238.9818115234375,-8943.875,0.0,0.0,0.0,-3178.11962890625,4251.79833984375,12899.2392578125,-0.0,-805.06005859375,6503.26416015625,10413.3291015625,7936.16015625,3844.89697265625,3228.982177734375,-8138.81591796875,-4971.822265625,8133.251953125,925.8588256835938,-824.133544921875,11448.8603515625,-5122.8203125,9751.3203125,9122.689453125,6104.310546875,9274.482421875,3270.308349609375,-956.8532104492188,6544.58984375,-0.0,5140.3046875,-14288.42578125,2651.214599609375,13895.8291015625,3067.65234375,-6789.3662109375,5153.81494140625,5768.9345703125,2626.578125,5052.884765625,3662.904052734375,-3829.00244140625,-8339.087890625,-3671.64599609375,2906.322509765625,-3972.848388671875,0.0,-5668.798828125,0.0,-6686.0517578125,-8402.6650390625,4712.740234375,-9942.849609375,0.0,-11397.2021484375,-647.7037963867188,0.0,-5726.01953125,0.0,6031.990234375,-0.0,-5344.5498046875
875.7908935546875,-1349.44921875,12822.1513671875,-6786.1875,8606.9111328125,3751.913818359375,4007.021484375,-4716.71435546875,0.0,-4795.392578125,-1235.00830078125,-8936.72265625,0.0,0.0,0.0,-3171.76171875,4254.9765625,12902.4189453125,-0.0,-802.6759033203125,6505.64794921875,10417.3017578125,7940.92822265625,3848.075927734375,3231.366455078125,-8134.04736328125,-4969.43798828125,8137.22607421875,926.653564453125,-820.159912109375,11452.0390625,-5117.2578125,9755.2939453125,9125.0732421875,6105.89990234375,9278.45703125,3272.6923828125,-953.67431640625,6550.94775390625,-0.0,5141.099609375,-14282.8623046875,2653.598876953125,13898.2138671875,3067.65234375,-6785.392578125,5153.81494140625,5778.4716796875,2628.962158203125,5056.06298828125,3662.109375,-3824.23388671875,-8330.3447265625,-3654.162109375,2906.322509765625,-3967.28515625,0.0,-5658.4677734375,0.0,-6681.28369140625,-8411.4072265625,4716.71435546875,-9938.8759765625,0.0,-11397.2021484375,-642.9354248046875,0.0,-5721.2509765625,0.0,6034.3740234375,-0.0,-5336.6025390625
867.8436279296875,-1352.6280517578125,12819.7666015625,-6786.98193359375,8606.1162109375,3751.913818359375,4007.81640625,-4717.5087890625,0.0,-4790.6240234375,-1233.4188232421875,-8935.1337890625,0.0,0.0,0.0,-3170.967041015625,4252.5927734375,12900.8291015625,-0.0,-800.2916870117188,6504.05859375,10416.5078125,7939.3388671875,3846.486328125,3229.777099609375,-8134.841796875,-4967.0537109375,8138.81591796875,925.8588256835938,-812.212646484375,11451.244140625,-5118.8466796875,9752.9091796875,9122.689453125,6105.10498046875,9276.072265625,3275.07666015625,-952.8795776367188,6550.94775390625,-0.0,5139.509765625,-14284.451171875,2652.80419921875,13898.2138671875,3069.24169921875,-6783.0087890625,5155.40478515625,5768.9345703125,2628.962158203125,5056.85791015625,3662.904052734375,-3825.823486328125,-8331.9345703125,-3647.80419921875,2906.322509765625,-3961.721923828125,0.0,-5657.6728515625,0.0,-6678.8994140625,-8419.3544921875,4715.91943359375,-9938.0810546875,0.0,-11401.1767578125,-646.9090576171875,0.0,-5719.66162109375,0.0,6037.55322265625,-0.0,-5332.62890625
871.8172607421875,-1361.3701171875,12826.919921875,-6780.62451171875,8606.9111328125,3758.271484375,4009.405517578125,-4711.94580078125,0.0,-4786.650390625,-1232.6240234375,-8923.212890625,0.0,0.0,0.0,-3166.19873046875,4258.95068359375,12905.59765625,-0.0,-797.11279296875,6508.0322265625,10423.66015625,7944.10693359375,3851.254638671875,3232.161376953125,-8130.07373046875,-4965.46435546875,8146.7626953125,929.0377197265625,-801.8811645507812,11456.8076171875,-5114.07861328125,9758.47265625,9128.2529296875,6109.87353515625,9281.6357421875,3276.666015625,-949.70068359375,6551.74267578125,-0.0,5144.27783203125,-14279.68359375,2655.98291015625,13905.3662109375,3070.831298828125,-6779.03515625,5162.55712890625,5776.88232421875,2630.551513671875,5065.60009765625,3665.288330078125,-3819.465576171875,-8325.5771484375,-3646.21484375,2907.912109375,-3956.95361328125,0.0,-5652.10986328125,0.0,-6675.72021484375,-8415.3818359375,4720.68798828125,-9933.3125,0.0,-11400.3818359375,-635.7828979492188,0.0,-5714.8935546875,0.0,6044.7060546875,-0.0,-5327.8603515625
871.8172607421875,-1364.549072265625,12826.919921875,-6786.1875,8604.5263671875,3755.092529296875,4007.81640625,-4714.330078125,0.0,-4789.0341796875,-1235.00830078125,-8927.9814453125,0.0,0.0,0.0,-3171.76171875,4253.3876953125,12902.4189453125,-0.0,-798.7022705078125,6504.853515625,10417.3017578125,7943.3125,3848.87060546875,3229.777099609375,-8134.04736328125,-4965.46435546875,8142.7890625,925.8588256835938,-813.8020629882812,11453.62890625,-5120.43603515625,9756.087890625,9123.484375,6108.2841796875,9278.45703125,3275.07666015625,-951.2901611328125,6545.384765625,-0.0,5141.099609375,-14288.42578125,2655.188232421875,13902.9814453125,3070.03662109375,-6782.2138671875,5160.1728515625,5772.90869140625,2628.16748046875,5061.62646484375,3665.288330078125,-3821.849853515625,-8327.9609375,-3651.778076171875,2905.52783203125,-3972.053466796875,0.0,-5656.08349609375,0.0,-6678.1044921875,-8415.3818359375,4717.5087890625,-9935.6962890625,0.0,-11399.5869140625,-632.6039428710938,0.0,-5726.01953125,0.0,6041.52685546875,-0.0,-5331.83447265625
873.40673828125,-1355.8070068359375,12815.79296875,-6792.54541015625,8602.142578125,3753.503173828125,4009.405517578125,-4716.71435546875,0.0,-4791.41845703125,-1238.9818115234375,-8934.3388671875,0.0,0.0,0.0,-3170.17236328125,4248.619140625,12900.8291015625,-0.0,-797.9075317382812,6501.6748046875,10415.712890625,7940.13330078125,3846.486328125,3228.1875,-8140.40478515625,-4967.0537109375,8141.2001953125,923.474609375,-818.5704345703125,11448.8603515625,-5124.41015625,9747.345703125,9117.9208984375,6104.310546875,9273.6884765625,3274.28173828125,-952.0848388671875,6540.61669921875,-0.0,5137.12548828125,-14298.7568359375,2654.3935546875,13901.392578125,3070.03662109375,-6784.59765625,5151.4306640625,5768.9345703125,2628.16748046875,5059.2421875,3665.288330078125,-3822.64453125,-8331.9345703125,-3655.75146484375,2903.1435546875,-3963.311767578125,0.0,-5660.05712890625,0.0,-6678.1044921875,-8414.5859375,4715.12451171875,-9936.4921875,0.0,-11404.35546875,-642.9354248046875,0.0,-5722.8408203125,0.0,6045.50048828125,-0.0,-5328.6552734375
874.9962158203125,-1357.396484375,12814.9990234375,-6790.1611328125,8603.732421875,3753.503173828125,4008.611083984375,-4718.3037109375,0.0,-4794.59765625,-1238.9818115234375,-8930.365234375,0.0,0.0,0.0,-3171.76171875,4250.20849609375,12900.8291015625,-0.0,-800.2916870117188,6502.4697265625,10416.5078125,7940.13330078125,3847.28125,3229.777099609375,-8142.7890625,-4965.46435546875,8139.6103515625,925.0640869140625,-812.212646484375,11449.654296875,-5122.02587890625,9746.5517578125,9119.5107421875,6103.515625,9272.0986328125,3273.487060546875,-953.67431640625,6541.4111328125,-0.0,5138.71533203125,-14301.140625,2655.188232421875,13901.392578125,3070.03662109375,-6788.57177734375,5150.63623046875,5769.7294921875,2631.346435546875,5062.42138671875,3664.49365234375,-3823.439453125,-8332.7294921875,-3658.1357421875,2904.73291015625,-3956.95361328125,0.0,-5664.8251953125,0.0,-6682.87255859375,-8414.5859375,4715.12451171875,-9937.2861328125,0.0,-11402.7666015625,-650.0880126953125,0.0,-5729.1982421875,0.0,6035.1689453125,-0.0,-5337.39697265625
876.5856323242188,-1362.95947265625,12819.7666015625,-6790.1611328125,8607.705078125,3754.2978515625,4011.789794921875,-4718.3037109375,0.0,-4794.59765625,-1234.2135009765625,-8930.365234375,0.0,0.0,0.0,-3168.5830078125,4252.5927734375,12903.2138671875,-0.0,-799.4969482421875,6505.64794921875,10416.5078125,7943.3125,3848.075927734375,3232.9560546875,-8141.99462890625,-4963.875,8141.2001953125,929.8324584960938,-814.5968017578125,11451.244140625,-5122.8203125,9753.7041015625,9122.689453125,6107.4892578125,9274.482421875,3277.460693359375,-952.0848388671875,6550.1533203125,-0.0,5141.89404296875,-14298.7568359375,2656.777587890625,13902.9814453125,3074.01025390625,-6790.9560546875,5153.81494140625,5772.90869140625,2633.730712890625,5063.2158203125,3667.67236328125,-3821.849853515625,-8329.55078125,-3657.341064453125,2910.296142578125,-3959.337646484375,0.0,-5662.44140625,0.0,-6681.28369140625,-8427.302734375,4716.71435546875,-9936.4921875,0.0,-11394.818359375,-647.7037963867188,0.0,-5747.47705078125,0.0,6016.89013671875,-0.0,-5344.5498046875
874.9962158203125,-1361.3701171875,12826.919921875,-6789.3662109375,8611.6787109375,3758.271484375,4014.96875,-4714.330078125,0.0,-4788.23974609375,-1229.445068359375,-8931.16015625,0.0,0.0,0.0,-3166.19873046875,4256.56640625,12907.1875,-0.0,-793.933837890625,6509.6220703125,10419.6865234375,7947.28564453125,3851.254638671875,3238.51904296875,-8138.0205078125,-4960.69580078125,8145.1728515625,934.600830078125,-813.8020629882812,11454.4228515625,-5117.2578125,9758.47265625,9126.6630859375,6110.66796875,9279.2509765625,3279.050048828125,-947.3164672851562,6558.10009765625,-0.0,5145.86767578125,-14297.9619140625,2659.956787109375,13906.1611328125,3075.599609375,-6783.80322265625,5161.76220703125,5775.29296875,2637.7041015625,5064.8056640625,3670.8515625,-3818.6708984375,-8327.1669921875,-3659.72509765625,2914.269775390625,-3958.543212890625,0.0,-5656.8779296875,0.0,-6678.8994140625,-8436.0439453125,4721.48291015625,-9930.9287109375,0.0,-11390.845703125,-642.9354248046875,0.0,-5761.7822265625,0.0,6031.990234375,-0.0,-5338.19189453125
863.0752563476562,-1356.6016845703125,12826.919921875,-6791.75048828125,8610.0888671875,3757.476806640625,4013.379638671875,-4717.5087890625,0.0,-4789.8291015625,-1229.445068359375,-8924.8017578125,0.0,0.0,0.0,-3168.5830078125,4256.56640625,12907.9814453125,-0.0,-793.13916015625,6508.8271484375,10418.09765625,7947.28564453125,3851.254638671875,3237.724365234375,-8145.96826171875,-4960.69580078125,8145.1728515625,934.600830078125,-816.9810180664062,11454.4228515625,-5115.66796875,9758.47265625,9125.869140625,6109.0791015625,9276.8671875,3278.25537109375,-947.3164672851562,6559.68994140625,-0.0,5145.07275390625,-14302.73046875,2659.956787109375,13903.77734375,3073.215576171875,-6786.98193359375,5158.5830078125,5772.11376953125,2637.7041015625,5065.60009765625,3670.056640625,-3821.05517578125,-8329.55078125,-3664.49365234375,2914.269775390625,-3951.390625,0.0,-5660.85205078125,0.0,-6685.2568359375,-8429.6865234375,4719.89306640625,-9932.517578125,0.0,-11389.255859375,-638.9617919921875,0.0,-5779.2666015625,0.0,6033.57958984375,-0.0,-5333.423828125
851.9490356445312,-1362.164794921875,12826.125,-6794.9296875,8610.884765625,3754.2978515625,4012.584716796875,-4721.48291015625,0.0,-4793.802734375,-1223.0872802734375,-8927.185546875,0.0,0.0,0.0,-3170.17236328125,4254.18212890625,12906.392578125,-0.0,-794.7285766601562,6507.23779296875,10416.5078125,7946.4912109375,3848.075927734375,3240.903076171875,-8151.53125,-4960.69580078125,8141.99462890625,937.7797241210938,-832.8755493164062,11452.0390625,-5120.43603515625,9756.087890625,9121.1005859375,6108.2841796875,9273.6884765625,3277.460693359375,-948.9059448242188,6556.5107421875,-0.0,5145.07275390625,-14309.8828125,2659.956787109375,13902.1875,3074.804931640625,-6790.9560546875,5158.5830078125,5768.9345703125,2638.4990234375,5061.62646484375,3670.056640625,-3821.849853515625,-8327.1669921875,-3675.619873046875,2915.859130859375,-3953.77490234375,0.0,-5668.798828125,0.0,-6686.0517578125,-8419.3544921875,4719.0986328125,-9934.90234375,0.0,-11387.666015625,-639.7565307617188,0.0,-5771.31884765625,0.0,6011.3271484375,-0.0,-5340.576171875
841.6175537109375,-1374.0858154296875,12824.53515625,-6800.49267578125,8610.0888671875,3750.32421875,4014.174072265625,-4723.072265625,0.0,-4793.802734375,-1226.2662353515625,-8939.107421875,0.0,0.0,0.0,-3176.530029296875,4249.4140625,12902.4189453125,-0.0,-796.3180541992188,6504.853515625,10412.5341796875,7944.9013671875,3845.691650390625,3240.1083984375,-8159.47802734375,-4959.9013671875,8135.63623046875,936.9849853515625,-836.8492431640625,11449.654296875,-5125.99951171875,9752.1142578125,9115.537109375,6107.4892578125,9270.5087890625,3277.460693359375,-952.8795776367188,6554.92138671875,-0.0,5144.27783203125,-14319.419921875,2657.572509765625,13899.0087890625,3075.599609375,-6790.9560546875,5163.3515625,5767.34521484375,2639.293701171875,5052.884765625,3668.46728515625,-3825.823486328125,-8347.8291015625,-3680.38818359375,2914.269775390625,-3969.66943359375,0.0,-5681.5146484375,0.0,-6683.66748046875,-8428.0966796875,4719.0986328125,-9934.90234375,0.0,-11391.6396484375,-654.8563842773438,0.0,-5729.1982421875,0.0,6021.658203125,-0.0,-5342.96044921875
846.385986328125,-1378.8541259765625,12822.1513671875,-6800.49267578125,8607.705078125,3748.734619140625,4014.174072265625,-4727.04541015625,0.0,-4796.18701171875,-1238.1871337890625,-8947.849609375,0.0,0.0,0.0,-3190.04052734375,4248.619140625,12900.8291015625,-0.0,-797.9075317382812,6504.05859375,10410.1494140625,7944.9013671875,3844.10205078125,3232.9560546875,-8161.8623046875,-4960.69580078125,8130.8681640625,931.4219360351562,-826.5177612304688,11448.0654296875,-5125.20458984375,9750.525390625,9114.7421875,6105.89990234375,9266.5361328125,3277.460693359375,-955.2637939453125,6554.126953125,-0.0,5141.89404296875,-14319.419921875,2656.777587890625,13895.8291015625,3075.599609375,-6796.51904296875,5168.9150390625,5764.96142578125,2634.525390625,5051.294921875,3668.46728515625,-3832.97607421875,-8352.59765625,-3677.209228515625,2907.912109375,-3979.2060546875,0.0,-5691.84619140625,0.0,-6692.40966796875,-8440.8125,4714.330078125,-9936.4921875,0.0,-11397.2021484375,-658.8300170898438,0.0,-5723.63525390625,0.0,6047.08984375,-0.0,-5335.8076171875
843.20703125,-1379.6488037109375,12825.330078125,-6803.67138671875,8606.1162109375,3747.93994140625,4011.789794921875,-4732.60888671875,0.0,-4802.544921875,-1248.5185546875,-8941.4912109375,0.0,0.0,0.0,-3194.014404296875,4249.4140625,12898.4453125,-0.0,-803.4705810546875,6501.6748046875,10410.1494140625,7941.72265625,3842.512939453125,3230.57177734375,-8164.24658203125,-4962.28564453125,8129.279296875,929.0377197265625,-823.3388061523438,11445.681640625,-5122.8203125,9751.3203125,9115.537109375,6103.515625,9262.5615234375,3276.666015625,-957.64794921875,6558.10009765625,-0.0,5140.3046875,-14321.8037109375,2655.188232421875,13891.8564453125,3070.831298828125,-6802.08203125,5168.1201171875,5758.603515625,2632.935791015625,5051.294921875,3666.0830078125,-3836.155029296875,-8335.908203125,-3669.261962890625,2907.1171875,-3972.053466796875,0.0,-5697.4091796875,0.0,-6701.9462890625,-8441.607421875,4710.3564453125,-9939.6708984375,0.0,-11405.150390625,-658.0352783203125,0.0,-5757.80859375,0.0,6032.78515625,-0.0,-5344.5498046875
851.9490356445312,-1376.469970703125,12826.919921875,-6799.69775390625,8606.1162109375,3751.118896484375,4011.789794921875,-4727.04541015625,0.0,-4801.75,-1251.697509765625,-8933.5439453125,0.0,0.0,0.0,-3187.656494140625,4250.20849609375,12900.03515625,-0.0,-799.4969482421875,6502.4697265625,10412.5341796875,7941.72265625,3844.89697265625,3234.54541015625,-8155.50537109375,-4962.28564453125,8135.63623046875,930.627197265625,-816.9810180664062,11448.8603515625,-5123.615234375,9752.9091796875,9116.33203125,6103.515625,9267.330078125,3276.666015625,-956.0584716796875,6558.89501953125,-0.0,5141.099609375,-14316.2412109375,2656.777587890625,13895.03515625,3071.6259765625,-6795.724609375,5163.3515625,5763.3720703125,2633.730712890625,5059.2421875,3667.67236328125,-3830.591796875,-8321.6025390625,-3662.109375,2911.0908203125,-3964.90087890625,0.0,-5691.05126953125,0.0,-6696.3828125,-8429.6865234375,4712.740234375,-9938.0810546875,0.0,-11404.35546875,-650.0880126953125,0.0,-5757.80859375,0.0,6027.2216796875,-0.0,-5347.728515625
