-1367.7279052734375,-2649.625,12805.4619140625,-7166.0673828125,8589.4267578125,3355.343994140625,3912.448974609375,-5114.87353515625,0.0,-5024.2744140625,-1598.993896484375,-10520.6171875,0.0,0.0,0.0,-3315.607666015625,3765.424072265625,12412.0712890625,-0.0,-905.1958618164062,6391.20703125,10194.7783203125,7716.02001953125,3624.757080078125,3164.609130859375,-8036.2958984375,-5144.27783203125,7820.923828125,23.84185791015625,-1457.5322265625,11018.912109375,-5501.111328125,9653.568359375,8703.072265625,6174.24609375,8842.9453125,3161.430419921875,-1269.976318359375,6309.3505859375,-0.0,5134.7412109375,-14523.6650390625,2662.3408203125,13507.20703125,2983.4111328125,-6963.41162109375,5122.8203125,5514.62158203125,2447.76416015625,4702.4091796875,3547.66845703125,-4100.0048828125,-9206.1357421875,-4578.431640625,2723.534912109375,-4479.88525390625,0.0,-5939.8017578125,0.0,-6759.16650390625,-9431.8388671875,4393.259765625,-9987.3544921875,0.0,-12356.4404296875,-1051.4259033203125,0.0,-6343.5234375,0.0,5591.71044921875,-0.0,-5626.6787109375
-1362.164794921875,-2638.4990234375,12800.693359375,-7158.9150390625,8587.04296875,3360.9072265625,3910.064697265625,-5109.31005859375,0.0,-5021.09521484375,-1599.7886962890625,-10510.28515625,0.0,0.0,0.0,-3310.04443359375,3768.60302734375,12413.6611328125,-0.0,-903.6064453125,6391.20703125,10199.546875,7719.19873046875,3629.525390625,3159.8408203125,-8020.40087890625,-5141.89404296875,7826.4873046875,20.66294288635254,-1460.711181640625,11022.0908203125,-5496.34326171875,9651.978515625,8708.63671875,6175.8359375,8848.5078125,3159.8408203125,-1268.3868408203125,6306.96630859375,-0.0,5131.5625,-14509.3603515625,2662.3408203125,13510.38671875,2982.616455078125,-6961.02783203125,5110.8994140625,5518.59521484375,2447.76416015625,4707.97216796875,3546.078857421875,-4096.03125,-9212.494140625,-4566.5107421875,2719.561279296875,-4498.16357421875,0.0,-5939.0068359375,0.0,-6752.01416015625,-9419.91796875,4398.02783203125,-9984.9697265625,0.0,-12345.314453125,-1048.2469482421875,0.0,-6326.03955078125,0.0,5599.65771484375,-0.0,-5621.115234375
-1375.6751708984375,-2643.267333984375,12813.4091796875,-7150.96826171875,8591.8115234375,3370.444091796875,3908.475341796875,-5107.720703125,0.0,-5024.2744140625,-1582.3045654296875,-10536.51171875,0.0,0.0,0.0,-3309.25,3774.960693359375,12420.0185546875,-0.0,-905.9906005859375,6395.9755859375,10206.69921875,7721.5830078125,3634.293701171875,3166.993408203125,-7993.38037109375,-5139.509765625,7831.255859375,27.815500259399414,-1471.0426025390625,11027.6533203125,-5491.57470703125,9660.720703125,8714.9931640625,6181.39892578125,8854.0712890625,3158.25146484375,-1264.4132080078125,6318.09228515625,-0.0,5138.71533203125,-14495.849609375,2663.93017578125,13513.5654296875,2979.4375,-6958.6435546875,5130.767578125,5524.15869140625,2450.94287109375,4718.3037109375,3542.900146484375,-4093.64697265625,-9219.646484375,-4576.04736328125,2726.7138671875,-4483.06396484375,0.0,-5947.74853515625,0.0,-6754.3984375,-9423.8916015625,4400.412109375,-9985.7646484375,0.0,-12340.5458984375,-1060.962646484375,0.0,-6322.86083984375,0.0,5594.88916015625,-0.0,-5625.08935546875
-1373.291015625,-2632.935791015625,12822.9453125,-7138.25244140625,8601.34765625,3380.775390625,3909.269775390625,-5103.7470703125,0.0,-5029.04248046875,-1579.92041015625,-10497.5703125,0.0,0.0,0.0,-3306.86572265625,3786.0869140625,12428.7607421875,-0.0,-912.3484497070312,6405.51220703125,10217.826171875,7730.3251953125,3642.2412109375,3184.4775390625,-7984.63818359375,-5134.7412109375,7839.203125,46.09425735473633,-1456.737548828125,11037.9853515625,-5479.65380859375,9671.84765625,8723.7353515625,6189.34619140625,8862.8134765625,3160.6357421875,-1258.85009765625,6335.57666015625,-0.0,5149.84130859375,-14486.3125,2669.493408203125,13523.896484375,2981.82177734375,-6958.6435546875,5144.27783203125,5540.84765625,2462.864013671875,4731.01953125,3545.2841796875,-4088.083740234375,-9201.3671875,-4560.947265625,2744.19775390625,-4471.14306640625,0.0,-5945.3642578125,0.0,-6756.78271484375,-9425.48046875,4406.77001953125,-9984.9697265625,0.0,-12312.7294921875,-1060.16796875,0.0,-6335.57666015625,0.0,5572.63720703125,-0.0,-5653.69921875
-1370.112060546875,-2633.730712890625,12827.7138671875,-7125.53662109375,8604.5263671875,3397.46484375,3911.654052734375,-5097.38916015625,0.0,-5028.248046875,-1595.8150634765625,-10556.3798828125,0.0,0.0,0.0,-3302.097412109375,3791.650146484375,12434.3232421875,-0.0,-909.9642333984375,6410.28076171875,10228.951171875,7732.70947265625,3648.598876953125,3185.272216796875,-7974.30712890625,-5136.3310546875,7855.09765625,45.299530029296875,-1393.9539794921875,11044.3427734375,-5476.474609375,9675.0263671875,8731.6826171875,6191.73046875,8872.349609375,3163.814453125,-1254.081787109375,6330.80810546875,-0.0,5154.60986328125,-14466.4453125,2669.493408203125,13537.4072265625,2984.2060546875,-6955.46484375,5144.27783203125,5552.7685546875,2466.042724609375,4743.73486328125,3546.078857421875,-4080.93115234375,-9202.95703125,-4559.35791015625,2743.403076171875,-4462.40087890625,0.0,-5935.033203125,0.0,-6755.98779296875,-9432.6337890625,4411.53857421875,-9981.791015625,0.0,-12318.2939453125,-1060.962646484375,0.0,-6334.78173828125,0.0,5582.96826171875,-0.0,-5643.36767578125
-1370.112060546875,-2644.856689453125,12839.634765625,-7114.41015625,8611.6787109375,3415.74365234375,3911.654052734375,-5092.62109375,0.0,-5028.248046875,-1570.3836669921875,-10602.474609375,0.0,0.0,0.0,-3307.660400390625,3797.21337890625,12442.271484375,-0.0,-909.1694946289062,6415.84375,10240.078125,7737.4775390625,3658.1357421875,3193.219482421875,-7963.97509765625,-5132.35693359375,7864.63427734375,52.45208740234375,-1387.59619140625,11052.291015625,-5474.88525390625,9682.97265625,8738.8349609375,6198.08837890625,8885.8603515625,3164.609130859375,-1248.5185546875,6341.13916015625,-0.0,5164.146484375,-14441.8076171875,2671.877685546875,13549.328125,2981.82177734375,-6952.28564453125,5141.89404296875,5558.33203125,2472.400634765625,4734.9931640625,3546.873779296875,-4080.13671875,-9188.65234375,-4557.7685546875,2751.350341796875,-4481.474609375,0.0,-5936.62255859375,0.0,-6755.193359375,-9423.0966796875,4415.51220703125,-9979.4072265625,0.0,-12356.4404296875,-1060.16796875,0.0,-6335.57666015625,0.0,5586.1474609375,-0.0,-5642.57275390625
-1408.259033203125,-2696.51416015625,12818.97265625,-7162.09423828125,8592.60546875,3389.517578125,3908.475341796875,-5103.7470703125,0.0,-5030.6318359375,-1588.6624755859375,-10557.1748046875,0.0,0.0,0.0,-3314.81298828125,3770.9873046875,12420.8134765625,-0.0,-914.7326049804688,6396.7705078125,10210.6728515625,7722.3779296875,3642.2412109375,3174.14599609375,-8050.60107421875,-5141.099609375,7851.1240234375,35.762786865234375,-1557.6680908203125,11027.6533203125,-5501.111328125,9661.515625,8706.251953125,6180.6044921875,8861.224609375,3158.25146484375,-1262.82373046875,6322.06591796875,-0.0,5144.27783203125,-14482.3388671875,2661.5458984375,13537.4072265625,2976.258544921875,-6959.4384765625,5119.6416015625,5482.0380859375,2454.916748046875,4710.3564453125,3542.10546875,-4088.878662109375,-9210.109375,-4614.98876953125,2734.6611328125,-4518.0322265625,0.0,-5934.23828125,0.0,-6758.3720703125,-9447.7333984375,4400.412109375,-9988.1484375,0.0,-12390.61328125,-1101.493896484375,0.0,-6331.6025390625,0.0,5588.53125,-0.0,-5640.9833984375
-1393.9539794921875,-2703.666748046875,12818.97265625,-7181.96240234375,8592.60546875,3333.091796875,3904.501708984375,-5131.5625,0.0,-5044.14208984375,-1573.5626220703125,-10504.72265625,0.0,0.0,0.0,-3337.860107421875,3762.2451171875,12403.3291015625,-0.0,-923.474609375,6391.20703125,10182.857421875,7711.251953125,3615.22021484375,3182.887939453125,-8100.6689453125,-5138.71533203125,7793.9033203125,44.50480270385742,-1529.8525390625,11010.169921875,-5505.0849609375,9655.9521484375,8688.767578125,6170.27294921875,8827.845703125,3155.072509765625,-1283.4866943359375,6328.423828125,-0.0,5143.4833984375,-14544.328125,2659.161865234375,13497.669921875,2974.669189453125,-6977.716796875,5156.99365234375,5482.0380859375,2451.737548828125,4638.0361328125,3539.72119140625,-4117.48876953125,-9167.1943359375,-4611.01513671875,2742.6083984375,-4492.60107421875,0.0,-5966.822265625,0.0,-6782.2138671875,-9464.4228515625,4386.10693359375,-10000.0693359375,0.0,-12356.4404296875,-1039.5050048828125,0.0,-6350.67626953125,0.0,5571.04736328125,-0.0,-5648.93115234375
-1366.138427734375,-2671.082763671875,12799.103515625,-7146.19970703125,8596.5791015625,3334.68115234375,3903.706787109375,-5134.7412109375,0.0,-5042.552734375,-1599.7886962890625,-10537.306640625,0.0,0.0,0.0,-3338.65478515625,3767.80810546875,12405.712890625,-0.0,-921.0904541015625,6390.41259765625,10193.1884765625,7712.8408203125,3613.631103515625,3163.814453125,-8034.7060546875,-5132.35693359375,7788.34033203125,27.815500259399414,-1494.0897216796875,11014.9384765625,-5497.9326171875,9650.3896484375,8705.45703125,6171.06787109375,8831.818359375,3154.27783203125,-1284.2813720703125,6322.86083984375,-0.0,5139.509765625,-14521.28125,2661.5458984375,13486.544921875,2977.053466796875,-6976.92236328125,5125.20458984375,5530.51611328125,2437.4326171875,4673.798828125,3541.310546875,-4120.66796875,-9149.7109375,-4580.81591796875,2727.508544921875,-4474.32177734375,0.0,-5966.02783203125,0.0,-6781.41943359375,-9458.0654296875,4386.10693359375,-9998.48046875,0.0,-12305.5771484375,-1058.5784912109375,0.0,-6352.265625,0.0,5571.04736328125,-0.0,-5650.5205078125
-1387.59619140625,-2648.03564453125,12781.6201171875,-7188.3203125,8618.83203125,3328.3232421875,3909.269775390625,-5130.767578125,0.0,-5033.01611328125,-1615.6832275390625,-10499.9541015625,0.0,0.0,0.0,-3327.52880859375,3755.88720703125,12406.5087890625,-0.0,-913.9378662109375,6390.41259765625,10181.267578125,7721.5830078125,3611.246826171875,3143.9462890625,-8088.748046875,-5122.02587890625,7801.8505859375,7.9472856521606445,-1392.364501953125,11010.169921875,-5512.2373046875,9638.46875,8687.97265625,6177.42529296875,8827.845703125,3159.046142578125,-1280.3077392578125,6293.45556640625,-0.0,5144.27783203125,-14543.533203125,2671.877685546875,13478.5966796875,2980.232177734375,-6968.97509765625,5086.26318359375,5491.57470703125,2429.4853515625,4701.6142578125,3544.489501953125,-4115.8994140625,-9218.056640625,-4564.9208984375,2706.845458984375,-4445.71142578125,0.0,-5950.927734375,0.0,-6771.087890625,-9442.169921875,4389.2861328125,-9992.9169921875,0.0,-12310.345703125,-1053.015380859375,0.0,-6337.9609375,0.0,5582.173828125,-0.0,-5637.8046875
-1402.696044921875,-2642.472412109375,12784.00390625,-7174.81005859375,8632.3427734375,3357.728271484375,3914.8330078125,-5110.8994140625,0.0,-5021.09521484375,-1668.13525390625,-10506.3125,0.0,0.0,0.0,-3313.2236328125,3760.65576171875,12420.0185546875,-0.0,-905.9906005859375,6397.5654296875,10193.984375,7731.91455078125,3627.93603515625,3132.025390625,-8042.6533203125,-5120.43603515625,7828.87158203125,-7.152557373046875,-1451.9691162109375,11019.70703125,-5510.6484375,9643.2373046875,8694.3310546875,6190.14111328125,8845.3291015625,3164.609130859375,-1264.4132080078125,6290.27685546875,-0.0,5138.71533203125,-14523.6650390625,2678.2353515625,13507.20703125,2985.00048828125,-6956.25927734375,5077.52099609375,5539.25830078125,2445.3798828125,4719.89306640625,3550.847412109375,-4096.826171875,-9257.79296875,-4579.22607421875,2690.15625,-4453.6591796875,0.0,-5935.82763671875,0.0,-6757.57763671875,-9437.4013671875,4399.61767578125,-9982.5859375,0.0,-12303.98828125,-1049.8365478515625,0.0,-6329.21826171875,0.0,5590.12060546875,-0.0,-5627.47314453125
-1393.1593017578125,-2664.72509765625,12828.509765625,-7149.37841796875,8594.1953125,3376.007080078125,3909.269775390625,-5109.31005859375,0.0,-5025.86376953125,-1605.351806640625,-10558.7646484375,0.0,0.0,0.0,-3314.81298828125,3770.9873046875,12420.0185546875,-0.0,-913.1431884765625,6399.15478515625,10208.2890625,7723.1728515625,3632.70458984375,3171.76171875,-7983.04833984375,-5130.767578125,7842.38134765625,26.226043701171875,-1551.3101806640625,11025.26953125,-5501.111328125,9663.8994140625,8709.4306640625,6180.6044921875,8850.8916015625,3159.8408203125,-1264.4132080078125,6318.09228515625,-0.0,5140.3046875,-14496.6435546875,2665.519775390625,13518.3330078125,2980.232177734375,-6961.02783203125,5160.1728515625,5568.6630859375,2477.963623046875,4729.4296875,3545.2841796875,-4093.64697265625,-9199.7783203125,-4633.26806640625,2727.508544921875,-4479.09033203125,0.0,-5936.62255859375,0.0,-6763.93505859375,-9445.349609375,4398.02783203125,-9987.3544921875,0.0,-12325.4462890625,-1071.294189453125,0.0,-6344.318359375,0.0,5576.6103515625,-0.0,-5638.599609375
-1409.8485107421875,-2658.3671875,12836.4560546875,-7146.19970703125,8607.705078125,3353.754638671875,3909.269775390625,-5123.615234375,0.0,-5034.60546875,-1629.193603515625,-10546.84375,0.0,0.0,0.0,-3335.475830078125,3770.9873046875,12412.865234375,-0.0,-918.7062377929688,6403.9228515625,10198.751953125,7719.99365234375,3621.578125,3184.4775390625,-8018.0166015625,-5133.15185546875,7816.95068359375,39.73643112182617,-1483.75830078125,11022.8857421875,-5502.70068359375,9667.0791015625,8704.662109375,6179.8095703125,8839.7666015625,3158.25146484375,-1274.74462890625,6310.14501953125,-0.0,5172.88818359375,-14531.6123046875,2667.109130859375,13503.234375,2977.84814453125,-6971.359375,5156.99365234375,5605.220703125,2520.879150390625,4696.05126953125,3542.900146484375,-4109.54150390625,-9231.5673828125,-4580.02099609375,2741.01904296875,-4560.947265625,0.0,-5977.15380859375,0.0,-6778.240234375,-9454.0908203125,4392.46533203125,-9991.328125,0.0,-12394.587890625,-1091.162353515625,0.0,-6373.7236328125,0.0,5568.6630859375,-0.0,-5652.904296875
-1433.6904296875,-2685.387939453125,12808.640625,-7198.65185546875,8604.5263671875,3346.602294921875,3909.269775390625,-5125.20458984375,0.0,-5033.81103515625,-1664.9564208984375,-10543.6640625,0.0,0.0,0.0,-3329.117919921875,3748.734619140625,12407.302734375,-0.0,-915.52734375,6389.6181640625,10178.0888671875,7717.609375,3616.01513671875,3163.814453125,-8043.4482421875,-5135.5361328125,7819.3349609375,27.02077293395996,-1443.2271728515625,11008.580078125,-5526.54248046875,9642.44140625,8675.2578125,6172.6572265625,8828.6396484375,3158.25146484375,-1275.5394287109375,6281.53466796875,-0.0,5143.4833984375,-14565.78515625,2664.72509765625,13503.234375,2979.4375,-6972.94873046875,5109.31005859375,5474.0908203125,2486.705810546875,4700.02490234375,3543.69482421875,-4106.36279296875,-9305.4775390625,-4611.81005859375,2723.534912109375,-4491.01123046875,0.0,-5966.822265625,0.0,-6775.06103515625,-9469.986328125,4388.4912109375,-9989.73828125,0.0,-12363.5927734375,-1086.3939208984375,0.0,-6364.1865234375,0.0,5575.021484375,-0.0,-5652.904296875
-1399.51708984375,-2676.64599609375,12822.9453125,-7207.3935546875,8567.173828125,3337.860107421875,3909.269775390625,-5122.02587890625,0.0,-5015.5322265625,-1586.2783203125,-10495.98046875,0.0,0.0,0.0,-3309.25,3753.503173828125,12402.5341796875,-0.0,-898.8380126953125,6381.67041015625,10176.4990234375,7710.45703125,3616.01513671875,3160.6357421875,-8056.9580078125,-5159.3779296875,7816.95068359375,26.226043701171875,-1436.8692626953125,11006.9912109375,-5514.62158203125,9648.7998046875,8676.0517578125,6162.3251953125,8824.666015625,3156.662109375,-1273.949951171875,6310.14501953125,-0.0,5118.8466796875,-14571.349609375,2651.214599609375,13496.0810546875,2980.232177734375,-6961.822265625,5141.099609375,5435.943359375,2415.18017578125,4694.4619140625,3545.2841796875,-4096.826171875,-9245.078125,-4596.7099609375,2721.150634765625,-4427.43310546875,0.0,-5963.6435546875,0.0,-6752.80908203125,-9459.6552734375,4382.92822265625,-9980.99609375,0.0,-12294.4521484375,-1010.894775390625,0.0,-6314.9130859375,0.0,5609.1943359375,-0.0,-5617.1416015625
-1405.8748779296875,-2671.877685546875,12793.541015625,-7188.3203125,8571.1474609375,3333.091796875,3908.475341796875,-5122.8203125,0.0,-5011.55859375,-1561.6417236328125,-10496.775390625,0.0,0.0,0.0,-3305.276123046875,3751.913818359375,12399.35546875,-0.0,-895.6591186523438,6374.51806640625,10178.8837890625,7709.662109375,3613.631103515625,3163.814453125,-8056.16357421875,-5153.0205078125,7810.5927734375,26.226043701171875,-1472.632080078125,11003.8115234375,-5516.2109375,9638.46875,8681.615234375,6162.3251953125,8823.8720703125,3156.662109375,-1277.923583984375,6299.01904296875,-0.0,5115.66796875,-14564.1962890625,2655.98291015625,13491.3125,2980.232177734375,-6960.2333984375,5102.15771484375,5497.1376953125,2437.4326171875,4686.51416015625,3545.2841796875,-4097.62060546875,-9222.8251953125,-4584.7890625,2724.32958984375,-4477.5009765625,0.0,-5981.92236328125,0.0,-6747.24560546875,-9477.138671875,4381.33837890625,-9982.5859375,0.0,-12302.3984375,-1021.2262573242188,0.0,-6319.681640625,0.0,5613.962890625,-0.0,-5605.220703125
-1427.33251953125,-2672.67236328125,12764.9306640625,-7175.6044921875,8598.9638671875,3342.62841796875,3910.859619140625,-5118.8466796875,0.0,-5019.505859375,-1610.914794921875,-10529.3583984375,0.0,0.0,0.0,-3308.455322265625,3749.529541015625,12404.1240234375,-0.0,-902.8117065429688,6376.10791015625,10182.857421875,7716.02001953125,3617.6044921875,3158.25146484375,-8046.626953125,-5135.5361328125,7821.71923828125,18.278757095336914,-1451.1744384765625,11005.4013671875,-5520.9794921875,9630.5205078125,8684.7939453125,6168.68359375,8827.845703125,3159.8408203125,-1273.949951171875,6283.12451171875,-0.0,5121.23095703125,-14551.48046875,2667.90380859375,13499.259765625,2982.616455078125,-6963.41162109375,5078.31591796875,5520.9794921875,2465.248046875,4696.05126953125,3548.463134765625,-4096.826171875,-9241.8984375,-4564.12646484375,2720.35595703125,-4484.6533203125,0.0,-5966.822265625,0.0,-6755.98779296875,-9480.3173828125,4388.4912109375,-9983.3798828125,0.0,-12335.77734375,-1057.78369140625,0.0,-6345.90771484375,0.0,5594.0947265625,-0.0,-5629.0625
-1405.0802001953125,-2678.2353515625,12792.74609375,-7189.90966796875,8575.1220703125,3337.0654296875,3910.859619140625,-5124.41015625,0.0,-5025.06884765625,-1595.8150634765625,-10519.02734375,0.0,0.0,0.0,-3322.76025390625,3751.118896484375,12401.740234375,-0.0,-907.580078125,6377.69677734375,10179.6787109375,7712.04638671875,3614.42578125,3178.914306640625,-8063.31640625,-5129.97314453125,7812.97705078125,40.531158447265625,-1449.5849609375,11005.4013671875,-5516.2109375,9640.8525390625,8681.615234375,6163.9150390625,8825.4609375,3159.046142578125,-1275.5394287109375,6305.37646484375,-0.0,5122.8203125,-14558.6328125,2659.956787109375,13496.0810546875,2981.82177734375,-6967.3857421875,5114.07861328125,5479.65380859375,2427.10107421875,4688.10400390625,3546.873779296875,-4106.36279296875,-9206.9306640625,-4598.29931640625,2741.813720703125,-4476.7060546875,0.0,-5959.66943359375,0.0,-6764.72998046875,-9458.859375,4386.10693359375,-9987.3544921875,0.0,-12308.7568359375,-1043.4786376953125,0.0,-6343.5234375,0.0,5585.3525390625,-0.0,-5643.36767578125
-1387.59619140625,-2693.335205078125,12812.6142578125,-7193.88330078125,8563.9951171875,3339.44970703125,3910.859619140625,-5128.3837890625,0.0,-5026.65869140625,-1555.283935546875,-10507.1064453125,0.0,0.0,0.0,-3333.886474609375,3755.88720703125,12400.150390625,-0.0,-909.9642333984375,6380.0810546875,10180.4736328125,7709.662109375,3613.631103515625,3193.219482421875,-8061.7265625,-5137.92041015625,7808.20849609375,55.63100051879883,-1484.552978515625,11006.9912109375,-5510.6484375,9649.5947265625,8681.615234375,6162.3251953125,8827.845703125,3159.046142578125,-1279.5130615234375,6328.423828125,-0.0,5125.20458984375,-14553.0703125,2656.777587890625,13493.697265625,2981.82177734375,-6970.564453125,5153.0205078125,5455.81201171875,2419.15380859375,4693.6669921875,3546.078857421875,-4113.51513671875,-9164.810546875,-4657.904296875,2754.529296875,-4483.06396484375,0.0,-5956.4912109375,0.0,-6771.88232421875,-9450.912109375,4383.72265625,-9988.1484375,0.0,-12315.9091796875,-1037.120849609375,0.0,-6346.70263671875,0.0,5578.99462890625,-0.0,-5647.34130859375
-1406.669677734375,-2678.2353515625,12820.5615234375,-7172.42578125,8584.658203125,3364.086181640625,3908.475341796875,-5113.28369140625,0.0,-5017.916015625,-1560.846923828125,-10525.3857421875,0.0,0.0,0.0,-3318.78662109375,3767.80810546875,12412.0712890625,-0.0,-903.6064453125,6392.001953125,10197.95703125,7716.02001953125,3627.93603515625,3192.4248046875,-8020.40087890625,-5149.04638671875,7832.8447265625,53.2468147277832,-1459.1217041015625,11019.70703125,-5501.90576171875,9659.9267578125,8698.3037109375,6174.24609375,8843.7392578125,3155.867431640625,-1268.3868408203125,6327.62890625,-0.0,5141.099609375,-14522.8701171875,2658.3671875,13513.5654296875,2979.4375,-6961.02783203125,5157.78857421875,5500.31640625,2445.3798828125,4726.2509765625,3543.69482421875,-4097.62060546875,-9198.1884765625,-4618.962890625,2752.14501953125,-4478.2958984375,0.0,-5947.74853515625,0.0,-6760.755859375,-9448.5283203125,4393.259765625,-9983.3798828125,0.0,-12324.650390625,-1050.6312255859375,0.0,-6343.5234375,0.0,5588.53125,-0.0,-5633.8310546875
-1418.590576171875,-2681.414306640625,12821.3564453125,-7153.35205078125,8594.1953125,3391.10693359375,3910.859619140625,-5098.18408203125,0.0,-5009.17431640625,-1576.7415771484375,-10572.2744140625,0.0,0.0,0.0,-3306.86572265625,3773.371337890625,12421.6083984375,-0.0,-898.0433349609375,6399.15478515625,10212.26171875,7722.3779296875,3642.2412109375,3185.272216796875,-7974.30712890625,-5142.68896484375,7855.89208984375,45.299530029296875,-1513.1632080078125,11029.2431640625,-5503.49560546875,9662.310546875,8708.63671875,6181.39892578125,8859.634765625,3160.6357421875,-1254.87646484375,6312.529296875,-0.0,5146.662109375,-14499.8232421875,2662.3408203125,13533.4326171875,2981.82177734375,-6950.6962890625,5154.60986328125,5541.642578125,2455.71142578125,4762.80810546875,3546.078857421875,-4080.93115234375,-9240.3095703125,-4620.55224609375,2744.992431640625,-4442.533203125,0.0,-5938.2119140625,0.0,-6749.6298828125,-9456.4755859375,4402.001953125,-9976.2275390625,0.0,-12334.982421875,-1103.083251953125,0.0,-6334.78173828125,0.0,5595.68408203125,-0.0,-5628.267578125
-1419.38525390625,-2693.335205078125,12788.7724609375,-7151.7626953125,8577.505859375,3376.8017578125,3909.269775390625,-5108.51513671875,0.0,-5014.73779296875,-1627.6041259765625,-10573.0693359375,0.0,0.0,0.0,-3312.4287109375,3761.450439453125,12412.865234375,-0.0,-900.427490234375,6382.46533203125,10202.7255859375,7716.02001953125,3630.3203125,3161.430419921875,-7995.7646484375,-5146.662109375,7836.81884765625,22.25240135192871,-1464.684814453125,11016.5283203125,-5512.2373046875,9644.03125,8702.2783203125,6171.06787109375,8850.09765625,3160.6357421875,-1262.82373046875,6291.0712890625,-0.0,5121.23095703125,-14504.591796875,2658.3671875,13519.9228515625,2979.4375,-6955.46484375,5095.0048828125,5553.5634765625,2439.816650390625,4729.4296875,3544.489501953125,-4088.878662109375,-9248.2568359375,-4619.75732421875,2721.150634765625,-4415.51220703125,0.0,-5945.3642578125,0.0,-6755.193359375,-9468.396484375,4393.259765625,-9979.4072265625,0.0,-12330.21484375,-1074.4730224609375,0.0,-6335.57666015625,0.0,5587.73681640625,-0.0,-5637.01025390625
-1426.537841796875,-2708.43505859375,12768.904296875,-7192.29345703125,8562.4052734375,3332.297119140625,3905.29638671875,-5129.1787109375,0.0,-5025.06884765625,-1633.167236328125,-10497.5703125,0.0,0.0,0.0,-3326.73388671875,3739.197998046875,12392.203125,-0.0,-908.374755859375,6363.39208984375,10174.115234375,7701.71484375,3606.478515625,3148.71484375,-8056.16357421875,-5156.19921875,7801.0556640625,7.9472856521606445,-1473.4267578125,10997.455078125,-5531.31103515625,9623.3681640625,8675.2578125,6154.37841796875,8822.2822265625,3154.27783203125,-1281.1025390625,6270.40869140625,-0.0,5102.15771484375,-14551.48046875,2648.03564453125,13488.1337890625,2974.669189453125,-6970.564453125,5071.1630859375,5478.85888671875,2424.717041015625,4668.23583984375,3539.72119140625,-4109.54150390625,-9250.640625,-4614.1943359375,2710.8193359375,-4508.4951171875,0.0,-5961.25927734375,0.0,-6767.1142578125,-9487.4697265625,4375.77587890625,-9990.533203125,0.0,-12352.466796875,-1034.736572265625,0.0,-6344.318359375,0.0,5578.99462890625,-0.0,-5642.57275390625
-1435.27978515625,-2694.1298828125,12773.6728515625,-7204.21435546875,8566.3798828125,3325.939208984375,3907.680419921875,-5124.41015625,0.0,-5014.73779296875,-1622.0411376953125,-10503.1328125,0.0,0.0,0.0,-3314.81298828125,3736.01904296875,12389.0234375,-0.0,-899.6327514648438,6362.59716796875,10165.3740234375,7702.50927734375,3604.09423828125,3152.688232421875,-8078.416015625,-5151.4306640625,7809.00341796875,11.126200675964355,-1464.684814453125,10992.6865234375,-5535.28466796875,9623.3681640625,8668.10546875,6152.78857421875,8818.30859375,3155.867431640625,-1279.5130615234375,6271.998046875,-0.0,5106.130859375,-14576.912109375,2652.00927734375,13488.9287109375,2977.053466796875,-6964.20654296875,5079.9052734375,5470.91162109375,2428.690673828125,4673.798828125,3542.900146484375,-4103.18359375,-9261.767578125,-4539.48974609375,2713.998046875,-4510.08447265625,0.0,-5955.6962890625,0.0,-6755.193359375,-9497.8017578125,4374.98095703125,-9986.5595703125,0.0,-12362.0029296875,-1033.94189453125,0.0,-6321.271484375,0.0,5609.9892578125,-0.0,-5613.16845703125
-1432.1009521484375,-2672.67236328125,12791.1572265625,-7193.08837890625,8577.505859375,3331.502197265625,3912.448974609375,-5118.05224609375,0.0,-5002.81689453125,-1595.8150634765625,-10523.001953125,0.0,0.0,0.0,-3306.071044921875,3746.3505859375,12396.1767578125,-0.0,-891.6854858398438,6373.7236328125,10172.5263671875,7710.45703125,3611.246826171875,3170.967041015625,-8076.03173828125,-5141.099609375,7818.53955078125,29.404958724975586,-1434.485107421875,10999.8388671875,-5520.9794921875,9635.2890625,8676.8466796875,6161.53076171875,8823.0771484375,3161.430419921875,-1272.3604736328125,6285.5087890625,-0.0,5119.6416015625,-14578.501953125,2660.75146484375,13497.669921875,2984.2060546875,-6955.46484375,5105.33642578125,5501.111328125,2442.995849609375,4684.13037109375,3547.66845703125,-4095.236328125,-9253.025390625,-4483.06396484375,2729.892822265625,-4489.421875,0.0,-5953.31201171875,0.0,-6741.6826171875,-9481.9072265625,4380.5439453125,-9978.6123046875,0.0,-12338.9560546875,-1040.2998046875,0.0,-6308.5556640625,0.0,5630.65185546875,-0.0,-5587.73681640625
-1429.7166748046875,-2691.745849609375,12797.5146484375,-7200.2412109375,8580.6845703125,3335.475830078125,3910.064697265625,-5120.43603515625,0.0,-5013.94287109375,-1593.430908203125,-10507.9013671875,0.0,0.0,0.0,-3317.991943359375,3749.529541015625,12399.35546875,-0.0,-897.2485961914062,6376.90234375,10176.4990234375,7712.04638671875,3613.631103515625,3173.351318359375,-8068.0849609375,-5141.89404296875,7816.95068359375,32.5838737487793,-1467.8636474609375,11003.017578125,-5521.7744140625,9637.673828125,8675.2578125,6164.70947265625,8827.0498046875,3159.046142578125,-1273.949951171875,6293.45556640625,-0.0,5123.615234375,-14570.5537109375,2659.956787109375,13499.259765625,2982.616455078125,-6961.02783203125,5118.05224609375,5471.70654296875,2446.174560546875,4688.10400390625,3545.2841796875,-4099.21044921875,-9242.6943359375,-4624.525390625,2733.071533203125,-4485.4482421875,0.0,-5958.875,0.0,-6756.78271484375,-9485.0859375,4382.92822265625,-9983.3798828125,0.0,-12331.0087890625,-1036.3260498046875,0.0,-6338.75537109375,0.0,5599.65771484375,-0.0,-5617.9365234375
-1432.8956298828125,-2711.614013671875,12791.1572265625,-7205.00927734375,8574.326171875,3330.70751953125,3904.501708984375,-5133.15185546875,0.0,-5036.1953125,-1606.146484375,-10512.669921875,0.0,0.0,0.0,-3334.68115234375,3742.376953125,12392.203125,-0.0,-912.3484497070312,6368.955078125,10170.142578125,7703.30419921875,3605.68359375,3165.404052734375,-8065.70068359375,-5149.04638671875,7805.82421875,24.636587142944336,-1472.632080078125,10996.6591796875,-5531.31103515625,9631.31640625,8669.6943359375,6157.55712890625,8819.8974609375,3151.8935546875,-1285.870849609375,6286.30322265625,-0.0,5118.05224609375,-14570.5537109375,2653.598876953125,13489.7236328125,2974.669189453125,-6978.51171875,5109.31005859375,5466.14306640625,2437.4326171875,4685.7197265625,3540.515869140625,-4114.3095703125,-9235.541015625,-4669.03076171875,2726.7138671875,-4487.03759765625,0.0,-5970.0009765625,0.0,-6781.41943359375,-9493.033203125,4374.98095703125,-9996.0966796875,0.0,-12341.33984375,-1041.094482421875,0.0,-6383.26025390625,0.0,5554.35791015625,-0.0,-5668.798828125
-1430.511474609375,-2707.640380859375,12787.1826171875,-7199.4462890625,8570.353515625,3335.475830078125,3905.29638671875,-5126.79443359375,0.0,-5029.04248046875,-1621.246337890625,-10511.875,0.0,0.0,0.0,-3324.349609375,3744.76123046875,12393.7919921875,-0.0,-908.374755859375,6369.74951171875,10174.115234375,7704.09912109375,3610.451904296875,3155.072509765625,-8054.57421875,-5149.84130859375,7809.7978515625,15.09984302520752,-1465.4794921875,10999.0439453125,-5523.36376953125,9632.1103515625,8674.4619140625,6157.55712890625,8823.0771484375,3154.27783203125,-1282.69189453125,6282.32958984375,-0.0,5116.462890625,-14560.22265625,2654.3935546875,13496.0810546875,2976.258544921875,-6972.154296875,5098.978515625,5477.26953125,2431.86962890625,4691.28271484375,3541.310546875,-4107.1572265625,-9233.1572265625,-4619.75732421875,2717.17724609375,-4479.88525390625,0.0,-5961.25927734375,0.0,-6771.087890625,-9476.34375,4374.18603515625,-9992.9169921875,0.0,-12346.1083984375,-1041.88916015625,0.0,-6374.51806640625,0.0,5562.3056640625,-0.0,-5653.69921875
-1427.33251953125,-2693.335205078125,12786.388671875,-7194.677734375,8570.353515625,3337.860107421875,3906.091064453125,-5122.02587890625,0.0,-5021.09521484375,-1626.8094482421875,-10504.72265625,0.0,0.0,0.0,-3318.78662109375,3746.3505859375,12396.1767578125,-0.0,-903.6064453125,6368.955078125,10177.294921875,7705.6884765625,3612.836181640625,3155.072509765625,-8046.626953125,-5149.04638671875,7813.771484375,14.30511474609375,-1456.737548828125,11000.6328125,-5520.9794921875,9633.7001953125,8677.6416015625,6158.35205078125,8826.255859375,3155.867431640625,-1280.3077392578125,6282.32958984375,-0.0,5115.66796875,-14550.685546875,2654.3935546875,13498.4658203125,2977.84814453125,-6967.3857421875,5094.2099609375,5482.0380859375,2429.4853515625,4695.2568359375,3539.72119140625,-4103.978515625,-9251.435546875,-4604.65771484375,2717.17724609375,-4470.34814453125,0.0,-5953.31201171875,0.0,-6762.345703125,-9471.576171875,4377.365234375,-9988.9443359375,0.0,-12347.6982421875,-1038.710205078125,0.0,-6352.265625,0.0,5574.2265625,-0.0,-5640.9833984375
-1431.3062744140625,-2693.335205078125,12782.4140625,-7196.267578125,8569.55859375,3329.912841796875,3902.117431640625,-5132.35693359375,0.0,-5029.8369140625,-1605.351806640625,-10545.25390625,0.0,0.0,0.0,-3329.912841796875,3741.582275390625,12389.8193359375,-0.0,-910.7589721679688,6363.39208984375,10169.3466796875,7702.50927734375,3604.09423828125,3157.45654296875,-8052.9853515625,-5148.251953125,7803.43994140625,15.09984302520752,-1462.3006591796875,10993.48046875,-5530.51611328125,9626.5478515625,8672.873046875,6154.37841796875,8818.30859375,3152.688232421875,-1287.4603271484375,6280.740234375,-0.0,5110.10498046875,-14555.4541015625,2652.00927734375,13486.544921875,2974.669189453125,-6976.12744140625,5095.7998046875,5482.83251953125,2432.6640625,4683.3359375,3538.1318359375,-4113.51513671875,-9254.615234375,-4614.98876953125,2716.38232421875,-4480.68017578125,0.0,-5965.23291015625,0.0,-6771.087890625,-9481.9072265625,4373.3916015625,-9995.30078125,0.0,-12346.1083984375,-1076.0625,0.0,-6350.67626953125,0.0,5572.63720703125,-0.0,-5644.95703125
-1438.458740234375,-2680.619384765625,12780.8251953125,-7186.73095703125,8573.5322265625,3342.62841796875,3906.091064453125,-5125.99951171875,0.0,-5025.06884765625,-1617.272705078125,-10561.1484375,0.0,0.0,0.0,-3321.965576171875,3743.171630859375,12394.587890625,-0.0,-907.580078125,6368.16015625,10175.705078125,7707.27783203125,3610.451904296875,3155.867431640625,-8031.52734375,-5146.662109375,7812.97705078125,14.30511474609375,-1432.8956298828125,10996.6591796875,-5531.31103515625,9627.341796875,8677.6416015625,6157.55712890625,8825.4609375,3155.867431640625,-1281.1025390625,6281.53466796875,-0.0,5112.4892578125,-14545.123046875,2652.80419921875,13495.2861328125,2978.642822265625,-6970.564453125,5096.59423828125,5499.52197265625,2437.4326171875,4694.4619140625,3538.92626953125,-4105.56787109375,-9266.5361328125,-4601.478515625,2714.79296875,-4449.685546875,0.0,-5957.28564453125,0.0,-6763.93505859375,-9483.4970703125,4378.16015625,-9992.123046875,0.0,-12349.2880859375,-1058.5784912109375,0.0,-6337.166015625,0.0,5588.53125,-0.0,-5633.8310546875
-1443.2271728515625,-2685.387939453125,12776.8515625,-7197.85693359375,8575.1220703125,3335.475830078125,3906.091064453125,-5127.5888671875,0.0,-5025.06884765625,-1630.7830810546875,-10530.154296875,0.0,0.0,0.0,-3317.991943359375,3738.4033203125,12392.998046875,-0.0,-907.580078125,6364.98095703125,10169.3466796875,7704.09912109375,3605.68359375,3159.046142578125,-8049.8056640625,-5145.86767578125,7810.5927734375,18.278757095336914,-1456.737548828125,10993.48046875,-5539.25830078125,9623.3681640625,8668.8994140625,6155.1728515625,8820.693359375,3154.27783203125,-1281.897216796875,6275.1767578125,-0.0,5110.10498046875,-14558.6328125,2653.598876953125,13492.9013671875,2977.84814453125,-6971.359375,5091.03173828125,5486.01171875,2442.995849609375,4687.30908203125,3540.515869140625,-4107.1572265625,-9260.9716796875,-4608.63134765625,2717.17724609375,-4475.11669921875,0.0,-5957.28564453125,0.0,-6759.96142578125,-9483.4970703125,4375.77587890625,-9991.328125,0.0,-12350.876953125,-1053.015380859375,0.0,-6326.03955078125,0.0,5600.45263671875,-0.0,-5626.6787109375
-1427.33251953125,-2685.387939453125,12780.0302734375,-7203.419921875,8573.5322265625,3330.70751953125,3906.091064453125,-5126.79443359375,0.0,-5021.09521484375,-1614.8885498046875,-10497.5703125,0.0,0.0,0.0,-3315.607666015625,3739.197998046875,12392.998046875,-0.0,-905.1958618164062,6366.57080078125,10168.552734375,7705.6884765625,3606.478515625,3173.351318359375,-8066.4951171875,-5148.251953125,7808.20849609375,34.96805953979492,-1481.3741455078125,10995.0703125,-5534.490234375,9625.7529296875,8668.10546875,6157.55712890625,8820.693359375,3155.072509765625,-1284.2813720703125,6281.53466796875,-0.0,5114.07861328125,-14561.8125,2653.598876953125,13490.517578125,2977.053466796875,-6968.97509765625,5094.2099609375,5476.474609375,2435.84326171875,4682.541015625,3541.310546875,-4104.77294921875,-9243.48828125,-4602.2734375,2733.866455078125,-4500.5478515625,0.0,-5954.10693359375,0.0,-6759.16650390625,-9473.9599609375,4377.365234375,-9990.533203125,0.0,-12334.1875,-1046.6575927734375,0.0,-6319.681640625,0.0,5600.45263671875,-0.0,-5619.52587890625
-1416.206298828125,-2679.82470703125,12779.236328125,-7197.85693359375,8574.326171875,3333.886474609375,3902.912109375,-5129.1787109375,0.0,-5035.400390625,-1614.8885498046875,-10499.9541015625,0.0,0.0,0.0,-3326.73388671875,3739.197998046875,12392.203125,-0.0,-913.9378662109375,6367.365234375,10172.5263671875,7706.4833984375,3608.06787109375,3166.993408203125,-8051.3955078125,-5148.251953125,7807.41357421875,28.6102294921875,-1467.0689697265625,10997.455078125,-5528.9267578125,9625.7529296875,8675.2578125,6157.55712890625,8823.0771484375,3153.483154296875,-1285.870849609375,6279.150390625,-0.0,5115.66796875,-14551.48046875,2652.00927734375,13490.517578125,2974.669189453125,-6972.154296875,5096.59423828125,5486.80615234375,2435.04833984375,4686.51416015625,3538.1318359375,-4111.13134765625,-9248.2568359375,-4590.3525390625,2727.508544921875,-4482.26953125,0.0,-5960.46435546875,0.0,-6771.88232421875,-9467.6015625,4377.365234375,-9996.0966796875,0.0,-12339.7509765625,-1046.6575927734375,0.0,-6359.41845703125,0.0,5553.5634765625,-0.0,-5650.5205078125
-1417.0010986328125,-2681.414306640625,12785.59375,-7197.85693359375,8580.6845703125,3336.2705078125,3903.706787109375,-5129.1787109375,0.0,-5036.1953125,-1603.7623291015625,-10505.5166015625,0.0,0.0,0.0,-3327.52880859375,3741.582275390625,12392.998046875,-0.0,-917.9114990234375,6372.1337890625,10173.3203125,7707.27783203125,3608.862548828125,3174.94091796875,-8045.83251953125,-5142.68896484375,7809.00341796875,36.55751419067383,-1462.3006591796875,10997.455078125,-5529.7216796875,9630.5205078125,8676.8466796875,6159.94140625,8823.8720703125,3154.27783203125,-1284.2813720703125,6280.740234375,-0.0,5123.615234375,-14545.123046875,2655.188232421875,13489.7236328125,2975.4638671875,-6974.5380859375,5108.51513671875,5486.80615234375,2445.3798828125,4686.51416015625,3539.72119140625,-4112.720703125,-9250.640625,-4588.7626953125,2736.250732421875,-4496.57421875,0.0,-5958.080078125,0.0,-6772.6767578125,-9468.396484375,4374.98095703125,-9997.685546875,0.0,-12362.0029296875,-1049.041748046875,0.0,-6368.16015625,0.0,5551.9736328125,-0.0,-5658.4677734375
-1416.206298828125,-2671.877685546875,12793.541015625,-7185.93603515625,8588.6318359375,3345.0126953125,3905.29638671875,-5122.8203125,0.0,-5031.4267578125,-1595.8150634765625,-10495.185546875,0.0,0.0,0.0,-3322.76025390625,3748.734619140625,12400.150390625,-0.0,-914.7326049804688,6379.2861328125,10180.4736328125,7712.8408203125,3616.01513671875,3188.451171875,-8033.1162109375,-5137.92041015625,7816.1552734375,49.27317428588867,-1450.3797607421875,11005.4013671875,-5524.953125,9638.46875,8685.5888671875,6167.09375,8832.6142578125,3153.483154296875,-1279.5130615234375,6294.25048828125,-0.0,5128.3837890625,-14533.99609375,2659.956787109375,13498.4658203125,2978.642822265625,-6969.77001953125,5112.4892578125,5504.2900390625,2454.121826171875,4696.05126953125,3541.310546875,-4107.9521484375,-9240.3095703125,-4576.04736328125,2748.96630859375,-4483.06396484375,0.0,-5947.74853515625,0.0,-6770.29296875,-9465.2177734375,4381.33837890625,-9995.30078125,0.0,-12344.51953125,-1037.91552734375,0.0,-6348.2919921875,0.0,5581.37890625,-0.0,-5648.93115234375
-1421.76953125,-2665.519775390625,12789.5673828125,-7174.81005859375,8582.2744140625,3351.37060546875,3907.680419921875,-5118.05224609375,0.0,-5021.89013671875,-1608.5306396484375,-10496.775390625,0.0,0.0,0.0,-3317.197021484375,3751.913818359375,12400.9443359375,-0.0,-907.580078125,6376.90234375,10185.2421875,7712.8408203125,3619.98876953125,3173.351318359375,-8022.78515625,-5143.4833984375,7821.71923828125,34.96805953979492,-1439.25341796875,11010.169921875,-5518.59521484375,9636.87890625,8689.5625,6167.888671875,8836.5869140625,3157.45654296875,-1277.1287841796875,6297.4296875,-0.0,5119.6416015625,-14530.0224609375,2659.956787109375,13504.0283203125,2979.4375,-6964.20654296875,5102.95263671875,5514.62158203125,2444.585205078125,4703.99853515625,3541.310546875,-4100.7998046875,-9240.3095703125,-4565.7158203125,2733.071533203125,-4463.19580078125,0.0,-5942.18603515625,0.0,-6761.55078125,-9464.4228515625,4385.3125,-9988.9443359375,0.0,-12336.5712890625,-1036.3260498046875,0.0,-6336.37109375,0.0,5590.12060546875,-0.0,-5631.44677734375
-1430.511474609375,-2666.314453125,12787.978515625,-7168.45166015625,8579.0947265625,3355.343994140625,3909.269775390625,-5117.2578125,0.0,-5017.916015625,-1614.8885498046875,-10518.2333984375,0.0,0.0,0.0,-3314.81298828125,3752.70849609375,12400.150390625,-0.0,-903.6064453125,6376.10791015625,10186.8310546875,7710.45703125,3621.578125,3165.404052734375,-8008.47998046875,-5149.84130859375,7826.4873046875,25.43131446838379,-1432.1009521484375,11009.3759765625,-5519.39013671875,9636.87890625,8691.947265625,6166.29931640625,8835.79296875,3156.662109375,-1273.949951171875,6293.45556640625,-0.0,5118.05224609375,-14530.0224609375,2657.572509765625,13506.412109375,2979.4375,-6961.822265625,5102.95263671875,5528.9267578125,2439.02197265625,4711.1513671875,3542.10546875,-4097.62060546875,-9245.8720703125,-4580.02099609375,2725.9189453125,-4452.8642578125,0.0,-5942.98046875,0.0,-6758.3720703125,-9469.19140625,4384.517578125,-9987.3544921875,0.0,-12347.6982421875,-1049.8365478515625,0.0,-6330.80810546875,0.0,5598.068359375,-0.0,-5619.52587890625
-1440.0482177734375,-2675.85107421875,12787.978515625,-7184.3466796875,8575.916015625,3348.986328125,3905.29638671875,-5121.23095703125,0.0,-5025.06884765625,-1613.299072265625,-10524.5908203125,0.0,0.0,0.0,-3314.81298828125,3748.734619140625,12396.1767578125,-0.0,-908.374755859375,6373.7236328125,10180.4736328125,7708.07275390625,3616.01513671875,3166.19873046875,-8029.9375,-5149.84130859375,7820.923828125,27.02077293395996,-1455.1480712890625,11004.607421875,-5525.74755859375,9635.2890625,8682.41015625,6161.53076171875,8829.4345703125,3153.483154296875,-1277.923583984375,6280.740234375,-0.0,5116.462890625,-14547.5068359375,2655.188232421875,13501.64453125,2977.84814453125,-6968.97509765625,5099.7734375,5505.8798828125,2435.04833984375,4702.4091796875,3540.515869140625,-4102.388671875,-9250.640625,-4595.12109375,2726.7138671875,-4461.6064453125,0.0,-5951.72265625,0.0,-6763.14013671875,-9477.138671875,4378.16015625,-9991.328125,0.0,-12341.33984375,-1057.78369140625,0.0,-6341.13916015625,0.0,5601.2470703125,-0.0,-5620.32080078125
-1458.326904296875,-2697.308837890625,12776.8515625,-7215.34130859375,8566.3798828125,3327.52880859375,3899.7333984375,-5133.94677734375,0.0,-5036.1953125,-1626.0146484375,-10504.72265625,0.0,0.0,0.0,-3326.73388671875,3732.04541015625,12382.6669921875,-0.0,-912.3484497070312,6361.802734375,10161.3994140625,7700.125,3602.504638671875,3151.8935546875,-8079.21142578125,-5154.60986328125,7805.029296875,14.30511474609375,-1494.884521484375,10989.5068359375,-5543.23193359375,9621.779296875,8660.9521484375,6151.994140625,8811.951171875,3149.509521484375,-1289.844482421875,6267.2294921875,-0.0,5106.92578125,-14579.2958984375,2648.830322265625,13485.7490234375,2972.284912109375,-6980.10107421875,5088.6474609375,5464.5537109375,2427.10107421875,4681.74609375,3537.337158203125,-4114.3095703125,-9266.5361328125,-4614.1943359375,2713.203369140625,-4482.26953125,0.0,-5963.6435546875,0.0,-6775.85595703125,-9489.0595703125,4367.03369140625,-10000.0693359375,0.0,-12350.08203125,-1058.5784912109375,0.0,-6352.265625,0.0,5588.53125,-0.0,-5629.0625
-1462.3006591796875,-2689.361572265625,12784.798828125,-7198.65185546875,8573.5322265625,3338.65478515625,3905.29638671875,-5126.79443359375,0.0,-5030.6318359375,-1631.577880859375,-10500.7490234375,0.0,0.0,0.0,-3317.991943359375,3742.376953125,12392.998046875,-0.0,-907.580078125,6369.74951171875,10171.7314453125,7706.4833984375,3612.04150390625,3154.27783203125,-8062.52197265625,-5149.84130859375,7816.1552734375,13.51038646697998,-1468.658447265625,10998.2490234375,-5534.490234375,9630.5205078125,8671.2841796875,6158.35205078125,8821.4873046875,3154.27783203125,-1280.3077392578125,6276.76611328125,-0.0,5113.28369140625,-14565.78515625,2653.598876953125,13497.669921875,2977.053466796875,-6975.33251953125,5098.18408203125,5489.1904296875,2431.074951171875,4695.2568359375,3542.10546875,-4106.36279296875,-9265.740234375,-4591.94189453125,2714.79296875,-4468.75927734375,0.0,-5952.51708984375,0.0,-6770.29296875,-9480.3173828125,4374.98095703125,-9993.712890625,0.0,-12366.771484375,-1042.6839599609375,0.0,-6338.75537109375,0.0,5594.88916015625,-0.0,-5630.65185546875
-1444.0218505859375,-2671.877685546875,12807.0517578125,-7170.8359375,8592.60546875,3364.086181640625,3914.8330078125,-5107.720703125,0.0,-5016.3271484375,-1614.09375,-10470.5498046875,0.0,0.0,0.0,-3297.328857421875,3766.218994140625,12415.25,-0.0,-896.453857421875,6390.41259765625,10198.751953125,7724.76171875,3632.70458984375,3175.7353515625,-8028.34814453125,-5133.15185546875,7839.9970703125,34.96805953979492,-1433.6904296875,11022.8857421875,-5509.853515625,9652.7734375,8697.509765625,6178.22021484375,8846.1240234375,3166.19873046875,-1262.029052734375,6305.37646484375,-0.0,5134.7412109375,-14539.5595703125,2667.90380859375,13519.1279296875,2987.384765625,-6957.05419921875,5125.99951171875,5520.18505859375,2448.558837890625,4719.89306640625,3546.873779296875,-4086.494384765625,-9226.798828125,-4558.5634765625,2735.455810546875,-4444.9169921875,0.0,-5931.8544921875,0.0,-6752.01416015625,-9456.4755859375,4393.259765625,-9980.2021484375,0.0,-12350.876953125,-1000.5632934570312,0.0,-6323.65576171875,0.0,5596.47900390625,-0.0,-5622.705078125
-1427.33251953125,-2669.493408203125,12798.3095703125,-7171.630859375,8589.4267578125,3360.112548828125,3910.859619140625,-5110.10498046875,0.0,-5021.09521484375,-1601.3780517578125,-10473.728515625,0.0,0.0,0.0,-3300.5078125,3763.039794921875,12412.865234375,-0.0,-904.401123046875,6387.23388671875,10196.3681640625,7723.1728515625,3630.3203125,3173.351318359375,-8026.75927734375,-5133.94677734375,7836.81884765625,32.5838737487793,-1431.3062744140625,11018.912109375,-5512.2373046875,9649.5947265625,8695.919921875,6175.8359375,8843.7392578125,3162.22509765625,-1263.618408203125,6300.6083984375,-0.0,5129.97314453125,-14539.5595703125,2665.519775390625,13517.5390625,2982.616455078125,-6961.822265625,5113.28369140625,5518.59521484375,2449.353515625,4716.71435546875,3543.69482421875,-4088.083740234375,-9224.4150390625,-4556.17919921875,2734.6611328125,-4456.837890625,0.0,-5934.23828125,0.0,-6752.01416015625,-9458.0654296875,4390.0810546875,-9984.17578125,0.0,-12341.33984375,-991.8212890625,0.0,-6340.3447265625,0.0,5571.84228515625,-0.0,-5640.9833984375
-1415.41162109375,-2647.240966796875,12790.3623046875,-7163.68359375,8584.658203125,3364.880859375,3907.680419921875,-5107.720703125,0.0,-5021.89013671875,-1591.84130859375,-10468.1650390625,0.0,0.0,0.0,-3298.91845703125,3763.834716796875,12412.0712890625,-0.0,-903.6064453125,6384.0546875,10197.95703125,7721.5830078125,3631.90966796875,3166.993408203125,-8017.22216796875,-5141.099609375,7840.79248046875,26.226043701171875,-1420.179931640625,11017.322265625,-5509.853515625,9645.62109375,8699.099609375,6173.45166015625,8846.1240234375,3159.8408203125,-1263.618408203125,6295.04541015625,-0.0,5122.02587890625,-14534.791015625,2662.3408203125,13520.7177734375,2979.4375,-6961.02783203125,5095.7998046875,5535.28466796875,2444.585205078125,4723.072265625,3542.900146484375,-4086.494384765625,-9238.7197265625,-4528.36376953125,2729.09814453125,-4457.63232421875,0.0,-5934.23828125,0.0,-6749.6298828125,-9455.6806640625,4390.87548828125,-9984.9697265625,0.0,-12339.7509765625,-1002.9474487304688,0.0,-6326.03955078125,0.0,5590.91552734375,-0.0,-5636.21533203125
-1402.696044921875,-2633.730712890625,12807.0517578125,-7150.17333984375,8588.6318359375,3371.23876953125,3908.475341796875,-5106.92578125,0.0,-5025.06884765625,-1630.7830810546875,-10454.654296875,0.0,0.0,0.0,-3301.302734375,3773.371337890625,12416.83984375,-0.0,-904.401123046875,6392.796875,10205.9052734375,7723.96728515625,3635.88330078125,3160.6357421875,-8002.1220703125,-5141.89404296875,7843.97119140625,19.073486328125,-1406.669677734375,11025.26953125,-5499.52197265625,9655.9521484375,8707.8408203125,6180.6044921875,8849.3037109375,3159.8408203125,-1262.82373046875,6310.14501953125,-0.0,5135.5361328125,-14526.0498046875,2661.5458984375,13523.896484375,2978.642822265625,-6961.822265625,5125.20458984375,5557.537109375,2442.995849609375,4729.4296875,3542.10546875,-4087.289306640625,-9256.9990234375,-4489.421875,2721.150634765625,-4463.19580078125,0.0,-5937.41748046875,0.0,-6755.193359375,-9446.9384765625,4394.84912109375,-9985.7646484375,0.0,-12371.5400390625,-1014.868408203125,0.0,-6322.06591796875,0.0,5598.86328125,-0.0,-5633.8310546875
-1420.179931640625,-2671.877685546875,12789.5673828125,-7162.09423828125,8581.4794921875,3368.8544921875,3905.29638671875,-5114.87353515625,0.0,-5031.4267578125,-1634.7567138671875,-10499.9541015625,0.0,0.0,0.0,-3309.25,3759.861083984375,12408.892578125,-0.0,-909.9642333984375,6383.26025390625,10197.95703125,7717.609375,3628.730712890625,3157.45654296875,-7986.22802734375,-5145.07275390625,7836.81884765625,15.894571304321289,-1449.5849609375,11014.9384765625,-5516.2109375,9644.03125,8697.509765625,6173.45166015625,8842.9453125,3155.072509765625,-1269.976318359375,6304.58203125,-0.0,5125.20458984375,-14528.43359375,2657.572509765625,13515.94921875,2975.4638671875,-6968.97509765625,5108.51513671875,5532.900390625,2438.227294921875,4726.2509765625,3539.72119140625,-4094.44189453125,-9296.734375,-4567.30517578125,2716.38232421875,-4486.24267578125,0.0,-5951.72265625,0.0,-6763.14013671875,-9465.2177734375,4388.4912109375,-9992.123046875,0.0,-12401.740234375,-1049.041748046875,0.0,-6334.78173828125,0.0,5597.2734375,-0.0,-5644.95703125
-1429.7166748046875,-2695.719482421875,12795.9248046875,-7172.42578125,8585.453125,3368.059814453125,3906.091064453125,-5118.05224609375,0.0,-5033.01611328125,-1605.351806640625,-10545.25390625,0.0,0.0,0.0,-3314.018310546875,3754.2978515625,12407.302734375,-0.0,-912.3484497070312,6382.46533203125,10193.1884765625,7716.814453125,3627.93603515625,3166.993408203125,-7988.6123046875,-5143.4833984375,7834.4345703125,23.047128677368164,-1458.326904296875,11013.3486328125,-5524.15869140625,9642.44140625,8691.1513671875,6173.45166015625,8841.35546875,3153.483154296875,-1271.5657958984375,6297.4296875,-0.0,5128.3837890625,-14531.6123046875,2659.161865234375,13515.94921875,2976.258544921875,-6972.154296875,5112.4892578125,5509.853515625,2442.995849609375,4729.4296875,3539.72119140625,-4099.21044921875,-9276.8671875,-4625.3203125,2725.9189453125,-4457.63232421875,0.0,-5951.72265625,0.0,-6771.087890625,-9476.34375,4386.90185546875,-9992.9169921875,0.0,-12363.5927734375,-1069.7047119140625,0.0,-6331.6025390625,0.0,5602.83642578125,-0.0,-5633.0361328125
-1432.1009521484375,-2685.387939453125,12785.59375,-7200.2412109375,8579.890625,3335.475830078125,3905.29638671875,-5129.97314453125,0.0,-5035.400390625,-1618.0673828125,-10478.49609375,0.0,0.0,0.0,-3320.376220703125,3743.96630859375,12395.3818359375,-0.0,-913.1431884765625,6372.9287109375,10172.5263671875,7711.251953125,3612.04150390625,3167.788330078125,-8080.005859375,-5143.4833984375,7814.56640625,23.84185791015625,-1450.3797607421875,11000.6328125,-5531.31103515625,9632.9052734375,8673.66796875,6163.9150390625,8822.2822265625,3152.688232421875,-1281.897216796875,6289.48193359375,-0.0,5120.43603515625,-14576.1171875,2656.777587890625,13496.0810546875,2976.258544921875,-6976.92236328125,5097.38916015625,5484.42236328125,2441.40625,4690.48828125,3539.72119140625,-4107.9521484375,-9249.05078125,-4592.73681640625,2725.9189453125,-4460.8115234375,0.0,-5954.9013671875,0.0,-6774.2666015625,-9473.1650390625,4375.77587890625,-9996.0966796875,0.0,-12323.0615234375,-1040.2998046875,0.0,-6339.5498046875,0.0,5604.42578125,-0.0,-5629.0625
-1445.611328125,-2673.467041015625,12788.7724609375,-7191.4990234375,8584.658203125,3341.833740234375,3906.8857421875,-5125.20458984375,0.0,-5033.01611328125,-1614.8885498046875,-10469.75390625,0.0,0.0,0.0,-3318.78662109375,3751.118896484375,12400.150390625,-0.0,-910.7589721679688,6376.10791015625,10180.4736328125,7716.02001953125,3616.01513671875,3171.76171875,-8061.7265625,-5141.099609375,7819.3349609375,28.6102294921875,-1443.2271728515625,11005.4013671875,-5525.74755859375,9640.0576171875,8681.615234375,6168.68359375,8827.0498046875,3155.867431640625,-1278.7183837890625,6290.27685546875,-0.0,5124.41015625,-14567.375,2658.3671875,13500.0546875,2979.4375,-6973.74365234375,5099.7734375,5499.52197265625,2444.585205078125,4697.64111328125,3541.310546875,-4105.56787109375,-9241.1044921875,-4580.81591796875,2731.482177734375,-4456.837890625,0.0,-5952.51708984375,0.0,-6772.6767578125,-9470.7802734375,4382.13330078125,-9994.5068359375,0.0,-12324.650390625,-1041.88916015625,0.0,-6341.93408203125,0.0,5599.65771484375,-0.0,-5640.1884765625
-1482.1688232421875,-2667.109130859375,12810.23046875,-7168.45166015625,8598.16796875,3369.649169921875,3910.064697265625,-5111.6943359375,0.0,-5025.86376953125,-1621.246337890625,-10494.3916015625,0.0,0.0,0.0,-3308.455322265625,3766.218994140625,12413.6611328125,-0.0,-903.6064453125,6392.796875,10199.546875,7726.35107421875,3633.4990234375,3169.377685546875,-8012.4541015625,-5137.12548828125,7843.1767578125,27.02077293395996,-1428.1273193359375,11021.296875,-5513.0322265625,9654.3623046875,8699.8935546875,6182.19384765625,8844.53515625,3162.22509765625,-1266.79736328125,6306.17138671875,-0.0,5142.68896484375,-14541.1494140625,2664.72509765625,13520.7177734375,2983.4111328125,-6967.3857421875,5129.97314453125,5524.15869140625,2451.737548828125,4732.60888671875,3546.078857421875,-4090.468017578125,-9274.482421875,-4572.8681640625,2729.09814453125,-4421.0751953125,0.0,-5934.23828125,0.0,-6764.72998046875,-9470.7802734375,4394.05419921875,-9985.7646484375,0.0,-12358.029296875,-1047.4522705078125,0.0,-6337.9609375,0.0,5606.81005859375,-0.0,-5635.42041015625
-1456.737548828125,-2663.93017578125,12837.2509765625,-7154.146484375,8617.2421875,3374.41748046875,3915.6279296875,-5108.51513671875,0.0,-5026.65869140625,-1575.94677734375,-10516.6435546875,0.0,0.0,0.0,-3308.455322265625,3781.318603515625,12423.9921875,-0.0,-902.0169677734375,6410.28076171875,10210.6728515625,7733.50390625,3639.062255859375,3193.219482421875,-8002.91748046875,-5130.767578125,7844.765625,48.47844314575195,-1399.51708984375,11034.806640625,-5498.7275390625,9674.2314453125,8711.814453125,6195.7041015625,8854.0712890625,3166.19873046875,-1262.029052734375,6330.80810546875,-0.0,5166.53076171875,-14532.4072265625,2674.26171875,13524.69140625,2987.384765625,-6965.00146484375,5176.8623046875,5542.43701171875,2469.221923828125,4735.7880859375,3550.052734375,-4090.468017578125,-9255.4091796875,-4572.8681640625,2752.14501953125,-4440.14892578125,0.0,-5947.74853515625,0.0,-6767.90869140625,-9467.6015625,4399.61767578125,-9980.99609375,0.0,-12380.2822265625,-1057.78369140625,0.0,-6343.5234375,0.0,5594.0947265625,-0.0,-5645.751953125
-1424.9483642578125,-2664.72509765625,12815.79296875,-7146.19970703125,8608.5,3376.007080078125,3912.448974609375,-5109.31005859375,0.0,-5030.6318359375,-1595.020263671875,-10512.669921875,0.0,0.0,0.0,-3308.455322265625,3777.344970703125,12421.6083984375,-0.0,-906.7853393554688,6402.33349609375,10211.4677734375,7728.7353515625,3639.062255859375,3173.351318359375,-8012.4541015625,-5137.12548828125,7847.14990234375,32.5838737487793,-1401.1064453125,11031.6279296875,-5502.70068359375,9663.8994140625,8713.404296875,6188.55126953125,8854.0712890625,3162.22509765625,-1264.4132080078125,6316.5029296875,-0.0,5152.2255859375,-14522.0751953125,2667.109130859375,13525.486328125,2981.82177734375,-6965.00146484375,5129.97314453125,5563.89453125,2456.506103515625,4737.376953125,3546.078857421875,-4090.468017578125,-9237.92578125,-4568.10009765625,2733.866455078125,-4446.50634765625,0.0,-5980.3330078125,0.0,-6769.49853515625,-9461.2431640625,4395.6435546875,-9982.5859375,0.0,-12374.71875,-1025.199951171875,0.0,-6348.2919921875,0.0,5588.53125,-0.0,-5652.10986328125
-1405.0802001953125,-2667.109130859375,12803.8720703125,-7133.48388671875,8613.2685546875,3392.6962890625,3914.8330078125,-5093.41552734375,0.0,-5021.09521484375,-1629.98828125,-10511.875,0.0,0.0,0.0,-3283.02392578125,3779.729248046875,12427.1708984375,-0.0,-900.427490234375,6402.33349609375,10221.0048828125,7735.09375,3648.598876953125,3145.53564453125,-8031.52734375,-5133.15185546875,7872.58154296875,4.76837158203125,-1494.0897216796875,11034.01171875,-5503.49560546875,9657.5419921875,8720.5576171875,6192.525390625,8863.6083984375,3165.404052734375,-1254.87646484375,6306.96630859375,-0.0,5149.04638671875,-14495.849609375,2672.67236328125,13541.380859375,2985.795166015625,-6955.46484375,5098.978515625,5582.173828125,2450.1484375,4755.65576171875,3548.463134765625,-4071.39453125,-9230.7734375,-4574.45751953125,2705.256103515625,-4474.32177734375,0.0,-5939.8017578125,0.0,-6753.603515625,-9457.2705078125,4402.79638671875,-9976.2275390625,0.0,-12362.0029296875,-1093.5465087890625,0.0,-6337.9609375,0.0,5604.42578125,-0.0,-5640.9833984375
-1401.1064453125,-2675.056396484375,12819.7666015625,-7156.53076171875,8641.083984375,3366.47021484375,3910.859619140625,-5119.6416015625,0.0,-5036.98974609375,-1597.404541015625,-10497.5703125,0.0,0.0,0.0,-3312.4287109375,3773.371337890625,12417.6337890625,-0.0,-913.1431884765625,6407.10205078125,10207.494140625,7731.91455078125,3628.730712890625,3121.69384765625,-8055.369140625,-5120.43603515625,7825.6923828125,-25.43131446838379,-1525.87890625,11028.44921875,-5513.0322265625,9660.720703125,8705.45703125,6194.11474609375,8848.5078125,3163.814453125,-1271.5657958984375,6306.96630859375,-0.0,5172.88818359375,-14507.7705078125,2679.0302734375,13512.7705078125,2984.2060546875,-6973.74365234375,5127.5888671875,5531.31103515625,2472.400634765625,4697.64111328125,3546.078857421875,-4099.21044921875,-9229.9775390625,-4581.6103515625,2678.2353515625,-4532.33740234375,0.0,-5961.25927734375,0.0,-6773.4716796875,-9469.19140625,4393.259765625,-9988.9443359375,0.0,-12406.5087890625,-1077.6519775390625,0.0,-6348.2919921875,0.0,5584.55810546875,-0.0,-5660.05712890625
-1424.1536865234375,-2675.85107421875,12811.8203125,-7193.88330078125,8654.5947265625,3333.886474609375,3910.064697265625,-5139.509765625,0.0,-5047.3212890625,-1706.2822265625,-10506.3125,0.0,0.0,0.0,-3350.57568359375,3759.861083984375,12408.892578125,-0.0,-919.5009765625,6408.69140625,10185.2421875,7729.5302734375,3613.631103515625,3135.9990234375,-8052.18994140625,-5124.41015625,7789.9296875,-12.715657234191895,-1380.443603515625,11017.322265625,-5525.74755859375,9651.978515625,8684.7939453125,6192.525390625,8828.6396484375,3160.6357421875,-1285.076171875,6283.9189453125,-0.0,5195.140625,-14558.6328125,2675.85107421875,13484.955078125,2981.02685546875,-6986.45947265625,5097.38916015625,5475.6796875,2485.1162109375,4666.646484375,3542.900146484375,-4127.025390625,-9297.5302734375,-4558.5634765625,2691.745849609375,-4467.16943359375,0.0,-5977.15380859375,0.0,-6792.54541015625,-9469.19140625,4386.10693359375,-9998.48046875,0.0,-12432.734375,-1035.5313720703125,0.0,-6361.0078125,0.0,5568.6630859375,-0.0,-5668.00439453125
-1456.737548828125,-2679.0302734375,12778.44140625,-7193.08837890625,8613.2685546875,3326.73388671875,3909.269775390625,-5132.35693359375,0.0,-5032.22119140625,-1690.3876953125,-10501.5439453125,0.0,0.0,0.0,-3327.52880859375,3744.76123046875,12396.9716796875,-0.0,-909.9642333984375,6383.26025390625,10174.115234375,7715.22509765625,3608.862548828125,3133.61474609375,-8021.99072265625,-5150.63623046875,7804.23486328125,-5.563100337982178,-1412.2327880859375,11002.22265625,-5536.87451171875,9629.7265625,8676.8466796875,6175.041015625,8820.693359375,3158.25146484375,-1283.4866943359375,6252.92431640625,-0.0,5141.89404296875,-14585.654296875,2658.3671875,13488.1337890625,2978.642822265625,-6976.12744140625,5068.77880859375,5512.2373046875,2453.3271484375,4682.541015625,3542.10546875,-4116.69384765625,-9367.4658203125,-4576.04736328125,2694.924560546875,-4458.42724609375,0.0,-5963.6435546875,0.0,-6774.2666015625,-9466.01171875,4378.16015625,-9993.712890625,0.0,-12368.361328125,-1036.3260498046875,0.0,-6346.70263671875,0.0,5590.12060546875,-0.0,-5644.16259765625
-1419.38525390625,-2666.314453125,12843.6083984375,-7177.98876953125,8574.326171875,3350.57568359375,3914.0380859375,-5115.66796875,0.0,-5014.73779296875,-1560.05224609375,-10434.787109375,0.0,0.0,0.0,-3305.276123046875,3765.424072265625,12408.09765625,-0.0,-897.2485961914062,6391.20703125,10191.599609375,7717.609375,3623.167724609375,3178.11962890625,-8054.57421875,-5149.84130859375,7824.103515625,37.35224533081055,-1489.3214111328125,11018.1171875,-5511.44287109375,9662.310546875,8694.3310546875,6173.45166015625,8834.998046875,3162.22509765625,-1269.976318359375,6315.7080078125,-0.0,5125.99951171875,-14554.66015625,2659.161865234375,13508.796875,2985.00048828125,-6958.6435546875,5172.09375,5511.44287109375,2433.458984375,4703.99853515625,3547.66845703125,-4097.62060546875,-9264.9462890625,-4577.63671875,2739.429443359375,-4529.158203125,0.0,-5951.72265625,0.0,-6753.603515625,-9449.322265625,4386.90185546875,-9981.791015625,0.0,-12354.056640625,-997.3843994140625,0.0,-6342.72900390625,0.0,5603.63134765625,-0.0,-5639.39404296875
-1419.38525390625,-2665.519775390625,12808.640625,-7156.53076171875,8575.916015625,3402.233154296875,3914.0380859375,-5094.2099609375,0.0,-5013.94287109375,-1618.8621826171875,-10495.185546875,0.0,0.0,0.0,-3294.94482421875,3770.1923828125,12420.0185546875,-0.0,-897.2485961914062,6391.20703125,10213.8515625,7723.96728515625,3647.009521484375,3156.662109375,-7990.99658203125,-5147.45703125,7867.0185546875,15.894571304321289,-1507.6002197265625,11029.2431640625,-5511.44287109375,9653.568359375,8709.4306640625,6178.22021484375,8860.4287109375,3162.22509765625,-1254.081787109375,6293.45556640625,-0.0,5124.41015625,-14503.796875,2661.5458984375,13544.5595703125,2985.00048828125,-6949.9013671875,5072.75244140625,5524.15869140625,2431.074951171875,4774.7294921875,3548.463134765625,-4076.957763671875,-9256.2041015625,-4584.7890625,2716.38232421875,-4508.4951171875,0.0,-5925.49658203125,0.0,-6752.01416015625,-9460.44921875,4398.02783203125,-9976.2275390625,0.0,-12282.53125,-1098.31494140625,0.0,-6341.93408203125,0.0,5596.47900390625,-0.0,-5644.16259765625
-1444.816650390625,-2688.56689453125,12759.3681640625,-7182.7568359375,8583.068359375,3387.13330078125,3907.680419921875,-5107.720703125,0.0,-5027.453125,-1636.34619140625,-10563.533203125,0.0,0.0,0.0,-3314.018310546875,3748.734619140625,12404.1240234375,-0.0,-907.580078125,6373.7236328125,10192.39453125,7716.814453125,3631.90966796875,3164.609130859375,-8037.884765625,-5141.89404296875,7855.09765625,15.894571304321289,-1471.83740234375,11009.3759765625,-5536.87451171875,9623.3681640625,8685.5888671875,6169.47802734375,8846.1240234375,3155.867431640625,-1266.002685546875,6256.8984375,-0.0,5118.05224609375,-14523.6650390625,2659.956787109375,13527.8701171875,2977.84814453125,-6962.6171875,5067.98388671875,5486.01171875,2454.916748046875,4754.06640625,3542.900146484375,-4090.468017578125,-9273.6884765625,-4607.83642578125,2721.150634765625,-4485.4482421875,0.0,-5921.5224609375,0.0,-6767.1142578125,-9492.23828125,4386.10693359375,-9987.3544921875,0.0,-12412.0712890625,-1131.6934814453125,0.0,-6337.9609375,0.0,5582.96826171875,-0.0,-5643.36767578125
-1442.432373046875,-2680.619384765625,12762.546875,-7201.83056640625,8568.763671875,3315.607666015625,3900.52783203125,-5143.4833984375,0.0,-5036.98974609375,-1653.8302001953125,-10464.19140625,0.0,0.0,0.0,-3345.807373046875,3737.608642578125,12381.87109375,-0.0,-915.52734375,6361.0078125,10164.578125,7700.919921875,3598.531005859375,3166.19873046875,-8126.099609375,-5151.4306640625,7779.59814453125,27.815500259399414,-1435.27978515625,10991.0966796875,-5543.23193359375,9617.0107421875,8671.2841796875,6155.1728515625,8811.15625,3149.509521484375,-1295.4075927734375,6257.69287109375,-0.0,5108.51513671875,-14561.8125,2648.830322265625,13473.0341796875,2973.874267578125,-6982.4853515625,5080.69970703125,5460.58056640625,2433.458984375,4644.39404296875,3538.92626953125,-4130.20458984375,-9280.0458984375,-4574.45751953125,2729.09814453125,-4467.96435546875,0.0,-5973.974609375,0.0,-6783.80322265625,-9481.1123046875,4367.03369140625,-9999.275390625,0.0,-12394.587890625,-985.4635009765625,0.0,-6342.72900390625,0.0,5576.6103515625,-0.0,-5644.95703125
-1420.9747314453125,-2667.90380859375,12762.546875,-7150.17333984375,8555.2529296875,3340.244384765625,3903.706787109375,-5125.20458984375,0.0,-5025.86376953125,-1626.0146484375,-10492.8017578125,0.0,0.0,0.0,-3328.3232421875,3754.2978515625,12395.3818359375,-0.0,-905.1958618164062,6361.802734375,10191.599609375,7705.6884765625,3616.01513671875,3152.688232421875,-8037.884765625,-5156.19921875,7801.0556640625,14.30511474609375,-1501.2423095703125,11006.1962890625,-5524.953125,9624.9580078125,8699.8935546875,6159.14697265625,8834.203125,3153.483154296875,-1281.1025390625,6270.40869140625,-0.0,5095.0048828125,-14502.2080078125,2649.625,13492.107421875,2977.053466796875,-6967.3857421875,5076.7265625,5509.05859375,2411.20654296875,4676.18310546875,3540.515869140625,-4111.92578125,-9246.6669921875,-4560.947265625,2714.79296875,-4490.216796875,0.0,-5983.51123046875,0.0,-6766.3193359375,-9447.7333984375,4378.95458984375,-9989.73828125,0.0,-12286.50390625,-1030.7630615234375,0.0,-6334.78173828125,0.0,5589.326171875,-0.0,-5639.39404296875
-1434.485107421875,-2686.977294921875,12788.7724609375,-7171.630859375,8587.04296875,3339.44970703125,3908.475341796875,-5117.2578125,0.0,-5025.06884765625,-1622.8358154296875,-10488.828125,0.0,0.0,0.0,-3321.965576171875,3754.2978515625,12399.35546875,-0.0,-906.7853393554688,6376.10791015625,10186.8310546875,7715.22509765625,3618.3994140625,3157.45654296875,-8037.09033203125,-5137.92041015625,7816.1552734375,14.30511474609375,-1472.632080078125,11006.9912109375,-5527.33740234375,9634.4951171875,8691.1513671875,6169.47802734375,8834.203125,3158.25146484375,-1277.1287841796875,6280.740234375,-0.0,5122.02587890625,-14518.8974609375,2661.5458984375,13498.4658203125,2980.232177734375,-6962.6171875,5109.31005859375,5465.3486328125,2432.6640625,4681.74609375,3544.489501953125,-4102.388671875,-9266.5361328125,-4597.5048828125,2717.17724609375,-4483.8583984375,0.0,-5985.8955078125,0.0,-6764.72998046875,-9458.859375,4382.13330078125,-9988.1484375,0.0,-12352.466796875,-1039.5050048828125,0.0,-6341.93408203125,0.0,5577.4052734375,-0.0,-5647.34130859375
-1451.9691162109375,-2686.1826171875,12792.74609375,-7206.5986328125,8615.6533203125,3333.886474609375,3910.859619140625,-5113.28369140625,0.0,-5022.6845703125,-1614.09375,-10501.5439453125,0.0,0.0,0.0,-3317.991943359375,3745.555908203125,12397.765625,-0.0,-905.9906005859375,6380.8759765625,10170.9365234375,7719.19873046875,3617.6044921875,3140.767333984375,-8030.73193359375,-5128.3837890625,7826.4873046875,2.384185791015625,-1419.38525390625,11001.427734375,-5535.28466796875,9633.7001953125,8673.66796875,6175.041015625,8826.255859375,3162.22509765625,-1274.74462890625,6280.740234375,-0.0,5133.15185546875,-14562.6064453125,2670.2880859375,13501.64453125,2981.82177734375,-6961.02783203125,5117.2578125,5482.0380859375,2419.948486328125,4690.48828125,3548.463134765625,-4095.236328125,-9256.2041015625,-4579.22607421875,2703.666748046875,-4457.63232421875,0.0,-5959.66943359375,0.0,-6763.14013671875,-9476.34375,4382.13330078125,-9985.7646484375,0.0,-12406.5087890625,-1053.015380859375,0.0,-6348.2919921875,0.0,5576.6103515625,-0.0,-5643.36767578125
-1460.711181640625,-2678.2353515625,12745.0625,-7170.8359375,8612.4736328125,3357.728271484375,3911.654052734375,-5112.4892578125,0.0,-5017.916015625,-1644.29345703125,-10534.9228515625,0.0,0.0,0.0,-3320.376220703125,3745.555908203125,12404.1240234375,-0.0,-900.427490234375,6372.1337890625,10189.2158203125,7721.5830078125,3623.96240234375,3107.388671875,-8010.06982421875,-5132.35693359375,7826.4873046875,-30.19968605041504,-1472.632080078125,11005.4013671875,-5533.6953125,9615.4208984375,8687.1787109375,6175.8359375,8838.1767578125,3163.814453125,-1269.181640625,6251.3349609375,-0.0,5106.130859375,-14518.8974609375,2669.493408203125,13512.7705078125,2984.2060546875,-6958.6435546875,5040.1689453125,5513.82666015625,2409.6171875,4717.5087890625,3547.66845703125,-4098.41552734375,-9265.740234375,-4588.7626953125,2669.493408203125,-4459.22216796875,0.0,-5941.39111328125,0.0,-6757.57763671875,-9479.5224609375,4386.10693359375,-9981.791015625,0.0,-12354.8505859375,-1039.5050048828125,0.0,-6344.318359375,0.0,5586.9423828125,-0.0,-5631.44677734375
-1469.4532470703125,-2675.056396484375,12738.705078125,-7191.4990234375,8562.4052734375,3346.602294921875,3904.501708984375,-5122.8203125,0.0,-5023.4794921875,-1643.498779296875,-10505.5166015625,0.0,0.0,0.0,-3321.1708984375,3733.635009765625,12389.8193359375,-0.0,-906.7853393554688,6353.06005859375,10174.91015625,7704.8935546875,3613.631103515625,3137.58837890625,-8027.5537109375,-5166.53076171875,7817.7451171875,-1.5894571542739868,-1423.35888671875,10993.48046875,-5541.642578125,9605.08984375,8674.4619140625,6156.7626953125,8824.666015625,3154.27783203125,-1279.5130615234375,6247.36181640625,-0.0,5079.9052734375,-14549.095703125,2646.4462890625,13501.64453125,2977.84814453125,-6965.7958984375,5053.67919921875,5507.46923828125,2411.20654296875,4715.91943359375,3540.515869140625,-4109.54150390625,-9280.0458984375,-4552.20556640625,2696.51416015625,-4478.2958984375,0.0,-5939.8017578125,0.0,-6762.345703125,-9495.41796875,4372.5966796875,-9990.533203125,0.0,-12341.33984375,-1056.989013671875,0.0,-6345.11328125,0.0,5588.53125,-0.0,-5640.9833984375
-1459.91650390625,-2655.98291015625,12777.646484375,-7196.267578125,8540.1533203125,3329.912841796875,3905.29638671875,-5125.99951171875,0.0,-5020.30029296875,-1629.193603515625,-10465.78125,0.0,0.0,0.0,-3321.965576171875,3740.78759765625,12384.255859375,-0.0,-902.8117065429688,6358.62353515625,10167.7578125,7698.5361328125,3607.273193359375,3170.17236328125,-8043.4482421875,-5163.3515625,7807.41357421875,30.19968605041504,-1393.1593017578125,10994.275390625,-5535.28466796875,9624.9580078125,8675.2578125,6149.60986328125,8816.71875,3155.867431640625,-1284.2813720703125,6275.9716796875,-0.0,5105.33642578125,-14570.5537109375,2644.856689453125,13491.3125,2977.053466796875,-6968.18017578125,5099.7734375,5549.58984375,2437.4326171875,4684.92529296875,3542.10546875,-4111.13134765625,-9271.3037109375,-4488.626953125,2728.30322265625,-4462.40087890625,0.0,-5955.6962890625,0.0,-6763.14013671875,-9489.853515625,4367.828125,-9989.73828125,0.0,-12346.1083984375,-1049.8365478515625,0.0,-6336.37109375,0.0,5597.2734375,-0.0,-5637.01025390625
-1447.9954833984375,-2666.314453125,12787.978515625,-7191.4990234375,8584.658203125,3325.939208984375,3913.24365234375,-5126.79443359375,0.0,-5019.505859375,-1625.219970703125,-10490.41796875,0.0,0.0,0.0,-3325.939208984375,3749.529541015625,12395.3818359375,-0.0,-900.427490234375,6376.90234375,10176.4990234375,7713.6357421875,3610.451904296875,3167.788330078125,-8037.884765625,-5139.509765625,7803.43994140625,25.43131446838379,-1421.76953125,11003.8115234375,-5531.31103515625,9634.4951171875,8680.8203125,6167.888671875,8820.693359375,3163.019775390625,-1280.3077392578125,6281.53466796875,-0.0,5129.97314453125,-14560.22265625,2659.956787109375,13488.9287109375,2983.4111328125,-6967.3857421875,5109.31005859375,5518.59521484375,2462.864013671875,4669.03076171875,3547.66845703125,-4111.92578125,-9270.5087890625,-4545.84765625,2725.9189453125,-4440.14892578125,0.0,-5951.72265625,0.0,-6768.70361328125,-9461.2431640625,4377.365234375,-9985.7646484375,0.0,-12381.87109375,-1031.5577392578125,0.0,-6333.98681640625,0.0,5594.88916015625,-0.0,-5634.6259765625
-1467.0689697265625,-2692.54052734375,12770.4931640625,-7208.1884765625,8598.16796875,3328.3232421875,3910.859619140625,-5128.3837890625,0.0,-5026.65869140625,-1662.572265625,-10484.8544921875,0.0,0.0,0.0,-3326.73388671875,3737.608642578125,12390.61328125,-0.0,-905.9906005859375,6368.955078125,10169.3466796875,7712.8408203125,3609.6572265625,3134.40966796875,-8034.7060546875,-5134.7412109375,7807.41357421875,-8.74201488494873,-1447.9954833984375,10995.0703125,-5550.384765625,9620.984375,8669.6943359375,6165.50439453125,8817.513671875,3160.6357421875,-1282.69189453125,6258.48779296875,-0.0,5118.8466796875,-14558.6328125,2663.93017578125,13492.107421875,2983.4111328125,-6969.77001953125,5076.7265625,5470.91162109375,2471.60595703125,4680.15673828125,3546.873779296875,-4111.92578125,-9292.76171875,-4614.98876953125,2694.1298828125,-4452.06982421875,0.0,-5950.927734375,0.0,-6770.29296875,-9468.396484375,4374.98095703125,-9989.73828125,0.0,-12389.8193359375,-1034.736572265625,0.0,-6341.93408203125,0.0,5585.3525390625,-0.0,-5644.16259765625
-1486.9371337890625,-2698.8984375,12769.69921875,-7195.47265625,8579.0947265625,3333.886474609375,3908.475341796875,-5125.99951171875,0.0,-5025.06884765625,-1641.9093017578125,-10498.3642578125,0.0,0.0,0.0,-3322.76025390625,3739.992919921875,12389.8193359375,-0.0,-907.580078125,6364.98095703125,10173.3203125,7705.6884765625,3608.862548828125,3142.35693359375,-8026.75927734375,-5149.04638671875,7811.3876953125,0.0,-1440.0482177734375,10995.865234375,-5544.8212890625,9622.57421875,8676.8466796875,6159.94140625,8821.4873046875,3157.45654296875,-1282.69189453125,6264.84521484375,-0.0,5108.51513671875,-14549.095703125,2655.188232421875,13495.2861328125,2979.4375,-6968.18017578125,5074.34228515625,5497.9326171875,2441.40625,4688.8984375,3545.2841796875,-4111.13134765625,-9288.7880859375,-4580.02099609375,2703.666748046875,-4453.6591796875,0.0,-5948.54345703125,0.0,-6767.1142578125,-9482.701171875,4374.18603515625,-9992.123046875,0.0,-12370.74609375,-1049.8365478515625,0.0,-6347.49755859375,0.0,5584.55810546875,-0.0,-5640.9833984375
-1501.2423095703125,-2706.05078125,12775.26171875,-7193.08837890625,8559.2265625,3334.68115234375,3906.091064453125,-5125.99951171875,0.0,-5026.65869140625,-1634.7567138671875,-10472.93359375,0.0,0.0,0.0,-3322.76025390625,3743.96630859375,12389.8193359375,-0.0,-909.1694946289062,6364.1865234375,10175.705078125,7702.50927734375,3608.06787109375,3152.688232421875,-8040.26904296875,-5154.60986328125,7812.18212890625,7.152557373046875,-1438.458740234375,10997.455078125,-5536.07958984375,9625.7529296875,8678.4365234375,6156.7626953125,8820.693359375,3154.27783203125,-1283.4866943359375,6282.32958984375,-0.0,5107.720703125,-14550.685546875,2649.625,13495.2861328125,2976.258544921875,-6968.97509765625,5085.46826171875,5500.31640625,2425.51171875,4684.92529296875,3541.310546875,-4112.720703125,-9294.3505859375,-4576.04736328125,2713.203369140625,-4448.095703125,0.0,-5948.54345703125,0.0,-6768.70361328125,-9489.0595703125,4371.8017578125,-9992.9169921875,0.0,-12392.203125,-1034.736572265625,0.0,-6349.8818359375,0.0,5580.583984375,-0.0,-5647.34130859375
-1477.400390625,-2688.56689453125,12799.8994140625,-7188.3203125,8583.068359375,3338.65478515625,3906.091064453125,-5123.615234375,0.0,-5029.8369140625,-1617.272705078125,-10492.8017578125,0.0,0.0,0.0,-3329.117919921875,3752.70849609375,12396.1767578125,-0.0,-913.1431884765625,6378.49169921875,10182.0634765625,7711.251953125,3612.836181640625,3178.914306640625,-8045.037109375,-5148.251953125,7813.771484375,34.96805953979492,-1441.6376953125,11006.1962890625,-5529.7216796875,9639.2626953125,8685.5888671875,6167.888671875,8827.0498046875,3155.867431640625,-1281.1025390625,6287.892578125,-0.0,5130.767578125,-14543.533203125,2655.98291015625,13499.259765625,2977.053466796875,-6970.564453125,5112.4892578125,5502.70068359375,2438.227294921875,4678.5673828125,3539.72119140625,-4114.3095703125,-9309.451171875,-4577.63671875,2738.634765625,-4458.42724609375,0.0,-5961.25927734375,0.0,-6771.087890625,-9481.1123046875,4378.16015625,-9992.9169921875,0.0,-12413.6611328125,-1068.9100341796875,0.0,-6354.64990234375,0.0,5578.99462890625,-0.0,-5652.10986328125
-1453.55859375,-2678.2353515625,12807.0517578125,-7189.90966796875,8586.2470703125,3350.57568359375,3905.29638671875,-5113.28369140625,0.0,-5020.30029296875,-1625.219970703125,-10519.02734375,0.0,0.0,0.0,-3312.4287109375,3751.118896484375,12398.560546875,-0.0,-908.374755859375,6382.46533203125,10184.447265625,7712.8408203125,3619.194091796875,3171.76171875,-8040.26904296875,-5153.0205078125,7831.255859375,27.815500259399414,-1462.3006591796875,11006.9912109375,-5536.07958984375,9643.2373046875,8685.5888671875,6170.27294921875,8833.408203125,3156.662109375,-1273.949951171875,6291.8662109375,-0.0,5137.92041015625,-14536.380859375,2655.188232421875,13511.9755859375,2977.053466796875,-6961.822265625,5120.43603515625,5493.958984375,2435.04833984375,4693.6669921875,3541.310546875,-4102.388671875,-9284.8134765625,-4591.14697265625,2730.6875,-4475.11669921875,0.0,-5946.1591796875,0.0,-6758.3720703125,-9476.34375,4381.33837890625,-9989.73828125,0.0,-12396.9716796875,-1082.42041015625,0.0,-6339.5498046875,0.0,5595.68408203125,-0.0,-5634.6259765625
-1443.2271728515625,-2666.314453125,12774.4677734375,-7189.90966796875,8575.1220703125,3350.57568359375,3903.706787109375,-5112.4892578125,0.0,-5017.916015625,-1633.9620361328125,-10502.3388671875,0.0,0.0,0.0,-3309.25,3744.76123046875,12394.587890625,-0.0,-909.1694946289062,6368.955078125,10181.267578125,7708.07275390625,3616.809814453125,3157.45654296875,-8041.85888671875,-5150.63623046875,7828.87158203125,18.278757095336914,-1459.91650390625,11000.6328125,-5539.25830078125,9625.7529296875,8682.41015625,6163.9150390625,8831.0244140625,3153.483154296875,-1275.5394287109375,6271.998046875,-0.0,5115.66796875,-14540.3544921875,2652.00927734375,13513.5654296875,2974.669189453125,-6960.2333984375,5087.0576171875,5498.7275390625,2429.4853515625,4676.18310546875,3538.92626953125,-4100.0048828125,-9272.0986328125,-4576.841796875,2719.561279296875,-4486.24267578125,0.0,-5947.74853515625,0.0,-6750.4248046875,-9466.8076171875,4380.5439453125,-9990.533203125,0.0,-12342.1357421875,-1039.5050048828125,0.0,-6330.80810546875,0.0,5598.068359375,-0.0,-5637.8046875
-1424.9483642578125,-2660.75146484375,12777.646484375,-7173.22021484375,8582.2744140625,3364.086181640625,3906.8857421875,-5107.720703125,0.0,-5022.6845703125,-1626.8094482421875,-10505.5166015625,0.0,0.0,0.0,-3311.634033203125,3755.092529296875,12403.3291015625,-0.0,-909.1694946289062,6376.90234375,10192.39453125,7713.6357421875,3625.552001953125,3159.046142578125,-8025.16943359375,-5143.4833984375,7836.81884765625,19.868215560913086,-1471.83740234375,11010.96484375,-5530.51611328125,9632.9052734375,8693.5361328125,6170.27294921875,8841.35546875,3156.662109375,-1268.3868408203125,6282.32958984375,-0.0,5117.2578125,-14522.8701171875,2656.777587890625,13523.896484375,2977.053466796875,-6959.4384765625,5108.51513671875,5514.62158203125,2436.637939453125,4699.22998046875,3542.10546875,-4096.03125,-9264.9462890625,-4568.89501953125,2719.561279296875,-4481.474609375,0.0,-5937.41748046875,0.0,-6757.57763671875,-9461.2431640625,4386.90185546875,-9987.3544921875,0.0,-12365.181640625,-1024.4051513671875,0.0,-6330.01318359375,0.0,5587.73681640625,-0.0,-5647.34130859375
-1411.43798828125,-2652.00927734375,12802.283203125,-7151.7626953125,8595.7841796875,3376.007080078125,3915.6279296875,-5097.38916015625,0.0,-5010.763671875,-1619.6568603515625,-10511.0810546875,0.0,0.0,0.0,-3304.4814453125,3772.57666015625,12416.83984375,-0.0,-895.6591186523438,6391.20703125,10209.8779296875,7726.35107421875,3639.062255859375,3163.019775390625,-7992.5849609375,-5132.35693359375,7833.64013671875,19.073486328125,-1463.0953369140625,11026.859375,-5515.41650390625,9651.978515625,8711.0205078125,6183.783203125,8852.4814453125,3165.404052734375,-1257.2606201171875,6292.6611328125,-0.0,5132.35693359375,-14499.0283203125,2667.109130859375,13537.4072265625,2986.590087890625,-6949.9013671875,5116.462890625,5540.84765625,2447.76416015625,4700.8193359375,3550.847412109375,-4088.083740234375,-9250.640625,-4556.17919921875,2721.150634765625,-4456.04345703125,0.0,-5934.23828125,0.0,-6748.04052734375,-9452.501953125,4398.82275390625,-9977.0234375,0.0,-12380.2822265625,-1041.88916015625,0.0,-6314.11865234375,0.0,5608.39990234375,-0.0,-5620.32080078125
-1420.9747314453125,-2640.08837890625,12788.7724609375,-7140.63623046875,8600.552734375,3375.21240234375,3918.806640625,-5098.18408203125,0.0,-5008.37939453125,-1598.19921875,-10484.8544921875,0.0,0.0,0.0,-3299.713134765625,3775.755615234375,12421.6083984375,-0.0,-893.2749633789062,6392.796875,10215.44140625,7731.11962890625,3638.267578125,3164.609130859375,-7966.359375,-5126.79443359375,7836.0244140625,24.636587142944336,-1407.46435546875,11030.8330078125,-5509.853515625,9648.7998046875,8717.3779296875,6186.9619140625,8855.66015625,3168.5830078125,-1254.87646484375,6279.150390625,-0.0,5134.7412109375,-14493.4658203125,2672.67236328125,13530.25390625,2989.76904296875,-6947.517578125,5069.57373046875,5562.3056640625,2456.506103515625,4734.9931640625,3555.61572265625,-4088.083740234375,-9256.9990234375,-4526.77392578125,2724.32958984375,-4423.45947265625,0.0,-5929.47021484375,0.0,-6745.65625,-9450.912109375,4401.20703125,-9975.43359375,0.0,-12352.466796875,-1050.6312255859375,0.0,-6315.7080078125,0.0,5609.9892578125,-0.0,-5621.91015625
-1451.1744384765625,-2659.161865234375,12775.26171875,-7145.40478515625,8599.7578125,3372.033447265625,3916.42236328125,-5103.7470703125,0.0,-5009.17431640625,-1657.0091552734375,-10519.822265625,0.0,0.0,0.0,-3295.739501953125,3764.62939453125,12414.455078125,-0.0,-894.8643798828125,6388.02880859375,10209.8779296875,7723.96728515625,3630.3203125,3131.230712890625,-7967.154296875,-5137.12548828125,7842.38134765625,-9.5367431640625,-1365.34375,11023.6806640625,-5520.18505859375,9640.0576171875,8711.0205078125,6183.783203125,8850.8916015625,3163.814453125,-1259.6448974609375,6257.69287109375,-0.0,5144.27783203125,-14499.0283203125,2668.698486328125,13514.359375,2986.590087890625,-6952.28564453125,5040.9638671875,5571.04736328125,2446.96923828125,4761.21923828125,3550.847412109375,-4090.468017578125,-9331.703125,-4540.28466796875,2690.15625,-4398.02783203125,0.0,-5920.72802734375,0.0,-6744.86181640625,-9470.7802734375,4394.84912109375,-9977.8173828125,0.0,-12363.5927734375,-1049.041748046875,0.0,-6306.17138671875,0.0,5619.52587890625,-0.0,-5617.1416015625
-1459.1217041015625,-2685.387939453125,12786.388671875,-7185.93603515625,8607.705078125,3348.19140625,3907.680419921875,-5120.43603515625,0.0,-5024.2744140625,-1705.487548828125,-10484.0595703125,0.0,0.0,0.0,-3313.2236328125,3754.2978515625,12403.3291015625,-0.0,-904.401123046875,6392.001953125,10186.8310546875,7716.02001953125,3616.809814453125,3120.899169921875,-8049.8056640625,-5146.662109375,7821.71923828125,-23.84185791015625,-1467.0689697265625,11012.5537109375,-5534.490234375,9640.8525390625,8689.5625,6179.8095703125,8833.408203125,3157.45654296875,-1273.949951171875,6260.0771484375,-0.0,5172.88818359375,-14541.1494140625,2662.3408203125,13501.64453125,2980.232177734375,-6965.7958984375,5069.57373046875,5497.9326171875,2441.40625,4712.740234375,3542.900146484375,-4105.56787109375,-9327.7294921875,-4576.841796875,2677.440673828125,-4479.88525390625,0.0,-5945.3642578125,0.0,-6762.345703125,-9489.0595703125,4383.72265625,-9988.9443359375,0.0,-12410.4814453125,-1047.4522705078125,0.0,-6321.271484375,0.0,5602.04150390625,-0.0,-5635.42041015625
-1459.91650390625,-2676.64599609375,12769.69921875,-7188.3203125,8585.453125,3341.0390625,3905.29638671875,-5118.8466796875,0.0,-5024.2744140625,-1664.16162109375,-10457.8330078125,0.0,0.0,0.0,-3310.04443359375,3750.32421875,12400.150390625,-0.0,-906.7853393554688,6379.2861328125,10182.857421875,7712.8408203125,3614.42578125,3132.820068359375,-8058.5478515625,-5152.2255859375,7823.30810546875,-7.9472856521606445,-1446.406005859375,11007.7861328125,-5532.900390625,9631.31640625,8685.5888671875,6170.27294921875,8828.6396484375,3155.867431640625,-1276.3341064453125,6261.6669921875,-0.0,5143.4833984375,-14555.4541015625,2654.3935546875,13503.234375,2977.053466796875,-6966.5908203125,5070.3681640625,5496.34326171875,2427.895751953125,4703.99853515625,3542.10546875,-4103.978515625,-9301.5029296875,-4567.30517578125,2693.335205078125,-4474.32177734375,0.0,-5942.98046875,0.0,-6759.96142578125,-9481.1123046875,4381.33837890625,-9988.1484375,0.0,-12392.203125,-1025.199951171875,0.0,-6317.29736328125,0.0,5602.04150390625,-0.0,-5637.01025390625
-1463.0953369140625,-2663.93017578125,12768.904296875,-7172.42578125,8566.3798828125,3345.0126953125,3902.117431640625,-5113.28369140625,0.0,-5020.30029296875,-1625.219970703125,-10471.34375,0.0,0.0,0.0,-3304.4814453125,3751.118896484375,12398.560546875,-0.0,-905.1958618164062,6364.98095703125,10185.2421875,7708.07275390625,3616.01513671875,3159.046142578125,-8021.1953125,-5150.63623046875,7829.666015625,15.894571304321289,-1427.33251953125,11006.1962890625,-5530.51611328125,9626.5478515625,8691.947265625,6161.53076171875,8831.818359375,3154.27783203125,-1273.1552734375,6265.64013671875,-0.0,5091.826171875,-14545.123046875,2651.214599609375,13508.001953125,2975.4638671875,-6963.41162109375,5086.26318359375,5525.74755859375,2428.690673828125,4711.1513671875,3540.515869140625,-4099.21044921875,-9281.6357421875,-4540.28466796875,2719.561279296875,-4449.685546875,0.0,-5937.41748046875,0.0,-6754.3984375,-9475.548828125,4378.16015625,-9990.533203125,0.0,-12381.87109375,-1026.789306640625,0.0,-6310.14501953125,0.0,5609.9892578125,-0.0,-5629.0625
-1461.505859375,-2652.80419921875,12780.8251953125,-7152.5576171875,8577.505859375,3356.93359375,3902.912109375,-5116.462890625,0.0,-5031.4267578125,-1618.8621826171875,-10491.2119140625,0.0,0.0,0.0,-3311.634033203125,3759.06640625,12403.3291015625,-0.0,-913.1431884765625,6373.7236328125,10197.1630859375,7712.04638671875,3619.194091796875,3164.609130859375,-8000.533203125,-5145.07275390625,7828.87158203125,20.66294288635254,-1500.4476318359375,11013.3486328125,-5524.15869140625,9636.0849609375,8703.072265625,6168.68359375,8838.1767578125,3154.27783203125,-1273.1552734375,6279.9453125,-0.0,5104.5419921875,-14527.638671875,2655.188232421875,13511.9755859375,2973.874267578125,-6968.18017578125,5095.0048828125,5576.6103515625,2439.02197265625,4714.330078125,3538.1318359375,-4103.978515625,-9269.71484375,-4525.1845703125,2725.124267578125,-4460.8115234375,0.0,-5942.18603515625,0.0,-6764.72998046875,-9468.396484375,4381.33837890625,-9993.712890625,0.0,-12396.1767578125,-1043.4786376953125,0.0,-6331.6025390625,0.0,5587.73681640625,-0.0,-5649.7255859375
-1442.432373046875,-2635.320068359375,12795.130859375,-7120.76806640625,8592.60546875,3372.828125,3905.29638671875,-5108.51513671875,0.0,-5032.22119140625,-1619.6568603515625,-10499.9541015625,0.0,0.0,0.0,-3306.86572265625,3777.344970703125,12416.044921875,-0.0,-917.9114990234375,6388.8232421875,10217.0302734375,7721.5830078125,3631.114990234375,3174.14599609375,-7978.2802734375,-5135.5361328125,7840.79248046875,34.1733283996582,-1500.4476318359375,11028.44921875,-5503.49560546875,9650.3896484375,8724.5302734375,6181.39892578125,8854.0712890625,3155.072509765625,-1264.4132080078125,6284.7138671875,-0.0,5129.97314453125,-14502.2080078125,2663.135498046875,13523.896484375,2977.053466796875,-6965.00146484375,5106.92578125,5652.10986328125,2450.94287109375,4731.01953125,3538.92626953125,-4096.826171875,-9259.3828125,-4532.33740234375,2734.6611328125,-4442.533203125,0.0,-5934.23828125,0.0,-6763.14013671875,-9436.607421875,4394.05419921875,-9991.328125,0.0,-12364.3876953125,-1034.736572265625,0.0,-6328.423828125,0.0,5581.37890625,-0.0,-5667.20947265625
-1437.6640625,-2635.320068359375,12795.130859375,-7131.89453125,8595.7841796875,3365.67578125,3906.8857421875,-5107.720703125,0.0,-5025.86376953125,-1629.193603515625,-10468.1650390625,0.0,0.0,0.0,-3303.686767578125,3774.960693359375,12415.25,-0.0,-911.5537109375,6389.6181640625,10211.4677734375,7721.5830078125,3631.90966796875,3176.530029296875,-8013.24853515625,-5136.3310546875,7839.203125,34.1733283996582,-1446.406005859375,11026.064453125,-5502.70068359375,9651.18359375,8720.5576171875,6179.8095703125,8850.09765625,3157.45654296875,-1262.82373046875,6284.7138671875,-0.0,5131.5625,-14515.7177734375,2663.93017578125,13521.51171875,2978.642822265625,-6961.02783203125,5106.130859375,5625.08935546875,2451.737548828125,4723.072265625,3542.10546875,-4093.64697265625,-9272.0986328125,-4541.0791015625,2736.250732421875,-4472.732421875,0.0,-5936.62255859375,0.0,-6756.78271484375,-9440.5810546875,4394.05419921875,-9988.1484375,0.0,-12349.2880859375,-1018.04736328125,0.0,-6318.88720703125,0.0,5596.47900390625,-0.0,-5653.69921875
-1453.55859375,-2660.75146484375,12784.798828125,-7170.8359375,8588.6318359375,3363.29150390625,3906.091064453125,-5110.10498046875,0.0,-5023.4794921875,-1638.7303466796875,-10496.775390625,0.0,0.0,0.0,-3305.276123046875,3759.861083984375,12407.302734375,-0.0,-908.374755859375,6379.2861328125,10195.5732421875,7716.02001953125,3627.93603515625,3162.22509765625,-8015.6328125,-5139.509765625,7838.40869140625,18.278757095336914,-1420.179931640625,11015.732421875,-5521.7744140625,9638.46875,8701.4833984375,6172.6572265625,8841.35546875,3155.867431640625,-1266.79736328125,6273.587890625,-0.0,5120.43603515625,-14532.4072265625,2659.956787109375,13519.9228515625,2977.053466796875,-6961.822265625,5089.44189453125,5515.41650390625,2446.174560546875,4726.2509765625,3540.515869140625,-4092.85205078125,-9295.9404296875,-4557.7685546875,2721.945556640625,-4467.16943359375,0.0,-5939.8017578125,0.0,-6755.98779296875,-9462.8330078125,4387.69677734375,-9988.1484375,0.0,-12364.3876953125,-1031.5577392578125,0.0,-6314.11865234375,0.0,5607.60498046875,-0.0,-5633.8310546875
-1458.326904296875,-2665.519775390625,12782.4140625,-7182.7568359375,8588.6318359375,3372.033447265625,3906.8857421875,-5102.15771484375,0.0,-5017.12158203125,-1635.551513671875,-10498.3642578125,0.0,0.0,0.0,-3298.12353515625,3758.271484375,12410.4814453125,-0.0,-907.580078125,6380.0810546875,10196.3681640625,7719.19873046875,3632.70458984375,3157.45654296875,-7985.4326171875,-5139.509765625,7851.1240234375,15.09984302520752,-1358.191162109375,11015.732421875,-5525.74755859375,9636.87890625,8699.099609375,6175.041015625,8846.9189453125,3156.662109375,-1260.4395751953125,6271.20361328125,-0.0,5120.43603515625,-14520.486328125,2659.956787109375,13527.8701171875,2977.053466796875,-6954.669921875,5083.083984375,5466.93798828125,2447.76416015625,4742.1455078125,3541.310546875,-4084.1103515625,-9301.5029296875,-4535.51611328125,2718.766357421875,-4405.9755859375,0.0,-5931.0595703125,0.0,-6748.8349609375,-9466.01171875,4392.46533203125,-9984.9697265625,0.0,-12369.9501953125,-1028.3787841796875,0.0,-6311.73486328125,0.0,5616.3466796875,-0.0,-5627.47314453125
-1450.3797607421875,-2645.651611328125,12786.388671875,-7170.04150390625,8594.1953125,3360.112548828125,3910.064697265625,-5098.978515625,0.0,-5011.55859375,-1629.98828125,-10445.912109375,0.0,0.0,0.0,-3290.970947265625,3765.424072265625,12415.25,-0.0,-902.8117065429688,6386.43896484375,10197.95703125,7722.3779296875,3632.70458984375,3155.072509765625,-8025.9638671875,-5140.3046875,7843.1767578125,12.715657234191895,-1385.2119140625,11021.296875,-5516.2109375,9644.03125,8709.4306640625,6179.8095703125,8847.7138671875,3159.046142578125,-1259.6448974609375,6283.12451171875,-0.0,5127.5888671875,-14525.25390625,2662.3408203125,13523.1015625,2980.232177734375,-6949.10693359375,5088.6474609375,5510.6484375,2453.3271484375,4723.072265625,3546.078857421875,-4084.1103515625,-9293.556640625,-4523.59521484375,2717.17724609375,-4424.25390625,0.0,-5933.443359375,0.0,-6743.2724609375,-9454.0908203125,4394.05419921875,-9980.99609375,0.0,-12375.513671875,-1011.6895141601562,0.0,-6303.787109375,0.0,5618.73095703125,-0.0,-5631.44677734375
-1446.406005859375,-2634.525390625,12792.74609375,-7161.29931640625,8600.552734375,3369.649169921875,3916.42236328125,-5088.6474609375,0.0,-4999.6376953125,-1622.8358154296875,-10430.8125,0.0,0.0,0.0,-3278.25537109375,3773.371337890625,12421.6083984375,-0.0,-891.6854858398438,6392.001953125,10207.494140625,7728.7353515625,3640.651611328125,3157.45654296875,-8018.0166015625,-5139.509765625,7852.71337890625,14.30511474609375,-1395.54345703125,11026.859375,-5507.46923828125,9651.18359375,8717.3779296875,6186.9619140625,8854.8662109375,3165.404052734375,-1251.697509765625,6288.68701171875,-0.0,5137.12548828125,-14517.3076171875,2668.698486328125,13534.228515625,2986.590087890625,-6937.98046875,5098.18408203125,5523.36376953125,2454.916748046875,4728.63525390625,3550.847412109375,-4074.573486328125,-9278.45703125,-4514.85302734375,2717.9716796875,-4425.84375,0.0,-5942.18603515625,0.0,-6729.76171875,-9442.9658203125,4401.20703125,-9971.458984375,0.0,-12371.5400390625,-998.1790771484375,0.0,-6298.22412109375,0.0,5622.705078125,-0.0,-5617.1416015625
-1449.5849609375,-2631.346435546875,12793.541015625,-7158.9150390625,8598.16796875,3376.007080078125,3914.0380859375,-5084.67333984375,0.0,-5000.4326171875,-1625.219970703125,-10443.5283203125,0.0,0.0,0.0,-3270.308349609375,3770.9873046875,12418.4296875,-0.0,-894.0697021484375,6389.6181640625,10209.083984375,7727.14599609375,3641.4462890625,3156.662109375,-8003.7119140625,-5141.099609375,7861.455078125,15.09984302520752,-1397.9276123046875,11027.6533203125,-5509.853515625,9648.7998046875,8717.3779296875,6186.16748046875,8856.4560546875,3163.814453125,-1249.3133544921875,6286.30322265625,-0.0,5132.35693359375,-14513.3330078125,2666.314453125,13537.4072265625,2985.00048828125,-6937.98046875,5095.7998046875,5528.1318359375,2449.353515625,4738.96630859375,3547.66845703125,-4070.60009765625,-9284.8134765625,-4517.2373046875,2714.79296875,-4425.048828125,0.0,-5931.8544921875,0.0,-6727.37744140625,-9443.759765625,4402.001953125,-9973.048828125,0.0,-12371.5400390625,-1014.868408203125,0.0,-6310.93994140625,0.0,5617.1416015625,-0.0,-5621.115234375
-1447.2008056640625,-2643.267333984375,12784.798828125,-7170.04150390625,8589.4267578125,3362.49658203125,3907.680419921875,-5099.7734375,0.0,-5016.3271484375,-1633.9620361328125,-10464.19140625,0.0,0.0,0.0,-3288.5869140625,3759.06640625,12408.09765625,-0.0,-907.580078125,6378.49169921875,10197.1630859375,7718.404296875,3630.3203125,3159.046142578125,-8016.42724609375,-5140.3046875,7845.56103515625,17.48402976989746,-1417.0010986328125,11014.1435546875,-5523.36376953125,9636.87890625,8703.8681640625,6175.8359375,8843.7392578125,3158.25146484375,-1262.029052734375,6277.56103515625,-0.0,5123.615234375,-14528.43359375,2658.3671875,13522.3076171875,2979.4375,-6954.669921875,5095.0048828125,5520.9794921875,2442.995849609375,4725.4560546875,3542.900146484375,-4086.494384765625,-9275.27734375,-4529.158203125,2719.561279296875,-4444.9169921875,0.0,-5935.82763671875,0.0,-6747.24560546875,-9453.296875,4390.0810546875,-9984.9697265625,0.0,-12367.56640625,-1039.5050048828125,0.0,-6334.78173828125,0.0,5602.83642578125,-0.0,-5640.9833984375
-1435.27978515625,-2637.7041015625,12791.1572265625,-7163.68359375,8594.990234375,3361.701904296875,3908.475341796875,-5109.31005859375,0.0,-5021.89013671875,-1621.246337890625,-10461.8076171875,0.0,0.0,0.0,-3309.25,3763.834716796875,12411.2763671875,-0.0,-908.374755859375,6385.64453125,10200.3408203125,7720.78857421875,3628.730712890625,3167.788330078125,-8014.04296875,-5134.7412109375,7836.81884765625,27.815500259399414,-1408.259033203125,11018.912109375,-5516.2109375,9644.03125,8706.251953125,6179.0146484375,8843.7392578125,3160.6357421875,-1264.4132080078125,6287.09814453125,-0.0,5130.767578125,-14531.6123046875,2663.135498046875,13519.9228515625,2979.4375,-6961.822265625,5109.31005859375,5533.6953125,2450.94287109375,4721.48291015625,3544.489501953125,-4096.03125,-9263.3564453125,-4522.00537109375,2729.892822265625,-4459.22216796875,0.0,-5931.8544921875,0.0,-6758.3720703125,-9454.0908203125,4390.0810546875,-9986.5595703125,0.0,-12346.9033203125,-1035.5313720703125,0.0,-6337.166015625,0.0,5602.04150390625,-0.0,-5644.95703125
-1447.9954833984375,-2644.856689453125,12797.5146484375,-7161.29931640625,8605.3212890625,3365.67578125,3912.448974609375,-5107.720703125,0.0,-5020.30029296875,-1635.551513671875,-10476.1123046875,0.0,0.0,0.0,-3307.660400390625,3766.218994140625,12416.83984375,-0.0,-901.2222290039062,6390.41259765625,10205.109375,7723.96728515625,3631.114990234375,3159.8408203125,-8011.65869140625,-5132.35693359375,7841.5869140625,16.689300537109375,-1409.0538330078125,11023.6806640625,-5514.62158203125,9647.2099609375,8707.046875,6184.578125,8847.7138671875,3163.814453125,-1262.82373046875,6295.83984375,-0.0,5140.3046875,-14531.6123046875,2667.90380859375,13523.1015625,2985.00048828125,-6959.4384765625,5114.87353515625,5535.28466796875,2464.453369140625,4728.63525390625,3548.463134765625,-4095.236328125,-9264.1513671875,-4533.1318359375,2719.561279296875,-4452.06982421875,0.0,-5926.291015625,0.0,-6759.16650390625,-9464.4228515625,4392.46533203125,-9981.791015625,0.0,-12385.8447265625,-1033.147216796875,0.0,-6326.03955078125,0.0,5599.65771484375,-0.0,-5640.1884765625
-1475.81103515625,-2655.98291015625,12784.00390625,-7168.45166015625,8594.1953125,3363.29150390625,3914.0380859375,-5104.5419921875,0.0,-5013.14794921875,-1660.1881103515625,-10468.9599609375,0.0,0.0,0.0,-3298.12353515625,3761.450439453125,12412.865234375,-0.0,-897.2485961914062,6380.8759765625,10199.546875,7720.78857421875,3629.525390625,3141.562255859375,-8019.6064453125,-5139.509765625,7844.765625,0.7947285771369934,-1424.9483642578125,11018.912109375,-5521.7744140625,9637.673828125,8702.2783203125,6179.8095703125,8844.53515625,3163.814453125,-1262.029052734375,6281.53466796875,-0.0,5126.79443359375,-14537.970703125,2663.93017578125,13523.1015625,2985.795166015625,-6956.25927734375,5082.2890625,5531.31103515625,2445.3798828125,4723.072265625,3550.052734375,-4088.878662109375,-9293.556640625,-4539.48974609375,2703.666748046875,-4442.533203125,0.0,-5923.1123046875,0.0,-6748.04052734375,-9467.6015625,4390.0810546875,-9980.2021484375,0.0,-12383.4609375,-1036.3260498046875,0.0,-6312.529296875,0.0,5599.65771484375,-0.0,-5634.6259765625
-1470.2479248046875,-2655.188232421875,12793.541015625,-7169.24658203125,8594.1953125,3364.880859375,3918.01220703125,-5096.59423828125,0.0,-5002.81689453125,-1640.31982421875,-10467.3701171875,0.0,0.0,0.0,-3286.99755859375,3765.424072265625,12415.25,-0.0,-890.8907470703125,6386.43896484375,10201.9306640625,7725.556640625,3632.70458984375,3160.6357421875,-8024.375,-5141.89404296875,7849.5341796875,15.894571304321289,-1427.33251953125,11021.296875,-5518.59521484375,9645.62109375,8704.662109375,6183.783203125,8847.7138671875,3167.788330078125,-1255.671142578125,6291.8662109375,-0.0,5133.15185546875,-14536.380859375,2667.109130859375,13528.6650390625,2989.76904296875,-6947.517578125,5092.62109375,5527.33740234375,2441.40625,4724.6611328125,3554.821044921875,-4081.72607421875,-9282.4296875,-4537.10546875,2719.561279296875,-4437.7646484375,0.0,-5916.75439453125,0.0,-6734.52978515625,-9459.6552734375,4395.6435546875,-9973.84375,0.0,-12371.5400390625,-1034.736572265625,0.0,-6301.40283203125,0.0,5624.29443359375,-0.0,-5625.08935546875
-1473.4267578125,-2650.419921875,12812.6142578125,-7152.5576171875,8607.705078125,3379.980712890625,3922.780517578125,-5090.23681640625,0.0,-4994.07421875,-1602.9676513671875,-10472.138671875,0.0,0.0,0.0,-3280.6396484375,3778.139892578125,12425.58203125,-0.0,-880.5592651367188,6399.94970703125,10215.44140625,7734.298828125,3642.2412109375,3171.76171875,-8020.40087890625,-5133.94677734375,7858.2763671875,26.226043701171875,-1392.364501953125,11033.2177734375,-5509.853515625,9660.720703125,8716.5830078125,6195.7041015625,8859.634765625,3172.556640625,-1247.723876953125,6310.14501953125,-0.0,5149.04638671875,-14510.94921875,2674.26171875,13538.201171875,2995.33203125,-6940.36474609375,5128.3837890625,5536.07958984375,2453.3271484375,4735.7880859375,3557.205078125,-4072.189453125,-9257.79296875,-4525.9794921875,2729.892822265625,-4497.369140625,0.0,-5913.57568359375,0.0,-6728.96728515625,-9458.859375,4404.38623046875,-9964.306640625,0.0,-12396.9716796875,-1038.710205078125,0.0,-6288.68701171875,0.0,5649.7255859375,-0.0,-5602.83642578125
-1467.8636474609375,-2638.4990234375,12788.7724609375,-7124.7421875,8601.34765625,3402.233154296875,3924.369873046875,-5087.8525390625,0.0,-5005.20068359375,-1637.9356689453125,-10508.6962890625,0.0,0.0,0.0,-3289.3818359375,3782.11328125,12431.14453125,-0.0,-886.1223754882812,6395.18115234375,10230.541015625,7735.88818359375,3650.1884765625,3143.151611328125,-7980.6640625,-5123.615234375,7867.0185546875,1.5894571542739868,-1380.443603515625,11041.1640625,-5507.46923828125,9652.7734375,8730.888671875,6193.31982421875,8872.349609375,3174.14599609375,-1242.95556640625,6295.04541015625,-0.0,5133.15185546875,-14468.8291015625,2676.64599609375,13547.73828125,2994.537353515625,-6945.13330078125,5086.26318359375,5569.4580078125,2438.227294921875,4759.6298828125,3557.205078125,-4070.60009765625,-9285.609375,-4495.779296875,2703.666748046875,-4430.6123046875,0.0,-5917.54931640625,0.0,-6740.88818359375,-9455.6806640625,4408.359375,-9963.5126953125,0.0,-12383.4609375,-1042.6839599609375,0.0,-6307.7607421875,0.0,5625.8837890625,-0.0,-5623.49951171875
-1490.1160888671875,-2671.082763671875,12753.8046875,-7171.630859375,8587.8369140625,3370.444091796875,3916.42236328125,-5108.51513671875,0.0,-5025.06884765625,-1691.1824951171875,-10506.3125,0.0,0.0,0.0,-3309.25,3749.529541015625,12407.302734375,-0.0,-902.8117065429688,6368.955078125,10197.1630859375,7720.78857421875,3626.3466796875,3111.362548828125,-8051.3955078125,-5118.05224609375,7839.9970703125,-31.789142608642578,-1469.4532470703125,11013.3486328125,-5540.052734375,9618.599609375,8695.1259765625,6173.45166015625,8844.53515625,3165.404052734375,-1263.618408203125,6242.59326171875,-0.0,5107.720703125,-14506.1806640625,2669.493408203125,13520.7177734375,2987.384765625,-6965.00146484375,5032.22119140625,5512.2373046875,2428.690673828125,4723.072265625,3551.64208984375,-4094.44189453125,-9358.7236328125,-4534.72119140625,2671.082763671875,-4431.40673828125,0.0,-5940.59619140625,0.0,-6763.14013671875,-9480.3173828125,4389.2861328125,-9981.791015625,0.0,-12427.1708984375,-1040.2998046875,0.0,-6330.01318359375,0.0,5599.65771484375,-0.0,-5653.69921875
-1471.0426025390625,-2682.208984375,12751.419921875,-7207.3935546875,8573.5322265625,3328.3232421875,3907.680419921875,-5122.02587890625,0.0,-5027.453125,-1682.4404296875,-10444.3232421875,0.0,0.0,0.0,-3316.40234375,3735.224365234375,12390.61328125,-0.0,-908.374755859375,6359.41845703125,10168.552734375,7709.662109375,3606.478515625,3126.462158203125,-8068.0849609375,-5154.60986328125,7815.36083984375,-15.894571304321289,-1453.55859375,10994.275390625,-5550.384765625,9611.447265625,8672.078125,6161.53076171875,8818.30859375,3156.662109375,-1277.1287841796875,6247.36181640625,-0.0,5102.95263671875,-14577.7060546875,2652.00927734375,13496.8759765625,2980.232177734375,-6972.94873046875,5044.93701171875,5494.75341796875,2419.15380859375,4681.74609375,3543.69482421875,-4108.7470703125,-9356.33984375,-4583.2001953125,2684.59326171875,-4467.16943359375,0.0,-5952.51708984375,0.0,-6764.72998046875,-9481.1123046875,4374.98095703125,-9990.533203125,0.0,-12404.1240234375,-1005.3316650390625,0.0,-6329.21826171875,0.0,5602.83642578125,-0.0,-5648.93115234375
-1448.7901611328125,-2664.72509765625,12769.69921875,-7184.3466796875,8576.7109375,3342.62841796875,3908.475341796875,-5110.10498046875,0.0,-5016.3271484375,-1646.6776123046875,-10444.3232421875,0.0,0.0,0.0,-3302.097412109375,3749.529541015625,12400.150390625,-0.0,-902.0169677734375,6370.54443359375,10180.4736328125,7712.04638671875,3618.3994140625,3155.867431640625,-8021.1953125,-5161.76220703125,7830.46044921875,11.920928955078125,-1420.179931640625,11006.1962890625,-5536.07958984375,9624.1640625,8688.767578125,6168.68359375,8830.2294921875,3157.45654296875,-1266.79736328125,6262.46142578125,-0.0,5116.462890625,-14571.349609375,2651.214599609375,13509.5908203125,2980.232177734375,-6961.02783203125,5074.34228515625,5524.953125,2440.611572265625,4702.4091796875,3544.489501953125,-4096.826171875,-9315.80859375,-4564.12646484375,2713.203369140625,-4432.201171875,0.0,-5935.82763671875,0.0,-6749.6298828125,-9475.548828125,4382.13330078125,-9982.5859375,0.0,-12385.05078125,-1007.7158203125,0.0,-6318.09228515625,0.0,5613.962890625,-0.0,-5640.9833984375
-1459.91650390625,-2654.3935546875,12782.4140625,-7168.45166015625,8587.8369140625,3356.138916015625,3910.064697265625,-5108.51513671875,0.0,-5022.6845703125,-1632.37255859375,-10476.9072265625,0.0,0.0,0.0,-3306.071044921875,3757.476806640625,12407.302734375,-0.0,-902.8117065429688,6377.69677734375,10191.599609375,7716.814453125,3625.552001953125,3153.483154296875,-8011.65869140625,-5145.86767578125,7837.61328125,10.33147144317627,-1408.259033203125,11014.1435546875,-5531.31103515625,9632.1103515625,8700.6884765625,6175.8359375,8840.560546875,3159.8408203125,-1262.82373046875,6264.84521484375,-0.0,5126.79443359375,-14539.5595703125,2658.3671875,13515.94921875,2981.82177734375,-6961.822265625,5092.62109375,5541.642578125,2450.1484375,4715.12451171875,3546.873779296875,-4093.64697265625,-9288.7880859375,-4533.92626953125,2712.40869140625,-4426.63818359375,0.0,-5935.82763671875,0.0,-6755.193359375,-9476.34375,4387.69677734375,-9983.3798828125,0.0,-12397.765625,-1026.789306640625,0.0,-6329.21826171875,0.0,5598.86328125,-0.0,-5651.3154296875
-1452.763916015625,-2649.625,12796.7197265625,-7151.7626953125,8597.3740234375,3368.8544921875,3910.859619140625,-5104.5419921875,0.0,-5025.06884765625,-1618.0673828125,-10480.880859375,0.0,0.0,0.0,-3307.660400390625,3767.013671875,12414.455078125,-0.0,-902.0169677734375,6388.8232421875,10201.9306640625,7723.1728515625,3630.3203125,3143.151611328125,-7998.943359375,-5141.099609375,7844.765625,-2.384185791015625,-1389.9803466796875,11022.8857421875,-5520.18505859375,9644.03125,8710.2255859375,6182.19384765625,8850.8916015625,3161.430419921875,-1258.85009765625,6272.79296875,-0.0,5138.71533203125,-14520.486328125,2664.72509765625,13523.896484375,2983.4111328125,-6958.6435546875,5116.462890625,5563.10009765625,2454.121826171875,4727.84033203125,3547.66845703125,-4092.0576171875,-9270.5087890625,-4468.75927734375,2700.48779296875,-4423.45947265625,0.0,-5939.0068359375,0.0,-6755.98779296875,-9472.3701171875,4392.46533203125,-9981.791015625,0.0,-12431.939453125,-1014.868408203125,0.0,-6337.9609375,0.0,5589.326171875,-0.0,-5648.93115234375
-1441.6376953125,-2665.519775390625,12788.7724609375,-7158.12060546875,8610.0888671875,3368.059814453125,3910.859619140625,-5099.7734375,0.0,-5021.89013671875,-1633.9620361328125,-10516.6435546875,0.0,0.0,0.0,-3296.5341796875,3762.2451171875,12413.6611328125,-0.0,-902.8117065429688,6388.8232421875,10200.3408203125,7724.76171875,3628.730712890625,3131.230712890625,-8036.2958984375,-5137.12548828125,7854.30224609375,-13.51038646697998,-1465.4794921875,11020.5009765625,-5524.15869140625,9642.44140625,8707.046875,6183.783203125,8850.09765625,3162.22509765625,-1258.0552978515625,6275.1767578125,-0.0,5142.68896484375,-14519.69140625,2666.314453125,13527.8701171875,2982.616455078125,-6957.05419921875,5105.33642578125,5540.052734375,2465.248046875,4731.81396484375,3548.463134765625,-4085.699462890625,-9303.8876953125,-4467.16943359375,2689.361572265625,-4472.732421875,0.0,-5936.62255859375,0.0,-6751.21923828125,-9481.1123046875,4394.84912109375,-9982.5859375,0.0,-12422.40234375,-1107.0570068359375,0.0,-6326.833984375,0.0,5599.65771484375,-0.0,-5644.95703125
-1459.91650390625,-2682.208984375,12790.3623046875,-7150.96826171875,8645.0576171875,3368.059814453125,3913.24365234375,-5107.720703125,0.0,-5028.248046875,-1680.0562744140625,-10511.875,0.0,0.0,0.0,-3307.660400390625,3767.80810546875,12420.8134765625,-0.0,-907.580078125,6401.5390625,10209.8779296875,7731.91455078125,3631.114990234375,3132.820068359375,-8030.73193359375,-5128.3837890625,7833.64013671875,-12.715657234191895,-1474.2215576171875,11029.2431640625,-5528.9267578125,9645.62109375,8711.0205078125,6195.7041015625,8853.2763671875,3163.814453125,-1260.4395751953125,6272.79296875,-0.0,5164.94140625,-14498.2333984375,2675.056396484375,13522.3076171875,2984.2060546875,-6965.00146484375,5084.67333984375,5542.43701171875,2478.758544921875,4709.56201171875,3547.66845703125,-4096.03125,-9352.3662109375,-4592.73681640625,2690.15625,-4514.05859375,0.0,-5984.30615234375,0.0,-6763.14013671875,-9478.728515625,4399.61767578125,-9984.9697265625,0.0,-12454.1923828125,-1043.4786376953125,0.0,-6339.5498046875,0.0,5596.47900390625,-0.0,-5654.49365234375
-1466.2742919921875,-2675.85107421875,12799.103515625,-7162.88916015625,8668.10546875,3376.007080078125,3916.42236328125,-5106.130859375,0.0,-5032.22119140625,-1644.29345703125,-10503.1328125,0.0,0.0,0.0,-3306.071044921875,3770.1923828125,12427.1708984375,-0.0,-909.1694946289062,6410.28076171875,10211.4677734375,7739.86181640625,3636.677978515625,3123.283447265625,-8002.91748046875,-5121.23095703125,7838.40869140625,-19.868215560913086,-1443.2271728515625,11034.01171875,-5525.74755859375,9649.5947265625,8711.0205078125,6204.4462890625,8858.044921875,3164.609130859375,-1257.2606201171875,6274.38232421875,-0.0,5176.0673828125,-14490.287109375,2681.414306640625,13524.69140625,2986.590087890625,-6965.7958984375,5079.11083984375,5514.62158203125,2481.142822265625,4717.5087890625,3547.66845703125,-4092.85205078125,-9314.2197265625,-4604.65771484375,2679.82470703125,-4496.57421875,0.0,-5970.0009765625,0.0,-6765.5244140625,-9472.3701171875,4404.38623046875,-9984.9697265625,0.0,-12452.6025390625,-1037.120849609375,0.0,-6364.98095703125,0.0,5583.76318359375,-0.0,-5664.8251953125
-1459.91650390625,-2661.5458984375,12760.95703125,-7191.4990234375,8603.732421875,3356.93359375,3912.448974609375,-5111.6943359375,0.0,-5026.65869140625,-1671.314208984375,-10438.759765625,0.0,0.0,0.0,-3309.25,3751.118896484375,12407.302734375,-0.0,-904.401123046875,6380.0810546875,10188.419921875,7719.99365234375,3622.372802734375,3121.69384765625,-8022.78515625,-5147.45703125,7835.22900390625,-14.30511474609375,-1470.2479248046875,11012.5537109375,-5540.052734375,9626.5478515625,8687.97265625,6176.63037109375,8839.7666015625,3159.046142578125,-1264.4132080078125,6261.6669921875,-0.0,5125.99951171875,-14537.970703125,2660.75146484375,13515.94921875,2982.616455078125,-6966.5908203125,5031.4267578125,5478.85888671875,2418.359130859375,4711.94580078125,3547.66845703125,-4096.826171875,-9290.3779296875,-4572.8681640625,2683.003662109375,-4508.4951171875,0.0,-5947.74853515625,0.0,-6759.96142578125,-9465.2177734375,4391.67041015625,-9986.5595703125,0.0,-12311.140625,-1027.5841064453125,0.0,-6354.64990234375,0.0,5594.0947265625,-0.0,-5652.10986328125
-1468.658447265625,-2655.188232421875,12768.109375,-7162.88916015625,8624.39453125,3375.21240234375,3919.6015625,-5106.92578125,0.0,-5021.09521484375,-1683.235107421875,-10473.728515625,0.0,0.0,0.0,-3312.4287109375,3763.039794921875,12420.0185546875,-0.0,-898.0433349609375,6388.8232421875,10205.9052734375,7731.91455078125,3632.70458984375,3138.383056640625,-7998.14892578125,-5131.5625,7838.40869140625,-3.1789143085479736,-1459.91650390625,11026.064453125,-5527.33740234375,9635.2890625,8704.662109375,6191.73046875,8854.0712890625,3167.788330078125,-1254.87646484375,6260.8720703125,-0.0,5122.8203125,-14514.12890625,2673.467041015625,13523.896484375,2990.563720703125,-6959.4384765625,5061.62646484375,5529.7216796875,2453.3271484375,4726.2509765625,3554.0263671875,-4096.03125,-9320.5771484375,-4563.33154296875,2696.51416015625,-4474.32177734375,0.0,-5929.47021484375,0.0,-6757.57763671875,-9456.4755859375,4400.412109375,-9978.6123046875,0.0,-12365.181640625,-1030.7630615234375,0.0,-6328.423828125,0.0,5598.86328125,-0.0,-5646.546875
-1475.0162353515625,-2675.85107421875,12816.5888671875,-7180.37255859375,8596.5791015625,3344.218017578125,3914.0380859375,-5116.462890625,0.0,-5024.2744140625,-1672.1090087890625,-10432.40234375,0.0,0.0,0.0,-3310.83935546875,3759.06640625,12407.302734375,-0.0,-901.2222290039062,6385.64453125,10188.419921875,7721.5830078125,3616.809814453125,3155.867431640625,-8039.474609375,-5133.94677734375,7823.30810546875,10.33147144317627,-1431.3062744140625,11014.9384765625,-5528.9267578125,9648.005859375,8695.1259765625,6177.42529296875,8834.998046875,3164.609130859375,-1266.002685546875,6283.9189453125,-0.0,5133.15185546875,-14558.6328125,2663.93017578125,13508.001953125,2985.795166015625,-6964.20654296875,5145.86767578125,5536.87451171875,2454.121826171875,4703.20361328125,3550.052734375,-4102.388671875,-9349.1865234375,-4567.30517578125,2713.203369140625,-4491.80615234375,0.0,-5945.3642578125,0.0,-6755.193359375,-9468.396484375,4388.4912109375,-9983.3798828125,0.0,-12406.5087890625,-1006.921142578125,0.0,-6319.681640625,0.0,5585.3525390625,-0.0,-5639.39404296875
-1468.658447265625,-2675.056396484375,12854.7353515625,-7149.37841796875,8580.6845703125,3370.444091796875,3907.680419921875,-5105.33642578125,0.0,-5023.4794921875,-1674.4931640625,-10522.2060546875,0.0,0.0,0.0,-3294.94482421875,3774.960693359375,12414.455078125,-0.0,-903.6064453125,6394.38623046875,10205.9052734375,7718.404296875,3627.141357421875,3163.814453125,-7956.822265625,-5141.89404296875,7844.765625,18.278757095336914,-1428.9219970703125,11025.26953125,-5514.62158203125,9666.283203125,8714.19921875,6177.42529296875,8850.8916015625,3160.6357421875,-1259.6448974609375,6304.58203125,-0.0,5150.63623046875,-14523.6650390625,2656.777587890625,13524.69140625,2980.232177734375,-6960.2333984375,5177.65673828125,5576.6103515625,2438.227294921875,4735.7880859375,3544.489501953125,-4090.468017578125,-9330.11328125,-4549.8212890625,2723.534912109375,-4463.19580078125,0.0,-5942.18603515625,0.0,-6745.65625,-9468.396484375,4393.259765625,-9984.17578125,0.0,-12443.0654296875,-1055.3995361328125,0.0,-6324.4501953125,0.0,5594.88916015625,-0.0,-5643.36767578125
-1487.73193359375,-2660.75146484375,12786.388671875,-7177.98876953125,8556.048828125,3345.0126953125,3904.501708984375,-5116.462890625,0.0,-5027.453125,-1653.0355224609375,-10488.828125,0.0,0.0,0.0,-3308.455322265625,3747.1455078125,12396.1767578125,-0.0,-908.374755859375,6363.39208984375,10182.0634765625,7702.50927734375,3609.6572265625,3159.8408203125,-8046.626953125,-5155.40478515625,7825.6923828125,18.278757095336914,-1437.6640625,11003.017578125,-5539.25830078125,9627.341796875,8689.5625,6158.35205078125,8829.4345703125,3152.688232421875,-1272.3604736328125,6260.0771484375,-0.0,5109.31005859375,-14552.275390625,2644.856689453125,13506.412109375,2977.053466796875,-6968.97509765625,5054.4736328125,5546.4111328125,2422.332763671875,4703.20361328125,3541.310546875,-4102.388671875,-9326.9345703125,-4506.111328125,2720.35595703125,-4487.03759765625,0.0,-5950.927734375,0.0,-6759.16650390625,-9473.9599609375,4377.365234375,-9992.123046875,0.0,-12420.0185546875,-1057.78369140625,0.0,-6329.21826171875,0.0,5616.3466796875,-0.0,-5633.8310546875
-1497.2686767578125,-2663.93017578125,12714.86328125,-7210.57275390625,8547.3056640625,3321.1708984375,3906.8857421875,-5124.41015625,0.0,-5026.65869140625,-1622.8358154296875,-10445.912109375,0.0,0.0,0.0,-3314.81298828125,3722.5087890625,12383.4609375,-0.0,-903.6064453125,6338.75537109375,10161.3994140625,7696.15185546875,3599.325927734375,3138.383056640625,-8096.69482421875,-5160.1728515625,7812.97705078125,0.0,-1409.0538330078125,10983.9443359375,-5558.33203125,9593.1689453125,8664.92578125,6145.63623046875,8811.951171875,3155.072509765625,-1281.1025390625,6229.08251953125,-0.0,5078.31591796875,-14585.654296875,2644.06201171875,13492.9013671875,2981.02685546875,-6971.359375,5024.2744140625,5496.34326171875,2415.974853515625,4677.7724609375,3543.69482421875,-4111.13134765625,-9270.5087890625,-4539.48974609375,2698.103759765625,-4442.533203125,0.0,-5950.927734375,0.0,-6763.14013671875,-9475.548828125,4368.623046875,-9992.123046875,0.0,-12367.56640625,-1041.88916015625,0.0,-6351.470703125,0.0,5602.83642578125,-0.0,-5635.42041015625
-1490.1160888671875,-2680.619384765625,12740.294921875,-7202.62548828125,8557.6376953125,3341.833740234375,3910.859619140625,-5114.87353515625,0.0,-5029.04248046875,-1655.419677734375,-10484.8544921875,0.0,0.0,0.0,-3310.04443359375,3733.635009765625,12392.203125,-0.0,-904.401123046875,6353.85498046875,10172.5263671875,7704.8935546875,3611.246826171875,3138.383056640625,-8043.4482421875,-5151.4306640625,7833.64013671875,0.0,-1432.1009521484375,10993.48046875,-5550.384765625,9607.474609375,8674.4619140625,6154.37841796875,8824.666015625,3159.046142578125,-1270.77099609375,6252.1298828125,-0.0,5091.03173828125,-14561.0166015625,2651.214599609375,13508.001953125,2983.4111328125,-6966.5908203125,5056.85791015625,5483.62744140625,2423.92236328125,4707.97216796875,3546.078857421875,-4100.7998046875,-9283.224609375,-4580.02099609375,2698.8984375,-4400.412109375,0.0,-5925.49658203125,0.0,-6755.98779296875,-9482.701171875,4377.365234375,-9987.3544921875,0.0,-12366.771484375,-1057.78369140625,0.0,-6341.13916015625,0.0,5587.73681640625,-0.0,-5660.85205078125
-1484.552978515625,-2683.798583984375,12763.3408203125,-7189.90966796875,8572.7373046875,3337.860107421875,3908.475341796875,-5122.8203125,0.0,-5034.60546875,-1668.9300537109375,-10476.9072265625,0.0,0.0,0.0,-3324.349609375,3745.555908203125,12395.3818359375,-0.0,-911.5537109375,6364.1865234375,10175.705078125,7708.07275390625,3608.06787109375,3152.688232421875,-8047.42138671875,-5142.68896484375,7821.71923828125,11.126200675964355,-1421.76953125,10999.8388671875,-5537.6689453125,9623.3681640625,8684.7939453125,6160.736328125,8827.0498046875,3157.45654296875,-1275.5394287109375,6268.8193359375,-0.0,5109.31005859375,-14554.66015625,2655.188232421875,13501.64453125,2980.232177734375,-6970.564453125,5067.98388671875,5513.0322265625,2438.227294921875,4692.87255859375,3543.69482421875,-4112.720703125,-9294.3505859375,-4545.05322265625,2711.614013671875,-4449.685546875,0.0,-5940.59619140625,0.0,-6766.3193359375,-9473.1650390625,4378.95458984375,-9989.73828125,0.0,-12367.56640625,-1023.6104736328125,0.0,-6338.75537109375,0.0,5578.19970703125,-0.0,-5666.41455078125
-1467.0689697265625,-2670.2880859375,12774.4677734375,-7181.96240234375,8581.4794921875,3338.65478515625,3906.8857421875,-5122.02587890625,0.0,-5030.6318359375,-1658.5985107421875,-10450.6806640625,0.0,0.0,0.0,-3321.965576171875,3752.70849609375,12400.150390625,-0.0,-909.9642333984375,6373.7236328125,10182.857421875,7711.251953125,3612.04150390625,3159.8408203125,-8045.037109375,-5142.68896484375,7816.1552734375,17.48402976989746,-1406.669677734375,11005.4013671875,-5528.1318359375,9630.5205078125,8695.1259765625,6167.09375,8829.4345703125,3156.662109375,-1273.949951171875,6270.40869140625,-0.0,5121.23095703125,-14549.095703125,2657.572509765625,13501.64453125,2977.053466796875,-6968.18017578125,5082.2890625,5525.74755859375,2443.79052734375,4684.92529296875,3542.900146484375,-4111.92578125,-9293.556640625,-4531.54248046875,2717.9716796875,-4439.35400390625,0.0,-5948.54345703125,0.0,-6763.93505859375,-9460.44921875,4381.33837890625,-9991.328125,0.0,-12369.9501953125,-1006.1264038085938,0.0,-6322.06591796875,0.0,5598.068359375,-0.0,-5648.93115234375
-1456.737548828125,-2662.3408203125,12775.26171875,-7177.98876953125,8584.658203125,3345.807373046875,3906.091064453125,-5117.2578125,0.0,-5029.04248046875,-1627.6041259765625,-10459.4228515625,0.0,0.0,0.0,-3315.607666015625,3752.70849609375,12402.5341796875,-0.0,-909.9642333984375,6374.51806640625,10187.6259765625,7713.6357421875,3615.22021484375,3162.22509765625,-8037.09033203125,-5144.27783203125,7825.6923828125,19.868215560913086,-1418.590576171875,11009.3759765625,-5529.7216796875,9630.5205078125,8695.919921875,6169.47802734375,8832.6142578125,3155.867431640625,-1269.976318359375,6263.255859375,-0.0,5122.02587890625,-14541.943359375,2656.777587890625,13509.5908203125,2977.053466796875,-6965.7958984375,5087.0576171875,5530.51611328125,2445.3798828125,4698.435546875,3543.69482421875,-4104.77294921875,-9299.119140625,-4530.748046875,2723.534912109375,-4444.9169921875,0.0,-5947.74853515625,0.0,-6759.16650390625,-9464.4228515625,4382.13330078125,-9988.9443359375,0.0,-12386.6396484375,-1025.99462890625,0.0,-6314.11865234375,0.0,5606.81005859375,-0.0,-5648.13623046875
