-2090.13623046875,-3285.407958984375,12090.2060546875,-7599.19482421875,7732.70947265625,2965.132568359375,3541.310546875,-5320.7080078125,0.0,-5109.31005859375,-2318.22314453125,-10890.9609375,0.0,0.0,0.0,-3487.26904296875,3151.098876953125,12033.7802734375,-0.0,-1039.5050048828125,5895.29638671875,9762.4462890625,7223.2880859375,3171.76171875,2709.229736328125,-8123.71533203125,-5630.65185546875,7468.859375,-394.1853942871094,-1893.04345703125,10443.5283203125,-6133.71533203125,9123.484375,8018.81103515625,5588.53125,8443.1962890625,2805.39208984375,-1435.27978515625,5606.015625,-0.0,4513.263671875,-14861.4248046875,2341.2705078125,13139.248046875,2630.551513671875,-7150.96826171875,4318.55517578125,5172.88818359375,3363.29150390625,4462.40087890625,3164.609130859375,-4287.56103515625,-10236.8994140625,-5093.41552734375,2216.498046875,-4443.32763671875,0.0,-6061.39501953125,0.0,-6896.65478515625,-10340.2138671875,3956.95361328125,-10193.1884765625,0.0,-12923.876953125,-1227.0609130859375,0.0,-6368.16015625,0.0,5226.93017578125,-0.0,-5834.8974609375
-2087.752197265625,-3270.308349609375,12094.1796875,-7584.8896484375,7731.11962890625,2971.490234375,3541.310546875,-5318.32373046875,0.0,-5103.7470703125,-2322.197021484375,-10923.544921875,0.0,0.0,0.0,-3484.090087890625,3155.072509765625,12033.7802734375,-0.0,-1033.147216796875,5898.4755859375,9768.0087890625,7223.2880859375,3174.94091796875,2704.46142578125,-8109.41015625,-5634.6259765625,7472.8330078125,-400.543212890625,-1935.9588623046875,10448.296875,-6131.3310546875,9127.4580078125,8025.16943359375,5589.326171875,8447.169921875,2806.9814453125,-1431.3062744140625,5613.962890625,-0.0,4514.85302734375,-14852.6826171875,2339.680908203125,13144.0166015625,2630.551513671875,-7145.40478515625,4325.7080078125,5211.830078125,3362.49658203125,4469.5537109375,3164.609130859375,-4281.20263671875,-10234.515625,-5160.1728515625,2211.729736328125,-4482.26953125,0.0,-6053.44775390625,0.0,-6891.88623046875,-10356.1083984375,3959.337646484375,-10188.419921875,0.0,-12923.0810546875,-1206.39794921875,0.0,-6349.8818359375,0.0,5225.34033203125,-0.0,-5827.7451171875
-2086.16259765625,-3267.924072265625,12090.2060546875,-7579.32666015625,7730.3251953125,2972.284912109375,3541.310546875,-5315.939453125,0.0,-5100.568359375,-2330.93896484375,-10943.4130859375,0.0,0.0,0.0,-3481.705810546875,3155.867431640625,12034.5751953125,-0.0,-1031.5577392578125,5896.09130859375,9770.3935546875,7222.49365234375,3176.530029296875,2700.48779296875,-8098.28466796875,-5633.8310546875,7470.44873046875,-402.1326599121094,-1908.1434326171875,10449.091796875,-6128.94677734375,9125.869140625,8028.34814453125,5587.73681640625,8447.169921875,2806.186767578125,-1429.7166748046875,5606.81005859375,-0.0,4511.67431640625,-14850.298828125,2340.475830078125,13144.0166015625,2630.551513671875,-7143.8154296875,4320.14453125,5220.57177734375,3362.49658203125,4468.75927734375,3163.019775390625,-4279.61328125,-10236.1044921875,-5167.32568359375,2207.756103515625,-4432.99609375,0.0,-6059.0107421875,0.0,-6888.70751953125,-10372.7978515625,3959.337646484375,-10187.6259765625,0.0,-12934.2080078125,-1226.2662353515625,0.0,-6326.833984375,0.0,5230.10888671875,-0.0,-5815.82421875
-2086.16259765625,-3259.9765625,12085.4375,-7588.068359375,7727.94091796875,2973.07958984375,3542.10546875,-5311.9658203125,0.0,-5100.568359375,-2322.99169921875,-10907.650390625,0.0,0.0,0.0,-3471.37451171875,3151.098876953125,12032.19140625,-0.0,-1033.94189453125,5892.91259765625,9765.625,7222.49365234375,3176.530029296875,2703.666748046875,-8101.46337890625,-5633.8310546875,7475.21728515625,-396.569580078125,-1810.3917236328125,10446.7080078125,-6135.3046875,9121.1005859375,8022.78515625,5586.1474609375,8445.580078125,2805.39208984375,-1428.9219970703125,5601.2470703125,-0.0,4506.90625,-14855.861328125,2341.2705078125,13146.400390625,2631.346435546875,-7142.2255859375,4312.9921875,5184.80908203125,3362.49658203125,4475.91162109375,3166.19873046875,-4274.84521484375,-10239.283203125,-5173.68310546875,2210.934814453125,-4473.52734375,0.0,-6051.8583984375,0.0,-6882.349609375,-10345.7763671875,3958.543212890625,-10186.8310546875,0.0,-12942.1552734375,-1245.3397216796875,0.0,-6322.86083984375,0.0,5226.93017578125,-0.0,-5818.2080078125
-2075.036376953125,-3252.823974609375,12097.3583984375,-7582.505859375,7737.4775390625,2988.179443359375,3546.873779296875,-5301.63427734375,0.0,-5094.2099609375,-2306.30224609375,-10880.6298828125,0.0,0.0,0.0,-3459.45361328125,3160.6357421875,12043.31640625,-0.0,-1028.3787841796875,5902.44921875,9776.751953125,7231.2353515625,3187.656494140625,2717.17724609375,-8069.67431640625,-5629.857421875,7490.31689453125,-383.0591735839844,-1811.981201171875,10456.244140625,-6125.76806640625,9133.021484375,8035.50048828125,5596.47900390625,8458.296875,2808.57080078125,-1419.38525390625,5621.115234375,-0.0,4519.62158203125,-14841.556640625,2348.423095703125,13159.9111328125,2634.525390625,-7134.27880859375,4317.76025390625,5199.1142578125,3372.033447265625,4491.80615234375,3168.5830078125,-4264.513671875,-10217.826171875,-5089.44189453125,2225.239990234375,-4459.22216796875,0.0,-6040.73193359375,0.0,-6872.0185546875,-10314.7822265625,3968.080078125,-10179.6787109375,0.0,-12922.287109375,-1242.95556640625,0.0,-6328.423828125,0.0,5232.4931640625,-0.0,-5829.33447265625
-2090.13623046875,-3273.487060546875,12087.02734375,-7592.8369140625,7728.7353515625,2976.258544921875,3542.10546875,-5315.939453125,0.0,-5099.7734375,-2322.197021484375,-10879.833984375,0.0,0.0,0.0,-3480.11669921875,3149.509521484375,12033.7802734375,-0.0,-1031.5577392578125,5894.501953125,9767.21484375,7220.90380859375,3174.94091796875,2710.8193359375,-8090.3369140625,-5637.01025390625,7478.39599609375,-393.3906555175781,-1831.8494873046875,10446.7080078125,-6132.9208984375,9122.689453125,8024.375,5586.9423828125,8449.5546875,2804.59716796875,-1428.1273193359375,5609.9892578125,-0.0,4510.87939453125,-14854.271484375,2341.2705078125,13148.7841796875,2632.14111328125,-7143.8154296875,4306.63427734375,5176.0673828125,3365.67578125,4481.474609375,3164.609130859375,-4280.408203125,-10225.7724609375,-5048.1162109375,2218.88232421875,-4347.9599609375,0.0,-6061.39501953125,0.0,-6888.70751953125,-10340.2138671875,3958.543212890625,-10187.6259765625,0.0,-12922.287109375,-1258.0552978515625,0.0,-6318.88720703125,0.0,5247.5927734375,-0.0,-5816.61865234375
-2111.593994140625,-3302.097412109375,12076.6953125,-7607.14208984375,7720.78857421875,2968.311279296875,3539.72119140625,-5323.88671875,0.0,-5103.7470703125,-2338.88623046875,-10925.1337890625,0.0,0.0,0.0,-3493.626953125,3139.97265625,12023.44921875,-0.0,-1033.94189453125,5882.5810546875,9752.1142578125,7212.95703125,3167.788330078125,2700.48779296875,-8118.15283203125,-5640.9833984375,7469.654296875,-402.1326599121094,-1815.16015625,10435.5810546875,-6146.43115234375,9109.9736328125,8010.8642578125,5575.81591796875,8438.427734375,2803.802490234375,-1435.27978515625,5598.068359375,-0.0,4498.95849609375,-14866.1923828125,2335.70751953125,13141.6318359375,2630.551513671875,-7151.7626953125,4298.68701171875,5156.19921875,3355.343994140625,4479.09033203125,3163.814453125,-4287.56103515625,-10238.48828125,-5082.2890625,2209.345458984375,-4331.2705078125,0.0,-6076.49462890625,0.0,-6897.44970703125,-10368.82421875,3950.595947265625,-10193.984375,0.0,-12948.5126953125,-1251.697509765625,0.0,-6349.8818359375,0.0,5230.10888671875,-0.0,-5812.64501953125
-2110.799072265625,-3314.81298828125,12075.9013671875,-7595.22119140625,7723.1728515625,2977.053466796875,3538.1318359375,-5319.11865234375,0.0,-5102.95263671875,-2328.554931640625,-10968.8447265625,0.0,0.0,0.0,-3490.447998046875,3144.740966796875,12028.2177734375,-0.0,-1035.5313720703125,5885.759765625,9760.0625,7216.1357421875,3173.351318359375,2708.43505859375,-8091.13232421875,-5633.8310546875,7476.01171875,-394.9801025390625,-1815.954833984375,10439.5546875,-6139.2783203125,9114.7421875,8018.0166015625,5578.99462890625,8443.9912109375,2803.802490234375,-1430.511474609375,5606.015625,-0.0,4500.5478515625,-14852.6826171875,2336.501953125,13148.7841796875,2629.7568359375,-7149.37841796875,4301.8662109375,5173.68310546875,3356.93359375,4487.83251953125,3162.22509765625,-4283.5869140625,-10229.7470703125,-5102.15771484375,2214.90869140625,-4345.57568359375,0.0,-6067.7529296875,0.0,-6892.68115234375,-10366.439453125,3955.3642578125,-10192.39453125,0.0,-12940.56640625,-1242.95556640625,0.0,-6375.31298828125,0.0,5224.5458984375,-0.0,-5819.00244140625
-2102.05712890625,-3314.81298828125,12078.28515625,-7596.81103515625,7723.1728515625,2969.10595703125,3538.1318359375,-5318.32373046875,0.0,-5099.7734375,-2317.4287109375,-10894.1396484375,0.0,0.0,0.0,-3481.705810546875,3147.125244140625,12026.6279296875,-0.0,-1035.5313720703125,5887.349609375,9758.47265625,7215.34130859375,3170.967041015625,2710.8193359375,-8115.7685546875,-5632.24169921875,7473.62744140625,-393.3906555175781,-1860.459716796875,10438.759765625,-6138.4833984375,9117.126953125,8018.81103515625,5579.78955078125,8442.40234375,2802.212890625,-1430.511474609375,5612.37353515625,-0.0,4502.93212890625,-14859.8359375,2335.70751953125,13144.810546875,2627.372802734375,-7146.19970703125,4305.83935546875,5184.80908203125,3355.343994140625,4474.32177734375,3162.22509765625,-4281.20263671875,-10222.5947265625,-5116.462890625,2216.498046875,-4409.94873046875,0.0,-6054.24267578125,0.0,-6886.3232421875,-10360.08203125,3952.97998046875,-10188.419921875,0.0,-12915.9287109375,-1235.802978515625,0.0,-6315.7080078125,0.0,5244.4140625,-0.0,-5815.029296875
-2099.673095703125,-3290.17626953125,12069.54296875,-7597.60546875,7716.814453125,2965.132568359375,3538.1318359375,-5318.32373046875,0.0,-5097.38916015625,-2328.554931640625,-10861.5556640625,0.0,0.0,0.0,-3481.705810546875,3142.35693359375,12023.44921875,-0.0,-1028.3787841796875,5881.7861328125,9755.2939453125,7212.95703125,3171.76171875,2702.0771484375,-8125.30517578125,-5638.599609375,7468.06494140625,-400.543212890625,-1848.5386962890625,10434.787109375,-6143.251953125,9109.1796875,8016.42724609375,5576.6103515625,8442.40234375,2802.212890625,-1432.8956298828125,5599.65771484375,-0.0,4497.369140625,-14861.4248046875,2334.91259765625,13143.2216796875,2628.962158203125,-7146.19970703125,4300.2763671875,5189.57763671875,3353.754638671875,4466.375,3161.430419921875,-4280.408203125,-10232.92578125,-5151.4306640625,2208.55078125,-4413.9228515625,0.0,-6059.0107421875,0.0,-6881.55517578125,-10348.9560546875,3951.390625,-10186.0361328125,0.0,-12920.697265625,-1235.00830078125,0.0,-6306.96630859375,0.0,5245.208984375,-0.0,-5802.3134765625
-2096.493896484375,-3256.003173828125,12072.72265625,-7598.39990234375,7718.404296875,2967.5166015625,3538.1318359375,-5315.939453125,0.0,-5094.2099609375,-2326.96533203125,-10859.9658203125,0.0,0.0,0.0,-3480.11669921875,3143.151611328125,12025.8330078125,-0.0,-1025.99462890625,5884.17041015625,9758.47265625,7214.54638671875,3172.556640625,2704.46142578125,-8123.71533203125,-5640.1884765625,7469.654296875,-397.3642883300781,-1822.312744140625,10433.9912109375,-6140.0732421875,9112.3583984375,8018.0166015625,5577.4052734375,8445.580078125,2801.418212890625,-1430.511474609375,5602.83642578125,-0.0,4499.75341796875,-14859.0400390625,2335.70751953125,13144.810546875,2628.962158203125,-7143.8154296875,4302.66064453125,5182.4248046875,3355.343994140625,4471.14306640625,3162.22509765625,-4279.61328125,-10232.130859375,-5131.5625,2212.5244140625,-4380.5439453125,0.0,-6059.80517578125,0.0,-6879.96533203125,-10328.29296875,3953.77490234375,-10185.2421875,0.0,-12921.4921875,-1216.7294921875,0.0,-6328.423828125,0.0,5232.4931640625,-0.0,-5798.33984375
-2108.414794921875,-3274.28173828125,12069.54296875,-7615.08935546875,7716.814453125,2961.953369140625,3538.1318359375,-5320.7080078125,0.0,-5095.0048828125,-2330.144287109375,-10890.166015625,0.0,0.0,0.0,-3485.6796875,3139.177978515625,12021.064453125,-0.0,-1025.99462890625,5880.197265625,9752.1142578125,7210.57275390625,3167.788330078125,2698.103759765625,-8129.279296875,-5642.57275390625,7464.8857421875,-406.1063232421875,-1851.7176513671875,10429.22265625,-6141.66259765625,9109.9736328125,8011.65869140625,5574.2265625,8439.2236328125,2801.418212890625,-1435.27978515625,5603.63134765625,-0.0,4496.57421875,-14868.5771484375,2334.91259765625,13138.453125,2629.7568359375,-7145.40478515625,4297.09765625,5149.84130859375,3352.9599609375,4464.78515625,3162.22509765625,-4285.97119140625,-10234.515625,-5113.28369140625,2206.16650390625,-4401.20703125,0.0,-6069.34228515625,0.0,-6882.349609375,-10333.85546875,3949.006591796875,-10186.8310546875,0.0,-12929.439453125,-1231.829345703125,0.0,-6357.82861328125,0.0,5234.08251953125,-0.0,-5793.5712890625
-2103.646484375,-3289.3818359375,12067.9541015625,-7611.91015625,7716.814453125,2958.774658203125,3541.310546875,-5321.5029296875,0.0,-5093.41552734375,-2324.5810546875,-10907.650390625,0.0,0.0,0.0,-3492.832275390625,3138.383056640625,12020.2705078125,-0.0,-1025.199951171875,5880.99169921875,9749.73046875,7212.162109375,3166.993408203125,2701.282470703125,-8130.8681640625,-5640.9833984375,7462.50146484375,-401.33795166015625,-1867.6121826171875,10430.0185546875,-6149.60986328125,9106.794921875,8010.8642578125,5574.2265625,8437.6337890625,2803.802490234375,-1436.0745849609375,5597.2734375,-0.0,4496.57421875,-14868.5771484375,2334.91259765625,13135.2744140625,2630.551513671875,-7144.60986328125,4297.09765625,5141.89404296875,3357.728271484375,4461.6064453125,3164.609130859375,-4288.35546875,-10235.3095703125,-5099.7734375,2208.55078125,-4398.82275390625,0.0,-6078.87890625,0.0,-6885.5283203125,-10345.7763671875,3949.006591796875,-10187.6259765625,0.0,-12924.6708984375,-1277.923583984375,0.0,-6357.0341796875,0.0,5241.2353515625,-0.0,-5780.06103515625
-2090.930908203125,-3265.539794921875,12075.9013671875,-7604.7578125,7725.556640625,2967.5166015625,3543.69482421875,-5315.14501953125,0.0,-5086.26318359375,-2322.99169921875,-10886.1923828125,0.0,0.0,0.0,-3482.500732421875,3145.53564453125,12029.01171875,-0.0,-1017.2525634765625,5887.349609375,9756.8828125,7219.314453125,3173.351318359375,2712.40869140625,-8120.53662109375,-5633.0361328125,7468.859375,-389.4170227050781,-1834.233642578125,10439.5546875,-6142.45751953125,9113.9482421875,8019.6064453125,5581.37890625,8447.169921875,2807.776123046875,-1428.9219970703125,5606.015625,-0.0,4504.52197265625,-14859.8359375,2338.88623046875,13144.810546875,2632.935791015625,-7135.8681640625,4305.83935546875,5143.4833984375,3364.880859375,4469.5537109375,3168.5830078125,-4281.99755859375,-10228.951171875,-5080.69970703125,2220.4716796875,-4390.0810546875,0.0,-6074.1103515625,0.0,-6875.99169921875,-10344.982421875,3956.1591796875,-10178.0888671875,0.0,-12917.5185546875,-1289.844482421875,0.0,-6330.01318359375,0.0,5252.361328125,-0.0,-5768.14013671875
-2101.262451171875,-3275.07666015625,12075.1064453125,-7612.705078125,7723.1728515625,2968.311279296875,3540.515869140625,-5312.7607421875,0.0,-5083.083984375,-2329.349609375,-10886.1923828125,0.0,0.0,0.0,-3476.142822265625,3143.151611328125,12027.4228515625,-0.0,-1018.8421020507812,5885.759765625,9756.087890625,7218.51953125,3173.351318359375,2708.43505859375,-8118.947265625,-5634.6259765625,7469.654296875,-392.5959167480469,-1841.38623046875,10436.3759765625,-6143.251953125,9110.7685546875,8014.83837890625,5580.583984375,8445.580078125,2806.9814453125,-1428.9219970703125,5595.68408203125,-0.0,4502.1376953125,-14865.3984375,2338.88623046875,13144.0166015625,2631.346435546875,-7133.48388671875,4304.25,5137.12548828125,3364.880859375,4470.34814453125,3165.404052734375,-4277.2294921875,-10232.130859375,-5098.18408203125,2217.292724609375,-4405.1806640625,0.0,-6066.9580078125,0.0,-6863.27587890625,-10356.9033203125,3955.3642578125,-10178.8837890625,0.0,-12927.849609375,-1284.2813720703125,0.0,-6333.98681640625,0.0,5244.4140625,-0.0,-5792.7763671875
-2098.878173828125,-3283.818603515625,12075.9013671875,-7616.6787109375,7723.96728515625,2963.54296875,3542.900146484375,-5319.11865234375,0.0,-5094.2099609375,-2320.607421875,-10901.2919921875,0.0,0.0,0.0,-3485.6796875,3143.151611328125,12025.8330078125,-0.0,-1022.815673828125,5886.5546875,9754.498046875,7217.72509765625,3171.76171875,2710.8193359375,-8130.8681640625,-5633.0361328125,7464.0908203125,-391.0064697265625,-1852.5123291015625,10436.3759765625,-6140.86767578125,9111.5634765625,8010.8642578125,5580.583984375,8441.607421875,2806.9814453125,-1428.9219970703125,5602.04150390625,-0.0,4505.31640625,-14872.55078125,2338.091552734375,13140.837890625,2632.14111328125,-7141.43115234375,4309.81298828125,5128.3837890625,3368.059814453125,4466.375,3166.19873046875,-4284.3818359375,-10223.388671875,-5110.10498046875,2216.498046875,-4398.82275390625,0.0,-6074.1103515625,0.0,-6879.96533203125,-10352.134765625,3956.1591796875,-10182.0634765625,0.0,-12925.4658203125,-1281.897216796875,0.0,-6373.7236328125,0.0,5234.876953125,-0.0,-5797.544921875
-2098.08349609375,-3309.25,12080.6689453125,-7619.06298828125,7726.35107421875,2957.97998046875,3543.69482421875,-5327.8603515625,0.0,-5105.33642578125,-2312.66015625,-10925.1337890625,0.0,0.0,0.0,-3503.16357421875,3140.767333984375,12022.654296875,-0.0,-1029.96826171875,5887.349609375,9751.3203125,7216.93017578125,3165.404052734375,2716.38232421875,-8134.841796875,-5630.65185546875,7452.96484375,-385.443359375,-1861.25439453125,10433.197265625,-6144.046875,9113.9482421875,8006.89013671875,5578.19970703125,8437.6337890625,2805.39208984375,-1435.27978515625,5607.60498046875,-0.0,4507.70068359375,-14874.140625,2340.475830078125,13132.095703125,2632.14111328125,-7152.5576171875,4317.76025390625,5126.79443359375,3370.444091796875,4459.22216796875,3165.404052734375,-4297.09765625,-10223.388671875,-5122.8203125,2223.650634765625,-4407.564453125,0.0,-6092.3896484375,0.0,-6901.4228515625,-10350.544921875,3951.390625,-10188.419921875,0.0,-12916.724609375,-1287.4603271484375,0.0,-6388.02880859375,0.0,5211.03515625,-0.0,-5810.2607421875
-2112.388671875,-3294.94482421875,12090.2060546875,-7614.29443359375,7729.5302734375,2965.132568359375,3541.310546875,-5325.47607421875,0.0,-5097.38916015625,-2323.786376953125,-10921.1611328125,0.0,0.0,0.0,-3499.190185546875,3147.919921875,12029.01171875,-0.0,-1027.5841064453125,5892.1181640625,9757.677734375,7218.51953125,3170.17236328125,2720.35595703125,-8121.3310546875,-5636.21533203125,7460.1171875,-381.4697265625,-1858.8701171875,10438.759765625,-6136.89404296875,9121.1005859375,8014.04296875,5581.37890625,8442.40234375,2803.802490234375,-1431.3062744140625,5615.55224609375,-0.0,4513.263671875,-14866.1923828125,2340.475830078125,13139.248046875,2632.14111328125,-7146.19970703125,4331.2705078125,5140.3046875,3371.23876953125,4467.96435546875,3163.019775390625,-4290.73974609375,-10240.078125,-5132.35693359375,2228.4189453125,-4410.74365234375,0.0,-6087.62109375,0.0,-6895.8603515625,-10353.724609375,3952.97998046875,-10184.447265625,0.0,-12911.16015625,-1281.1025390625,0.0,-6357.82861328125,0.0,5211.830078125,-0.0,-5811.0556640625
-2117.156982421875,-3300.5078125,12091.7958984375,-7603.96337890625,7728.7353515625,2965.92724609375,3538.1318359375,-5326.27099609375,0.0,-5097.38916015625,-2330.93896484375,-10920.365234375,0.0,0.0,0.0,-3497.6005859375,3152.688232421875,12029.01171875,-0.0,-1027.5841064453125,5892.1181640625,9760.0625,7217.72509765625,3171.76171875,2716.38232421875,-8117.3583984375,-5642.57275390625,7464.0908203125,-387.0328369140625,-1858.8701171875,10440.349609375,-6130.53662109375,9121.89453125,8021.1953125,5581.37890625,8443.9912109375,2803.0078125,-1429.7166748046875,5612.37353515625,-0.0,4510.87939453125,-14859.0400390625,2336.501953125,13139.248046875,2628.962158203125,-7146.19970703125,4332.8603515625,5162.55712890625,3368.059814453125,4466.375,3161.430419921875,-4289.150390625,-10256.767578125,-5138.71533203125,2223.650634765625,-4420.2802734375,0.0,-6080.46875,0.0,-6898.244140625,-10375.1826171875,3954.5693359375,-10184.447265625,0.0,-12918.3134765625,-1251.697509765625,0.0,-6349.0869140625,0.0,5226.93017578125,-0.0,-5801.51904296875
-2109.209716796875,-3293.355224609375,12087.822265625,-7597.60546875,7724.76171875,2962.748291015625,3536.542236328125,-5329.4501953125,0.0,-5098.18408203125,-2325.375732421875,-10928.3134765625,0.0,0.0,0.0,-3499.98486328125,3151.8935546875,12027.4228515625,-0.0,-1029.96826171875,5889.73388671875,9759.2666015625,7216.93017578125,3171.76171875,2712.40869140625,-8118.947265625,-5640.9833984375,7458.52783203125,-391.0064697265625,-1864.433349609375,10439.5546875,-6126.5625,9118.7158203125,8023.57958984375,5579.78955078125,8442.40234375,2800.62353515625,-1431.3062744140625,5611.57861328125,-0.0,4510.08447265625,-14860.6298828125,2335.70751953125,13136.0693359375,2627.372802734375,-7150.17333984375,4319.349609375,5172.88818359375,3364.086181640625,4459.22216796875,3163.019775390625,-4293.12353515625,-10257.5615234375,-5127.5888671875,2218.88232421875,-4426.63818359375,0.0,-6081.26318359375,0.0,-6898.244140625,-10401.408203125,3952.97998046875,-10187.6259765625,0.0,-12920.697265625,-1251.697509765625,0.0,-6340.3447265625,0.0,5235.671875,-0.0,-5796.75048828125
-2104.44140625,-3286.99755859375,12083.0537109375,-7593.6318359375,7720.78857421875,2965.132568359375,3535.74755859375,-5328.6552734375,0.0,-5100.568359375,-2315.04443359375,-10918.7763671875,0.0,0.0,0.0,-3500.779296875,3151.098876953125,12025.0390625,-0.0,-1032.3524169921875,5885.759765625,9760.8564453125,7214.54638671875,3172.556640625,2710.024658203125,-8111.79443359375,-5639.39404296875,7460.1171875,-392.5959167480469,-1879.533203125,10437.9658203125,-6127.357421875,9117.9208984375,8025.9638671875,5578.19970703125,8444.7861328125,2800.62353515625,-1432.1009521484375,5611.57861328125,-0.0,4504.52197265625,-14857.451171875,2332.5283203125,13138.453125,2628.16748046875,-7149.37841796875,4310.60791015625,5180.041015625,3359.31787109375,4470.34814453125,3163.019775390625,-4293.12353515625,-10230.541015625,-5177.65673828125,2216.498046875,-4434.58544921875,0.0,-6085.23681640625,0.0,-6899.03857421875,-10396.6396484375,3951.390625,-10188.419921875,0.0,-12918.3134765625,-1260.4395751953125,0.0,-6342.72900390625,0.0,5228.51953125,-0.0,-5799.134765625
-2098.878173828125,-3288.5869140625,12075.1064453125,-7592.04248046875,7718.404296875,2968.311279296875,3537.337158203125,-5323.88671875,0.0,-5097.38916015625,-2310.276123046875,-10924.3388671875,0.0,0.0,0.0,-3497.6005859375,3147.125244140625,12024.2431640625,-0.0,-1032.3524169921875,5884.96533203125,9760.8564453125,7215.34130859375,3172.556640625,2708.43505859375,-8104.64208984375,-5640.1884765625,7463.29638671875,-394.9801025390625,-1875.5594482421875,10436.3759765625,-6137.68896484375,9113.15234375,8021.99072265625,5577.4052734375,8444.7861328125,2801.418212890625,-1432.1009521484375,5604.42578125,-0.0,4502.1376953125,-14853.4775390625,2332.5283203125,13140.837890625,2626.578125,-7148.583984375,4303.45556640625,5193.5517578125,3360.112548828125,4477.5009765625,3159.8408203125,-4290.73974609375,-10217.0302734375,-5175.2724609375,2214.90869140625,-4422.66455078125,0.0,-6087.62109375,0.0,-6897.44970703125,-10364.0556640625,3954.5693359375,-10188.419921875,0.0,-12927.849609375,-1254.87646484375,0.0,-6334.78173828125,0.0,5222.9560546875,-0.0,-5796.75048828125
-2094.904541015625,-3285.407958984375,12067.1591796875,-7606.34765625,7714.43017578125,2962.748291015625,3538.1318359375,-5324.681640625,0.0,-5092.62109375,-2319.812744140625,-10919.5712890625,0.0,0.0,0.0,-3488.063720703125,3139.177978515625,12021.064453125,-0.0,-1027.5841064453125,5880.197265625,9753.7041015625,7212.95703125,3168.5830078125,2701.282470703125,-8115.7685546875,-5641.7783203125,7461.70654296875,-402.1326599121094,-1848.5386962890625,10429.22265625,-6148.81494140625,9105.205078125,8010.06982421875,5571.84228515625,8438.427734375,2802.212890625,-1431.3062744140625,5589.326171875,-0.0,4495.779296875,-14866.1923828125,2332.5283203125,13137.658203125,2627.372802734375,-7146.19970703125,4292.3291015625,5167.32568359375,3358.523193359375,4465.580078125,3161.430419921875,-4286.76611328125,-10226.5673828125,-5111.6943359375,2208.55078125,-4412.3330078125,0.0,-6081.26318359375,0.0,-6888.70751953125,-10339.4189453125,3952.97998046875,-10186.0361328125,0.0,-12934.2080078125,-1258.0552978515625,0.0,-6310.14501953125,0.0,5242.82470703125,-0.0,-5780.85546875
-2090.930908203125,-3283.818603515625,12063.98046875,-7624.6259765625,7712.8408203125,2956.390380859375,3538.1318359375,-5324.681640625,0.0,-5089.44189453125,-2326.170654296875,-10896.5234375,0.0,0.0,0.0,-3484.885009765625,3131.230712890625,12019.474609375,-0.0,-1023.6104736328125,5875.4287109375,9744.9619140625,7213.75146484375,3165.404052734375,2700.48779296875,-8138.0205078125,-5640.9833984375,7461.70654296875,-402.1326599121094,-1857.28076171875,10426.8388671875,-6152.78857421875,9100.4375,8002.1220703125,5570.2529296875,8433.6591796875,2803.0078125,-1432.1009521484375,5583.76318359375,-0.0,4492.60107421875,-14881.29296875,2334.117919921875,13137.658203125,2628.962158203125,-7144.60986328125,4289.9453125,5133.15185546875,3356.93359375,4459.22216796875,3163.814453125,-4285.1767578125,-10230.541015625,-5091.826171875,2206.96142578125,-4430.6123046875,0.0,-6070.13720703125,0.0,-6885.5283203125,-10353.724609375,3951.390625,-10184.447265625,0.0,-12930.234375,-1252.4923095703125,0.0,-6306.96630859375,0.0,5255.54052734375,-0.0,-5768.14013671875
-2097.288818359375,-3302.89208984375,12060.8017578125,-7622.2421875,7712.8408203125,2958.774658203125,3538.92626953125,-5319.91357421875,0.0,-5081.49462890625,-2331.733642578125,-10914.802734375,0.0,0.0,0.0,-3476.9375,3131.230712890625,12020.2705078125,-0.0,-1017.2525634765625,5873.04443359375,9745.7568359375,7215.34130859375,3168.5830078125,2698.8984375,-8137.22607421875,-5640.1884765625,7464.0908203125,-402.9273986816406,-1887.4803466796875,10426.8388671875,-6151.994140625,9098.84765625,8001.32763671875,5569.4580078125,8435.2490234375,2804.59716796875,-1428.1273193359375,5582.173828125,-0.0,4490.216796875,-14879.703125,2335.70751953125,13139.248046875,2630.551513671875,-7138.25244140625,4287.56103515625,5139.509765625,3356.93359375,4461.6064453125,3165.404052734375,-4278.81884765625,-10235.3095703125,-5116.462890625,2207.756103515625,-4438.55908203125,0.0,-6059.0107421875,0.0,-6877.5810546875,-10404.5869140625,3952.18505859375,-10182.0634765625,0.0,-12932.6181640625,-1236.59765625,0.0,-6295.83984375,0.0,5273.81884765625,-0.0,-5741.9140625
-2102.851806640625,-3321.1708984375,12060.005859375,-7609.5263671875,7712.04638671875,2959.5693359375,3539.72119140625,-5316.734375,0.0,-5079.9052734375,-2333.3232421875,-10931.4921875,0.0,0.0,0.0,-3469.784912109375,3133.61474609375,12019.474609375,-0.0,-1018.04736328125,5873.04443359375,9748.935546875,7215.34130859375,3170.17236328125,2698.8984375,-8120.53662109375,-5642.57275390625,7467.27001953125,-404.516845703125,-1893.04345703125,10427.6337890625,-6153.58349609375,9098.84765625,8007.685546875,5569.4580078125,8437.6337890625,2804.59716796875,-1426.537841796875,5579.78955078125,-0.0,4490.216796875,-14868.5771484375,2332.5283203125,13141.6318359375,2629.7568359375,-7135.8681640625,4288.35546875,5174.47802734375,3358.523193359375,4463.19580078125,3162.22509765625,-4277.2294921875,-10232.130859375,-5163.3515625,2207.756103515625,-4452.06982421875,0.0,-6053.44775390625,0.0,-6872.0185546875,-10398.228515625,3952.97998046875,-10182.0634765625,0.0,-12938.9765625,-1225.471435546875,0.0,-6291.8662109375,0.0,5260.30859375,-0.0,-5738.7353515625
-2089.34130859375,-3302.89208984375,12072.72265625,-7593.6318359375,7722.3779296875,2969.90087890625,3541.310546875,-5312.7607421875,0.0,-5090.23681640625,-2320.607421875,-10930.697265625,0.0,0.0,0.0,-3465.0166015625,3143.9462890625,12028.2177734375,-0.0,-1026.789306640625,5884.17041015625,9760.0625,7219.314453125,3177.324951171875,2714.79296875,-8092.72119140625,-5636.21533203125,7476.01171875,-388.6222839355469,-1887.4803466796875,10437.1708984375,-6148.0205078125,9107.58984375,8016.42724609375,5578.19970703125,8447.169921875,2806.186767578125,-1421.76953125,5591.71044921875,-0.0,4502.93212890625,-14855.0673828125,2338.88623046875,13149.5791015625,2631.346435546875,-7136.6630859375,4301.8662109375,5200.7041015625,3370.444091796875,4473.52734375,3163.019775390625,-4273.255859375,-10218.6201171875,-5192.7568359375,2222.06103515625,-4445.71142578125,0.0,-6043.9111328125,0.0,-6875.99169921875,-10331.4716796875,3960.927490234375,-10182.0634765625,0.0,-12927.0556640625,-1199.2454833984375,0.0,-6308.5556640625,0.0,5220.57177734375,-0.0,-5784.82958984375
-2081.394287109375,-3309.25,12076.6953125,-7602.37353515625,7724.76171875,2967.5166015625,3539.72119140625,-5318.32373046875,0.0,-5102.95263671875,-2313.454833984375,-10992.6865234375,0.0,0.0,0.0,-3472.169189453125,3145.53564453125,12026.6279296875,-0.0,-1033.94189453125,5885.759765625,9755.2939453125,7218.51953125,3174.94091796875,2718.766357421875,-8126.89501953125,-5634.6259765625,7476.01171875,-383.0591735839844,-1835.0283203125,10435.5810546875,-6142.45751953125,9110.7685546875,8016.42724609375,5578.99462890625,8443.9912109375,2804.59716796875,-1424.1536865234375,5598.86328125,-0.0,4505.31640625,-14865.3984375,2338.091552734375,13146.400390625,2629.7568359375,-7144.60986328125,4307.4287109375,5170.50390625,3372.033447265625,4473.52734375,3163.814453125,-4277.2294921875,-10217.826171875,-5134.7412109375,2226.034912109375,-4417.896484375,0.0,-6045.50048828125,0.0,-6888.70751953125,-10310.8095703125,3956.95361328125,-10187.6259765625,0.0,-12920.697265625,-1174.60888671875,0.0,-6318.09228515625,0.0,5208.65087890625,-0.0,-5824.56591796875
-2081.394287109375,-3295.739501953125,12082.2587890625,-7606.34765625,7726.35107421875,2968.311279296875,3541.310546875,-5323.091796875,0.0,-5110.10498046875,-2313.454833984375,-10983.9443359375,0.0,0.0,0.0,-3482.500732421875,3147.125244140625,12025.8330078125,-0.0,-1037.91552734375,5887.349609375,9756.8828125,7219.314453125,3173.351318359375,2716.38232421875,-8126.099609375,-5633.8310546875,7473.62744140625,-387.0328369140625,-1813.5706787109375,10437.1708984375,-6139.2783203125,9115.537109375,8018.0166015625,5579.78955078125,8443.9912109375,2804.59716796875,-1427.33251953125,5609.1943359375,-0.0,4509.2900390625,-14868.5771484375,2339.680908203125,13144.810546875,2628.962158203125,-7148.583984375,4312.197265625,5162.55712890625,3372.828125,4475.91162109375,3165.404052734375,-4283.5869140625,-10216.236328125,-5100.568359375,2224.4453125,-4375.77587890625,0.0,-6059.0107421875,0.0,-6899.83349609375,-10353.724609375,3956.95361328125,-10190.8046875,0.0,-12918.3134765625,-1199.2454833984375,0.0,-6312.529296875,0.0,5208.65087890625,-0.0,-5839.666015625
-2098.08349609375,-3294.150146484375,12084.6435546875,-7608.73193359375,7726.35107421875,2968.311279296875,3542.10546875,-5327.06591796875,0.0,-5112.4892578125,-2311.865478515625,-10924.3388671875,0.0,0.0,0.0,-3491.24267578125,3147.919921875,12025.8330078125,-0.0,-1039.5050048828125,5887.349609375,9756.8828125,7220.109375,3170.967041015625,2715.587646484375,-8120.53662109375,-5631.44677734375,7468.859375,-384.6486511230469,-1839.001953125,10436.3759765625,-6136.09912109375,9117.9208984375,8017.22216796875,5578.19970703125,8444.7861328125,2803.802490234375,-1429.7166748046875,5611.57861328125,-0.0,4510.87939453125,-14870.1669921875,2340.475830078125,13142.4267578125,2630.551513671875,-7153.35205078125,4314.58154296875,5159.3779296875,3372.033447265625,4475.91162109375,3166.19873046875,-4287.56103515625,-10215.44140625,-5123.615234375,2226.034912109375,-4395.6435546875,0.0,-6074.1103515625,0.0,-6906.19140625,-10372.0029296875,3956.95361328125,-10191.599609375,0.0,-12918.3134765625,-1262.82373046875,0.0,-6317.29736328125,0.0,5218.98291015625,-0.0,-5841.25537109375
-2141.79345703125,-3306.071044921875,12084.6435546875,-7607.93701171875,7723.96728515625,2969.10595703125,3540.515869140625,-5325.47607421875,0.0,-5106.130859375,-2314.249755859375,-10879.0400390625,0.0,0.0,0.0,-3488.063720703125,3148.71484375,12025.8330078125,-0.0,-1033.147216796875,5888.14404296875,9759.2666015625,7217.72509765625,3174.14599609375,2717.9716796875,-8114.1787109375,-5634.6259765625,7471.2431640625,-382.26446533203125,-1844.5650634765625,10437.9658203125,-6136.09912109375,9117.9208984375,8016.42724609375,5578.19970703125,8445.580078125,2803.0078125,-1429.7166748046875,5617.1416015625,-0.0,4510.08447265625,-14866.98828125,2337.296630859375,13144.0166015625,2628.16748046875,-7151.7626953125,4316.17138671875,5175.2724609375,3368.8544921875,4477.5009765625,3163.019775390625,-4286.76611328125,-10221.798828125,-5148.251953125,2227.624267578125,-4412.3330078125,0.0,-6068.5478515625,0.0,-6903.0126953125,-10360.08203125,3956.95361328125,-10190.009765625,0.0,-12920.697265625,-1307.32861328125,0.0,-6311.73486328125,0.0,5235.671875,-0.0,-5819.00244140625
-2171.9931640625,-3315.607666015625,12075.9013671875,-7611.11572265625,7714.43017578125,2961.15869140625,3536.542236328125,-5328.6552734375,0.0,-5106.92578125,-2333.3232421875,-10880.6298828125,0.0,0.0,0.0,-3487.26904296875,3139.97265625,12017.8857421875,-0.0,-1033.94189453125,5880.197265625,9752.1142578125,7210.57275390625,3168.5830078125,2704.46142578125,-8120.53662109375,-5644.16259765625,7465.6806640625,-398.9537658691406,-1869.9964599609375,10428.4287109375,-6140.86767578125,9109.9736328125,8010.06982421875,5568.6630859375,8439.2236328125,2802.212890625,-1435.27978515625,5608.39990234375,-0.0,4498.95849609375,-14874.140625,2330.93896484375,13138.453125,2628.16748046875,-7153.35205078125,4305.04443359375,5156.19921875,3360.112548828125,4468.75927734375,3160.6357421875,-4290.73974609375,-10224.1826171875,-5149.04638671875,2212.5244140625,-4408.359375,0.0,-6055.037109375,0.0,-6903.80712890625,-10360.876953125,3950.595947265625,-10194.7783203125,0.0,-12933.4130859375,-1285.076171875,0.0,-6313.32421875,0.0,5231.69873046875,-0.0,-5806.287109375
-2169.609130859375,-3302.097412109375,12070.337890625,-7615.88427734375,7708.07275390625,2954.006103515625,3534.952880859375,-5333.423828125,0.0,-5105.33642578125,-2346.83349609375,-10902.0869140625,0.0,0.0,0.0,-3484.885009765625,3135.204345703125,12012.322265625,-0.0,-1032.3524169921875,5872.24951171875,9746.5517578125,7206.5986328125,3162.22509765625,2694.1298828125,-8127.689453125,-5646.546875,7460.1171875,-410.0799560546875,-1928.8062744140625,10421.2763671875,-6144.046875,9102.02734375,8003.7119140625,5562.3056640625,8432.0703125,2799.828857421875,-1439.25341796875,5605.220703125,-0.0,4491.80615234375,-14879.703125,2327.760009765625,13132.8896484375,2626.578125,-7154.94140625,4292.3291015625,5137.12548828125,3352.165283203125,4460.8115234375,3162.22509765625,-4295.5078125,-10228.951171875,-5141.89404296875,2201.398193359375,-4452.8642578125,0.0,-6055.83203125,0.0,-6903.0126953125,-10406.1767578125,3947.416748046875,-10195.5732421875,0.0,-12946.9228515625,-1263.618408203125,0.0,-6311.73486328125,0.0,5221.36669921875,-0.0,-5802.3134765625
-2135.435791015625,-3302.097412109375,12074.3115234375,-7603.16845703125,7711.251953125,2961.15869140625,3536.542236328125,-5328.6552734375,0.0,-5098.978515625,-2334.91259765625,-10920.365234375,0.0,0.0,0.0,-3482.500732421875,3139.177978515625,12017.0908203125,-0.0,-1026.789306640625,5875.4287109375,9752.9091796875,7210.57275390625,3166.993408203125,2698.8984375,-8114.1787109375,-5641.7783203125,7463.29638671875,-404.516845703125,-1949.46923828125,10426.8388671875,-6139.2783203125,9106.794921875,8011.65869140625,5567.07373046875,8436.8388671875,2802.212890625,-1435.27978515625,5605.220703125,-0.0,4494.1904296875,-14868.5771484375,2330.144287109375,13136.86328125,2626.578125,-7147.7890625,4293.91845703125,5176.8623046875,3356.138916015625,4467.16943359375,3160.6357421875,-4289.9453125,-10228.1572265625,-5147.45703125,2205.371826171875,-4463.19580078125,0.0,-6066.9580078125,0.0,-6896.65478515625,-10413.3291015625,3952.18505859375,-10192.39453125,0.0,-12938.181640625,-1267.592041015625,0.0,-6315.7080078125,0.0,5238.05615234375,-0.0,-5780.85546875
-2101.262451171875,-3302.097412109375,12079.080078125,-7596.01611328125,7712.8408203125,2968.311279296875,3534.952880859375,-5325.47607421875,0.0,-5100.568359375,-2326.170654296875,-10940.234375,0.0,0.0,0.0,-3481.705810546875,3143.9462890625,12019.474609375,-0.0,-1030.7630615234375,5879.40234375,9757.677734375,7211.3671875,3170.17236328125,2705.256103515625,-8104.64208984375,-5640.9833984375,7466.47509765625,-396.569580078125,-1945.49560546875,10431.607421875,-6138.4833984375,9109.1796875,8016.42724609375,5569.4580078125,8441.607421875,2799.828857421875,-1432.8956298828125,5604.42578125,-0.0,4497.369140625,-14858.24609375,2330.93896484375,13140.837890625,2625.783203125,-7146.994140625,4299.48193359375,5208.65087890625,3358.523193359375,4474.32177734375,3159.046142578125,-4287.56103515625,-10229.7470703125,-5160.1728515625,2211.729736328125,-4404.38623046875,0.0,-6076.49462890625,0.0,-6891.091796875,-10385.513671875,3953.77490234375,-10192.39453125,0.0,-12922.287109375,-1274.74462890625,0.0,-6306.17138671875,0.0,5246.00341796875,-0.0,-5780.85546875
-2068.6787109375,-3305.276123046875,12082.2587890625,-7598.39990234375,7719.99365234375,2972.284912109375,3538.92626953125,-5320.7080078125,0.0,-5104.5419921875,-2320.607421875,-10929.90234375,0.0,0.0,0.0,-3477.732421875,3147.919921875,12025.0390625,-0.0,-1033.147216796875,5884.17041015625,9759.2666015625,7216.93017578125,3174.94091796875,2711.614013671875,-8107.8212890625,-5636.21533203125,7473.62744140625,-390.21173095703125,-1828.6705322265625,10435.5810546875,-6137.68896484375,9112.3583984375,8019.6064453125,5575.021484375,8448.759765625,2802.212890625,-1428.1273193359375,5604.42578125,-0.0,4502.1376953125,-14858.24609375,2334.91259765625,13146.400390625,2627.372802734375,-7146.19970703125,4309.0185546875,5179.24658203125,3365.67578125,4483.06396484375,3159.8408203125,-4283.5869140625,-10225.7724609375,-5151.4306640625,2220.4716796875,-4378.95458984375,0.0,-6067.7529296875,0.0,-6890.296875,-10344.1875,3958.543212890625,-10190.8046875,0.0,-12917.5185546875,-1262.82373046875,0.0,-6285.5087890625,0.0,5242.02978515625,-0.0,-5807.87646484375
-2066.29443359375,-3284.61328125,12075.1064453125,-7615.08935546875,7719.19873046875,2961.953369140625,3538.92626953125,-5329.4501953125,0.0,-5108.51513671875,-2308.6865234375,-10921.1611328125,0.0,0.0,0.0,-3488.063720703125,3138.383056640625,12018.6806640625,-0.0,-1032.3524169921875,5877.81298828125,9748.1416015625,7214.54638671875,3167.788330078125,2712.40869140625,-8122.12646484375,-5634.6259765625,7465.6806640625,-387.0328369140625,-1805.6234130859375,10426.8388671875,-6144.046875,9106.794921875,8008.47998046875,5568.6630859375,8440.8125,2801.418212890625,-1433.6904296875,5594.0947265625,-0.0,4502.93212890625,-14868.5771484375,2333.3232421875,13137.658203125,2628.962158203125,-7153.35205078125,4305.83935546875,5153.0205078125,3366.47021484375,4471.9375,3162.22509765625,-4293.12353515625,-10234.515625,-5133.94677734375,2222.855712890625,-4380.5439453125,0.0,-6065.36865234375,0.0,-6903.80712890625,-10356.1083984375,3953.77490234375,-10193.1884765625,0.0,-12936.591796875,-1251.697509765625,0.0,-6305.37646484375,0.0,5235.671875,-0.0,-5806.287109375
-2071.857421875,-3277.460693359375,12059.2119140625,-7642.1103515625,7710.45703125,2946.05908203125,3535.74755859375,-5339.78125,0.0,-5108.51513671875,-2326.170654296875,-10917.9814453125,0.0,0.0,0.0,-3503.16357421875,3122.48876953125,12007.5537109375,-0.0,-1031.5577392578125,5866.6865234375,9731.4521484375,7205.80419921875,3156.662109375,2706.845458984375,-8144.37890625,-5639.39404296875,7449.78564453125,-394.1853942871094,-1825.4915771484375,10412.5341796875,-6161.53076171875,9090.1064453125,7990.201171875,5559.12646484375,8425.712890625,2799.828857421875,-1444.0218505859375,5576.6103515625,-0.0,4491.80615234375,-14889.240234375,2329.349609375,13123.3525390625,2625.783203125,-7157.32568359375,4292.3291015625,5107.720703125,3358.523193359375,4451.27490234375,3161.430419921875,-4302.66064453125,-10242.4619140625,-5124.41015625,2214.90869140625,-4401.20703125,0.0,-6074.9052734375,0.0,-6912.54931640625,-10375.1826171875,3942.6484375,-10197.1630859375,0.0,-12931.029296875,-1262.029052734375,0.0,-6339.5498046875,0.0,5231.69873046875,-0.0,-5785.6240234375
-2064.704833984375,-3277.460693359375,12058.4169921875,-7645.2890625,7708.07275390625,2942.085205078125,3535.74755859375,-5341.37109375,0.0,-5107.720703125,-2325.375732421875,-10921.1611328125,0.0,0.0,0.0,-3509.521484375,3120.1044921875,12007.5537109375,-0.0,-1030.7630615234375,5866.6865234375,9732.24609375,7205.00927734375,3154.27783203125,2706.845458984375,-8147.55712890625,-5644.16259765625,7444.22314453125,-394.9801025390625,-1842.180908203125,10412.5341796875,-6167.09375,9088.5166015625,7988.6123046875,5558.33203125,8424.123046875,2799.828857421875,-1445.611328125,5577.4052734375,-0.0,4488.626953125,-14894.0087890625,2326.96533203125,13120.96875,2624.988525390625,-7158.9150390625,4293.12353515625,5098.18408203125,3356.93359375,4444.9169921875,3159.046142578125,-4305.04443359375,-10226.5673828125,-5118.8466796875,2215.703369140625,-4425.84375,0.0,-6090.00537109375,0.0,-6911.75439453125,-10344.1875,3942.6484375,-10197.95703125,0.0,-12913.544921875,-1275.5394287109375,0.0,-6347.49755859375,0.0,5230.90380859375,-0.0,-5779.2666015625
-2057.55224609375,-3264.7451171875,12067.1591796875,-7633.3681640625,7715.22509765625,2954.80078125,3538.1318359375,-5331.83447265625,0.0,-5102.15771484375,-2309.4814453125,-10906.060546875,0.0,0.0,0.0,-3500.779296875,3128.846435546875,12017.0908203125,-0.0,-1028.3787841796875,5876.22314453125,9745.7568359375,7212.95703125,3165.404052734375,2719.561279296875,-8131.6630859375,-5639.39404296875,7457.7333984375,-384.6486511230469,-1846.94921875,10423.66015625,-6163.1201171875,9099.642578125,7998.943359375,5569.4580078125,8436.0439453125,2803.0078125,-1436.8692626953125,5589.326171875,-0.0,4497.369140625,-14881.29296875,2333.3232421875,13132.8896484375,2628.16748046875,-7153.35205078125,4303.45556640625,5116.462890625,3365.67578125,4461.6064453125,3159.8408203125,-4297.09765625,-10212.26171875,-5137.92041015625,2227.624267578125,-4427.43310546875,0.0,-6085.23681640625,0.0,-6903.0126953125,-10331.4716796875,3952.97998046875,-10192.39453125,0.0,-12902.4189453125,-1277.1287841796875,0.0,-6316.5029296875,0.0,5238.05615234375,-0.0,-5785.6240234375
-2055.962890625,-3261.566162109375,12074.3115234375,-7630.98388671875,7719.99365234375,2959.5693359375,3537.337158203125,-5331.03955078125,0.0,-5115.66796875,-2302.328857421875,-10906.85546875,0.0,0.0,0.0,-3497.6005859375,3134.40966796875,12021.859375,-0.0,-1036.3260498046875,5880.99169921875,9749.73046875,7216.1357421875,3168.5830078125,2729.892822265625,-8130.07373046875,-5634.6259765625,7459.322265625,-375.1119079589844,-1842.9755859375,10429.22265625,-6156.7626953125,9105.205078125,8001.32763671875,5573.431640625,8440.8125,2803.0078125,-1436.0745849609375,5597.2734375,-0.0,4505.31640625,-14877.3193359375,2334.91259765625,13136.86328125,2627.372802734375,-7154.94140625,4307.4287109375,5117.2578125,3372.033447265625,4465.580078125,3161.430419921875,-4295.5078125,-10204.3154296875,-5128.3837890625,2237.955810546875,-4421.86962890625,0.0,-6074.1103515625,0.0,-6910.9599609375,-10329.8828125,3954.5693359375,-10192.39453125,0.0,-12894.470703125,-1270.77099609375,0.0,-6306.17138671875,0.0,5213.41943359375,-0.0,-5833.3076171875
-2055.962890625,-3257.592529296875,12082.2587890625,-7623.03662109375,7726.35107421875,2963.54296875,3542.10546875,-5326.27099609375,0.0,-5114.87353515625,-2295.970947265625,-10897.318359375,0.0,0.0,0.0,-3488.063720703125,3140.767333984375,12025.8330078125,-0.0,-1033.94189453125,5885.759765625,9753.7041015625,7218.51953125,3173.351318359375,2733.071533203125,-8121.3310546875,-5628.267578125,7463.29638671875,-371.13824462890625,-1842.9755859375,10434.787109375,-6150.404296875,9109.9736328125,8006.095703125,5577.4052734375,8444.7861328125,2803.802490234375,-1429.7166748046875,5603.63134765625,-0.0,4510.87939453125,-14870.1669921875,2338.091552734375,13140.0419921875,2630.551513671875,-7146.994140625,4314.58154296875,5134.7412109375,3378.391357421875,4467.16943359375,3162.22509765625,-4290.73974609375,-10202.7255859375,-5079.9052734375,2241.92919921875,-4398.02783203125,0.0,-6055.037109375,0.0,-6906.19140625,-10325.908203125,3959.337646484375,-10190.009765625,0.0,-12889.703125,-1246.92919921875,0.0,-6295.83984375,0.0,5218.98291015625,-0.0,-5836.48681640625
-2062.32080078125,-3273.487060546875,12079.080078125,-7627.01025390625,7726.35107421875,2959.5693359375,3542.10546875,-5327.8603515625,0.0,-5110.8994140625,-2298.35498046875,-10913.212890625,0.0,0.0,0.0,-3489.6533203125,3135.9990234375,12021.064453125,-0.0,-1032.3524169921875,5883.37548828125,9747.345703125,7218.51953125,3169.377685546875,2729.09814453125,-8128.48388671875,-5627.47314453125,7458.52783203125,-375.1119079589844,-1874.7647705078125,10427.6337890625,-6155.1728515625,9106.794921875,8001.32763671875,5575.021484375,8440.017578125,2805.39208984375,-1432.1009521484375,5601.2470703125,-0.0,4506.111328125,-14874.935546875,2338.88623046875,13134.4794921875,2629.7568359375,-7148.583984375,4317.76025390625,5133.15185546875,3379.18603515625,4460.0166015625,3165.404052734375,-4293.12353515625,-10216.236328125,-5094.2099609375,2238.75048828125,-4407.564453125,0.0,-6062.189453125,0.0,-6903.0126953125,-10342.59765625,3956.95361328125,-10190.009765625,0.0,-12896.060546875,-1249.3133544921875,0.0,-6320.4765625,0.0,5205.47265625,-0.0,-5836.48681640625
-2070.267822265625,-3286.20263671875,12080.6689453125,-7627.80517578125,7727.14599609375,2957.97998046875,3542.900146484375,-5327.8603515625,0.0,-5106.92578125,-2303.918212890625,-10934.6708984375,0.0,0.0,0.0,-3494.421630859375,3136.7939453125,12021.859375,-0.0,-1030.7630615234375,5882.5810546875,9745.7568359375,7219.314453125,3167.788330078125,2723.534912109375,-8127.689453125,-5629.0625,7456.14404296875,-382.26446533203125,-1905.7591552734375,10427.6337890625,-6153.58349609375,9106.794921875,8001.32763671875,5575.021484375,8440.017578125,2807.776123046875,-1433.6904296875,5597.2734375,-0.0,4506.90625,-14877.3193359375,2340.475830078125,13133.685546875,2632.14111328125,-7148.583984375,4327.29736328125,5140.3046875,3378.391357421875,4456.04345703125,3167.788330078125,-4293.91845703125,-10227.3623046875,-5148.251953125,2230.00830078125,-4451.27490234375,0.0,-6081.26318359375,0.0,-6894.2705078125,-10348.9560546875,3955.3642578125,-10187.6259765625,0.0,-12909.5712890625,-1279.5130615234375,0.0,-6361.0078125,0.0,5164.94140625,-0.0,-5850.7919921875
-2094.904541015625,-3291.765869140625,12082.2587890625,-7613.5,7731.11962890625,2968.311279296875,3544.489501953125,-5320.7080078125,0.0,-5098.978515625,-2307.891845703125,-10949.7705078125,0.0,0.0,0.0,-3488.063720703125,3142.35693359375,12028.2177734375,-0.0,-1024.4051513671875,5888.14404296875,9754.498046875,7223.2880859375,3175.7353515625,2725.9189453125,-8112.58984375,-5627.47314453125,7465.6806640625,-375.1119079589844,-1890.6593017578125,10432.40234375,-6148.81494140625,9111.5634765625,8008.47998046875,5580.583984375,8446.3759765625,2810.160400390625,-1425.7431640625,5603.63134765625,-0.0,4511.67431640625,-14866.1923828125,2342.85986328125,13143.2216796875,2632.935791015625,-7143.0205078125,4316.9658203125,5168.9150390625,3379.18603515625,4471.14306640625,3168.5830078125,-4284.3818359375,-10218.6201171875,-5159.3779296875,2232.392578125,-4439.35400390625,0.0,-6086.826171875,0.0,-6887.91259765625,-10354.5185546875,3961.721923828125,-10182.857421875,0.0,-12918.3134765625,-1281.897216796875,0.0,-6345.11328125,0.0,5217.3935546875,-0.0,-5823.77099609375
-2088.546875,-3271.8974609375,12097.3583984375,-7591.24755859375,7739.86181640625,2983.4111328125,3542.900146484375,-5313.55517578125,0.0,-5097.38916015625,-2291.997314453125,-10953.744140625,0.0,0.0,0.0,-3480.9111328125,3159.046142578125,12041.7275390625,-0.0,-1023.6104736328125,5900.06494140625,9770.3935546875,7231.2353515625,3186.86181640625,2744.19775390625,-8093.51611328125,-5624.29443359375,7480.7802734375,-357.62786865234375,-1853.30712890625,10446.7080078125,-6127.357421875,9127.4580078125,8026.75927734375,5589.326171875,8459.8857421875,2809.365478515625,-1417.7957763671875,5621.115234375,-0.0,4525.1845703125,-14845.5302734375,2343.654541015625,13155.9375,2631.346435546875,-7139.04736328125,4324.1181640625,5188.783203125,3384.749267578125,4490.216796875,3165.404052734375,-4278.81884765625,-10197.95703125,-5079.11083984375,2251.466064453125,-4402.79638671875,0.0,-6070.13720703125,0.0,-6895.8603515625,-10351.33984375,3972.848388671875,-10181.267578125,0.0,-12900.03515625,-1270.77099609375,0.0,-6353.06005859375,0.0,5234.876953125,-0.0,-5799.92919921875
-2086.16259765625,-3279.050048828125,12090.2060546875,-7602.37353515625,7729.5302734375,2973.07958984375,3540.515869140625,-5320.7080078125,0.0,-5106.130859375,-2294.38134765625,-10934.6708984375,0.0,0.0,0.0,-3478.527099609375,3151.8935546875,12033.7802734375,-0.0,-1029.1734619140625,5892.1181640625,9761.6513671875,7224.0830078125,3178.11962890625,2730.6875,-8112.58984375,-5630.65185546875,7472.0380859375,-374.3171691894531,-1839.001953125,10438.759765625,-6132.9208984375,9119.5107421875,8019.6064453125,5582.173828125,8452.7333984375,2805.39208984375,-1425.7431640625,5613.962890625,-0.0,4516.44287109375,-14858.24609375,2338.88623046875,13147.1953125,2628.962158203125,-7143.8154296875,4320.14453125,5161.76220703125,3375.21240234375,4476.7060546875,3162.22509765625,-4282.79248046875,-10198.751953125,-5074.34228515625,2237.160888671875,-4391.67041015625,0.0,-6052.65283203125,0.0,-6900.62841796875,-10363.2607421875,3965.69580078125,-10189.2158203125,0.0,-12903.2138671875,-1263.618408203125,0.0,-6366.57080078125,0.0,5198.31982421875,-0.0,-5796.75048828125
-2067.089111328125,-3286.20263671875,12087.822265625,-7613.5,7724.76171875,2967.5166015625,3538.92626953125,-5319.91357421875,0.0,-5105.33642578125,-2300.7392578125,-10920.365234375,0.0,0.0,0.0,-3472.964111328125,3146.33056640625,12030.6015625,-0.0,-1031.5577392578125,5887.349609375,9755.2939453125,7222.49365234375,3177.324951171875,2720.35595703125,-8129.279296875,-5637.01025390625,7470.44873046875,-383.0591735839844,-1854.896484375,10434.787109375,-6138.4833984375,9115.537109375,8011.65869140625,5578.19970703125,8449.5546875,2806.186767578125,-1427.33251953125,5611.57861328125,-0.0,4512.46875,-14870.9609375,2336.501953125,13144.0166015625,2628.962158203125,-7143.0205078125,4322.52880859375,5140.3046875,3371.23876953125,4467.16943359375,3164.609130859375,-4281.99755859375,-10196.3681640625,-5095.0048828125,2227.624267578125,-4392.46533203125,0.0,-6043.9111328125,0.0,-6896.65478515625,-10348.9560546875,3964.106201171875,-10186.8310546875,0.0,-12912.75,-1257.2606201171875,0.0,-6348.2919921875,0.0,5197.52490234375,-0.0,-5809.4658203125
-2058.346923828125,-3287.792236328125,12083.0537109375,-7619.06298828125,7719.99365234375,2964.337646484375,3536.542236328125,-5324.681640625,0.0,-5104.5419921875,-2314.249755859375,-10910.0341796875,0.0,0.0,0.0,-3492.03759765625,3143.9462890625,12027.4228515625,-0.0,-1026.789306640625,5882.5810546875,9752.9091796875,7220.109375,3175.7353515625,2717.9716796875,-8127.689453125,-5640.1884765625,7464.8857421875,-386.23809814453125,-1867.6121826171875,10432.40234375,-6142.45751953125,9112.3583984375,8006.89013671875,5576.6103515625,8445.580078125,2803.802490234375,-1431.3062744140625,5610.7841796875,-0.0,4506.111328125,-14877.3193359375,2334.117919921875,13140.837890625,2627.372802734375,-7145.40478515625,4320.14453125,5138.71533203125,3367.264892578125,4464.78515625,3163.814453125,-4289.9453125,-10204.3154296875,-5122.02587890625,2224.4453125,-4402.79638671875,0.0,-6062.984375,0.0,-6903.80712890625,-10344.1875,3960.132568359375,-10186.8310546875,0.0,-12933.4130859375,-1262.82373046875,0.0,-6322.06591796875,0.0,5230.90380859375,-0.0,-5801.51904296875
-2066.29443359375,-3293.355224609375,12075.9013671875,-7623.8310546875,7715.22509765625,2956.390380859375,3538.1318359375,-5331.83447265625,0.0,-5108.51513671875,-2314.249755859375,-10920.365234375,0.0,0.0,0.0,-3506.342529296875,3138.383056640625,12020.2705078125,-0.0,-1027.5841064453125,5878.607421875,9746.5517578125,7214.54638671875,3167.788330078125,2717.17724609375,-8133.251953125,-5640.9833984375,7453.759765625,-384.6486511230469,-1893.04345703125,10426.044921875,-6144.841796875,9106.0,8002.1220703125,5571.04736328125,8438.427734375,2800.62353515625,-1436.0745849609375,5603.63134765625,-0.0,4500.5478515625,-14881.29296875,2330.93896484375,13132.095703125,2624.988525390625,-7150.17333984375,4309.0185546875,5136.3310546875,3362.49658203125,4456.837890625,3161.430419921875,-4300.2763671875,-10212.26171875,-5145.86767578125,2226.034912109375,-4425.048828125,0.0,-6087.62109375,0.0,-6913.34375,-10356.1083984375,3955.3642578125,-10191.599609375,0.0,-12923.876953125,-1285.076171875,0.0,-6329.21826171875,0.0,5238.85107421875,-0.0,-5791.98193359375
-2087.752197265625,-3304.4814453125,12065.5703125,-7629.39453125,7707.27783203125,2950.032470703125,3536.542236328125,-5336.6025390625,0.0,-5114.07861328125,-2319.812744140625,-10941.0283203125,0.0,0.0,0.0,-3511.90576171875,3130.43603515625,12013.1181640625,-0.0,-1033.147216796875,5870.66015625,9739.3994140625,7210.57275390625,3161.430419921875,2709.229736328125,-8137.22607421875,-5643.36767578125,7446.60693359375,-391.80120849609375,-1884.301513671875,10418.8916015625,-6153.58349609375,9097.2587890625,7997.353515625,5562.3056640625,8431.275390625,2799.828857421875,-1441.6376953125,5594.0947265625,-0.0,4492.60107421875,-14884.4716796875,2327.760009765625,13126.5322265625,2624.988525390625,-7156.53076171875,4293.91845703125,5135.5361328125,3357.728271484375,4449.685546875,3159.046142578125,-4305.04443359375,-10225.7724609375,-5146.662109375,2219.677001953125,-4437.7646484375,0.0,-6095.568359375,0.0,-6918.9072265625,-10368.82421875,3947.416748046875,-10197.95703125,0.0,-12912.75,-1310.5074462890625,0.0,-6334.78173828125,0.0,5230.90380859375,-0.0,-5803.9033203125
-2095.69921875,-3306.071044921875,12062.390625,-7630.98388671875,7704.09912109375,2952.416748046875,3537.337158203125,-5334.21826171875,0.0,-5109.31005859375,-2329.349609375,-10945.796875,0.0,0.0,0.0,-3510.316162109375,3128.846435546875,12013.1181640625,-0.0,-1030.7630615234375,5867.4814453125,9740.193359375,7210.57275390625,3163.814453125,2705.256103515625,-8132.45751953125,-5643.36767578125,7449.78564453125,-394.9801025390625,-1864.433349609375,10417.3017578125,-6154.37841796875,9095.6689453125,7994.96923828125,5561.5107421875,8431.275390625,2800.62353515625,-1440.843017578125,5589.326171875,-0.0,4489.421875,-14882.087890625,2330.144287109375,13127.3271484375,2627.372802734375,-7152.5576171875,4290.73974609375,5129.1787109375,3358.523193359375,4453.6591796875,3160.6357421875,-4301.0712890625,-10229.7470703125,-5141.89404296875,2214.90869140625,-4434.58544921875,0.0,-6093.97900390625,0.0,-6911.75439453125,-10378.3603515625,3947.416748046875,-10193.1884765625,0.0,-12915.9287109375,-1292.228759765625,0.0,-6318.09228515625,0.0,5243.61962890625,-0.0,-5804.69775390625
-2074.24169921875,-3298.12353515625,12074.3115234375,-7613.5,7712.8408203125,2967.5166015625,3541.310546875,-5323.88671875,0.0,-5100.568359375,-2318.22314453125,-10937.0546875,0.0,0.0,0.0,-3496.805908203125,3139.177978515625,12023.44921875,-0.0,-1023.6104736328125,5877.81298828125,9752.1142578125,7219.314453125,3174.14599609375,2714.79296875,-8110.20556640625,-5635.42041015625,7461.70654296875,-385.443359375,-1850.9229736328125,10426.8388671875,-6142.45751953125,9107.58984375,8006.89013671875,5571.84228515625,8444.7861328125,2804.59716796875,-1431.3062744140625,5602.83642578125,-0.0,4497.369140625,-14869.3720703125,2337.296630859375,13138.453125,2629.7568359375,-7141.43115234375,4307.4287109375,5148.251953125,3368.8544921875,4467.96435546875,3163.814453125,-4290.73974609375,-10213.8515625,-5133.94677734375,2224.4453125,-4429.0224609375,0.0,-6081.26318359375,0.0,-6899.83349609375,-10355.3134765625,3957.74853515625,-10185.2421875,0.0,-12902.4189453125,-1269.976318359375,0.0,-6302.19775390625,0.0,5253.95068359375,-0.0,-5795.95556640625
-2065.49951171875,-3302.89208984375,12074.3115234375,-7613.5,7713.6357421875,2968.311279296875,3539.72119140625,-5326.27099609375,0.0,-5101.36279296875,-2314.249755859375,-10937.849609375,0.0,0.0,0.0,-3492.03759765625,3142.35693359375,12023.44921875,-0.0,-1024.4051513671875,5878.607421875,9754.498046875,7217.72509765625,3174.94091796875,2717.9716796875,-8111.79443359375,-5636.21533203125,7462.50146484375,-384.6486511230469,-1869.9964599609375,10427.6337890625,-6140.86767578125,9106.794921875,8007.685546875,5571.04736328125,8444.7861328125,2803.0078125,-1432.1009521484375,5602.83642578125,-0.0,4499.75341796875,-14871.7568359375,2334.117919921875,13139.248046875,2627.372802734375,-7143.0205078125,4308.2236328125,5156.99365234375,3368.059814453125,4471.14306640625,3163.814453125,-4289.9453125,-10210.6728515625,-5148.251953125,2227.624267578125,-4413.9228515625,0.0,-6074.9052734375,0.0,-6899.83349609375,-10354.5185546875,3956.95361328125,-10187.6259765625,0.0,-12904.0078125,-1295.4075927734375,0.0,-6299.81396484375,0.0,5248.3876953125,-0.0,-5795.16064453125
-2085.367919921875,-3337.0654296875,12067.1591796875,-7620.65283203125,7708.07275390625,2957.97998046875,3537.337158203125,-5328.6552734375,0.0,-5101.36279296875,-2324.5810546875,-10952.94921875,0.0,0.0,0.0,-3490.447998046875,3134.40966796875,12014.70703125,-0.0,-1026.789306640625,5870.66015625,9745.7568359375,7212.95703125,3169.377685546875,2714.79296875,-8125.30517578125,-5640.9833984375,7458.52783203125,-389.4170227050781,-1883.5068359375,10422.8662109375,-6150.404296875,9102.02734375,8000.533203125,5565.484375,8436.8388671875,2800.62353515625,-1434.485107421875,5599.65771484375,-0.0,4494.98486328125,-14880.498046875,2330.144287109375,13133.685546875,2625.783203125,-7145.40478515625,4298.68701171875,5156.99365234375,3364.086181640625,4460.8115234375,3161.430419921875,-4291.5341796875,-10218.6201171875,-5166.53076171875,2221.2666015625,-4413.1279296875,0.0,-6072.52099609375,0.0,-6898.244140625,-10375.9765625,3951.390625,-10191.599609375,0.0,-12912.75,-1315.2757568359375,0.0,-6287.892578125,0.0,5252.361328125,-0.0,-5790.392578125
-2106.82568359375,-3348.986328125,12066.3642578125,-7622.2421875,7708.07275390625,2952.416748046875,3538.92626953125,-5329.4501953125,0.0,-5098.978515625,-2322.99169921875,-10955.333984375,0.0,0.0,0.0,-3491.24267578125,3131.230712890625,12012.322265625,-0.0,-1024.4051513671875,5869.865234375,9742.5771484375,7211.3671875,3165.404052734375,2713.203369140625,-8134.841796875,-5640.9833984375,7457.7333984375,-389.4170227050781,-1889.0699462890625,10418.8916015625,-6152.78857421875,9098.84765625,7998.943359375,5563.89453125,8433.6591796875,2803.0078125,-1436.0745849609375,5600.45263671875,-0.0,4493.3955078125,-14885.2666015625,2330.144287109375,13131.30078125,2628.962158203125,-7146.19970703125,4297.09765625,5148.251953125,3364.086181640625,4454.4541015625,3162.22509765625,-4292.3291015625,-10224.978515625,-5161.76220703125,2221.2666015625,-4420.2802734375,0.0,-6072.52099609375,0.0,-6895.8603515625,-10370.4140625,3951.390625,-10188.419921875,0.0,-12918.3134765625,-1289.0498046875,0.0,-6291.8662109375,0.0,5253.95068359375,-0.0,-5785.6240234375
-2094.10986328125,-3313.2236328125,12075.1064453125,-7618.2685546875,7713.6357421875,2959.5693359375,3541.310546875,-5323.88671875,0.0,-5093.41552734375,-2308.6865234375,-10929.90234375,0.0,0.0,0.0,-3483.29541015625,3137.58837890625,12019.474609375,-0.0,-1021.2262573242188,5877.01806640625,9749.73046875,7215.34130859375,3170.17236328125,2721.945556640625,-8134.841796875,-5634.6259765625,7465.6806640625,-380.67498779296875,-1878.7384033203125,10424.455078125,-6144.841796875,9106.794921875,8003.7119140625,5569.4580078125,8439.2236328125,2805.39208984375,-1431.3062744140625,5606.81005859375,-0.0,4502.1376953125,-14881.29296875,2334.91259765625,13139.248046875,2631.346435546875,-7140.63623046875,4305.04443359375,5146.662109375,3372.828125,4463.19580078125,3164.609130859375,-4285.1767578125,-10217.826171875,-5137.12548828125,2230.00830078125,-4409.94873046875,0.0,-6062.189453125,0.0,-6890.296875,-10368.029296875,3956.95361328125,-10182.0634765625,0.0,-12911.9560546875,-1242.1607666015625,0.0,-6296.634765625,0.0,5251.56640625,-0.0,-5784.03466796875
-2075.8310546875,-3284.61328125,12075.1064453125,-7624.6259765625,7712.04638671875,2954.80078125,3538.92626953125,-5328.6552734375,0.0,-5096.59423828125,-2315.04443359375,-10933.8759765625,0.0,0.0,0.0,-3486.474365234375,3134.40966796875,12017.0908203125,-0.0,-1022.815673828125,5876.22314453125,9744.1669921875,7212.95703125,3166.993408203125,2719.561279296875,-8129.279296875,-5637.8046875,7458.52783203125,-383.8539123535156,-1889.8646240234375,10421.2763671875,-6143.251953125,9102.8212890625,7998.943359375,5566.27880859375,8434.455078125,2804.59716796875,-1433.6904296875,5599.65771484375,-0.0,4500.5478515625,-14888.4462890625,2333.3232421875,13133.685546875,2628.962158203125,-7144.60986328125,4304.25,5141.89404296875,3370.444091796875,4454.4541015625,3163.814453125,-4288.35546875,-10214.646484375,-5153.0205078125,2227.624267578125,-4416.30712890625,0.0,-6064.57373046875,0.0,-6891.88623046875,-10374.38671875,3952.18505859375,-10185.2421875,0.0,-12921.4921875,-1242.1607666015625,0.0,-6304.58203125,0.0,5242.82470703125,-0.0,-5798.33984375
-2056.757568359375,-3279.050048828125,12076.6953125,-7621.447265625,7712.04638671875,2957.18505859375,3538.92626953125,-5327.8603515625,0.0,-5097.38916015625,-2312.66015625,-10940.234375,0.0,0.0,0.0,-3488.063720703125,3136.7939453125,12019.474609375,-0.0,-1024.4051513671875,5877.01806640625,9744.9619140625,7213.75146484375,3167.788330078125,2717.17724609375,-8124.5107421875,-5640.9833984375,7459.322265625,-385.443359375,-1890.6593017578125,10424.455078125,-6138.4833984375,9104.4111328125,8001.32763671875,5567.86865234375,8436.8388671875,2803.802490234375,-1431.3062744140625,5598.86328125,-0.0,4499.75341796875,-14885.2666015625,2333.3232421875,13133.685546875,2628.16748046875,-7145.40478515625,4309.0185546875,5153.0205078125,3372.828125,4456.837890625,3162.22509765625,-4287.56103515625,-10205.109375,-5169.70947265625,2224.4453125,-4432.201171875,0.0,-6066.16357421875,0.0,-6895.0654296875,-10354.5185546875,3954.5693359375,-10186.0361328125,0.0,-12911.9560546875,-1251.697509765625,0.0,-6300.6083984375,0.0,5250.77197265625,-0.0,-5784.03466796875
-2075.036376953125,-3319.581298828125,12067.9541015625,-7634.9580078125,7706.4833984375,2947.648193359375,3535.74755859375,-5335.8076171875,0.0,-5104.5419921875,-2319.01806640625,-10972.0234375,0.0,0.0,0.0,-3499.98486328125,3125.66748046875,12010.7333984375,-0.0,-1030.7630615234375,5869.0703125,9736.220703125,7207.3935546875,3160.6357421875,2711.614013671875,-8153.91552734375,-5644.16259765625,7448.1962890625,-390.21173095703125,-1890.6593017578125,10414.91796875,-6156.7626953125,9096.462890625,7990.99658203125,5561.5107421875,8427.302734375,2799.0341796875,-1440.843017578125,5598.86328125,-0.0,4491.80615234375,-14896.392578125,2329.349609375,13123.3525390625,2626.578125,-7151.7626953125,4297.09765625,5133.94677734375,3369.649169921875,4448.095703125,3160.6357421875,-4295.5078125,-10213.0576171875,-5199.9091796875,2218.88232421875,-4449.685546875,0.0,-6081.26318359375,0.0,-6903.0126953125,-10359.287109375,3948.211669921875,-10193.984375,0.0,-12909.5712890625,-1248.5185546875,0.0,-6311.73486328125,0.0,5246.7978515625,-0.0,-5784.03466796875
-2086.957275390625,-3350.57568359375,12070.337890625,-7624.6259765625,7711.251953125,2956.390380859375,3538.1318359375,-5331.83447265625,0.0,-5100.568359375,-2315.04443359375,-10962.486328125,0.0,0.0,0.0,-3490.447998046875,3133.61474609375,12014.70703125,-0.0,-1028.3787841796875,5874.6337890625,9744.9619140625,7212.162109375,3165.404052734375,2719.561279296875,-8132.45751953125,-5638.599609375,7457.7333984375,-379.8802795410156,-1864.433349609375,10420.4814453125,-6148.0205078125,9102.02734375,7998.943359375,5566.27880859375,8433.6591796875,2803.802490234375,-1439.25341796875,5600.45263671875,-0.0,4496.57421875,-14884.4716796875,2333.3232421875,13131.30078125,2630.551513671875,-7145.40478515625,4301.8662109375,5142.68896484375,3376.007080078125,4460.8115234375,3160.6357421875,-4289.9453125,-10218.6201171875,-5181.63037109375,2229.213623046875,-4438.55908203125,0.0,-6076.49462890625,0.0,-6899.03857421875,-10364.0556640625,3952.18505859375,-10190.8046875,0.0,-12908.7763671875,-1216.7294921875,0.0,-6310.14501953125,0.0,5243.61962890625,-0.0,-5790.392578125
-2072.652099609375,-3341.833740234375,12076.6953125,-7611.11572265625,7719.19873046875,2966.7216796875,3541.310546875,-5327.06591796875,0.0,-5102.15771484375,-2302.328857421875,-10931.4921875,0.0,0.0,0.0,-3483.29541015625,3139.97265625,12020.2705078125,-0.0,-1028.3787841796875,5880.197265625,9752.1142578125,7217.72509765625,3172.556640625,2730.6875,-8114.97412109375,-5633.0361328125,7466.47509765625,-371.9329833984375,-1873.17529296875,10428.4287109375,-6143.251953125,9108.3837890625,8005.30126953125,5569.4580078125,8442.40234375,2808.57080078125,-1434.485107421875,5602.83642578125,-0.0,4503.72705078125,-14874.140625,2338.091552734375,13139.248046875,2633.730712890625,-7143.8154296875,4310.60791015625,5168.1201171875,3386.33837890625,4473.52734375,3165.404052734375,-4285.1767578125,-10214.646484375,-5143.4833984375,2238.75048828125,-4410.74365234375,0.0,-6069.34228515625,0.0,-6897.44970703125,-10368.029296875,3958.543212890625,-10186.8310546875,0.0,-12905.59765625,-1252.4923095703125,0.0,-6326.03955078125,0.0,5240.4404296875,-0.0,-5795.16064453125
-2044.0418701171875,-3293.355224609375,12092.58984375,-7600.7841796875,7730.3251953125,2977.84814453125,3546.078857421875,-5315.14501953125,0.0,-5091.826171875,-2284.8447265625,-10921.955078125,0.0,0.0,0.0,-3468.195556640625,3153.483154296875,12032.9853515625,-0.0,-1018.8421020507812,5893.70703125,9764.03515625,7227.26220703125,3184.4775390625,2739.429443359375,-8103.05322265625,-5627.47314453125,7479.98583984375,-364.7804260253906,-1847.7440185546875,10441.939453125,-6128.94677734375,9122.689453125,8019.6064453125,5582.96826171875,8454.3232421875,2811.749755859375,-1420.9747314453125,5621.115234375,-0.0,4518.8271484375,-14864.603515625,2346.038818359375,13151.1689453125,2634.525390625,-7132.68896484375,4324.9130859375,5162.55712890625,3397.46484375,4481.474609375,3169.377685546875,-4271.666015625,-10192.39453125,-5129.1787109375,2247.492431640625,-4405.9755859375,0.0,-6051.0634765625,0.0,-6884.73388671875,-10362.4658203125,3970.464111328125,-10175.705078125,0.0,-12892.8828125,-1255.671142578125,0.0,-6310.93994140625,0.0,5247.5927734375,-0.0,-5787.2138671875
-2042.4525146484375,-3267.924072265625,12086.232421875,-7611.91015625,7722.3779296875,2969.10595703125,3538.92626953125,-5320.7080078125,0.0,-5096.59423828125,-2302.328857421875,-10948.9755859375,0.0,0.0,0.0,-3472.169189453125,3145.53564453125,12026.6279296875,-0.0,-1025.199951171875,5886.5546875,9756.087890625,7221.69873046875,3176.530029296875,2729.892822265625,-8114.97412109375,-5632.24169921875,7475.21728515625,-373.5224304199219,-1839.001953125,10434.787109375,-6132.1259765625,9115.537109375,8010.8642578125,5576.6103515625,8446.3759765625,2804.59716796875,-1426.537841796875,5611.57861328125,-0.0,4511.67431640625,-14877.3193359375,2338.091552734375,13142.4267578125,2629.7568359375,-7138.25244140625,4316.17138671875,5147.45703125,3388.72265625,4473.52734375,3163.019775390625,-4274.84521484375,-10192.39453125,-5111.6943359375,2238.75048828125,-4415.51220703125,0.0,-6057.42138671875,0.0,-6885.5283203125,-10371.2080078125,3963.311767578125,-10182.0634765625,0.0,-12903.2138671875,-1246.1343994140625,0.0,-6303.787109375,0.0,5234.876953125,-0.0,-5798.33984375
-2073.447021484375,-3263.15576171875,12075.9013671875,-7624.6259765625,7712.04638671875,2961.953369140625,3535.74755859375,-5327.8603515625,0.0,-5104.5419921875,-2319.812744140625,-10950.5654296875,0.0,0.0,0.0,-3477.732421875,3134.40966796875,12017.0908203125,-0.0,-1033.147216796875,5877.01806640625,9744.9619140625,7212.95703125,3166.993408203125,2720.35595703125,-8122.9208984375,-5638.599609375,7466.47509765625,-381.4697265625,-1873.17529296875,10423.66015625,-6144.841796875,9104.4111328125,7998.14892578125,5567.07373046875,8437.6337890625,2801.418212890625,-1434.485107421875,5606.81005859375,-0.0,4500.5478515625,-14885.2666015625,2331.733642578125,13136.0693359375,2625.783203125,-7145.40478515625,4305.83935546875,5143.4833984375,3375.21240234375,4471.14306640625,3159.046142578125,-4282.79248046875,-10208.2890625,-5108.51513671875,2229.213623046875,-4417.896484375,0.0,-6062.189453125,0.0,-6892.68115234375,-10364.849609375,3954.5693359375,-10190.009765625,0.0,-12923.876953125,-1247.723876953125,0.0,-6320.4765625,0.0,5228.51953125,-0.0,-5808.67138671875
-2090.13623046875,-3282.229248046875,12076.6953125,-7635.75244140625,7710.45703125,2951.6220703125,3540.515869140625,-5333.423828125,0.0,-5106.130859375,-2308.6865234375,-10932.2861328125,0.0,0.0,0.0,-3499.190185546875,3129.641357421875,12012.322265625,-0.0,-1029.1734619140625,5872.24951171875,9738.6044921875,7211.3671875,3162.22509765625,2718.766357421875,-8137.22607421875,-5637.01025390625,7452.169921875,-383.8539123535156,-1931.1904296875,10419.6865234375,-6153.58349609375,9102.02734375,7989.40673828125,5564.689453125,8428.0966796875,2803.802490234375,-1440.0482177734375,5605.220703125,-0.0,4498.16357421875,-14896.392578125,2334.91259765625,13125.7373046875,2628.16748046875,-7150.17333984375,4311.40283203125,5119.6416015625,3374.41748046875,4456.837890625,3162.22509765625,-4297.09765625,-10218.6201171875,-5125.20458984375,2227.624267578125,-4422.66455078125,0.0,-6081.26318359375,0.0,-6907.78125,-10343.392578125,3950.595947265625,-10191.599609375,0.0,-12925.4658203125,-1270.77099609375,0.0,-6361.802734375,0.0,5230.10888671875,-0.0,-5791.98193359375
-2083.7783203125,-3294.94482421875,12080.6689453125,-7638.13623046875,7720.78857421875,2947.648193359375,3543.69482421875,-5334.21826171875,0.0,-5105.33642578125,-2302.328857421875,-10941.8232421875,0.0,0.0,0.0,-3506.342529296875,3132.820068359375,12015.501953125,-0.0,-1022.815673828125,5877.81298828125,9738.6044921875,7216.93017578125,3161.430419921875,2728.30322265625,-8142.7890625,-5625.08935546875,7444.22314453125,-374.3171691894531,-1916.8853759765625,10421.2763671875,-6154.37841796875,9105.205078125,7989.40673828125,5568.6630859375,8430.48046875,2808.57080078125,-1439.25341796875,5606.81005859375,-0.0,4506.90625,-14899.5712890625,2342.065185546875,13119.3798828125,2632.14111328125,-7150.17333984375,4320.14453125,5114.87353515625,3388.72265625,4444.1220703125,3167.788330078125,-4301.0712890625,-10219.4150390625,-5124.41015625,2236.3662109375,-4425.048828125,0.0,-6093.97900390625,0.0,-6910.9599609375,-10326.703125,3952.97998046875,-10187.6259765625,0.0,-12909.5712890625,-1304.149658203125,0.0,-6406.30712890625,0.0,5211.03515625,-0.0,-5784.82958984375
-2078.21533203125,-3296.5341796875,12084.6435546875,-7630.98388671875,7725.556640625,2956.390380859375,3546.873779296875,-5327.8603515625,0.0,-5095.0048828125,-2303.918212890625,-10948.9755859375,0.0,0.0,0.0,-3493.626953125,3136.7939453125,12020.2705078125,-0.0,-1018.8421020507812,5882.5810546875,9744.1669921875,7222.49365234375,3167.788330078125,2734.6611328125,-8119.7421875,-5620.32080078125,7453.759765625,-367.9593505859375,-1863.6385498046875,10426.044921875,-6149.60986328125,9108.3837890625,7994.96923828125,5573.431640625,8438.427734375,2810.955078125,-1432.8956298828125,5608.39990234375,-0.0,4512.46875,-14886.8564453125,2346.038818359375,13129.7109375,2634.525390625,-7140.63623046875,4325.7080078125,5125.99951171875,3399.05419921875,4454.4541015625,3170.17236328125,-4289.9453125,-10207.494140625,-5139.509765625,2242.72412109375,-4421.0751953125,0.0,-6083.6474609375,0.0,-6895.0654296875,-10339.4189453125,3958.543212890625,-10182.857421875,0.0,-12896.060546875,-1307.32861328125,0.0,-6352.265625,0.0,5226.93017578125,-0.0,-5776.88232421875
-2076.625732421875,-3314.81298828125,12079.080078125,-7623.03662109375,7717.609375,2959.5693359375,3537.337158203125,-5332.62890625,0.0,-5103.7470703125,-2309.4814453125,-10992.6865234375,0.0,0.0,0.0,-3499.98486328125,3133.61474609375,12017.8857421875,-0.0,-1027.5841064453125,5877.81298828125,9746.5517578125,7215.34130859375,3167.788330078125,2729.09814453125,-8105.4375,-5633.8310546875,7454.55419921875,-372.72772216796875,-1837.4124755859375,10423.66015625,-6151.19921875,9106.0,7996.55908203125,5567.86865234375,8438.427734375,2803.0078125,-1436.8692626953125,5606.81005859375,-0.0,4506.111328125,-14879.703125,2336.501953125,13128.9169921875,2628.962158203125,-7146.19970703125,4326.50244140625,5151.4306640625,3388.72265625,4460.8115234375,3163.814453125,-4293.91845703125,-10190.009765625,-5164.146484375,2237.955810546875,-4423.45947265625,0.0,-6087.62109375,0.0,-6900.62841796875,-10364.0556640625,3954.5693359375,-10190.009765625,0.0,-12898.4453125,-1303.3548583984375,0.0,-6325.2451171875,0.0,5233.28759765625,-0.0,-5803.1083984375
-2077.42041015625,-3319.581298828125,12068.748046875,-7643.69970703125,7709.662109375,2941.29052734375,3535.74755859375,-5342.96044921875,0.0,-5117.2578125,-2313.454833984375,-10954.5390625,0.0,0.0,0.0,-3508.726806640625,3121.69384765625,12007.5537109375,-0.0,-1033.94189453125,5867.4814453125,9732.24609375,7206.5986328125,3155.867431640625,2724.32958984375,-8153.12109375,-5641.7783203125,7440.2490234375,-378.2908020019531,-1883.5068359375,10411.7392578125,-6162.3251953125,9095.6689453125,7983.04833984375,5559.12646484375,8423.328125,2800.62353515625,-1447.2008056640625,5592.5048828125,-0.0,4497.369140625,-14905.134765625,2329.349609375,13115.40625,2624.988525390625,-7157.32568359375,4306.63427734375,5120.43603515625,3379.18603515625,4440.14892578125,3159.8408203125,-4307.4287109375,-10217.0302734375,-5163.3515625,2233.1875,-4456.04345703125,0.0,-6089.21044921875,0.0,-6915.72802734375,-10367.234375,3945.03271484375,-10197.1630859375,0.0,-12908.7763671875,-1277.923583984375,0.0,-6343.5234375,0.0,5230.90380859375,-0.0,-5823.77099609375
-2067.8837890625,-3295.739501953125,12073.5166015625,-7645.2890625,7710.45703125,2942.8798828125,3535.74755859375,-5340.576171875,0.0,-5114.07861328125,-2304.712890625,-10926.7236328125,0.0,0.0,0.0,-3500.779296875,3127.257080078125,12012.322265625,-0.0,-1030.7630615234375,5873.8388671875,9734.630859375,7208.1884765625,3157.45654296875,2721.945556640625,-8163.4521484375,-5644.95703125,7445.017578125,-380.67498779296875,-1877.14892578125,10417.3017578125,-6156.7626953125,9101.2314453125,7987.0224609375,5563.89453125,8424.91796875,2800.62353515625,-1443.2271728515625,5605.220703125,-0.0,4499.75341796875,-14909.1083984375,2330.93896484375,13118.5849609375,2624.988525390625,-7154.146484375,4306.63427734375,5107.720703125,3379.980712890625,4438.55908203125,3158.25146484375,-4302.66064453125,-10227.3623046875,-5141.89404296875,2230.00830078125,-4440.14892578125,0.0,-6082.85302734375,0.0,-6908.57568359375,-10364.0556640625,3947.416748046875,-10193.984375,0.0,-12911.9560546875,-1269.976318359375,0.0,-6311.73486328125,0.0,5238.85107421875,-0.0,-5823.77099609375
-2082.18896484375,-3309.25,12061.595703125,-7650.85205078125,7701.71484375,2939.701171875,3534.952880859375,-5342.16552734375,0.0,-5112.4892578125,-2316.634033203125,-10949.7705078125,0.0,0.0,0.0,-3499.98486328125,3120.1044921875,12007.5537109375,-0.0,-1031.5577392578125,5865.89208984375,9729.0673828125,7205.00927734375,3155.072509765625,2714.79296875,-8160.2734375,-5645.751953125,7444.22314453125,-389.4170227050781,-1888.275146484375,10410.1494140625,-6163.9150390625,9090.900390625,7980.6640625,5557.537109375,8422.5341796875,2799.828857421875,-1445.611328125,5599.65771484375,-0.0,4489.421875,-14912.2880859375,2326.96533203125,13116.2001953125,2625.783203125,-7154.146484375,4297.89208984375,5101.36279296875,3370.444091796875,4439.35400390625,3158.25146484375,-4301.8662109375,-10240.8720703125,-5178.45166015625,2222.06103515625,-4445.71142578125,0.0,-6088.41552734375,0.0,-6906.986328125,-10379.9501953125,3943.443359375,-10197.95703125,0.0,-12924.6708984375,-1289.844482421875,0.0,-6294.25048828125,0.0,5243.61962890625,-0.0,-5822.181640625
-2086.957275390625,-3303.686767578125,12062.390625,-7650.05712890625,7700.125,2942.8798828125,3535.74755859375,-5338.98681640625,0.0,-5111.6943359375,-2330.144287109375,-10941.8232421875,0.0,0.0,0.0,-3495.21630859375,3120.1044921875,12009.1435546875,-0.0,-1031.5577392578125,5864.30224609375,9730.65625,7206.5986328125,3156.662109375,2707.640380859375,-8151.53125,-5642.57275390625,7448.9912109375,-395.77484130859375,-1894.6329345703125,10410.1494140625,-6164.70947265625,9089.310546875,7981.45947265625,5555.15283203125,8423.328125,2799.828857421875,-1446.406005859375,5589.326171875,-0.0,4487.03759765625,-14908.3134765625,2327.760009765625,13118.5849609375,2624.988525390625,-7151.7626953125,4294.71337890625,5107.720703125,3368.8544921875,4446.50634765625,3158.25146484375,-4298.68701171875,-10233.7197265625,-5162.55712890625,2213.319091796875,-4434.58544921875,0.0,-6082.85302734375,0.0,-6907.78125,-10367.234375,3945.03271484375,-10195.5732421875,0.0,-12924.6708984375,-1283.4866943359375,0.0,-6279.150390625,0.0,5247.5927734375,-0.0,-5807.08154296875
-2063.115478515625,-3283.02392578125,12071.9267578125,-7633.3681640625,7708.86767578125,2957.18505859375,3537.337158203125,-5328.6552734375,0.0,-5104.5419921875,-2317.4287109375,-10925.9287109375,0.0,0.0,0.0,-3483.29541015625,3132.025390625,12021.064453125,-0.0,-1025.99462890625,5875.4287109375,9743.373046875,7214.54638671875,3167.788330078125,2718.766357421875,-8131.6630859375,-5637.01025390625,7464.0908203125,-384.6486511230469,-1940.727294921875,10424.455078125,-6150.404296875,9101.2314453125,7994.1748046875,5566.27880859375,8436.0439453125,2802.212890625,-1435.27978515625,5602.83642578125,-0.0,4499.75341796875,-14890.03515625,2334.117919921875,13132.095703125,2626.578125,-7143.0205078125,4299.48193359375,5129.97314453125,3378.391357421875,4463.19580078125,3159.046142578125,-4288.35546875,-10202.7255859375,-5144.27783203125,2226.82958984375,-4426.63818359375,0.0,-6068.5478515625,0.0,-6898.244140625,-10345.7763671875,3956.95361328125,-10187.6259765625,0.0,-12911.16015625,-1262.82373046875,0.0,-6274.38232421875,0.0,5253.15625,-0.0,-5803.1083984375
-2057.55224609375,-3286.99755859375,12067.1591796875,-7634.9580078125,7704.8935546875,2952.416748046875,3537.337158203125,-5335.8076171875,0.0,-5110.10498046875,-2315.839111328125,-10955.333984375,0.0,0.0,0.0,-3497.6005859375,3126.462158203125,12015.501953125,-0.0,-1029.1734619140625,5870.66015625,9739.3994140625,7210.57275390625,3160.6357421875,2718.766357421875,-8134.841796875,-5639.39404296875,7454.55419921875,-381.4697265625,-1930.395751953125,10418.8916015625,-6159.14697265625,9097.2587890625,7988.6123046875,5563.10009765625,8432.865234375,2802.212890625,-1441.6376953125,5594.0947265625,-0.0,4494.98486328125,-14893.2138671875,2330.93896484375,13127.3271484375,2627.372802734375,-7150.17333984375,4295.5078125,5134.7412109375,3376.8017578125,4454.4541015625,3160.6357421875,-4296.302734375,-10201.9306640625,-5155.40478515625,2227.624267578125,-4469.5537109375,0.0,-6082.85302734375,0.0,-6906.986328125,-10352.9287109375,3952.18505859375,-10193.1884765625,0.0,-12919.90234375,-1282.69189453125,0.0,-6308.5556640625,0.0,5234.876953125,-0.0,-5811.85009765625
-2061.526123046875,-3301.302734375,12068.748046875,-7634.9580078125,7705.6884765625,2948.443115234375,3538.1318359375,-5338.98681640625,0.0,-5109.31005859375,-2315.839111328125,-10969.638671875,0.0,0.0,0.0,-3507.931884765625,3124.872802734375,12013.1181640625,-0.0,-1027.5841064453125,5869.0703125,9735.4248046875,7210.57275390625,3159.8408203125,2719.561279296875,-8138.0205078125,-5639.39404296875,7447.4013671875,-381.4697265625,-1864.433349609375,10418.09765625,-6162.3251953125,9097.2587890625,7987.81689453125,5562.3056640625,8428.8916015625,2803.0078125,-1443.2271728515625,5595.68408203125,-0.0,4493.3955078125,-14897.982421875,2330.144287109375,13121.7646484375,2627.372802734375,-7150.96826171875,4297.89208984375,5139.509765625,3377.5966796875,4448.095703125,3161.430419921875,-4303.45556640625,-10201.13671875,-5142.68896484375,2227.624267578125,-4464.78515625,0.0,-6097.15771484375,0.0,-6910.16552734375,-10359.287109375,3949.801025390625,-10193.1884765625,0.0,-12920.697265625,-1294.6129150390625,0.0,-6329.21826171875,0.0,5228.51953125,-0.0,-5809.4658203125
-2081.394287109375,-3312.4287109375,12068.748046875,-7641.3154296875,7704.8935546875,2946.853515625,3539.72119140625,-5339.78125,0.0,-5105.33642578125,-2322.197021484375,-10970.43359375,0.0,0.0,0.0,-3511.90576171875,3124.872802734375,12012.322265625,-0.0,-1025.99462890625,5868.27587890625,9733.8359375,7210.57275390625,3160.6357421875,2718.766357421875,-8148.3525390625,-5638.599609375,7445.017578125,-382.26446533203125,-1862.049072265625,10414.123046875,-6163.1201171875,9094.8740234375,7985.4326171875,5561.5107421875,8427.302734375,2803.802490234375,-1442.432373046875,5603.63134765625,-0.0,4491.80615234375,-14900.3671875,2330.93896484375,13118.5849609375,2628.962158203125,-7148.583984375,4301.8662109375,5129.97314453125,3380.775390625,4444.1220703125,3163.814453125,-4304.25,-10201.9306640625,-5158.5830078125,2227.624267578125,-4450.47998046875,0.0,-6104.310546875,0.0,-6909.37060546875,-10367.234375,3949.801025390625,-10193.1884765625,0.0,-12914.33984375,-1304.149658203125,0.0,-6343.5234375,0.0,5225.34033203125,-0.0,-5814.234375
-2082.983642578125,-3302.89208984375,12073.5166015625,-7642.90478515625,7711.251953125,2949.23779296875,3540.515869140625,-5336.6025390625,0.0,-5102.15771484375,-2321.40234375,-10968.048828125,0.0,0.0,0.0,-3502.368896484375,3130.43603515625,12016.296875,-0.0,-1023.6104736328125,5875.4287109375,9737.0146484375,7213.75146484375,3163.814453125,2725.9189453125,-8150.73681640625,-5637.01025390625,7450.58056640625,-375.1119079589844,-1880.327880859375,10420.4814453125,-6155.9677734375,9102.02734375,7986.22802734375,5567.86865234375,8432.0703125,2806.9814453125,-1439.25341796875,5617.1416015625,-0.0,4498.95849609375,-14898.77734375,2335.70751953125,13124.1484375,2630.551513671875,-7144.60986328125,4310.60791015625,5114.07861328125,3386.33837890625,4448.095703125,3163.814453125,-4299.48193359375,-10198.751953125,-5199.9091796875,2236.3662109375,-4425.84375,0.0,-6099.5419921875,0.0,-6899.83349609375,-10361.671875,3955.3642578125,-10189.2158203125,0.0,-12899.2392578125,-1308.123291015625,0.0,-6341.13916015625,0.0,5218.98291015625,-0.0,-5806.287109375
-2080.599609375,-3292.560546875,12076.6953125,-7643.69970703125,7711.251953125,2947.648193359375,3536.542236328125,-5338.98681640625,0.0,-5107.720703125,-2318.22314453125,-10968.8447265625,0.0,0.0,0.0,-3499.190185546875,3129.641357421875,12014.70703125,-0.0,-1028.3787841796875,5875.4287109375,9736.220703125,7214.54638671875,3162.22509765625,2728.30322265625,-8149.14697265625,-5637.8046875,7448.1962890625,-375.9066162109375,-1917.68017578125,10420.4814453125,-6155.9677734375,9102.8212890625,7984.63818359375,5565.484375,8429.6865234375,2803.802490234375,-1442.432373046875,5609.9892578125,-0.0,4502.1376953125,-14902.7509765625,2334.117919921875,13124.1484375,2626.578125,-7148.583984375,4309.0185546875,5114.07861328125,3387.13330078125,4447.30126953125,3160.6357421875,-4298.68701171875,-10209.083984375,-5173.68310546875,2237.955810546875,-4420.2802734375,0.0,-6093.97900390625,0.0,-6904.60205078125,-10364.849609375,3952.18505859375,-10191.599609375,0.0,-12921.4921875,-1311.30224609375,0.0,-6358.62353515625,0.0,5197.52490234375,-0.0,-5811.85009765625
-2076.625732421875,-3307.660400390625,12073.5166015625,-7640.5205078125,7710.45703125,2950.827392578125,3534.952880859375,-5338.19189453125,0.0,-5110.10498046875,-2312.66015625,-10955.333984375,0.0,0.0,0.0,-3496.805908203125,3128.846435546875,12015.501953125,-0.0,-1029.1734619140625,5873.8388671875,9737.8095703125,7214.54638671875,3162.22509765625,2722.740234375,-8148.3525390625,-5635.42041015625,7448.9912109375,-380.67498779296875,-1912.9117431640625,10418.09765625,-6155.9677734375,9101.2314453125,7986.22802734375,5565.484375,8430.48046875,2803.0078125,-1441.6376953125,5606.81005859375,-0.0,4500.5478515625,-14904.33984375,2333.3232421875,13124.1484375,2627.372802734375,-7148.583984375,4308.2236328125,5121.23095703125,3387.13330078125,4450.47998046875,3161.430419921875,-4298.68701171875,-10219.4150390625,-5147.45703125,2231.597900390625,-4419.4853515625,0.0,-6091.5947265625,0.0,-6904.60205078125,-10366.439453125,3951.390625,-10192.39453125,0.0,-12934.2080078125,-1300.970703125,0.0,-6353.85498046875,0.0,5202.29345703125,-0.0,-5817.4130859375
-2086.957275390625,-3327.52880859375,12064.7744140625,-7642.90478515625,7703.30419921875,2947.648193359375,3538.1318359375,-5339.78125,0.0,-5106.92578125,-2320.607421875,-10960.1025390625,0.0,0.0,0.0,-3503.16357421875,3124.872802734375,12013.912109375,-0.0,-1028.3787841796875,5868.27587890625,9735.4248046875,7212.162109375,3159.8408203125,2714.79296875,-8151.53125,-5631.44677734375,7447.4013671875,-387.0328369140625,-1891.4541015625,10416.5078125,-6160.736328125,9094.8740234375,7982.25390625,5563.10009765625,8428.8916015625,2803.802490234375,-1442.432373046875,5602.04150390625,-0.0,4491.80615234375,-14906.7236328125,2334.91259765625,13122.55859375,2629.7568359375,-7146.994140625,4297.09765625,5120.43603515625,3381.570068359375,4445.71142578125,3164.609130859375,-4301.0712890625,-10233.7197265625,-5154.60986328125,2222.855712890625,-4439.35400390625,0.0,-6097.9521484375,0.0,-6908.57568359375,-10383.12890625,3950.595947265625,-10192.39453125,0.0,-12919.90234375,-1300.176025390625,0.0,-6338.75537109375,0.0,5233.28759765625,-0.0,-5811.0556640625
-2116.3623046875,-3318.78662109375,12065.5703125,-7646.87890625,7699.33056640625,2941.29052734375,3538.1318359375,-5347.728515625,0.0,-5113.28369140625,-2323.786376953125,-10989.5068359375,0.0,0.0,0.0,-3516.674072265625,3120.1044921875,12010.7333984375,-0.0,-1030.7630615234375,5865.09716796875,9732.24609375,7207.3935546875,3155.867431640625,2712.40869140625,-8157.88916015625,-5633.0361328125,7440.2490234375,-391.0064697265625,-1884.301513671875,10412.5341796875,-6163.9150390625,9092.490234375,7976.69140625,5559.92138671875,8424.123046875,2804.59716796875,-1447.9954833984375,5596.47900390625,-0.0,4487.03759765625,-14913.08203125,2333.3232421875,13116.2001953125,2629.7568359375,-7154.94140625,4294.71337890625,5110.8994140625,3375.21240234375,4440.943359375,3164.609130859375,-4310.60791015625,-10242.4619140625,-5163.3515625,2218.88232421875,-4461.6064453125,0.0,-6107.4892578125,0.0,-6922.08642578125,-10393.4599609375,3948.211669921875,-10194.7783203125,0.0,-12912.75,-1316.070556640625,0.0,-6352.265625,0.0,5231.69873046875,-0.0,-5803.9033203125
-2117.156982421875,-3306.071044921875,12072.72265625,-7648.4677734375,7699.33056640625,2946.05908203125,3536.542236328125,-5342.16552734375,0.0,-5110.10498046875,-2315.839111328125,-10982.3544921875,0.0,0.0,0.0,-3507.931884765625,3126.462158203125,12013.912109375,-0.0,-1030.7630615234375,5869.865234375,9736.220703125,7209.77783203125,3159.046142578125,2713.998046875,-8153.12109375,-5637.8046875,7446.60693359375,-389.4170227050781,-1893.04345703125,10415.712890625,-6153.58349609375,9098.84765625,7983.04833984375,5561.5107421875,8427.302734375,2802.212890625,-1445.611328125,5604.42578125,-0.0,4491.01123046875,-14910.6982421875,2332.5283203125,13120.96875,2627.372802734375,-7150.96826171875,4297.89208984375,5105.33642578125,3378.391357421875,4448.095703125,3162.22509765625,-4303.45556640625,-10233.7197265625,-5180.8359375,2223.650634765625,-4438.55908203125,0.0,-6096.36328125,0.0,-6913.34375,-10385.513671875,3951.390625,-10193.984375,0.0,-12911.9560546875,-1311.30224609375,0.0,-6345.11328125,0.0,5230.90380859375,-0.0,-5812.64501953125
-2085.367919921875,-3305.276123046875,12072.72265625,-7634.9580078125,7704.09912109375,2954.006103515625,3535.74755859375,-5338.19189453125,0.0,-5105.33642578125,-2310.276123046875,-10962.486328125,0.0,0.0,0.0,-3503.95849609375,3134.40966796875,12018.6806640625,-0.0,-1029.1734619140625,5877.81298828125,9743.373046875,7212.162109375,3164.609130859375,2717.9716796875,-8141.99462890625,-5637.8046875,7451.37548828125,-382.26446533203125,-1912.116943359375,10422.8662109375,-6142.45751953125,9104.4111328125,7992.5849609375,5563.89453125,8434.455078125,2803.0078125,-1440.843017578125,5608.39990234375,-0.0,4494.1904296875,-14897.982421875,2334.117919921875,13126.5322265625,2625.783203125,-7146.19970703125,4300.2763671875,5127.5888671875,3380.775390625,4452.8642578125,3161.430419921875,-4298.68701171875,-10221.0048828125,-5187.193359375,2227.624267578125,-4422.66455078125,0.0,-6090.00537109375,0.0,-6908.57568359375,-10405.380859375,3954.5693359375,-10192.39453125,0.0,-12907.1875,-1293.0234375,0.0,-6334.78173828125,0.0,5237.26123046875,-0.0,-5811.85009765625
-2065.49951171875,-3316.40234375,12068.748046875,-7631.77880859375,7704.8935546875,2952.416748046875,3536.542236328125,-5341.37109375,0.0,-5108.51513671875,-2314.249755859375,-10960.896484375,0.0,0.0,0.0,-3508.726806640625,3134.40966796875,12018.6806640625,-0.0,-1031.5577392578125,5873.8388671875,9744.9619140625,7211.3671875,3163.814453125,2717.17724609375,-8139.6103515625,-5639.39404296875,7448.1962890625,-383.8539123535156,-1908.9381103515625,10420.4814453125,-6142.45751953125,9100.4375,7991.791015625,5564.689453125,8434.455078125,2801.418212890625,-1441.6376953125,5602.83642578125,-0.0,4493.3955078125,-14893.2138671875,2332.5283203125,13124.9423828125,2625.783203125,-7146.994140625,4297.89208984375,5135.5361328125,3379.18603515625,4448.890625,3159.8408203125,-4303.45556640625,-10213.8515625,-5177.65673828125,2226.82958984375,-4431.40673828125,0.0,-6095.568359375,0.0,-6911.75439453125,-10413.3291015625,3952.18505859375,-10193.1884765625,0.0,-12911.9560546875,-1297.7918701171875,0.0,-6330.01318359375,0.0,5234.876953125,-0.0,-5813.43994140625
-2054.37353515625,-3317.991943359375,12069.54296875,-7635.75244140625,7706.4833984375,2953.21142578125,3538.1318359375,-5337.39697265625,0.0,-5106.130859375,-2311.07080078125,-10961.69140625,0.0,0.0,0.0,-3507.13720703125,3131.230712890625,12021.064453125,-0.0,-1030.7630615234375,5873.04443359375,9743.373046875,7214.54638671875,3166.19873046875,2723.534912109375,-8140.40478515625,-5636.21533203125,7448.9912109375,-378.2908020019531,-1900.196044921875,10422.0703125,-6150.404296875,9099.642578125,7988.6123046875,5567.07373046875,8435.2490234375,2803.0078125,-1440.0482177734375,5598.86328125,-0.0,4496.57421875,-14895.5986328125,2334.117919921875,13125.7373046875,2628.16748046875,-7146.19970703125,4304.25,5118.05224609375,3383.15966796875,4448.095703125,3161.430419921875,-4302.66064453125,-10205.9052734375,-5163.3515625,2230.80322265625,-4437.7646484375,0.0,-6098.7470703125,0.0,-6909.37060546875,-10393.4599609375,3953.77490234375,-10191.599609375,0.0,-12907.9814453125,-1300.176025390625,0.0,-6319.681640625,0.0,5234.876953125,-0.0,-5815.82421875
-2040.863037109375,-3319.581298828125,12073.5166015625,-7632.57373046875,7711.251953125,2957.18505859375,3538.92626953125,-5334.21826171875,0.0,-5105.33642578125,-2306.30224609375,-10971.228515625,0.0,0.0,0.0,-3503.95849609375,3132.820068359375,12024.2431640625,-0.0,-1029.1734619140625,5876.22314453125,9745.7568359375,7217.72509765625,3169.377685546875,2729.09814453125,-8139.6103515625,-5633.8310546875,7454.55419921875,-373.5224304199219,-1894.6329345703125,10426.8388671875,-6156.7626953125,9102.02734375,7990.201171875,5571.04736328125,8438.427734375,2803.802490234375,-1437.6640625,5602.04150390625,-0.0,4502.93212890625,-14893.2138671875,2335.70751953125,13128.9169921875,2628.962158203125,-7143.8154296875,4311.40283203125,5132.35693359375,3387.13330078125,4455.24853515625,3162.22509765625,-4297.89208984375,-10201.9306640625,-5164.146484375,2235.571533203125,-4434.58544921875,0.0,-6099.5419921875,0.0,-6906.986328125,-10369.6181640625,3958.543212890625,-10188.419921875,0.0,-12905.59765625,-1281.897216796875,0.0,-6320.4765625,0.0,5234.08251953125,-0.0,-5815.82421875
-2032.1209716796875,-3306.86572265625,12073.5166015625,-7623.03662109375,7712.04638671875,2967.5166015625,3539.72119140625,-5330.24462890625,0.0,-5104.5419921875,-2303.12353515625,-10969.638671875,0.0,0.0,0.0,-3497.6005859375,3135.9990234375,12027.4228515625,-0.0,-1029.1734619140625,5878.607421875,9752.9091796875,7219.314453125,3174.94091796875,2734.6611328125,-8122.9208984375,-5631.44677734375,7466.47509765625,-366.369873046875,-1881.12255859375,10429.22265625,-6150.404296875,9102.02734375,7995.7646484375,5574.2265625,8443.1962890625,2804.59716796875,-1433.6904296875,5598.068359375,-0.0,4503.72705078125,-14882.087890625,2336.501953125,13136.86328125,2628.16748046875,-7140.63623046875,4311.40283203125,5149.04638671875,3391.10693359375,4472.732421875,3161.430419921875,-4292.3291015625,-10193.1884765625,-5171.298828125,2242.72412109375,-4413.9228515625,0.0,-6086.03125,0.0,-6904.60205078125,-10336.240234375,3963.311767578125,-10187.6259765625,0.0,-12904.8037109375,-1252.4923095703125,0.0,-6325.2451171875,0.0,5234.08251953125,-0.0,-5815.029296875
-2025.7633056640625,-3276.666015625,12070.337890625,-7626.21533203125,7711.251953125,2967.5166015625,3539.72119140625,-5327.8603515625,0.0,-5099.7734375,-2304.712890625,-10957.7177734375,0.0,0.0,0.0,-3491.24267578125,3134.40966796875,12026.6279296875,-0.0,-1026.789306640625,5876.22314453125,9750.525390625,7220.109375,3176.530029296875,2728.30322265625,-8118.15283203125,-5633.0361328125,7468.06494140625,-371.9329833984375,-1869.20166015625,10429.22265625,-6155.9677734375,9102.02734375,7993.38037109375,5573.431640625,8444.7861328125,2805.39208984375,-1432.8956298828125,5604.42578125,-0.0,4501.3427734375,-14882.8818359375,2338.091552734375,13139.248046875,2628.962158203125,-7139.04736328125,4304.25,5144.27783203125,3391.901611328125,4476.7060546875,3161.430419921875,-4289.150390625,-10193.1884765625,-5153.81494140625,2237.160888671875,-4407.564453125,0.0,-6077.28955078125,0.0,-6897.44970703125,-10320.345703125,3961.721923828125,-10186.0361328125,0.0,-12906.392578125,-1263.618408203125,0.0,-6306.17138671875,0.0,5240.4404296875,-0.0,-5812.64501953125
-2038.4788818359375,-3269.513427734375,12067.9541015625,-7638.13623046875,7708.07275390625,2961.953369140625,3538.92626953125,-5327.8603515625,0.0,-5095.7998046875,-2307.891845703125,-10951.359375,0.0,0.0,0.0,-3483.29541015625,3130.43603515625,12023.44921875,-0.0,-1023.6104736328125,5873.8388671875,9742.5771484375,7219.314453125,3173.351318359375,2722.740234375,-8133.251953125,-5637.01025390625,7463.29638671875,-379.0855407714844,-1892.248779296875,10425.25,-6160.736328125,9098.052734375,7987.0224609375,5569.4580078125,8438.427734375,2805.39208984375,-1434.485107421875,5599.65771484375,-0.0,4497.369140625,-14893.2138671875,2335.70751953125,13133.685546875,2629.7568359375,-7138.25244140625,4298.68701171875,5126.79443359375,3389.517578125,4464.78515625,3161.430419921875,-4287.56103515625,-10199.546875,-5133.94677734375,2230.00830078125,-4413.9228515625,0.0,-6070.13720703125,0.0,-6891.88623046875,-10333.0615234375,3957.74853515625,-10186.0361328125,0.0,-12907.9814453125,-1281.1025390625,0.0,-6279.9453125,0.0,5252.361328125,-0.0,-5805.4921875
-2048.015625,-3271.8974609375,12070.337890625,-7641.3154296875,7708.86767578125,2960.364013671875,3538.92626953125,-5329.4501953125,0.0,-5097.38916015625,-2308.6865234375,-10951.359375,0.0,0.0,0.0,-3484.885009765625,3129.641357421875,12023.44921875,-0.0,-1024.4051513671875,5874.6337890625,9740.98828125,7218.51953125,3172.556640625,2724.32958984375,-8141.2001953125,-5635.42041015625,7462.50146484375,-378.2908020019531,-1899.4013671875,10420.4814453125,-6159.94140625,9095.6689453125,7983.84375,5567.86865234375,8437.6337890625,2805.39208984375,-1436.0745849609375,5596.47900390625,-0.0,4497.369140625,-14895.5986328125,2335.70751953125,13132.8896484375,2629.7568359375,-7137.45751953125,4298.68701171875,5118.8466796875,3389.517578125,4460.0166015625,3162.22509765625,-4287.56103515625,-10201.13671875,-5124.41015625,2230.80322265625,-4411.53857421875,0.0,-6070.13720703125,0.0,-6893.47607421875,-10341.0078125,3959.337646484375,-10186.0361328125,0.0,-12911.16015625,-1279.5130615234375,0.0,-6289.48193359375,0.0,5246.00341796875,-0.0,-5804.69775390625
-2057.55224609375,-3300.5078125,12062.390625,-7646.87890625,7704.09912109375,2956.390380859375,3538.92626953125,-5332.62890625,0.0,-5101.36279296875,-2316.634033203125,-10959.3076171875,0.0,0.0,0.0,-3490.447998046875,3124.078125,12020.2705078125,-0.0,-1027.5841064453125,5870.66015625,9737.0146484375,7214.54638671875,3167.788330078125,2719.561279296875,-8141.2001953125,-5637.8046875,7459.322265625,-382.26446533203125,-1882.7120361328125,10414.91796875,-6165.50439453125,9091.6953125,7978.2802734375,5563.10009765625,8432.865234375,2805.39208984375,-1438.458740234375,5590.12060546875,-0.0,4492.60107421875,-14899.5712890625,2333.3232421875,13129.7109375,2628.962158203125,-7140.63623046875,4294.71337890625,5118.8466796875,3386.33837890625,4458.42724609375,3163.019775390625,-4292.3291015625,-10209.083984375,-5137.12548828125,2226.034912109375,-4423.45947265625,0.0,-6075.7001953125,0.0,-6899.83349609375,-10353.724609375,3956.95361328125,-10188.419921875,0.0,-12919.90234375,-1279.5130615234375,0.0,-6306.17138671875,0.0,5236.466796875,-0.0,-5813.43994140625
-2055.962890625,-3325.939208984375,12067.9541015625,-7641.3154296875,7709.662109375,2961.953369140625,3541.310546875,-5327.06591796875,0.0,-5092.62109375,-2311.07080078125,-10951.359375,0.0,0.0,0.0,-3482.500732421875,3128.846435546875,12024.2431640625,-0.0,-1021.2262573242188,5876.22314453125,9742.5771484375,7219.314453125,3173.351318359375,2725.9189453125,-8130.8681640625,-5632.24169921875,7463.29638671875,-375.9066162109375,-1872.380615234375,10420.4814453125,-6159.14697265625,9095.6689453125,7982.25390625,5568.6630859375,8438.427734375,2809.365478515625,-1432.1009521484375,5596.47900390625,-0.0,4498.16357421875,-14890.830078125,2338.88623046875,13136.0693359375,2630.551513671875,-7132.68896484375,4301.8662109375,5116.462890625,3393.490966796875,4464.78515625,3164.609130859375,-4285.1767578125,-10205.9052734375,-5145.86767578125,2232.392578125,-4423.45947265625,0.0,-6068.5478515625,0.0,-6890.296875,-10348.9560546875,3961.721923828125,-10182.0634765625,0.0,-12911.9560546875,-1272.3604736328125,0.0,-6299.01904296875,0.0,5247.5927734375,-0.0,-5800.72412109375
-2051.9892578125,-3306.071044921875,12071.1328125,-7642.1103515625,7712.8408203125,2957.97998046875,3543.69482421875,-5327.06591796875,0.0,-5093.41552734375,-2307.891845703125,-10950.5654296875,0.0,0.0,0.0,-3488.063720703125,3132.025390625,12024.2431640625,-0.0,-1021.2262573242188,5878.607421875,9744.1669921875,7220.90380859375,3172.556640625,2730.6875,-8133.251953125,-5629.0625,7456.9384765625,-370.3435363769531,-1884.301513671875,10424.455078125,-6152.78857421875,9099.642578125,7983.04833984375,5572.63720703125,8439.2236328125,2809.365478515625,-1432.1009521484375,5599.65771484375,-0.0,4502.93212890625,-14892.4189453125,2339.680908203125,13132.095703125,2628.962158203125,-7133.48388671875,4308.2236328125,5106.130859375,3399.05419921875,4457.63232421875,3164.609130859375,-4287.56103515625,-10203.5205078125,-5155.40478515625,2238.75048828125,-4435.38037109375,0.0,-6072.52099609375,0.0,-6890.296875,-10341.8037109375,3960.927490234375,-10180.4736328125,0.0,-12907.9814453125,-1271.5657958984375,0.0,-6305.37646484375,0.0,5246.00341796875,-0.0,-5797.544921875
-2060.731201171875,-3282.229248046875,12071.1328125,-7643.69970703125,7708.86767578125,2951.6220703125,3542.10546875,-5332.62890625,0.0,-5100.568359375,-2309.4814453125,-10957.7177734375,0.0,0.0,0.0,-3493.626953125,3128.0517578125,12021.064453125,-0.0,-1025.99462890625,5875.4287109375,9738.6044921875,7217.72509765625,3166.993408203125,2731.482177734375,-8135.63623046875,-5630.65185546875,7451.37548828125,-371.13824462890625,-1893.04345703125,10421.2763671875,-6155.1728515625,9098.052734375,7980.6640625,5568.6630859375,8435.2490234375,2806.186767578125,-1437.6640625,5600.45263671875,-0.0,4499.75341796875,-14896.392578125,2337.296630859375,13125.7373046875,2628.962158203125,-7138.25244140625,4305.83935546875,5108.51513671875,3396.670166015625,4448.095703125,3163.019775390625,-4294.71337890625,-10207.494140625,-5165.73583984375,2239.545166015625,-4450.47998046875,0.0,-6079.673828125,0.0,-6895.8603515625,-10355.3134765625,3956.1591796875,-10186.0361328125,0.0,-12914.33984375,-1281.897216796875,0.0,-6304.58203125,0.0,5238.85107421875,-0.0,-5810.2607421875
-2057.55224609375,-3271.8974609375,12078.28515625,-7636.546875,7710.45703125,2957.97998046875,3541.310546875,-5330.24462890625,0.0,-5102.95263671875,-2303.12353515625,-10952.94921875,0.0,0.0,0.0,-3490.447998046875,3133.61474609375,12025.0390625,-0.0,-1030.7630615234375,5877.81298828125,9746.5517578125,7220.90380859375,3170.17236328125,2732.27685546875,-8126.89501953125,-5630.65185546875,7456.9384765625,-367.9593505859375,-1885.8909912109375,10426.8388671875,-6150.404296875,9104.4111328125,7987.0224609375,5570.2529296875,8439.2236328125,2806.186767578125,-1438.458740234375,5611.57861328125,-0.0,4503.72705078125,-14890.03515625,2337.296630859375,13128.9169921875,2628.16748046875,-7139.04736328125,4312.9921875,5122.8203125,3396.670166015625,4455.24853515625,3163.019775390625,-4291.5341796875,-10206.69921875,-5168.1201171875,2241.92919921875,-4424.25390625,0.0,-6074.1103515625,0.0,-6897.44970703125,-10360.876953125,3957.74853515625,-10186.0361328125,0.0,-12923.0810546875,-1293.818115234375,0.0,-6297.4296875,0.0,5230.10888671875,-0.0,-5827.7451171875
-2055.168212890625,-3280.6396484375,12080.6689453125,-7632.57373046875,7709.662109375,2961.953369140625,3539.72119140625,-5329.4501953125,0.0,-5101.36279296875,-2305.507568359375,-10952.94921875,0.0,0.0,0.0,-3489.6533203125,3135.204345703125,12025.8330078125,-0.0,-1027.5841064453125,5880.197265625,9748.1416015625,7220.90380859375,3172.556640625,2729.892822265625,-8123.71533203125,-5630.65185546875,7460.912109375,-369.5487976074219,-1888.275146484375,10429.22265625,-6147.22607421875,9106.0,7989.40673828125,5571.84228515625,8440.017578125,2804.59716796875,-1436.8692626953125,5611.57861328125,-0.0,4503.72705078125,-14886.8564453125,2336.501953125,13132.8896484375,2626.578125,-7136.6630859375,4319.349609375,5131.5625,3395.08056640625,4461.6064453125,3161.430419921875,-4289.150390625,-10201.13671875,-5160.1728515625,2237.160888671875,-4411.53857421875,0.0,-6073.31591796875,0.0,-6895.8603515625,-10364.0556640625,3960.927490234375,-10186.0361328125,0.0,-12921.4921875,-1285.076171875,0.0,-6302.9921875,0.0,5234.08251953125,-0.0,-5816.61865234375
-2052.783935546875,-3285.407958984375,12079.875,-7631.77880859375,7712.04638671875,2961.953369140625,3541.310546875,-5327.06591796875,0.0,-5095.0048828125,-2313.454833984375,-10956.923828125,0.0,0.0,0.0,-3487.26904296875,3135.9990234375,12026.6279296875,-0.0,-1022.0209350585938,5882.5810546875,9747.345703125,7221.69873046875,3174.14599609375,2733.071533203125,-8127.689453125,-5630.65185546875,7461.70654296875,-367.9593505859375,-1897.01708984375,10429.22265625,-6147.22607421875,9107.58984375,7989.40673828125,5572.63720703125,8441.607421875,2806.186767578125,-1435.27978515625,5613.16845703125,-0.0,4506.111328125,-14887.650390625,2339.680908203125,13133.685546875,2628.962158203125,-7132.68896484375,4318.55517578125,5129.1787109375,3397.46484375,4463.19580078125,3163.814453125,-4287.56103515625,-10196.3681640625,-5137.12548828125,2241.92919921875,-4406.77001953125,0.0,-6078.08447265625,0.0,-6892.68115234375,-10359.287109375,3963.311767578125,-10182.0634765625,0.0,-12900.03515625,-1285.870849609375,0.0,-6299.01904296875,0.0,5245.208984375,-0.0,-5798.33984375
-2064.704833984375,-3295.739501953125,12071.1328125,-7643.69970703125,7708.07275390625,2956.390380859375,3541.310546875,-5328.6552734375,0.0,-5089.44189453125,-2325.375732421875,-10964.8701171875,0.0,0.0,0.0,-3488.063720703125,3129.641357421875,12022.654296875,-0.0,-1016.4578857421875,5875.4287109375,9740.98828125,7217.72509765625,3170.17236328125,2728.30322265625,-8137.22607421875,-5637.01025390625,7458.52783203125,-374.3171691894531,-1906.5538330078125,10422.0703125,-6154.37841796875,9098.84765625,7981.45947265625,5569.4580078125,8436.8388671875,2806.186767578125,-1436.0745849609375,5602.04150390625,-0.0,4499.75341796875,-14897.1875,2337.296630859375,13131.30078125,2630.551513671875,-7133.48388671875,4306.63427734375,5114.07861328125,3397.46484375,4458.42724609375,3165.404052734375,-4288.35546875,-10205.109375,-5139.509765625,2236.3662109375,-4409.154296875,0.0,-6083.6474609375,0.0,-6888.70751953125,-10355.3134765625,3961.721923828125,-10180.4736328125,0.0,-12900.8291015625,-1296.9970703125,0.0,-6300.6083984375,0.0,5249.97705078125,-0.0,-5780.85546875
-2078.21533203125,-3306.86572265625,12062.390625,-7651.64697265625,7700.125,2946.853515625,3538.92626953125,-5335.8076171875,0.0,-5092.62109375,-2322.99169921875,-10973.6123046875,0.0,0.0,0.0,-3500.779296875,3120.1044921875,12013.1181640625,-0.0,-1017.2525634765625,5866.6865234375,9733.041015625,7212.162109375,3162.22509765625,2720.35595703125,-8139.6103515625,-5641.7783203125,7448.1962890625,-382.26446533203125,-1909.7327880859375,10414.91796875,-6164.70947265625,9089.310546875,7970.3330078125,5559.92138671875,8428.8916015625,2805.39208984375,-1444.816650390625,5591.71044921875,-0.0,4491.01123046875,-14901.1611328125,2333.3232421875,13121.7646484375,2629.7568359375,-7139.04736328125,4293.91845703125,5103.7470703125,3393.490966796875,4450.47998046875,3164.609130859375,-4298.68701171875,-10213.0576171875,-5156.19921875,2228.4189453125,-4429.8173828125,0.0,-6095.568359375,0.0,-6895.0654296875,-10369.6181640625,3953.77490234375,-10185.2421875,0.0,-12908.7763671875,-1311.30224609375,0.0,-6326.03955078125,0.0,5238.85107421875,-0.0,-5784.82958984375
-2072.652099609375,-3310.04443359375,12056.8271484375,-7654.82568359375,7696.15185546875,2938.906494140625,3538.1318359375,-5344.5498046875,0.0,-5095.7998046875,-2318.22314453125,-10984.73828125,0.0,0.0,0.0,-3511.111083984375,3113.74658203125,12007.5537109375,-0.0,-1019.6367797851562,5861.12353515625,9728.2724609375,7208.98291015625,3155.867431640625,2717.17724609375,-8144.37890625,-5644.16259765625,7436.275390625,-384.6486511230469,-1928.8062744140625,10409.35546875,-6170.27294921875,9084.5419921875,7964.7705078125,5555.94775390625,8422.5341796875,2803.0078125,-1450.3797607421875,5585.3525390625,-0.0,4485.4482421875,-14905.9296875,2330.144287109375,13113.021484375,2626.578125,-7143.8154296875,4285.97119140625,5098.18408203125,3388.72265625,4437.7646484375,3161.430419921875,-4306.63427734375,-10219.4150390625,-5176.0673828125,2226.034912109375,-4455.24853515625,0.0,-6106.69482421875,0.0,-6903.80712890625,-10379.9501953125,3948.211669921875,-10190.8046875,0.0,-12914.33984375,-1330.375732421875,0.0,-6341.13916015625,0.0,5238.05615234375,-0.0,-5776.08740234375
-2062.32080078125,-3307.660400390625,12058.4169921875,-7654.03125,7695.35693359375,2938.906494140625,3539.72119140625,-5343.75537109375,0.0,-5099.7734375,-2314.249755859375,-10983.9443359375,0.0,0.0,0.0,-3513.4951171875,3115.336181640625,12009.9384765625,-0.0,-1022.0209350585938,5861.12353515625,9730.65625,7208.98291015625,3156.662109375,2718.766357421875,-8145.1728515625,-5642.57275390625,7435.48046875,-381.4697265625,-1943.1114501953125,10407.765625,-6170.27294921875,9084.5419921875,7967.94873046875,5556.7421875,8424.123046875,2802.212890625,-1449.5849609375,5586.1474609375,-0.0,4487.03759765625,-14903.544921875,2331.733642578125,13112.2275390625,2626.578125,-7144.60986328125,4289.9453125,5101.36279296875,3390.312255859375,4434.58544921875,3161.430419921875,-4307.4287109375,-10219.4150390625,-5172.09375,2227.624267578125,-4457.63232421875,0.0,-6103.515625,0.0,-6905.39697265625,-10372.0029296875,3949.006591796875,-10192.39453125,0.0,-12914.33984375,-1327.991455078125,0.0,-6340.3447265625,0.0,5228.51953125,-0.0,-5788.80322265625
-2052.783935546875,-3302.097412109375,12063.185546875,-7646.083984375,7697.7412109375,2942.8798828125,3538.1318359375,-5341.37109375,0.0,-5105.33642578125,-2311.865478515625,-10970.43359375,0.0,0.0,0.0,-3511.90576171875,3120.1044921875,12015.501953125,-0.0,-1027.5841064453125,5865.89208984375,9733.041015625,7210.57275390625,3159.8408203125,2724.32958984375,-8137.22607421875,-5638.599609375,7440.2490234375,-375.9066162109375,-1918.474853515625,10413.3291015625,-6167.888671875,9088.5166015625,7973.51171875,5560.71630859375,8429.6865234375,2799.828857421875,-1447.9954833984375,5591.71044921875,-0.0,4491.80615234375,-14894.802734375,2333.3232421875,13116.2001953125,2625.783203125,-7143.8154296875,4296.302734375,5106.92578125,3394.285888671875,4440.14892578125,3163.019775390625,-4304.25,-10210.6728515625,-5148.251953125,2232.392578125,-4446.50634765625,0.0,-6097.15771484375,0.0,-6906.19140625,-10356.1083984375,3952.18505859375,-10193.1884765625,0.0,-12911.9560546875,-1311.30224609375,0.0,-6338.75537109375,0.0,5222.9560546875,-0.0,-5818.2080078125
-2052.783935546875,-3313.2236328125,12065.5703125,-7640.5205078125,7698.5361328125,2946.05908203125,3535.74755859375,-5344.5498046875,0.0,-5111.6943359375,-2310.276123046875,-10977.5859375,0.0,0.0,0.0,-3513.4951171875,3122.48876953125,12016.296875,-0.0,-1035.5313720703125,5869.0703125,9735.4248046875,7211.3671875,3160.6357421875,2729.09814453125,-8133.251953125,-5637.8046875,7443.42822265625,-375.1119079589844,-1902.580322265625,10416.5078125,-6165.50439453125,9092.490234375,7977.48583984375,5563.10009765625,8429.6865234375,2801.418212890625,-1449.5849609375,5591.71044921875,-0.0,4491.80615234375,-14892.4189453125,2331.733642578125,13115.40625,2624.988525390625,-7145.40478515625,4300.2763671875,5116.462890625,3396.670166015625,4441.73828125,3161.430419921875,-4307.4287109375,-10203.5205078125,-5137.12548828125,2237.955810546875,-4442.533203125,0.0,-6097.15771484375,0.0,-6910.9599609375,-10353.724609375,3953.77490234375,-10194.7783203125,0.0,-12914.33984375,-1301.765380859375,0.0,-6341.93408203125,0.0,5217.3935546875,-0.0,-5834.1025390625
-2057.55224609375,-3330.70751953125,12064.7744140625,-7642.90478515625,7697.7412109375,2942.8798828125,3538.1318359375,-5347.728515625,0.0,-5116.462890625,-2309.4814453125,-10988.7119140625,0.0,0.0,0.0,-3516.674072265625,3122.48876953125,12013.912109375,-0.0,-1038.710205078125,5867.4814453125,9735.4248046875,7208.98291015625,3158.25146484375,2727.508544921875,-8136.431640625,-5640.1884765625,7439.45458984375,-375.1119079589844,-1907.3486328125,10416.5078125,-6163.1201171875,9093.2841796875,7975.89599609375,5559.92138671875,8428.8916015625,2800.62353515625,-1452.763916015625,5594.0947265625,-0.0,4491.01123046875,-14895.5986328125,2331.733642578125,13111.431640625,2624.19384765625,-7149.37841796875,4300.2763671875,5116.462890625,3395.875244140625,4440.14892578125,3158.25146484375,-4312.9921875,-10200.3408203125,-5168.9150390625,2235.571533203125,-4443.32763671875,0.0,-6097.9521484375,0.0,-6915.72802734375,-10366.439453125,3950.595947265625,-10198.751953125,0.0,-12920.697265625,-1295.4075927734375,0.0,-6347.49755859375,0.0,5212.625,-0.0,-5831.71826171875
-2051.1943359375,-3314.018310546875,12067.1591796875,-7642.1103515625,7699.33056640625,2943.6748046875,3538.92626953125,-5342.96044921875,0.0,-5108.51513671875,-2303.918212890625,-10985.5341796875,0.0,0.0,0.0,-3509.521484375,3126.462158203125,12016.296875,-0.0,-1034.736572265625,5869.865234375,9737.0146484375,7211.3671875,3161.430419921875,2728.30322265625,-8138.81591796875,-5638.599609375,7441.8388671875,-373.5224304199219,-1914.501220703125,10417.3017578125,-6158.35205078125,9096.462890625,7976.69140625,5560.71630859375,8428.8916015625,2801.418212890625,-1448.7901611328125,5601.2470703125,-0.0,4494.1904296875,-14894.0087890625,2333.3232421875,13114.611328125,2624.988525390625,-7144.60986328125,4304.25,5114.07861328125,3397.46484375,4440.14892578125,3159.046142578125,-4307.4287109375,-10193.984375,-5191.9619140625,2237.160888671875,-4444.1220703125,0.0,-6091.5947265625,0.0,-6906.986328125,-10381.5390625,3952.18505859375,-10196.3681640625,0.0,-12907.1875,-1293.818115234375,0.0,-6333.1923828125,0.0,5222.16162109375,-0.0,-5826.9501953125
-2048.015625,-3283.818603515625,12071.9267578125,-7638.13623046875,7703.30419921875,2948.443115234375,3539.72119140625,-5337.39697265625,0.0,-5101.36279296875,-2298.35498046875,-10972.0234375,0.0,0.0,0.0,-3502.368896484375,3130.43603515625,12020.2705078125,-0.0,-1029.96826171875,5875.4287109375,9741.783203125,7215.34130859375,3166.19873046875,2731.482177734375,-8137.22607421875,-5637.01025390625,7448.9912109375,-372.72772216796875,-1914.501220703125,10421.2763671875,-6155.1728515625,9100.4375,7980.6640625,5565.484375,8434.455078125,2804.59716796875,-1443.2271728515625,5605.220703125,-0.0,4499.75341796875,-14892.4189453125,2335.70751953125,13120.96875,2626.578125,-7140.63623046875,4309.0185546875,5119.6416015625,3403.02783203125,4447.30126953125,3159.8408203125,-4301.8662109375,-10191.599609375,-5172.09375,2238.75048828125,-4436.1748046875,0.0,-6087.62109375,0.0,-6903.0126953125,-10367.234375,3956.95361328125,-10190.8046875,0.0,-12896.85546875,-1300.970703125,0.0,-6322.06591796875,0.0,5232.4931640625,-0.0,-5811.0556640625
-2054.37353515625,-3271.8974609375,12072.72265625,-7638.93115234375,7703.30419921875,2950.032470703125,3539.72119140625,-5337.39697265625,0.0,-5100.568359375,-2302.328857421875,-10965.6650390625,0.0,0.0,0.0,-3498.395263671875,3126.462158203125,12020.2705078125,-0.0,-1029.96826171875,5873.8388671875,9740.193359375,7216.93017578125,3167.788330078125,2732.27685546875,-8133.251953125,-5637.01025390625,7450.58056640625,-372.72772216796875,-1916.8853759765625,10420.4814453125,-6156.7626953125,9100.4375,7979.0751953125,5567.07373046875,8436.0439453125,2805.39208984375,-1442.432373046875,5602.04150390625,-0.0,4499.75341796875,-14892.4189453125,2335.70751953125,13121.7646484375,2627.372802734375,-7139.841796875,4308.2236328125,5116.462890625,3403.02783203125,4452.06982421875,3160.6357421875,-4298.68701171875,-10200.3408203125,-5157.78857421875,2237.955810546875,-4436.1748046875,0.0,-6084.4423828125,0.0,-6902.2177734375,-10340.2138671875,3958.543212890625,-10189.2158203125,0.0,-12904.0078125,-1304.9443359375,0.0,-6320.4765625,0.0,5236.466796875,-0.0,-5811.0556640625
-2063.115478515625,-3281.434326171875,12076.6953125,-7640.5205078125,7701.71484375,2950.827392578125,3537.337158203125,-5336.6025390625,0.0,-5104.5419921875,-2306.30224609375,-10969.638671875,0.0,0.0,0.0,-3503.16357421875,3124.872802734375,12020.2705078125,-0.0,-1032.3524169921875,5873.8388671875,9740.193359375,7216.1357421875,3166.993408203125,2731.482177734375,-8132.45751953125,-5636.21533203125,7447.4013671875,-369.5487976074219,-1917.68017578125,10421.2763671875,-6158.35205078125,9101.2314453125,7977.48583984375,5567.86865234375,8436.0439453125,2803.0078125,-1444.816650390625,5604.42578125,-0.0,4498.95849609375,-14889.240234375,2334.91259765625,13120.96875,2626.578125,-7139.841796875,4313.787109375,5113.28369140625,3403.82275390625,4448.890625,3159.8408203125,-4300.2763671875,-10206.69921875,-5149.04638671875,2239.545166015625,-4438.55908203125,0.0,-6084.4423828125,0.0,-6903.80712890625,-10344.1875,3955.3642578125,-10190.8046875,0.0,-12907.1875,-1306.5338134765625,0.0,-6322.06591796875,0.0,5229.314453125,-0.0,-5819.00244140625
-2062.32080078125,-3295.739501953125,12077.4912109375,-7641.3154296875,7703.30419921875,2950.827392578125,3538.1318359375,-5337.39697265625,0.0,-5104.5419921875,-2304.712890625,-10971.228515625,0.0,0.0,0.0,-3501.57421875,3126.462158203125,12021.064453125,-0.0,-1032.3524169921875,5874.6337890625,9739.3994140625,7214.54638671875,3166.993408203125,2734.6611328125,-8127.689453125,-5633.8310546875,7446.60693359375,-367.9593505859375,-1908.1434326171875,10422.0703125,-6159.94140625,9099.642578125,7975.89599609375,5567.07373046875,8436.0439453125,2803.0078125,-1445.611328125,5606.015625,-0.0,4498.95849609375,-14886.0615234375,2334.117919921875,13120.96875,2624.988525390625,-7139.04736328125,4312.9921875,5107.720703125,3405.411865234375,4449.685546875,3159.8408203125,-4299.48193359375,-10197.95703125,-5155.40478515625,2241.92919921875,-4434.58544921875,0.0,-6083.6474609375,0.0,-6903.0126953125,-10359.287109375,3956.1591796875,-10190.8046875,0.0,-12903.2138671875,-1305.739013671875,0.0,-6321.271484375,0.0,5227.724609375,-0.0,-5817.4130859375
-2056.757568359375,-3297.328857421875,12071.9267578125,-7642.90478515625,7703.30419921875,2948.443115234375,3537.337158203125,-5338.98681640625,0.0,-5106.92578125,-2303.918212890625,-10975.9970703125,0.0,0.0,0.0,-3502.368896484375,3125.66748046875,12019.474609375,-0.0,-1033.147216796875,5874.6337890625,9737.8095703125,7213.75146484375,3164.609130859375,2733.866455078125,-8134.04736328125,-5634.6259765625,7443.42822265625,-370.3435363769531,-1916.8853759765625,10421.2763671875,-6159.94140625,9098.052734375,7977.48583984375,5564.689453125,8432.865234375,2803.0078125,-1447.9954833984375,5606.81005859375,-0.0,4497.369140625,-14886.8564453125,2334.117919921875,13117.7900390625,2626.578125,-7141.43115234375,4309.81298828125,5105.33642578125,3404.6171875,4446.50634765625,3160.6357421875,-4301.8662109375,-10193.1884765625,-5171.298828125,2240.340087890625,-4444.1220703125,0.0,-6089.21044921875,0.0,-6906.19140625,-10358.4931640625,3956.1591796875,-10192.39453125,0.0,-12903.2138671875,-1310.5074462890625,0.0,-6330.01318359375,0.0,5212.625,-0.0,-5824.56591796875
-2054.37353515625,-3294.150146484375,12067.9541015625,-7640.5205078125,7698.5361328125,2949.23779296875,3535.74755859375,-5337.39697265625,0.0,-5105.33642578125,-2311.07080078125,-10980.765625,0.0,0.0,0.0,-3498.395263671875,3123.283447265625,12018.6806640625,-0.0,-1031.5577392578125,5871.45458984375,9737.0146484375,7214.54638671875,3164.609130859375,2725.9189453125,-8132.45751953125,-5637.8046875,7445.017578125,-378.2908020019531,-1921.65380859375,10420.4814453125,-6161.53076171875,9097.2587890625,7974.30712890625,5563.89453125,8433.6591796875,2804.59716796875,-1446.406005859375,5596.47900390625,-0.0,4494.1904296875,-14886.8564453125,2333.3232421875,13117.7900390625,2626.578125,-7138.25244140625,4307.4287109375,5111.6943359375,3403.82275390625,4446.50634765625,3160.6357421875,-4300.2763671875,-10193.1884765625,-5171.298828125,2232.392578125,-4461.6064453125,0.0,-6086.826171875,0.0,-6901.4228515625,-10354.5185546875,3956.1591796875,-10192.39453125,0.0,-12908.7763671875,-1313.6864013671875,0.0,-6318.09228515625,0.0,5219.77734375,-0.0,-5822.9765625
-2055.168212890625,-3298.91845703125,12071.1328125,-7633.3681640625,7699.33056640625,2951.6220703125,3535.74755859375,-5335.0126953125,0.0,-5103.7470703125,-2312.66015625,-10990.3017578125,0.0,0.0,0.0,-3498.395263671875,3127.257080078125,12021.859375,-0.0,-1030.7630615234375,5873.04443359375,9740.98828125,7214.54638671875,3167.788330078125,2724.32958984375,-8128.48388671875,-5637.8046875,7448.1962890625,-377.49609375,-1927.2169189453125,10422.8662109375,-6155.9677734375,9098.052734375,7977.48583984375,5567.07373046875,8436.0439453125,2803.0078125,-1444.816650390625,5595.68408203125,-0.0,4495.779296875,-14883.677734375,2334.117919921875,13121.7646484375,2626.578125,-7135.8681640625,4312.197265625,5121.23095703125,3405.411865234375,4448.095703125,3159.8408203125,-4297.89208984375,-10197.95703125,-5160.1728515625,2232.392578125,-4456.837890625,0.0,-6083.6474609375,0.0,-6899.03857421875,-10354.5185546875,3957.74853515625,-10190.8046875,0.0,-12908.7763671875,-1308.91796875,0.0,-6305.37646484375,0.0,5229.314453125,-0.0,-5811.0556640625
