-2415.974853515625,-3395.875244140625,12116.4326171875,-7552.3056640625,7560.2529296875,2910.296142578125,3550.847412109375,-5462.16943359375,0.0,-5037.78466796875,-2272.923828125,-11239.8466796875,0.0,0.0,0.0,-3410.97509765625,3124.078125,11993.2490234375,-0.0,-1027.5841064453125,5925.49658203125,9789.466796875,7292.4296875,3172.556640625,2753.734619140625,-7991.791015625,-5629.0625,7428.328125,-555.5152587890625,-1885.09619140625,10389.4873046875,-6020.0693359375,9136.994140625,7973.51171875,5660.05712890625,8381.20703125,2813.33935546875,-1466.2742919921875,5632.24169921875,-0.0,4547.43701171875,-14877.3193359375,2388.9541015625,13083.6171875,2640.08837890625,-7155.736328125,4409.94873046875,5187.98828125,4141.33056640625,4432.99609375,3170.17236328125,-4304.25,-10169.3466796875,-5001.22705078125,2242.72412109375,-4280.408203125,0.0,-6140.86767578125,0.0,-6847.3818359375,-10197.1630859375,3972.848388671875,-10173.3203125,0.0,-13207.5947265625,-1366.9332275390625,0.0,-6429.35400390625,0.0,5192.7568359375,-0.0,-5808.67138671875
-2425.51171875,-3401.4384765625,12111.6640625,-7573.76318359375,7553.8955078125,2896.78564453125,3550.052734375,-5473.2958984375,0.0,-5041.75830078125,-2288.023681640625,-11239.8466796875,0.0,0.0,0.0,-3420.511962890625,3112.951904296875,11983.7119140625,-0.0,-1029.1734619140625,5916.75439453125,9776.751953125,7285.27685546875,3159.8408203125,2747.376708984375,-8018.81103515625,-5631.44677734375,7414.02294921875,-561.8731079101562,-1904.169677734375,10379.1552734375,-6029.60595703125,9129.841796875,7959.20654296875,5651.3154296875,8370.08203125,2810.160400390625,-1473.4267578125,5630.65185546875,-0.0,4539.48974609375,-14893.2138671875,2386.570068359375,13072.490234375,2637.7041015625,-7162.88916015625,4403.59130859375,5160.96728515625,4137.357421875,4415.51220703125,3168.5830078125,-4315.37646484375,-10189.2158203125,-4991.68994140625,2234.77685546875,-4259.7451171875,0.0,-6148.0205078125,0.0,-6860.09716796875,-10230.541015625,3964.90087890625,-10176.4990234375,0.0,-13207.5947265625,-1405.0802001953125,0.0,-6417.43310546875,0.0,5216.5986328125,-0.0,-5784.03466796875
-2408.822265625,-3394.285888671875,12108.4853515625,-7586.47900390625,7550.71630859375,2888.838623046875,3548.463134765625,-5473.2958984375,0.0,-5039.3740234375,-2291.20263671875,-11200.1103515625,0.0,0.0,0.0,-3420.511962890625,3104.2099609375,11979.7392578125,-0.0,-1028.3787841796875,5911.98583984375,9769.5986328125,7281.30322265625,3156.662109375,2746.58203125,-8031.52734375,-5633.0361328125,7412.43359375,-565.052001953125,-1895.427734375,10372.0029296875,-6040.73193359375,9123.484375,7949.669921875,5644.95703125,8362.1337890625,2808.57080078125,-1475.81103515625,5619.52587890625,-0.0,4534.72119140625,-14900.3671875,2384.98046875,13069.3125,2636.11474609375,-7162.88916015625,4402.79638671875,5140.3046875,4133.38330078125,4408.359375,3167.788330078125,-4315.37646484375,-10175.705078125,-4993.27978515625,2234.77685546875,-4243.8505859375,0.0,-6140.0732421875,0.0,-6859.302734375,-10223.388671875,3960.927490234375,-10178.0888671875,0.0,-13211.568359375,-1397.1328125,0.0,-6387.23388671875,0.0,5229.314453125,-0.0,-5776.88232421875
-2398.490966796875,-3401.4384765625,12114.8427734375,-7574.55810546875,7554.68994140625,2904.73291015625,3547.66845703125,-5458.1962890625,0.0,-5027.453125,-2276.102783203125,-11161.16796875,0.0,0.0,0.0,-3400.6435546875,3109.77294921875,11989.2763671875,-0.0,-1022.0209350585938,5918.34423828125,9780.724609375,7289.2509765625,3168.5830078125,2756.913330078125,-8012.4541015625,-5625.8837890625,7432.3017578125,-552.3363647460938,-1878.7384033203125,10379.9501953125,-6036.75830078125,9129.841796875,7957.61767578125,5653.69921875,8375.64453125,2811.749755859375,-1463.89013671875,5622.705078125,-0.0,4540.28466796875,-14884.4716796875,2388.159423828125,13084.412109375,2638.4990234375,-7153.35205078125,4409.94873046875,5158.5830078125,4137.357421875,4430.6123046875,3170.967041015625,-4297.89208984375,-10162.1943359375,-4996.45849609375,2245.903076171875,-4237.4931640625,0.0,-6119.41015625,0.0,-6842.61328125,-10195.5732421875,3971.258544921875,-10170.142578125,0.0,-13204.4150390625,-1368.522705078125,0.0,-6353.06005859375,0.0,5244.4140625,-0.0,-5769.7294921875
-2408.027587890625,-3398.259521484375,12110.07421875,-7566.61083984375,7552.3056640625,2911.0908203125,3548.463134765625,-5455.81201171875,0.0,-5028.248046875,-2275.307861328125,-11168.3203125,0.0,0.0,0.0,-3397.46484375,3112.1572265625,11992.4541015625,-0.0,-1022.815673828125,5917.54931640625,9784.6982421875,7290.04541015625,3171.76171875,2749.760986328125,-8005.30126953125,-5625.08935546875,7439.45458984375,-557.8994750976562,-1866.022705078125,10383.12890625,-6035.1689453125,9128.2529296875,7960.79638671875,5654.49365234375,8378.8232421875,2811.749755859375,-1462.3006591796875,5619.52587890625,-0.0,4538.69482421875,-14880.498046875,2387.36474609375,13088.3857421875,2640.08837890625,-7150.96826171875,4407.564453125,5169.70947265625,4137.357421875,4438.55908203125,3169.377685546875,-4294.71337890625,-10160.60546875,-4999.6376953125,2238.75048828125,-4231.9296875,0.0,-6117.02587890625,0.0,-6841.818359375,-10186.0361328125,3972.053466796875,-10166.962890625,0.0,-13208.3896484375,-1356.6016845703125,0.0,-6354.64990234375,0.0,5238.85107421875,-0.0,-5776.08740234375
-2421.5380859375,-3398.259521484375,12104.51171875,-7565.021484375,7548.33203125,2912.680419921875,3548.463134765625,-5455.01708984375,0.0,-5023.4794921875,-2284.050048828125,-11176.2685546875,0.0,0.0,0.0,-3393.490966796875,3112.1572265625,11990.865234375,-0.0,-1017.2525634765625,5913.57568359375,9784.6982421875,7287.6611328125,3170.967041015625,2741.01904296875,-8004.50634765625,-5627.47314453125,7439.45458984375,-567.4362182617188,-1869.9964599609375,10380.7451171875,-6035.96337890625,9124.279296875,7961.5908203125,5652.10986328125,8376.439453125,2811.749755859375,-1462.3006591796875,5614.75732421875,-0.0,4534.72119140625,-14883.677734375,2384.98046875,13088.3857421875,2639.293701171875,-7147.7890625,4406.77001953125,5177.65673828125,4135.767578125,4435.38037109375,3170.967041015625,-4294.71337890625,-10159.015625,-5030.6318359375,2229.213623046875,-4243.8505859375,0.0,-6117.82080078125,0.0,-6836.25537109375,-10193.984375,3972.053466796875,-10165.3740234375,0.0,-13217.92578125,-1357.396484375,0.0,-6353.06005859375,0.0,5246.00341796875,-0.0,-5757.80859375
-2422.332763671875,-3397.46484375,12106.8955078125,-7553.8955078125,7549.126953125,2921.42236328125,3549.258056640625,-5443.09619140625,0.0,-5007.5849609375,-2290.407958984375,-11148.453125,0.0,0.0,0.0,-3374.41748046875,3116.130859375,11995.6328125,-0.0,-1006.921142578125,5917.54931640625,9791.056640625,7292.4296875,3177.324951171875,2740.22412109375,-7993.38037109375,-5628.267578125,7450.58056640625,-569.8204345703125,-1854.101806640625,10385.513671875,-6032.78515625,9128.2529296875,7969.53857421875,5655.28857421875,8382.796875,2814.1337890625,-1455.9427490234375,5621.115234375,-0.0,4535.51611328125,-14874.140625,2385.775390625,13098.716796875,2640.88330078125,-7136.6630859375,4409.94873046875,5196.72998046875,4137.357421875,4445.71142578125,3171.76171875,-4281.20263671875,-10162.1943359375,-5025.86376953125,2226.82958984375,-4241.46630859375,0.0,-6096.36328125,0.0,-6817.9765625,-10191.599609375,3975.232666015625,-10158.2216796875,0.0,-13227.462890625,-1324.017822265625,0.0,-6326.833984375,0.0,5271.4345703125,-0.0,-5726.814453125
-2428.690673828125,-3395.875244140625,12098.9482421875,-7564.2265625,7545.1533203125,2913.47509765625,3546.873779296875,-5451.837890625,0.0,-5020.30029296875,-2303.918212890625,-11149.2470703125,0.0,0.0,0.0,-3383.15966796875,3108.18359375,11987.6865234375,-0.0,-1018.04736328125,5910.396484375,9783.904296875,7286.86669921875,3170.17236328125,2737.83984375,-7996.55908203125,-5633.0361328125,7443.42822265625,-572.20458984375,-1851.7176513671875,10379.1552734375,-6044.7060546875,9119.5107421875,7960.79638671875,5649.7255859375,8375.64453125,2809.365478515625,-1462.3006591796875,5607.60498046875,-0.0,4528.36376953125,-14878.11328125,2383.39111328125,13093.154296875,2637.7041015625,-7146.19970703125,4393.259765625,5178.45166015625,4134.97314453125,4440.14892578125,3167.788330078125,-4289.150390625,-10182.857421875,-5003.611328125,2226.82958984375,-4233.51904296875,0.0,-6098.7470703125,0.0,-6830.6923828125,-10201.9306640625,3969.66943359375,-10168.552734375,0.0,-13225.078125,-1324.8125,0.0,-6336.37109375,0.0,5253.15625,-0.0,-5752.24560546875
-2428.690673828125,-3405.411865234375,12092.58984375,-7565.021484375,7541.974609375,2911.885498046875,3546.078857421875,-5460.58056640625,0.0,-5040.1689453125,-2320.607421875,-11143.6845703125,0.0,0.0,0.0,-3394.285888671875,3108.18359375,11983.7119140625,-0.0,-1030.7630615234375,5905.62841796875,9783.1083984375,7285.27685546875,3166.19873046875,2732.27685546875,-7990.201171875,-5633.8310546875,7437.86474609375,-574.5887451171875,-1863.6385498046875,10376.7705078125,-6043.9111328125,9115.537109375,7958.412109375,5645.751953125,8372.4658203125,2809.365478515625,-1467.0689697265625,5607.60498046875,-0.0,4523.59521484375,-14878.11328125,2382.59619140625,13087.58984375,2636.11474609375,-7157.32568359375,4379.74951171875,5194.34619140625,4134.97314453125,4438.55908203125,3166.19873046875,-4299.48193359375,-10197.1630859375,-5005.20068359375,2222.06103515625,-4220.0087890625,0.0,-6106.69482421875,0.0,-6849.765625,-10205.9052734375,3966.490234375,-10176.4990234375,0.0,-13227.462890625,-1336.7335205078125,0.0,-6359.41845703125,0.0,5220.57177734375,-0.0,-5803.9033203125
-2441.40625,-3441.1748046875,12090.2060546875,-7578.53173828125,7541.1796875,2903.938232421875,3547.66845703125,-5466.14306640625,0.0,-5041.75830078125,-2319.01806640625,-11172.294921875,0.0,0.0,0.0,-3401.4384765625,3101.031005859375,11978.943359375,-0.0,-1030.7630615234375,5904.83349609375,9775.162109375,7281.30322265625,3160.6357421875,2733.071533203125,-8002.91748046875,-5633.8310546875,7430.71240234375,-572.20458984375,-1880.327880859375,10370.4140625,-6047.08984375,9113.9482421875,7950.46533203125,5642.57275390625,8366.1083984375,2808.57080078125,-1473.4267578125,5612.37353515625,-0.0,4522.00537109375,-14891.6240234375,2381.801513671875,13080.4375,2637.7041015625,-7159.7099609375,4378.95458984375,5159.3779296875,4134.17822265625,4429.0224609375,3166.993408203125,-4304.25,-10205.9052734375,-5027.453125,2221.2666015625,-4240.671875,0.0,-6114.6416015625,0.0,-6853.7392578125,-10224.978515625,3963.311767578125,-10177.294921875,0.0,-13221.900390625,-1357.396484375,0.0,-6376.10791015625,0.0,5217.3935546875,-0.0,-5799.92919921875
-2451.737548828125,-3438.79052734375,12091.0009765625,-7584.8896484375,7539.59033203125,2896.78564453125,3545.2841796875,-5470.91162109375,0.0,-5046.5263671875,-2301.533935546875,-11192.9580078125,0.0,0.0,0.0,-3407.796142578125,3096.2626953125,11974.970703125,-0.0,-1032.3524169921875,5900.85986328125,9768.8037109375,7276.53515625,3154.27783203125,2740.22412109375,-8006.89013671875,-5635.42041015625,7421.97021484375,-566.6414794921875,-1889.8646240234375,10365.6455078125,-6051.0634765625,9111.5634765625,7947.28564453125,5639.39404296875,8361.33984375,2806.186767578125,-1477.400390625,5606.015625,-0.0,4522.00537109375,-14894.0087890625,2378.622802734375,13073.28515625,2635.320068359375,-7164.478515625,4381.33837890625,5150.63623046875,4134.17822265625,4418.69091796875,3167.788330078125,-4309.81298828125,-10200.3408203125,-5064.8056640625,2226.82958984375,-4266.10302734375,0.0,-6120.205078125,0.0,-6860.09716796875,-10220.2099609375,3957.74853515625,-10181.267578125,0.0,-13209.9794921875,-1336.7335205078125,0.0,-6380.0810546875,0.0,5204.677734375,-0.0,-5816.61865234375
-2445.3798828125,-3425.2802734375,12094.1796875,-7588.068359375,7541.974609375,2888.838623046875,3545.2841796875,-5474.88525390625,0.0,-5050.50048828125,-2284.050048828125,-11211.236328125,0.0,0.0,0.0,-3415.74365234375,3096.2626953125,11972.5869140625,-0.0,-1035.5313720703125,5902.44921875,9765.625,7275.740234375,3151.098876953125,2749.760986328125,-8025.9638671875,-5632.24169921875,7415.61279296875,-559.4889526367188,-1921.65380859375,10363.2607421875,-6048.67919921875,9113.15234375,7944.10693359375,5637.01025390625,8358.1611328125,2805.39208984375,-1479.78466796875,5604.42578125,-0.0,4525.9794921875,-14897.982421875,2379.41748046875,13066.927734375,2633.730712890625,-7168.45166015625,4387.69677734375,5159.3779296875,4139.7412109375,4409.94873046875,3166.993408203125,-4317.76025390625,-10185.2421875,-5053.67919921875,2237.160888671875,-4282.79248046875,0.0,-6131.3310546875,0.0,-6864.07080078125,-10206.69921875,3956.1591796875,-10182.857421875,0.0,-13193.2900390625,-1338.322998046875,0.0,-6384.0546875,0.0,5193.5517578125,-0.0,-5821.38671875
-2447.76416015625,-3432.432861328125,12094.974609375,-7586.47900390625,7540.384765625,2888.043701171875,3546.873779296875,-5474.88525390625,0.0,-5051.294921875,-2288.818359375,-11226.3369140625,0.0,0.0,0.0,-3415.74365234375,3093.87841796875,11971.791015625,-0.0,-1034.736572265625,5900.06494140625,9765.625,7276.53515625,3151.098876953125,2746.58203125,-8028.34814453125,-5631.44677734375,7413.228515625,-563.4625854492188,-1925.6273193359375,10361.671875,-6056.626953125,9112.3583984375,7941.72265625,5634.6259765625,8356.5712890625,2806.186767578125,-1481.3741455078125,5598.068359375,-0.0,4526.77392578125,-14897.1875,2379.41748046875,13066.927734375,2635.320068359375,-7168.45166015625,4388.4912109375,5171.298828125,4137.357421875,4411.53857421875,3167.788330078125,-4316.9658203125,-10188.419921875,-5073.54736328125,2235.571533203125,-4290.73974609375,0.0,-6137.68896484375,0.0,-6861.6865234375,-10230.541015625,3955.3642578125,-10182.857421875,0.0,-13198.8525390625,-1355.0123291015625,0.0,-6382.46533203125,0.0,5196.72998046875,-0.0,-5811.0556640625
-2446.174560546875,-3434.022216796875,12094.1796875,-7575.35302734375,7537.2060546875,2895.1962890625,3546.078857421875,-5470.91162109375,0.0,-5049.70556640625,-2293.586669921875,-11196.13671875,0.0,0.0,0.0,-3410.180419921875,3099.44140625,11973.380859375,-0.0,-1032.3524169921875,5900.85986328125,9769.5986328125,7277.330078125,3154.27783203125,2740.22412109375,-8008.47998046875,-5635.42041015625,7418.79150390625,-569.8204345703125,-1867.6121826171875,10364.849609375,-6051.8583984375,9112.3583984375,7950.46533203125,5637.01025390625,8362.1337890625,2806.186767578125,-1478.1951904296875,5594.88916015625,-0.0,4525.1845703125,-14886.0615234375,2377.827880859375,13071.6962890625,2636.11474609375,-7166.8623046875,4391.67041015625,5177.65673828125,4134.17822265625,4422.66455078125,3166.993408203125,-4311.40283203125,-10190.8046875,-5046.5263671875,2228.4189453125,-4262.12939453125,0.0,-6131.3310546875,0.0,-6859.302734375,-10222.5947265625,3958.543212890625,-10182.0634765625,0.0,-13213.1572265625,-1333.5545654296875,0.0,-6388.02880859375,0.0,5200.7041015625,-0.0,-5811.0556640625
-2453.3271484375,-3430.048583984375,12098.9482421875,-7572.96875,7540.384765625,2902.348876953125,3544.489501953125,-5466.93798828125,0.0,-5047.3212890625,-2283.25537109375,-11181.8310546875,0.0,0.0,0.0,-3406.206787109375,3105.004638671875,11978.943359375,-0.0,-1032.3524169921875,5904.83349609375,9775.9560546875,7278.12451171875,3159.046142578125,2742.6083984375,-7995.7646484375,-5635.42041015625,7427.53369140625,-566.6414794921875,-1815.954833984375,10370.4140625,-6040.73193359375,9117.9208984375,7956.02783203125,5640.1884765625,8366.1083984375,2806.186767578125,-1473.4267578125,5610.7841796875,-0.0,4527.56884765625,-14882.087890625,2377.827880859375,13078.0537109375,2635.320068359375,-7163.68359375,4398.82275390625,5177.65673828125,4138.15185546875,4433.79052734375,3165.404052734375,-4308.2236328125,-10183.65234375,-5056.85791015625,2231.597900390625,-4239.08251953125,0.0,-6124.97314453125,0.0,-6856.91845703125,-10214.646484375,3962.516845703125,-10182.0634765625,0.0,-13209.18359375,-1345.4755859375,0.0,-6394.38623046875,0.0,5204.677734375,-0.0,-5810.2607421875
-2463.65869140625,-3435.61181640625,12094.974609375,-7574.55810546875,7540.384765625,2903.938232421875,3544.489501953125,-5463.7587890625,0.0,-5041.75830078125,-2282.46044921875,-11160.3740234375,0.0,0.0,0.0,-3395.875244140625,3101.82568359375,11978.1494140625,-0.0,-1031.5577392578125,5904.0390625,9774.3671875,7276.53515625,3157.45654296875,2750.5556640625,-7993.38037109375,-5634.6259765625,7432.3017578125,-556.3099975585938,-1815.954833984375,10368.82421875,-6045.50048828125,9117.9208984375,7952.849609375,5637.8046875,8366.90234375,2805.39208984375,-1471.83740234375,5613.16845703125,-0.0,4525.9794921875,-14882.8818359375,2377.827880859375,13079.6435546875,2632.935791015625,-7160.5048828125,4388.4912109375,5170.50390625,4140.53564453125,4438.55908203125,3163.814453125,-4303.45556640625,-10193.1884765625,-5027.453125,2238.75048828125,-4223.18798828125,0.0,-6121.79443359375,0.0,-6848.17626953125,-10223.388671875,3960.132568359375,-10182.0634765625,0.0,-13200.4423828125,-1370.9068603515625,0.0,-6376.10791015625,0.0,5222.16162109375,-0.0,-5787.2138671875
-2478.758544921875,-3430.048583984375,12079.875,-7594.4267578125,7530.0537109375,2895.990966796875,3541.310546875,-5467.73291015625,0.0,-5040.1689453125,-2299.149658203125,-11158.7841796875,0.0,0.0,0.0,-3394.285888671875,3088.315185546875,11967.818359375,-0.0,-1030.7630615234375,5892.1181640625,9759.2666015625,7270.17724609375,3149.509521484375,2740.22412109375,-8010.8642578125,-5637.01025390625,7427.53369140625,-567.4362182617188,-1857.28076171875,10355.3134765625,-6059.80517578125,9102.02734375,7937.7490234375,5629.0625,8359.75,2803.802490234375,-1475.81103515625,5588.53125,-0.0,4516.44287109375,-14897.982421875,2374.64892578125,13074.080078125,2632.14111328125,-7162.88916015625,4364.6494140625,5142.68896484375,4133.38330078125,4430.6123046875,3163.019775390625,-4305.83935546875,-10219.4150390625,-5011.55859375,2226.82958984375,-4242.26123046875,0.0,-6120.205078125,0.0,-6844.20263671875,-10246.4365234375,3952.97998046875,-10180.4736328125,0.0,-13213.9521484375,-1347.06494140625,0.0,-6350.67626953125,0.0,5234.876953125,-0.0,-5770.5244140625
-2465.248046875,-3423.69091796875,12081.4638671875,-7588.86328125,7530.0537109375,2900.759521484375,3545.2841796875,-5463.7587890625,0.0,-5037.78466796875,-2304.712890625,-11152.4267578125,0.0,0.0,0.0,-3394.285888671875,3089.90478515625,11973.380859375,-0.0,-1028.3787841796875,5894.501953125,9765.625,7271.7666015625,3155.867431640625,2731.482177734375,-8006.095703125,-5635.42041015625,7431.50732421875,-575.3834838867188,-1861.25439453125,10360.08203125,-6062.189453125,9101.2314453125,7940.13330078125,5633.8310546875,8362.9296875,2807.776123046875,-1472.632080078125,5582.173828125,-0.0,4515.64794921875,-14892.4189453125,2377.827880859375,13079.6435546875,2633.730712890625,-7158.12060546875,4372.5966796875,5146.662109375,4133.38330078125,4433.79052734375,3165.404052734375,-4301.8662109375,-10227.3623046875,-4992.48486328125,2221.2666015625,-4243.0556640625,0.0,-6107.4892578125,0.0,-6842.61328125,-10249.6142578125,3957.74853515625,-10175.705078125,0.0,-13227.462890625,-1310.5074462890625,0.0,-6358.62353515625,0.0,5226.13525390625,-0.0,-5780.06103515625
-2446.174560546875,-3418.92236328125,12082.2587890625,-7582.505859375,7529.2587890625,2901.55419921875,3546.873779296875,-5464.5537109375,0.0,-5039.3740234375,-2314.249755859375,-11154.810546875,0.0,0.0,0.0,-3400.6435546875,3091.494384765625,11974.17578125,-0.0,-1029.1734619140625,5895.29638671875,9768.0087890625,7274.15087890625,3156.662109375,2724.32958984375,-7990.99658203125,-5637.01025390625,7427.53369140625,-584.12548828125,-1855.6912841796875,10364.0556640625,-6062.189453125,9102.02734375,7944.10693359375,5633.8310546875,8364.5185546875,2807.776123046875,-1474.2215576171875,5582.173828125,-0.0,4513.263671875,-14886.0615234375,2377.827880859375,13078.0537109375,2637.7041015625,-7158.9150390625,4374.98095703125,5156.99365234375,4132.5888671875,4427.43310546875,3166.993408203125,-4305.04443359375,-10221.798828125,-4982.1533203125,2214.114013671875,-4239.87744140625,0.0,-6111.462890625,0.0,-6845.79248046875,-10239.283203125,3959.337646484375,-10177.294921875,0.0,-13241.767578125,-1316.070556640625,0.0,-6378.49169921875,0.0,5213.41943359375,-0.0,-5792.7763671875
-2439.02197265625,-3424.4853515625,12075.9013671875,-7588.068359375,7530.0537109375,2893.60693359375,3546.078857421875,-5469.322265625,0.0,-5041.75830078125,-2315.839111328125,-11156.3994140625,0.0,0.0,0.0,-3410.180419921875,3086.725830078125,11967.818359375,-0.0,-1030.7630615234375,5890.5283203125,9760.0625,7270.9716796875,3151.098876953125,2725.124267578125,-8002.91748046875,-5634.6259765625,7419.5859375,-582.5360717773438,-1874.7647705078125,10356.1083984375,-6067.7529296875,9097.2587890625,7939.3388671875,5629.857421875,8357.365234375,2806.9814453125,-1477.400390625,5581.37890625,-0.0,4508.4951171875,-14891.6240234375,2377.033203125,13070.9013671875,2636.909423828125,-7162.88916015625,4368.623046875,5155.40478515625,4132.5888671875,4420.2802734375,3166.19873046875,-4313.787109375,-10208.2890625,-5021.89013671875,2214.90869140625,-4261.3349609375,0.0,-6125.76806640625,0.0,-6849.765625,-10234.515625,3954.5693359375,-10182.0634765625,0.0,-13241.767578125,-1333.5545654296875,0.0,-6391.20703125,0.0,5215.8037109375,-0.0,-5782.4453125
-2450.1484375,-3427.66455078125,12071.1328125,-7595.22119140625,7529.2587890625,2887.2490234375,3543.69482421875,-5475.6796875,0.0,-5050.50048828125,-2310.276123046875,-11154.810546875,0.0,0.0,0.0,-3415.74365234375,3080.3681640625,11963.0498046875,-0.0,-1036.3260498046875,5885.759765625,9754.498046875,7266.20361328125,3145.53564453125,2739.429443359375,-8029.9375,-5634.6259765625,7415.61279296875,-567.4362182617188,-1885.8909912109375,10352.134765625,-6072.52099609375,9092.490234375,7932.98046875,5625.8837890625,8351.0087890625,2804.59716796875,-1482.1688232421875,5575.021484375,-0.0,4507.70068359375,-14898.77734375,2373.8544921875,13066.927734375,2634.525390625,-7170.04150390625,4363.06005859375,5152.2255859375,4134.97314453125,4419.4853515625,3165.404052734375,-4318.55517578125,-10205.109375,-5031.4267578125,2228.4189453125,-4246.23486328125,0.0,-6135.3046875,0.0,-6855.3291015625,-10244.0517578125,3950.595947265625,-10188.419921875,0.0,-13229.052734375,-1331.17041015625,0.0,-6421.4072265625,0.0,5210.24072265625,-0.0,-5786.4189453125
-2466.042724609375,-3453.095703125,12072.72265625,-7592.8369140625,7528.4638671875,2886.454345703125,3542.900146484375,-5478.85888671875,0.0,-5048.91064453125,-2303.12353515625,-11200.1103515625,0.0,0.0,0.0,-3418.92236328125,3078.778564453125,11962.2548828125,-0.0,-1035.5313720703125,5884.96533203125,9755.2939453125,7265.4091796875,3145.53564453125,2742.6083984375,-8026.75927734375,-5637.8046875,7409.25439453125,-564.25732421875,-1894.6329345703125,10349.7509765625,-6074.9052734375,9092.490234375,7932.18603515625,5623.49951171875,8349.4189453125,2803.802490234375,-1483.75830078125,5573.431640625,-0.0,4510.08447265625,-14900.3671875,2373.8544921875,13063.748046875,2636.909423828125,-7173.22021484375,4363.06005859375,5159.3779296875,4134.97314453125,4411.53857421875,3166.19873046875,-4320.14453125,-10209.8779296875,-5039.3740234375,2230.80322265625,-4271.666015625,0.0,-6138.4833984375,0.0,-6861.6865234375,-10248.025390625,3949.801025390625,-10190.009765625,0.0,-13226.66796875,-1356.6016845703125,0.0,-6420.6123046875,0.0,5211.03515625,-0.0,-5777.67724609375
-2462.864013671875,-3472.964111328125,12079.080078125,-7594.4267578125,7534.02734375,2884.86474609375,3544.489501953125,-5475.6796875,0.0,-5044.93701171875,-2288.023681640625,-11222.3623046875,0.0,0.0,0.0,-3411.769775390625,3084.341796875,11967.0224609375,-0.0,-1033.94189453125,5891.3232421875,9757.677734375,7267.79296875,3147.125244140625,2751.350341796875,-8032.32177734375,-5634.6259765625,7410.04931640625,-555.5152587890625,-1901.7855224609375,10353.724609375,-6071.7265625,9096.462890625,7933.77587890625,5629.0625,8351.0087890625,2803.802490234375,-1480.579345703125,5582.173828125,-0.0,4518.8271484375,-14905.134765625,2375.443603515625,13066.1328125,2635.320068359375,-7170.04150390625,4378.95458984375,5145.86767578125,4140.53564453125,4408.359375,3164.609130859375,-4317.76025390625,-10195.5732421875,-5075.13671875,2241.134765625,-4286.76611328125,0.0,-6136.09912109375,0.0,-6857.71337890625,-10246.4365234375,3952.18505859375,-10186.8310546875,0.0,-13207.5947265625,-1375.6751708984375,0.0,-6387.23388671875,0.0,5218.18798828125,-0.0,-5771.31884765625
-2464.453369140625,-3490.447998046875,12078.28515625,-7591.24755859375,7535.6162109375,2888.838623046875,3543.69482421875,-5470.1171875,0.0,-5044.14208984375,-2288.023681640625,-11208.0576171875,0.0,0.0,0.0,-3401.4384765625,3085.93115234375,11967.0224609375,-0.0,-1033.94189453125,5892.1181640625,9758.47265625,7269.38232421875,3150.30419921875,2756.913330078125,-8020.40087890625,-5634.6259765625,7417.9970703125,-549.9522094726562,-1900.9908447265625,10353.724609375,-6070.13720703125,9098.052734375,7935.36474609375,5630.65185546875,8354.9814453125,2804.59716796875,-1478.1951904296875,5578.19970703125,-0.0,4518.8271484375,-14899.5712890625,2375.443603515625,13070.9013671875,2633.730712890625,-7166.0673828125,4377.365234375,5156.19921875,4144.509765625,4417.896484375,3162.22509765625,-4310.60791015625,-10198.751953125,-5058.447265625,2246.69775390625,-4279.61328125,0.0,-6125.76806640625,0.0,-6851.35498046875,-10247.23046875,3955.3642578125,-10185.2421875,0.0,-13191.7001953125,-1364.549072265625,0.0,-6384.849609375,0.0,5207.8564453125,-0.0,-5772.90869140625
-2489.884521484375,-3492.832275390625,12081.4638671875,-7597.60546875,7531.64306640625,2892.81201171875,3542.900146484375,-5465.3486328125,0.0,-5040.9638671875,-2301.533935546875,-11200.1103515625,0.0,0.0,0.0,-3389.517578125,3082.752197265625,11967.818359375,-0.0,-1031.5577392578125,5891.3232421875,9756.087890625,7270.9716796875,3152.688232421875,2740.22412109375,-8021.1953125,-5638.599609375,7425.94384765625,-569.0256958007812,-1908.9381103515625,10352.134765625,-6072.52099609375,9097.2587890625,7930.59619140625,5629.0625,8358.1611328125,2806.186767578125,-1475.0162353515625,5579.78955078125,-0.0,4514.05859375,-14903.544921875,2375.443603515625,13076.46484375,2634.525390625,-7162.09423828125,4374.18603515625,5143.4833984375,4138.9462890625,4424.25390625,3164.609130859375,-4303.45556640625,-10223.388671875,-5035.400390625,2229.213623046875,-4258.95068359375,0.0,-6116.2314453125,0.0,-6840.22900390625,-10265.509765625,3952.97998046875,-10182.857421875,0.0,-13221.900390625,-1360.5753173828125,0.0,-6362.59716796875,0.0,5215.00927734375,-0.0,-5777.67724609375
-2495.44775390625,-3480.9111328125,12080.6689453125,-7609.5263671875,7526.87451171875,2882.480712890625,3541.310546875,-5475.6796875,0.0,-5047.3212890625,-2306.30224609375,-11216.00390625,0.0,0.0,0.0,-3407.00146484375,3074.01025390625,11959.8701171875,-0.0,-1038.710205078125,5885.759765625,9748.1416015625,7266.20361328125,3144.740966796875,2734.6611328125,-8035.50048828125,-5641.7783203125,7414.02294921875,-573.7940673828125,-1917.68017578125,10345.7763671875,-6075.7001953125,9092.490234375,7921.0595703125,5623.49951171875,8349.4189453125,2802.212890625,-1481.3741455078125,5578.19970703125,-0.0,4510.87939453125,-14916.2607421875,2371.47021484375,13065.337890625,2632.935791015625,-7170.04150390625,4377.365234375,5122.8203125,4134.97314453125,4413.1279296875,3162.22509765625,-4316.17138671875,-10248.8203125,-5054.4736328125,2224.4453125,-4262.92431640625,0.0,-6128.94677734375,0.0,-6851.35498046875,-10274.2509765625,3947.416748046875,-10190.009765625,0.0,-13221.1044921875,-1381.23828125,0.0,-6372.9287109375,0.0,5230.10888671875,-0.0,-5784.03466796875
-2473.1953125,-3463.42724609375,12096.564453125,-7608.73193359375,7535.6162109375,2880.096435546875,3540.515869140625,-5478.85888671875,0.0,-5046.5263671875,-2281.665771484375,-11231.1044921875,0.0,0.0,0.0,-3420.511962890625,3080.3681640625,11963.0498046875,-0.0,-1036.3260498046875,5894.501953125,9749.73046875,7268.58740234375,3143.9462890625,2762.4765625,-8039.474609375,-5635.42041015625,7405.28125,-543.5943603515625,-1930.395751953125,10349.7509765625,-6069.34228515625,9102.02734375,7925.03369140625,5629.0625,8349.4189453125,2802.212890625,-1482.1688232421875,5596.47900390625,-0.0,4523.59521484375,-14914.671875,2374.64892578125,13058.98046875,2631.346435546875,-7169.24658203125,4405.1806640625,5121.23095703125,4144.509765625,4404.38623046875,3162.22509765625,-4322.52880859375,-10237.693359375,-5082.2890625,2253.0556640625,-4297.89208984375,0.0,-6144.841796875,0.0,-6858.5078125,-10251.2041015625,3950.595947265625,-10187.6259765625,0.0,-13182.9580078125,-1398.7222900390625,0.0,-6411.07568359375,0.0,5226.13525390625,-0.0,-5772.90869140625
-2489.08984375,-3441.1748046875,12098.9482421875,-7592.04248046875,7538.00048828125,2892.017333984375,3545.2841796875,-5466.14306640625,0.0,-5029.04248046875,-2301.533935546875,-11213.6201171875,0.0,0.0,0.0,-3404.6171875,3091.494384765625,11973.380859375,-0.0,-1021.2262573242188,5901.65478515625,9760.8564453125,7275.740234375,3154.27783203125,2752.93994140625,-8022.78515625,-5633.8310546875,7416.4072265625,-554.7205810546875,-1919.26953125,10360.876953125,-6062.984375,9111.5634765625,7937.7490234375,5635.42041015625,8363.7236328125,2806.9814453125,-1471.0426025390625,5609.1943359375,-0.0,4525.9794921875,-14897.982421875,2377.827880859375,13072.490234375,2636.11474609375,-7154.146484375,4404.38623046875,5150.63623046875,4146.09912109375,4416.30712890625,3165.404052734375,-4307.4287109375,-10213.0576171875,-5064.0107421875,2241.134765625,-4310.60791015625,0.0,-6134.51025390625,0.0,-6840.22900390625,-10253.5888671875,3960.927490234375,-10174.115234375,0.0,-13213.9521484375,-1394.7486572265625,0.0,-6376.10791015625,0.0,5242.82470703125,-0.0,-5753.04052734375
-2479.55322265625,-3457.864013671875,12083.84765625,-7596.01611328125,7526.87451171875,2893.60693359375,3546.078857421875,-5461.375,0.0,-5021.89013671875,-2325.375732421875,-11196.13671875,0.0,0.0,0.0,-3396.670166015625,3085.93115234375,11969.4072265625,-0.0,-1016.4578857421875,5891.3232421875,9756.8828125,7272.5615234375,3155.867431640625,2725.9189453125,-8018.0166015625,-5641.7783203125,7423.5595703125,-582.5360717773438,-1905.7591552734375,10356.9033203125,-6068.5478515625,9101.2314453125,7933.77587890625,5628.267578125,8362.1337890625,2806.186767578125,-1470.2479248046875,5603.63134765625,-0.0,4511.67431640625,-14897.982421875,2373.8544921875,13076.46484375,2637.7041015625,-7150.17333984375,4375.77587890625,5145.07275390625,4134.97314453125,4421.86962890625,3166.993408203125,-4302.66064453125,-10209.083984375,-5074.34228515625,2214.90869140625,-4289.150390625,0.0,-6125.76806640625,0.0,-6830.6923828125,-10264.7138671875,3957.74853515625,-10170.9365234375,0.0,-13237.7939453125,-1366.9332275390625,0.0,-6326.833984375,0.0,5265.0771484375,-0.0,-5729.9931640625
-2452.532470703125,-3463.42724609375,12071.9267578125,-7599.9892578125,7522.10595703125,2892.81201171875,3543.69482421875,-5464.5537109375,0.0,-5030.6318359375,-2322.197021484375,-11182.6259765625,0.0,0.0,0.0,-3399.848876953125,3077.98388671875,11965.43359375,-0.0,-1022.0209350585938,5884.96533203125,9755.2939453125,7267.79296875,3151.098876953125,2720.35595703125,-8015.6328125,-5644.16259765625,7424.3544921875,-587.304443359375,-1881.12255859375,10351.33984375,-6078.87890625,9090.900390625,7929.8017578125,5623.49951171875,8356.5712890625,2803.802490234375,-1472.632080078125,5578.99462890625,-0.0,4502.93212890625,-14902.7509765625,2371.47021484375,13072.490234375,2636.909423828125,-7156.53076171875,4355.9072265625,5142.68896484375,4130.9990234375,4425.84375,3165.404052734375,-4306.63427734375,-10208.2890625,-5067.98388671875,2210.934814453125,-4257.36083984375,0.0,-6121.79443359375,0.0,-6841.02392578125,-10256.767578125,3952.97998046875,-10175.705078125,0.0,-13233.025390625,-1347.06494140625,0.0,-6344.318359375,0.0,5249.97705078125,-0.0,-5744.29833984375
-2450.1484375,-3442.76416015625,12071.1328125,-7589.658203125,7529.2587890625,2902.348876953125,3545.2841796875,-5459.78564453125,0.0,-5029.04248046875,-2311.865478515625,-11169.91015625,0.0,0.0,0.0,-3395.08056640625,3085.93115234375,11971.791015625,-0.0,-1025.199951171875,5890.5283203125,9764.8310546875,7273.35595703125,3157.45654296875,2722.740234375,-8006.095703125,-5639.39404296875,7431.50732421875,-584.12548828125,-1869.20166015625,10356.9033203125,-6073.31591796875,9094.0791015625,7937.7490234375,5629.0625,8364.5185546875,2806.9814453125,-1467.0689697265625,5571.04736328125,-0.0,4510.87939453125,-14895.5986328125,2375.443603515625,13080.4375,2635.320068359375,-7151.7626953125,4359.08642578125,5157.78857421875,4138.15185546875,4433.79052734375,3165.404052734375,-4301.0712890625,-10201.9306640625,-5044.14208984375,2214.114013671875,-4243.0556640625,0.0,-6113.84716796875,0.0,-6839.43408203125,-10240.8720703125,3960.927490234375,-10173.3203125,0.0,-13238.5888671875,-1331.17041015625,0.0,-6350.67626953125,0.0,5232.4931640625,-0.0,-5765.75634765625
-2453.3271484375,-3441.1748046875,12074.3115234375,-7589.658203125,7534.82177734375,2897.580322265625,3543.69482421875,-5463.7587890625,0.0,-5031.4267578125,-2295.970947265625,-11200.9052734375,0.0,0.0,0.0,-3395.875244140625,3085.136474609375,11971.791015625,-0.0,-1029.96826171875,5891.3232421875,9761.6513671875,7274.94580078125,3156.662109375,2737.83984375,-8012.4541015625,-5633.0361328125,7427.53369140625,-571.4098510742188,-1892.248779296875,10356.1083984375,-6070.93212890625,9094.8740234375,7936.16015625,5631.44677734375,8362.9296875,2806.186767578125,-1468.658447265625,5569.4580078125,-0.0,4515.64794921875,-14898.77734375,2377.827880859375,13077.2587890625,2636.11474609375,-7152.5576171875,4372.5966796875,5153.81494140625,4145.30419921875,4427.43310546875,3166.19873046875,-4301.8662109375,-10186.8310546875,-5052.08984375,2226.82958984375,-4286.76611328125,0.0,-6124.97314453125,0.0,-6835.46044921875,-10237.693359375,3960.132568359375,-10174.115234375,0.0,-13217.92578125,-1343.885986328125,0.0,-6358.62353515625,0.0,5213.41943359375,-0.0,-5788.80322265625
-2460.479736328125,-3453.095703125,12074.3115234375,-7595.22119140625,7530.84814453125,2887.2490234375,3542.10546875,-5474.88525390625,0.0,-5040.1689453125,-2288.023681640625,-11233.4892578125,0.0,0.0,0.0,-3409.3857421875,3077.98388671875,11964.638671875,-0.0,-1033.94189453125,5885.759765625,9755.2939453125,7268.58740234375,3147.125244140625,2751.350341796875,-8018.0166015625,-5635.42041015625,7414.02294921875,-557.8994750976562,-1961.3902587890625,10349.7509765625,-6078.08447265625,9092.490234375,7929.8017578125,5624.29443359375,8354.9814453125,2802.212890625,-1478.1951904296875,5571.84228515625,-0.0,4513.263671875,-14909.1083984375,2374.64892578125,13066.927734375,2633.730712890625,-7162.88916015625,4375.77587890625,5149.84130859375,4143.71484375,4414.71728515625,3164.609130859375,-4316.9658203125,-10189.2158203125,-5091.03173828125,2241.134765625,-4327.29736328125,0.0,-6144.841796875,0.0,-6852.94482421875,-10259.9462890625,3952.97998046875,-10182.0634765625,0.0,-13196.46875,-1362.95947265625,0.0,-6393.59130859375,0.0,5211.830078125,-0.0,-5793.5712890625
-2476.374267578125,-3472.964111328125,12066.3642578125,-7598.39990234375,7524.490234375,2883.275390625,3540.515869140625,-5480.4482421875,0.0,-5043.34765625,-2295.17626953125,-11224.7470703125,0.0,0.0,0.0,-3413.359375,3074.01025390625,11957.486328125,-0.0,-1033.94189453125,5878.607421875,9749.73046875,7263.8193359375,3143.151611328125,2753.734619140625,-8021.99072265625,-5637.8046875,7411.638671875,-554.7205810546875,-1970.132080078125,10343.392578125,-6084.4423828125,9086.9267578125,7925.03369140625,5617.9365234375,8348.6240234375,2800.62353515625,-1481.3741455078125,5574.2265625,-0.0,4509.2900390625,-14913.08203125,2371.47021484375,13062.1591796875,2631.346435546875,-7166.8623046875,4371.8017578125,5158.5830078125,4139.7412109375,4414.71728515625,3161.430419921875,-4319.349609375,-10205.9052734375,-5115.66796875,2244.3134765625,-4278.81884765625,0.0,-6143.251953125,0.0,-6857.71337890625,-10267.0986328125,3948.211669921875,-10185.2421875,0.0,-13191.7001953125,-1361.3701171875,0.0,-6395.9755859375,0.0,5205.47265625,-0.0,-5789.59814453125
-2482.732177734375,-3476.9375,12063.185546875,-7600.7841796875,7524.490234375,2888.043701171875,3544.489501953125,-5472.50146484375,0.0,-5035.400390625,-2309.4814453125,-11235.873046875,0.0,0.0,0.0,-3406.206787109375,3076.394287109375,11962.2548828125,-0.0,-1027.5841064453125,5882.5810546875,9752.1142578125,7267.79296875,3148.71484375,2737.04541015625,-8029.1435546875,-5635.42041015625,7417.9970703125,-570.6151123046875,-1904.9644775390625,10346.572265625,-6080.46875,9085.337890625,7925.828125,5621.91015625,8352.59765625,2805.39208984375,-1475.0162353515625,5578.19970703125,-0.0,4507.70068359375,-14914.671875,2374.64892578125,13067.72265625,2634.525390625,-7159.7099609375,4370.21240234375,5156.19921875,4138.15185546875,4419.4853515625,3165.404052734375,-4310.60791015625,-10206.69921875,-5089.44189453125,2226.034912109375,-4252.5927734375,0.0,-6130.53662109375,0.0,-6844.20263671875,-10264.7138671875,3952.97998046875,-10176.4990234375,0.0,-13234.615234375,-1365.34375,0.0,-6388.02880859375,0.0,5205.47265625,-0.0,-5791.98193359375
-2464.453369140625,-3490.447998046875,12075.9013671875,-7603.16845703125,7529.2587890625,2888.043701171875,3543.69482421875,-5470.1171875,0.0,-5037.78466796875,-2299.149658203125,-11250.97265625,0.0,0.0,0.0,-3407.00146484375,3082.752197265625,11965.43359375,-0.0,-1029.1734619140625,5890.5283203125,9756.087890625,7270.9716796875,3151.8935546875,2737.04541015625,-8040.26904296875,-5633.8310546875,7419.5859375,-572.20458984375,-1889.8646240234375,10351.33984375,-6074.1103515625,9094.8740234375,7930.59619140625,5626.6787109375,8354.9814453125,2805.39208984375,-1474.2215576171875,5586.9423828125,-0.0,4514.05859375,-14913.876953125,2374.64892578125,13070.9013671875,2634.525390625,-7159.7099609375,4382.13330078125,5143.4833984375,4141.33056640625,4418.69091796875,3164.609130859375,-4310.60791015625,-10190.009765625,-5071.9580078125,2224.4453125,-4255.771484375,0.0,-6115.4365234375,0.0,-6849.765625,-10263.919921875,3956.1591796875,-10178.0888671875,0.0,-13237.0,-1352.6280517578125,0.0,-6392.796875,0.0,5200.7041015625,-0.0,-5790.392578125
-2462.864013671875,-3477.732421875,12073.5166015625,-7599.19482421875,7530.84814453125,2895.1962890625,3544.489501953125,-5458.1962890625,0.0,-5026.65869140625,-2310.276123046875,-11231.8994140625,0.0,0.0,0.0,-3383.954345703125,3085.93115234375,11970.9970703125,-0.0,-1022.815673828125,5890.5283203125,9762.4462890625,7274.94580078125,3158.25146484375,2735.455810546875,-8027.5537109375,-5630.65185546875,7434.68603515625,-573.7940673828125,-1869.9964599609375,10356.1083984375,-6072.52099609375,9095.6689453125,7936.16015625,5630.65185546875,8362.9296875,2806.9814453125,-1466.2742919921875,5584.55810546875,-0.0,4512.46875,-14906.7236328125,2377.033203125,13080.4375,2634.525390625,-7147.7890625,4370.21240234375,5135.5361328125,4144.509765625,4430.6123046875,3163.814453125,-4296.302734375,-10188.419921875,-5061.62646484375,2222.855712890625,-4253.3876953125,0.0,-6093.18408203125,0.0,-6833.87158203125,-10251.2041015625,3963.311767578125,-10170.9365234375,0.0,-13227.462890625,-1347.8597412109375,0.0,-6392.796875,0.0,5211.03515625,-0.0,-5771.31884765625
-2485.9111328125,-3463.42724609375,12067.1591796875,-7603.96337890625,7523.6953125,2893.60693359375,3544.489501953125,-5454.22216796875,0.0,-5015.5322265625,-2334.91259765625,-11215.2099609375,0.0,0.0,0.0,-3368.059814453125,3079.573486328125,11967.818359375,-0.0,-1014.868408203125,5884.17041015625,9756.8828125,7270.9716796875,3156.662109375,2727.508544921875,-8025.9638671875,-5638.599609375,7437.0703125,-580.9465942382812,-1881.9173583984375,10351.33984375,-6076.49462890625,9090.900390625,7930.59619140625,5625.08935546875,8360.544921875,2806.186767578125,-1463.89013671875,5575.021484375,-0.0,4504.52197265625,-14908.3134765625,2373.0595703125,13082.822265625,2633.730712890625,-7141.43115234375,4364.6494140625,5125.20458984375,4136.5625,4430.6123046875,3166.19873046875,-4286.76611328125,-10208.2890625,-5081.49462890625,2217.292724609375,-4262.92431640625,0.0,-6091.5947265625,0.0,-6819.56640625,-10259.1513671875,3960.132568359375,-10166.16796875,0.0,-13239.3837890625,-1360.5753173828125,0.0,-6392.796875,0.0,5237.26123046875,-0.0,-5748.27197265625
-2503.39501953125,-3467.40087890625,12056.033203125,-7617.4736328125,7514.15869140625,2885.659423828125,3544.489501953125,-5461.375,0.0,-5009.96923828125,-2346.038818359375,-11203.2890625,0.0,0.0,0.0,-3383.15966796875,3068.447021484375,11957.486328125,-0.0,-1012.4841918945312,5873.8388671875,9745.7568359375,7262.22998046875,3147.919921875,2717.17724609375,-8031.52734375,-5645.751953125,7425.1494140625,-590.4833374023438,-1887.4803466796875,10340.2138671875,-6090.00537109375,9077.3896484375,7919.470703125,5614.75732421875,8349.4189453125,2803.802490234375,-1472.632080078125,5556.7421875,-0.0,4494.1904296875,-14918.64453125,2368.291259765625,13075.6689453125,2632.14111328125,-7145.40478515625,4353.5234375,5116.462890625,4128.61474609375,4421.86962890625,3164.609130859375,-4295.5078125,-10230.541015625,-5087.8525390625,2206.96142578125,-4271.666015625,0.0,-6112.25732421875,0.0,-6819.56640625,-10275.0458984375,3951.390625,-10166.962890625,0.0,-13256.0732421875,-1355.8070068359375,0.0,-6307.7607421875,0.0,5269.05078125,-0.0,-5721.2509765625
-2489.884521484375,-3499.190185546875,12053.6494140625,-7634.9580078125,7512.5693359375,2872.149169921875,3542.900146484375,-5478.06396484375,0.0,-5017.12158203125,-2326.96533203125,-11235.078125,0.0,0.0,0.0,-3409.3857421875,3058.11572265625,11949.5390625,-0.0,-1017.2525634765625,5869.0703125,9734.630859375,7258.25634765625,3136.7939453125,2720.35595703125,-8049.01123046875,-5644.95703125,7404.486328125,-587.304443359375,-1928.8062744140625,10331.4716796875,-6099.5419921875,9071.8271484375,7907.5498046875,5609.9892578125,8341.4716796875,2802.212890625,-1482.1688232421875,5549.58984375,-0.0,4491.80615234375,-14932.9501953125,2366.701904296875,13059.775390625,2632.935791015625,-7155.736328125,4351.93408203125,5091.03173828125,4130.20458984375,4405.1806640625,3163.814453125,-4312.9921875,-10224.1826171875,-5108.51513671875,2209.345458984375,-4297.09765625,0.0,-6144.046875,0.0,-6832.28173828125,-10282.9931640625,3945.03271484375,-10174.91015625,0.0,-13249.71484375,-1402.696044921875,0.0,-6320.4765625,0.0,5259.513671875,-0.0,-5722.0458984375
-2486.705810546875,-3495.21630859375,12053.6494140625,-7632.57373046875,7511.7744140625,2869.76513671875,3542.10546875,-5482.83251953125,0.0,-5024.2744140625,-2325.375732421875,-11239.0517578125,0.0,0.0,0.0,-3418.127685546875,3058.910400390625,11949.5390625,-0.0,-1020.4315185546875,5866.6865234375,9732.24609375,7256.66650390625,3137.58837890625,2716.38232421875,-8052.18994140625,-5644.95703125,7398.92333984375,-592.0728149414062,-1931.9852294921875,10332.2666015625,-6099.5419921875,9069.4423828125,7907.5498046875,5609.1943359375,8340.6767578125,2801.418212890625,-1484.552978515625,5551.9736328125,-0.0,4491.01123046875,-14932.1552734375,2365.1123046875,13056.595703125,2632.935791015625,-7158.12060546875,4350.34423828125,5095.0048828125,4130.20458984375,4398.82275390625,3163.019775390625,-4318.55517578125,-10227.3623046875,-5102.15771484375,2205.371826171875,-4301.0712890625,0.0,-6147.22607421875,0.0,-6844.99755859375,-10286.966796875,3942.6484375,-10178.8837890625,0.0,-13256.8671875,-1405.8748779296875,0.0,-6355.4443359375,0.0,5251.56640625,-0.0,-5738.7353515625
-2489.884521484375,-3483.29541015625,12055.2373046875,-7627.80517578125,7513.3642578125,2869.76513671875,3540.515869140625,-5487.6005859375,0.0,-5039.3740234375,-2322.197021484375,-11224.7470703125,0.0,0.0,0.0,-3423.69091796875,3060.5,11949.5390625,-0.0,-1028.3787841796875,5869.865234375,9733.8359375,7256.66650390625,3135.9990234375,2718.766357421875,-8049.01123046875,-5644.16259765625,7398.12841796875,-590.4833374023438,-1916.090576171875,10333.85546875,-6097.15771484375,9072.62109375,7910.728515625,5609.9892578125,8340.6767578125,2800.62353515625,-1487.73193359375,5554.35791015625,-0.0,4494.1904296875,-14929.771484375,2366.701904296875,13053.4169921875,2632.935791015625,-7166.0673828125,4354.318359375,5106.92578125,4131.7939453125,4396.4384765625,3162.22509765625,-4325.7080078125,-10228.951171875,-5092.62109375,2206.96142578125,-4294.71337890625,0.0,-6146.43115234375,0.0,-6860.09716796875,-10282.9931640625,3940.26416015625,-10183.65234375,0.0,-13242.5625,-1389.185546875,0.0,-6374.51806640625,0.0,5225.34033203125,-0.0,-5776.08740234375
-2474.784912109375,-3470.579833984375,12059.2119140625,-7626.21533203125,7518.1328125,2869.76513671875,3540.515869140625,-5490.77978515625,0.0,-5046.5263671875,-2303.918212890625,-11231.8994140625,0.0,0.0,0.0,-3432.432861328125,3062.884033203125,11948.7451171875,-0.0,-1033.94189453125,5872.24951171875,9737.0146484375,7255.8720703125,3131.230712890625,2729.892822265625,-8052.18994140625,-5642.57275390625,7396.5390625,-577.7677001953125,-1924.8326416015625,10334.6513671875,-6093.97900390625,9076.595703125,7912.318359375,5611.57861328125,8337.498046875,2799.828857421875,-1491.70556640625,5559.92138671875,-0.0,4498.16357421875,-14931.361328125,2367.49658203125,13051.8271484375,2630.551513671875,-7172.42578125,4361.470703125,5110.8994140625,4133.38330078125,4396.4384765625,3161.430419921875,-4332.0654296875,-10216.236328125,-5101.36279296875,2219.677001953125,-4297.09765625,0.0,-6155.1728515625,0.0,-6868.83935546875,-10270.2783203125,3938.6748046875,-10186.8310546875,0.0,-13219.515625,-1393.9539794921875,0.0,-6383.26025390625,0.0,5207.0615234375,-0.0,-5801.51904296875
-2464.453369140625,-3460.248291015625,12060.8017578125,-7621.447265625,7519.72216796875,2875.328125,3541.310546875,-5486.80615234375,0.0,-5041.75830078125,-2296.765625,-11235.873046875,0.0,0.0,0.0,-3425.2802734375,3065.268310546875,11950.333984375,-0.0,-1031.5577392578125,5874.6337890625,9738.6044921875,7255.8720703125,3135.9990234375,2737.83984375,-8045.83251953125,-5643.36767578125,7402.89697265625,-569.0256958007812,-1920.0643310546875,10337.03515625,-6090.00537109375,9078.185546875,7914.70263671875,5612.37353515625,8341.4716796875,2801.418212890625,-1488.5267333984375,5562.3056640625,-0.0,4499.75341796875,-14926.5927734375,2369.0859375,13056.595703125,2632.14111328125,-7169.24658203125,4363.06005859375,5115.66796875,4134.17822265625,4402.79638671875,3163.019775390625,-4324.9130859375,-10205.9052734375,-5086.26318359375,2226.82958984375,-4290.73974609375,0.0,-6151.19921875,0.0,-6864.07080078125,-10263.919921875,3940.26416015625,-10184.447265625,0.0,-13207.5947265625,-1401.1064453125,0.0,-6368.955078125,0.0,5218.18798828125,-0.0,-5788.80322265625
-2458.095458984375,-3445.943115234375,12066.3642578125,-7614.29443359375,7522.90087890625,2879.3017578125,3541.310546875,-5485.216796875,0.0,-5043.34765625,-2291.997314453125,-11214.416015625,0.0,0.0,0.0,-3422.896240234375,3070.831298828125,11951.923828125,-0.0,-1031.5577392578125,5876.22314453125,9744.1669921875,7257.46142578125,3139.177978515625,2747.376708984375,-8035.50048828125,-5640.9833984375,7407.6650390625,-560.28369140625,-1904.169677734375,10340.2138671875,-6082.85302734375,9084.5419921875,7919.470703125,5614.75732421875,8344.650390625,2802.212890625,-1484.552978515625,5567.86865234375,-0.0,4502.93212890625,-14918.64453125,2369.0859375,13060.5693359375,2632.14111328125,-7169.24658203125,4365.4443359375,5123.615234375,4139.7412109375,4409.94873046875,3163.814453125,-4324.9130859375,-10193.1884765625,-5061.62646484375,2236.3662109375,-4281.20263671875,0.0,-6144.841796875,0.0,-6867.25,-10255.177734375,3942.6484375,-10186.0361328125,0.0,-13200.4423828125,-1381.23828125,0.0,-6372.1337890625,0.0,5207.8564453125,-0.0,-5803.9033203125
-2454.121826171875,-3437.995849609375,12075.1064453125,-7604.7578125,7528.4638671875,2885.659423828125,3543.69482421875,-5478.85888671875,0.0,-5044.93701171875,-2286.43408203125,-11196.9306640625,0.0,0.0,0.0,-3415.74365234375,3078.778564453125,11957.486328125,-0.0,-1030.7630615234375,5883.37548828125,9749.73046875,7261.43505859375,3144.740966796875,2751.350341796875,-8022.78515625,-5636.21533203125,7414.02294921875,-555.5152587890625,-1887.4803466796875,10345.7763671875,-6075.7001953125,9091.6953125,7929.00732421875,5618.73095703125,8351.802734375,2803.0078125,-1480.579345703125,5578.99462890625,-0.0,4510.87939453125,-14910.6982421875,2369.880615234375,13067.72265625,2632.14111328125,-7166.8623046875,4373.3916015625,5134.7412109375,4147.6884765625,4417.1015625,3163.019775390625,-4320.14453125,-10190.009765625,-5046.5263671875,2241.134765625,-4268.4873046875,0.0,-6128.94677734375,0.0,-6864.07080078125,-10243.2568359375,3948.211669921875,-10184.447265625,0.0,-13200.4423828125,-1355.0123291015625,0.0,-6368.955078125,0.0,5204.677734375,-0.0,-5810.2607421875
-2447.76416015625,-3445.943115234375,12077.4912109375,-7602.37353515625,7530.0537109375,2891.22265625,3544.489501953125,-5473.2958984375,0.0,-5040.9638671875,-2273.718505859375,-11186.599609375,0.0,0.0,0.0,-3403.82275390625,3080.3681640625,11960.666015625,-0.0,-1028.3787841796875,5885.759765625,9753.7041015625,7263.8193359375,3145.53564453125,2753.734619140625,-8019.6064453125,-5635.42041015625,7418.79150390625,-551.5416259765625,-1885.8909912109375,10348.1611328125,-6070.93212890625,9094.0791015625,7930.59619140625,5621.115234375,8354.1875,2803.0078125,-1478.1951904296875,5581.37890625,-0.0,4514.85302734375,-14908.3134765625,2371.47021484375,13070.9013671875,2633.730712890625,-7161.29931640625,4379.74951171875,5133.94677734375,4150.07275390625,4421.86962890625,3164.609130859375,-4311.40283203125,-10187.6259765625,-5052.08984375,2244.3134765625,-4262.12939453125,0.0,-6113.84716796875,0.0,-6856.12353515625,-10246.4365234375,3949.801025390625,-10179.6787109375,0.0,-13199.646484375,-1344.6807861328125,0.0,-6352.265625,0.0,5216.5986328125,-0.0,-5798.33984375
-2439.816650390625,-3450.71142578125,12093.384765625,-7601.5791015625,7539.59033203125,2896.78564453125,3545.2841796875,-5466.14306640625,0.0,-5037.78466796875,-2257.823974609375,-11194.546875,0.0,0.0,0.0,-3391.10693359375,3088.315185546875,11968.6123046875,-0.0,-1026.789306640625,5894.501953125,9763.2412109375,7271.7666015625,3153.483154296875,2762.4765625,-8018.0166015625,-5632.24169921875,7425.94384765625,-543.5943603515625,-1903.375,10357.697265625,-6062.189453125,9105.205078125,7936.16015625,5629.0625,8361.33984375,2806.186767578125,-1471.83740234375,5602.04150390625,-0.0,4525.1845703125,-14904.33984375,2377.033203125,13078.0537109375,2636.11474609375,-7154.94140625,4398.02783203125,5129.97314453125,4157.22509765625,4425.84375,3166.993408203125,-4303.45556640625,-10165.3740234375,-5064.8056640625,2253.0556640625,-4262.12939453125,0.0,-6102.720703125,0.0,-6849.765625,-10243.2568359375,3957.74853515625,-10174.91015625,0.0,-13208.3896484375,-1348.6544189453125,0.0,-6361.802734375,0.0,5207.0615234375,-0.0,-5800.72412109375
-2450.94287109375,-3455.47998046875,12095.7685546875,-7603.96337890625,7536.4111328125,2892.017333984375,3542.10546875,-5470.91162109375,0.0,-5040.9638671875,-2277.692138671875,-11212.826171875,0.0,0.0,0.0,-3391.901611328125,3086.725830078125,11964.638671875,-0.0,-1032.3524169921875,5893.70703125,9759.2666015625,7268.58740234375,3150.30419921875,2765.655517578125,-8020.40087890625,-5635.42041015625,7423.5595703125,-540.4154663085938,-1914.501220703125,10353.724609375,-6063.779296875,9104.4111328125,7934.5703125,5625.8837890625,8358.1611328125,2803.0078125,-1476.605712890625,5603.63134765625,-0.0,4522.80029296875,-14909.9033203125,2371.47021484375,13074.080078125,2632.935791015625,-7158.9150390625,4405.9755859375,5132.35693359375,4154.8408203125,4422.66455078125,3161.430419921875,-4305.83935546875,-10148.6845703125,-5073.54736328125,2254.64501953125,-4266.8974609375,0.0,-6105.10498046875,0.0,-6850.560546875,-10241.66796875,3953.77490234375,-10182.0634765625,0.0,-13202.826171875,-1354.217529296875,0.0,-6368.955078125,0.0,5207.8564453125,-0.0,-5805.4921875
-2459.68505859375,-3460.248291015625,12086.232421875,-7598.39990234375,7530.84814453125,2896.78564453125,3542.900146484375,-5468.52734375,0.0,-5037.78466796875,-2304.712890625,-11194.546875,0.0,0.0,0.0,-3387.927978515625,3085.136474609375,11965.43359375,-0.0,-1031.5577392578125,5890.5283203125,9756.8828125,7266.998046875,3152.688232421875,2757.708251953125,-8010.06982421875,-5638.599609375,7429.91796875,-550.7469482421875,-1886.6856689453125,10351.33984375,-6067.7529296875,9098.052734375,7933.77587890625,5624.29443359375,8358.1611328125,2802.212890625,-1475.81103515625,5586.1474609375,-0.0,4514.85302734375,-14905.134765625,2370.67529296875,13078.0537109375,2631.346435546875,-7158.9150390625,4391.67041015625,5143.4833984375,4145.30419921875,4429.8173828125,3161.430419921875,-4303.45556640625,-10172.5263671875,-5073.54736328125,2245.903076171875,-4252.5927734375,0.0,-6099.5419921875,0.0,-6848.970703125,-10249.6142578125,3952.97998046875,-10181.267578125,0.0,-13199.646484375,-1336.7335205078125,0.0,-6309.3505859375,0.0,5236.466796875,-0.0,-5795.95556640625
-2471.60595703125,-3484.090087890625,12069.54296875,-7610.3212890625,7519.72216796875,2884.86474609375,3542.10546875,-5478.06396484375,0.0,-5040.1689453125,-2314.249755859375,-11205.6728515625,0.0,0.0,0.0,-3400.6435546875,3073.215576171875,11955.8974609375,-0.0,-1029.96826171875,5877.81298828125,9747.345703125,7260.640625,3142.35693359375,2743.403076171875,-8029.1435546875,-5641.7783203125,7417.9970703125,-566.6414794921875,-1887.4803466796875,10340.2138671875,-6082.85302734375,9084.5419921875,7921.85498046875,5615.55224609375,8347.0341796875,2800.62353515625,-1482.1688232421875,5574.2265625,-0.0,4502.93212890625,-14918.64453125,2367.49658203125,13068.5166015625,2632.14111328125,-7163.68359375,4367.03369140625,5129.97314453125,4137.357421875,4419.4853515625,3163.019775390625,-4312.197265625,-10205.109375,-5091.03173828125,2230.00830078125,-4264.513671875,0.0,-6114.6416015625,0.0,-6856.91845703125,-10274.2509765625,3946.622314453125,-10182.857421875,0.0,-13212.36328125,-1346.270263671875,0.0,-6322.06591796875,0.0,5222.9560546875,-0.0,-5784.03466796875
-2470.0166015625,-3499.190185546875,12061.595703125,-7624.6259765625,7512.5693359375,2868.175537109375,3537.337158203125,-5497.1376953125,0.0,-5054.4736328125,-2302.328857421875,-11235.078125,0.0,0.0,0.0,-3428.459228515625,3063.6787109375,11944.7705078125,-0.0,-1038.710205078125,5868.27587890625,9734.630859375,7251.10400390625,3128.846435546875,2743.403076171875,-8050.60107421875,-5644.16259765625,7394.15478515625,-565.8467407226562,-1915.2958984375,10328.29296875,-6093.18408203125,9075.005859375,7910.728515625,5604.42578125,8334.3193359375,2799.0341796875,-1496.473876953125,5561.5107421875,-0.0,4496.57421875,-14936.1298828125,2361.933349609375,13050.23828125,2629.7568359375,-7178.783203125,4362.26513671875,5114.07861328125,4132.5888671875,4398.02783203125,3162.22509765625,-4332.8603515625,-10209.8779296875,-5109.31005859375,2230.80322265625,-4290.73974609375,0.0,-6148.81494140625,0.0,-6874.40234375,-10289.3515625,3934.701416015625,-10193.984375,0.0,-13202.826171875,-1381.23828125,0.0,-6409.486328125,0.0,5180.8359375,-0.0,-5795.95556640625
-2480.347900390625,-3503.95849609375,12058.4169921875,-7638.93115234375,7507.80126953125,2858.638671875,3536.542236328125,-5502.70068359375,0.0,-5056.85791015625,-2309.4814453125,-11259.71484375,0.0,0.0,0.0,-3436.406494140625,3054.936767578125,11936.82421875,-0.0,-1038.710205078125,5861.91796875,9725.09375,7246.33544921875,3120.1044921875,2737.83984375,-8062.52197265625,-5650.5205078125,7383.0283203125,-572.20458984375,-1966.9532470703125,10321.9345703125,-6096.36328125,9068.6484375,7901.986328125,5596.47900390625,8327.1669921875,2797.444580078125,-1502.037109375,5555.15283203125,-0.0,4490.216796875,-14944.87109375,2359.54931640625,13040.7021484375,2629.7568359375,-7183.5517578125,4363.06005859375,5103.7470703125,4129.40966796875,4383.72265625,3160.6357421875,-4341.6025390625,-10217.826171875,-5128.3837890625,2224.4453125,-4311.40283203125,0.0,-6165.50439453125,0.0,-6877.5810546875,-10300.4765625,3929.13818359375,-10198.751953125,0.0,-13210.7734375,-1399.51708984375,0.0,-6426.17578125,0.0,5174.47802734375,-0.0,-5792.7763671875
-2474.784912109375,-3502.368896484375,12056.8271484375,-7638.93115234375,7510.18505859375,2859.433349609375,3540.515869140625,-5501.111328125,0.0,-5051.294921875,-2313.454833984375,-11266.072265625,0.0,0.0,0.0,-3437.201171875,3057.32080078125,11938.4130859375,-0.0,-1033.147216796875,5864.30224609375,9725.09375,7248.7197265625,3124.078125,2732.27685546875,-8059.34228515625,-5650.5205078125,7383.8232421875,-576.17822265625,-1971.7216796875,10323.5244140625,-6093.18408203125,9070.2373046875,7902.78125,5600.45263671875,8329.55078125,2799.0341796875,-1498.858154296875,5558.33203125,-0.0,4491.80615234375,-14940.1025390625,2362.72802734375,13042.291015625,2631.346435546875,-7181.16748046875,4360.67578125,5108.51513671875,4130.9990234375,4383.72265625,3161.430419921875,-4339.21826171875,-10215.44140625,-5119.6416015625,2222.06103515625,-4322.52880859375,0.0,-6166.29931640625,0.0,-6875.99169921875,-10288.5556640625,3930.7275390625,-10194.7783203125,0.0,-13215.5419921875,-1389.9803466796875,0.0,-6411.87060546875,0.0,5187.98828125,-0.0,-5771.31884765625
-2484.321533203125,-3501.57421875,12046.49609375,-7637.341796875,7507.00634765625,2856.254638671875,3541.310546875,-5501.90576171875,0.0,-5051.294921875,-2325.375732421875,-11262.8935546875,0.0,0.0,0.0,-3442.76416015625,3051.7578125,11935.234375,-0.0,-1033.147216796875,5858.7392578125,9722.7099609375,7247.1298828125,3121.69384765625,2729.09814453125,-8057.75341796875,-5649.7255859375,7379.85009765625,-578.5624389648438,-1937.54833984375,10321.140625,-6101.92626953125,9064.6748046875,7898.8076171875,5598.86328125,8327.9609375,2799.0341796875,-1498.858154296875,5549.58984375,-0.0,4487.83251953125,-14940.8974609375,2359.54931640625,13039.1123046875,2632.14111328125,-7181.96240234375,4343.986328125,5098.978515625,4127.025390625,4382.92822265625,3162.22509765625,-4343.19140625,-10232.130859375,-5128.3837890625,2218.88232421875,-4324.1181640625,0.0,-6171.8623046875,0.0,-6879.96533203125,-10280.609375,3929.93310546875,-10193.1884765625,0.0,-13233.8212890625,-1405.8748779296875,0.0,-6395.9755859375,0.0,5216.5986328125,-0.0,-5762.5771484375
-2489.884521484375,-3504.753173828125,12043.31640625,-7639.72607421875,7503.82763671875,2853.07568359375,3539.72119140625,-5506.67431640625,0.0,-5057.65283203125,-2328.554931640625,-11272.4306640625,0.0,0.0,0.0,-3447.53271484375,3048.578857421875,11932.0556640625,-0.0,-1034.736572265625,5854.765625,9721.1201171875,7244.74560546875,3116.925537109375,2725.9189453125,-8060.1376953125,-5652.904296875,7376.6708984375,-584.12548828125,-1924.8326416015625,10315.5771484375,-6106.69482421875,9061.49609375,7896.42333984375,5594.88916015625,8323.9873046875,2799.0341796875,-1502.037109375,5546.4111328125,-0.0,4485.4482421875,-14944.87109375,2358.75439453125,13036.7275390625,2630.551513671875,-7186.73095703125,4342.39697265625,5091.03173828125,4125.4365234375,4378.95458984375,3162.22509765625,-4347.9599609375,-10238.48828125,-5163.3515625,2214.90869140625,-4333.65478515625,0.0,-6177.42529296875,0.0,-6884.73388671875,-10287.76171875,3925.959228515625,-10196.3681640625,0.0,-13238.5888671875,-1432.1009521484375,0.0,-6392.796875,0.0,5211.03515625,-0.0,-5783.23974609375
-2487.50048828125,-3515.87939453125,12047.291015625,-7642.90478515625,7503.82763671875,2852.28076171875,3538.1318359375,-5506.67431640625,0.0,-5060.83154296875,-2323.786376953125,-11273.224609375,0.0,0.0,0.0,-3442.76416015625,3045.39990234375,11928.8759765625,-0.0,-1040.2998046875,5853.17626953125,9716.3515625,7243.15625,3114.541259765625,2727.508544921875,-8061.7265625,-5652.904296875,7378.26025390625,-581.7413330078125,-1933.57470703125,10313.193359375,-6109.0791015625,9059.90625,7894.0390625,5591.71044921875,8320.80859375,2797.444580078125,-1505.2159423828125,5548.00048828125,-0.0,4484.6533203125,-14948.05078125,2357.1650390625,13035.93359375,2629.7568359375,-7189.115234375,4351.13916015625,5098.978515625,4124.6416015625,4378.16015625,3160.6357421875,-4346.37060546875,-10233.7197265625,-5141.099609375,2217.292724609375,-4343.19140625,0.0,-6170.27294921875,0.0,-6883.939453125,-10291.7353515625,3923.574951171875,-10200.3408203125,0.0,-13237.7939453125,-1415.41162109375,0.0,-6390.41259765625,0.0,5199.1142578125,-0.0,-5789.59814453125
-2469.221923828125,-3492.832275390625,12071.9267578125,-7629.39453125,7521.3115234375,2864.99658203125,3539.72119140625,-5494.75341796875,0.0,-5052.08984375,-2293.586669921875,-11270.0458984375,0.0,0.0,0.0,-3429.25390625,3063.6787109375,11944.7705078125,-0.0,-1033.94189453125,5873.04443359375,9732.24609375,7255.8720703125,3128.846435546875,2751.350341796875,-8052.18994140625,-5642.57275390625,7390.97607421875,-556.3099975585938,-1936.753662109375,10331.4716796875,-6091.5947265625,9079.7734375,7910.728515625,5608.39990234375,8335.11328125,2800.62353515625,-1493.2950439453125,5571.04736328125,-0.0,4506.90625,-14935.333984375,2365.906982421875,13047.8544921875,2630.551513671875,-7176.3994140625,4383.72265625,5114.07861328125,4142.12548828125,4392.46533203125,3159.8408203125,-4333.65478515625,-10199.546875,-5117.2578125,2241.92919921875,-4309.81298828125,0.0,-6157.55712890625,0.0,-6873.607421875,-10272.662109375,3937.085693359375,-10190.009765625,0.0,-13209.9794921875,-1409.8485107421875,0.0,-6376.90234375,0.0,5209.44580078125,-0.0,-5780.06103515625
-2445.3798828125,-3455.47998046875,12097.3583984375,-7611.11572265625,7538.79541015625,2886.454345703125,3545.2841796875,-5476.474609375,0.0,-5033.81103515625,-2272.923828125,-11256.53515625,0.0,0.0,0.0,-3410.180419921875,3086.725830078125,11965.43359375,-0.0,-1020.4315185546875,5894.501953125,9753.7041015625,7272.5615234375,3148.71484375,2768.83447265625,-8031.52734375,-5629.857421875,7411.638671875,-537.2365112304688,-1923.2431640625,10351.33984375,-6066.9580078125,9101.2314453125,7931.3916015625,5627.47314453125,8357.365234375,2808.57080078125,-1475.0162353515625,5590.12060546875,-0.0,4526.77392578125,-14916.2607421875,2377.827880859375,13068.5166015625,2637.7041015625,-7158.9150390625,4407.564453125,5119.6416015625,4161.19921875,4413.9228515625,3165.404052734375,-4314.58154296875,-10165.3740234375,-5077.52099609375,2259.41357421875,-4258.95068359375,0.0,-6140.86767578125,0.0,-6853.7392578125,-10254.3828125,3956.95361328125,-10173.3203125,0.0,-13180.5732421875,-1405.8748779296875,0.0,-6360.212890625,0.0,5230.10888671875,-0.0,-5760.19287109375
-2458.89013671875,-3461.837890625,12081.4638671875,-7615.88427734375,7532.43798828125,2886.454345703125,3545.2841796875,-5473.2958984375,0.0,-5028.248046875,-2294.38134765625,-11243.025390625,0.0,0.0,0.0,-3401.4384765625,3078.778564453125,11959.8701171875,-0.0,-1019.6367797851562,5884.96533203125,9748.935546875,7267.79296875,3147.125244140625,2763.271240234375,-8030.73193359375,-5633.8310546875,7417.2021484375,-542.7996215820312,-1934.369384765625,10344.1875,-6074.1103515625,9091.6953125,7923.44384765625,5620.32080078125,8355.7763671875,2806.186767578125,-1475.81103515625,5577.4052734375,-0.0,4515.64794921875,-14917.8505859375,2373.8544921875,13070.9013671875,2636.909423828125,-7158.9150390625,4382.92822265625,5112.4892578125,4157.22509765625,4417.1015625,3164.609130859375,-4309.81298828125,-10182.857421875,-5079.11083984375,2252.260986328125,-4256.56640625,0.0,-6128.94677734375,0.0,-6847.3818359375,-10258.357421875,3952.18505859375,-10172.5263671875,0.0,-13177.39453125,-1389.185546875,0.0,-6347.49755859375,0.0,5248.3876953125,-0.0,-5751.451171875
-2481.142822265625,-3478.527099609375,12083.84765625,-7621.447265625,7527.66943359375,2880.89111328125,3544.489501953125,-5478.85888671875,0.0,-5036.1953125,-2320.607421875,-11246.2041015625,0.0,0.0,0.0,-3407.796142578125,3074.804931640625,11954.3076171875,-0.0,-1024.4051513671875,5881.7861328125,9742.5771484375,7263.02490234375,3143.151611328125,2751.350341796875,-8036.2958984375,-5634.6259765625,7409.25439453125,-554.7205810546875,-1944.7008056640625,10339.4189453125,-6079.673828125,9090.1064453125,7917.880859375,5616.3466796875,8350.212890625,2804.59716796875,-1481.3741455078125,5581.37890625,-0.0,4513.263671875,-14920.234375,2372.264892578125,13065.337890625,2635.320068359375,-7162.88916015625,4385.3125,5114.07861328125,4152.45654296875,4410.74365234375,3166.19873046875,-4316.9658203125,-10205.109375,-5113.28369140625,2241.134765625,-4285.1767578125,0.0,-6132.9208984375,0.0,-6853.7392578125,-10272.662109375,3947.416748046875,-10178.0888671875,0.0,-13193.2900390625,-1396.338134765625,0.0,-6348.2919921875,0.0,5242.02978515625,-0.0,-5761.7822265625
-2485.1162109375,-3492.03759765625,12075.1064453125,-7621.447265625,7518.1328125,2873.738525390625,3543.69482421875,-5488.3955078125,0.0,-5044.93701171875,-2325.375732421875,-11255.7412109375,0.0,0.0,0.0,-3425.2802734375,3067.65234375,11947.94921875,-0.0,-1032.3524169921875,5872.24951171875,9734.630859375,7256.66650390625,3135.204345703125,2741.01904296875,-8044.24267578125,-5641.7783203125,7396.5390625,-566.6414794921875,-1946.2904052734375,10331.4716796875,-6084.4423828125,9082.158203125,7912.318359375,5609.1943359375,8341.4716796875,2803.0078125,-1489.3214111328125,5575.021484375,-0.0,4505.31640625,-14927.3876953125,2367.49658203125,13054.2119140625,2634.525390625,-7171.630859375,4376.5703125,5119.6416015625,4145.30419921875,4402.001953125,3166.19873046875,-4328.88671875,-10204.3154296875,-5110.10498046875,2230.80322265625,-4305.04443359375,0.0,-6148.81494140625,0.0,-6866.455078125,-10289.3515625,3941.05908203125,-10186.8310546875,0.0,-13221.1044921875,-1403.49072265625,0.0,-6376.10791015625,0.0,5215.8037109375,-0.0,-5779.2666015625
-2484.321533203125,-3525.416015625,12063.98046875,-7621.447265625,7510.18505859375,2868.97021484375,3540.515869140625,-5491.57470703125,0.0,-5049.70556640625,-2317.4287109375,-11257.3310546875,0.0,0.0,0.0,-3429.25390625,3061.29443359375,11942.38671875,-0.0,-1035.5313720703125,5864.30224609375,9731.4521484375,7251.8984375,3128.846435546875,2736.250732421875,-8043.4482421875,-5643.36767578125,7393.3603515625,-571.4098510742188,-1971.7216796875,10325.908203125,-6088.41552734375,9076.595703125,7906.75439453125,5602.83642578125,8336.703125,2799.828857421875,-1494.0897216796875,5571.04736328125,-0.0,4496.57421875,-14931.361328125,2363.522705078125,13050.23828125,2633.730712890625,-7176.3994140625,4352.728515625,5123.615234375,4138.15185546875,4394.84912109375,3163.019775390625,-4332.0654296875,-10208.2890625,-5097.38916015625,2225.239990234375,-4313.787109375,0.0,-6152.78857421875,0.0,-6866.455078125,-10298.0927734375,3933.906494140625,-10190.8046875,0.0,-13237.0,-1396.338134765625,0.0,-6384.0546875,0.0,5207.8564453125,-0.0,-5785.6240234375
-2472.400634765625,-3527.00537109375,12082.2587890625,-7605.552734375,7523.6953125,2880.89111328125,3542.900146484375,-5480.4482421875,0.0,-5043.34765625,-2283.25537109375,-11238.2578125,0.0,0.0,0.0,-3416.538330078125,3077.189208984375,11955.1015625,-0.0,-1032.3524169921875,5880.197265625,9745.7568359375,7263.8193359375,3141.562255859375,2756.11865234375,-8026.75927734375,-5629.0625,7405.28125,-549.9522094726562,-1941.52197265625,10340.2138671875,-6072.52099609375,9091.6953125,7921.85498046875,5614.75732421875,8351.802734375,2803.802490234375,-1481.3741455078125,5587.73681640625,-0.0,4510.87939453125,-14915.466796875,2372.264892578125,13062.1591796875,2635.320068359375,-7165.27294921875,4376.5703125,5138.71533203125,4152.45654296875,4406.77001953125,3163.814453125,-4320.939453125,-10198.751953125,-5144.27783203125,2245.903076171875,-4302.66064453125,0.0,-6139.2783203125,0.0,-6859.302734375,-10279.814453125,3945.03271484375,-10182.0634765625,0.0,-13209.9794921875,-1386.0067138671875,0.0,-6360.212890625,0.0,5223.7509765625,-0.0,-5772.90869140625
-2466.837646484375,-3494.421630859375,12094.974609375,-7595.22119140625,7533.232421875,2892.81201171875,3543.69482421875,-5470.91162109375,0.0,-5036.1953125,-2272.923828125,-11216.7998046875,0.0,0.0,0.0,-3401.4384765625,3088.315185546875,11963.8447265625,-0.0,-1029.1734619140625,5889.73388671875,9756.087890625,7271.7666015625,3152.688232421875,2765.655517578125,-8021.1953125,-5624.29443359375,7421.97021484375,-542.7996215820312,-1888.275146484375,10351.33984375,-6060.60009765625,9102.02734375,7936.16015625,5625.8837890625,8362.1337890625,2804.59716796875,-1472.632080078125,5595.68408203125,-0.0,4521.2109375,-14905.134765625,2375.443603515625,13074.080078125,2634.525390625,-7158.12060546875,4395.6435546875,5143.4833984375,4160.404296875,4425.84375,3163.814453125,-4309.0185546875,-10205.109375,-5135.5361328125,2254.64501953125,-4276.4345703125,0.0,-6124.17822265625,0.0,-6849.765625,-10275.8408203125,3956.1591796875,-10175.705078125,0.0,-13202.03125,-1369.3173828125,0.0,-6360.212890625,0.0,5227.724609375,-0.0,-5768.9345703125
-2470.81103515625,-3483.29541015625,12073.5166015625,-7611.11572265625,7518.1328125,2885.659423828125,3539.72119140625,-5475.6796875,0.0,-5040.9638671875,-2293.586669921875,-11225.541015625,0.0,0.0,0.0,-3402.233154296875,3071.6259765625,11951.923828125,-0.0,-1034.736572265625,5873.8388671875,9745.7568359375,7260.640625,3144.740966796875,2744.992431640625,-8025.9638671875,-5640.1884765625,7416.4072265625,-563.4625854492188,-1908.9381103515625,10337.03515625,-6077.28955078125,9083.748046875,7919.470703125,5612.37353515625,8350.212890625,2800.62353515625,-1480.579345703125,5575.021484375,-0.0,4504.52197265625,-14914.671875,2365.1123046875,13068.5166015625,2631.346435546875,-7165.27294921875,4374.18603515625,5124.41015625,4146.09912109375,4421.0751953125,3160.6357421875,-4312.197265625,-10210.6728515625,-5110.10498046875,2233.982177734375,-4295.5078125,0.0,-6124.17822265625,0.0,-6849.765625,-10267.0986328125,3945.03271484375,-10183.65234375,0.0,-13223.4892578125,-1357.396484375,0.0,-6388.8232421875,0.0,5201.49853515625,-0.0,-5789.59814453125
-2451.737548828125,-3461.043212890625,12071.9267578125,-7611.91015625,7518.92724609375,2889.63330078125,3539.72119140625,-5474.0908203125,0.0,-5040.9638671875,-2281.665771484375,-11223.9521484375,0.0,0.0,0.0,-3401.4384765625,3069.24169921875,11952.7177734375,-0.0,-1033.147216796875,5873.8388671875,9747.345703125,7259.845703125,3145.53564453125,2752.14501953125,-8011.65869140625,-5640.1884765625,7420.380859375,-554.7205810546875,-1915.2958984375,10336.240234375,-6078.08447265625,9080.5693359375,7917.880859375,5613.16845703125,8353.392578125,2801.418212890625,-1478.989990234375,5567.07373046875,-0.0,4506.111328125,-14912.2880859375,2366.701904296875,13070.9013671875,2629.7568359375,-7165.27294921875,4380.5439453125,5127.5888671875,4149.2783203125,4425.84375,3161.430419921875,-4309.81298828125,-10193.1884765625,-5097.38916015625,2241.134765625,-4262.12939453125,0.0,-6119.41015625,0.0,-6852.94482421875,-10230.541015625,3948.211669921875,-10184.447265625,0.0,-13198.05859375,-1345.4755859375,0.0,-6372.1337890625,0.0,5212.625,-0.0,-5781.650390625
-2474.784912109375,-3507.13720703125,12067.9541015625,-7607.93701171875,7516.54296875,2893.60693359375,3538.92626953125,-5474.0908203125,0.0,-5036.1953125,-2288.023681640625,-11288.3251953125,0.0,0.0,0.0,-3403.02783203125,3065.268310546875,11951.12890625,-0.0,-1023.6104736328125,5872.24951171875,9746.5517578125,7259.05078125,3147.125244140625,2749.760986328125,-7998.943359375,-5643.36767578125,7420.380859375,-559.4889526367188,-1920.8590087890625,10334.6513671875,-6093.97900390625,9078.185546875,7913.9072265625,5611.57861328125,8352.59765625,2800.62353515625,-1478.1951904296875,5567.86865234375,-0.0,4502.1376953125,-14909.1083984375,2366.701904296875,13071.6962890625,2629.7568359375,-7162.09423828125,4378.16015625,5142.68896484375,4146.09912109375,4429.8173828125,3163.019775390625,-4310.60791015625,-10210.6728515625,-5133.94677734375,2238.75048828125,-4232.724609375,0.0,-6113.84716796875,0.0,-6854.5341796875,-10270.2783203125,3948.211669921875,-10180.4736328125,0.0,-13204.4150390625,-1362.95947265625,0.0,-6357.82861328125,0.0,5226.93017578125,-0.0,-5754.62939453125
-2475.57958984375,-3527.80029296875,12060.005859375,-7615.08935546875,7511.7744140625,2882.480712890625,3539.72119140625,-5477.26953125,0.0,-5033.01611328125,-2302.328857421875,-11258.919921875,0.0,0.0,0.0,-3398.259521484375,3062.089111328125,11947.1552734375,-0.0,-1022.815673828125,5868.27587890625,9740.98828125,7257.46142578125,3140.767333984375,2736.250732421875,-8029.1435546875,-5644.95703125,7413.228515625,-569.8204345703125,-1931.1904296875,10330.6767578125,-6088.41552734375,9076.595703125,7911.52294921875,5606.81005859375,8346.240234375,2800.62353515625,-1482.1688232421875,5571.84228515625,-0.0,4495.779296875,-14920.234375,2365.1123046875,13065.337890625,2630.551513671875,-7160.5048828125,4370.21240234375,5123.615234375,4142.12548828125,4417.1015625,3161.430419921875,-4311.40283203125,-10217.0302734375,-5125.99951171875,2229.213623046875,-4266.10302734375,0.0,-6121.79443359375,0.0,-6850.560546875,-10313.193359375,3943.443359375,-10179.6787109375,0.0,-13227.462890625,-1373.291015625,0.0,-6353.85498046875,0.0,5230.90380859375,-0.0,-5747.47705078125
-2450.94287109375,-3527.00537109375,12064.7744140625,-7635.75244140625,7514.95361328125,2861.817626953125,3537.337158203125,-5490.77978515625,0.0,-5046.5263671875,-2292.7919921875,-11260.509765625,0.0,0.0,0.0,-3418.127685546875,3061.29443359375,11940.796875,-0.0,-1037.120849609375,5867.4814453125,9728.2724609375,7252.693359375,3129.641357421875,2752.93994140625,-8072.05859375,-5639.39404296875,7390.97607421875,-552.3363647460938,-1928.8062744140625,10322.73046875,-6086.03125,9077.3896484375,7902.78125,5602.04150390625,8331.1396484375,2798.239501953125,-1494.0897216796875,5573.431640625,-0.0,4500.5478515625,-14941.6923828125,2363.522705078125,13047.8544921875,2627.372802734375,-7170.8359375,4368.623046875,5082.2890625,4148.4833984375,4390.87548828125,3158.25146484375,-4328.88671875,-10192.39453125,-5118.05224609375,2245.1083984375,-4303.45556640625,0.0,-6151.19921875,0.0,-6863.27587890625,-10306.8349609375,3935.495849609375,-10189.2158203125,0.0,-13200.4423828125,-1397.1328125,0.0,-6363.39208984375,0.0,5216.5986328125,-0.0,-5772.90869140625
-2446.174560546875,-3515.87939453125,12060.005859375,-7634.9580078125,7512.5693359375,2866.5859375,3537.337158203125,-5489.98486328125,0.0,-5048.91064453125,-2293.586669921875,-11274.0205078125,0.0,0.0,0.0,-3419.717041015625,3062.089111328125,11942.38671875,-0.0,-1037.91552734375,5865.89208984375,9729.8623046875,7252.693359375,3130.43603515625,2754.529296875,-8060.93212890625,-5640.1884765625,7392.5654296875,-551.5416259765625,-1921.65380859375,10323.5244140625,-6090.00537109375,9073.4169921875,7904.3701171875,5603.63134765625,8335.11328125,2797.444580078125,-1491.70556640625,5571.84228515625,-0.0,4499.75341796875,-14937.71875,2361.933349609375,13051.033203125,2628.16748046875,-7173.22021484375,4362.26513671875,5081.49462890625,4148.4833984375,4396.4384765625,3158.25146484375,-4329.681640625,-10180.4736328125,-5115.66796875,2242.72412109375,-4287.56103515625,0.0,-6156.7626953125,0.0,-6868.04443359375,-10271.072265625,3938.6748046875,-10188.419921875,0.0,-13194.87890625,-1423.35888671875,0.0,-6371.33935546875,0.0,5209.44580078125,-0.0,-5777.67724609375
-2439.816650390625,-3466.606201171875,12060.8017578125,-7635.75244140625,7512.5693359375,2872.149169921875,3536.542236328125,-5486.80615234375,0.0,-5045.73193359375,-2294.38134765625,-11270.0458984375,0.0,0.0,0.0,-3419.717041015625,3062.089111328125,11945.5654296875,-0.0,-1033.147216796875,5866.6865234375,9733.041015625,7253.48828125,3134.40966796875,2747.376708984375,-8049.01123046875,-5638.599609375,7397.33349609375,-559.4889526367188,-1924.0379638671875,10326.703125,-6090.7998046875,9073.4169921875,7903.57568359375,5605.220703125,8340.6767578125,2799.828857421875,-1490.1160888671875,5571.04736328125,-0.0,4498.95849609375,-14936.1298828125,2363.522705078125,13052.623046875,2629.7568359375,-7170.8359375,4364.6494140625,5083.87890625,4148.4833984375,4401.20703125,3160.6357421875,-4328.09228515625,-10178.0888671875,-5129.97314453125,2236.3662109375,-4290.73974609375,0.0,-6154.37841796875,0.0,-6867.25,-10245.640625,3940.26416015625,-10185.2421875,0.0,-13213.9521484375,-1442.432373046875,0.0,-6375.31298828125,0.0,5211.830078125,-0.0,-5778.4716796875
-2439.02197265625,-3429.25390625,12068.748046875,-7642.1103515625,7518.92724609375,2872.94384765625,3538.1318359375,-5482.83251953125,0.0,-5036.98974609375,-2282.46044921875,-11254.9462890625,0.0,0.0,0.0,-3412.564453125,3062.884033203125,11947.1552734375,-0.0,-1026.789306640625,5870.66015625,9732.24609375,7257.46142578125,3135.9990234375,2759.297607421875,-8045.83251953125,-5634.6259765625,7401.3076171875,-546.7732543945312,-1932.7799072265625,10329.0869140625,-6088.41552734375,9078.185546875,7901.19189453125,5607.60498046875,8342.265625,2802.212890625,-1485.3477783203125,5577.4052734375,-0.0,4504.52197265625,-14936.923828125,2368.291259765625,13055.8017578125,2630.551513671875,-7164.478515625,4378.16015625,5088.6474609375,4154.8408203125,4403.59130859375,3161.430419921875,-4320.939453125,-10174.115234375,-5107.720703125,2248.287109375,-4286.76611328125,0.0,-6132.9208984375,0.0,-6856.91845703125,-10255.177734375,3941.85400390625,-10182.0634765625,0.0,-13207.5947265625,-1400.311767578125,0.0,-6349.0869140625,0.0,5226.93017578125,-0.0,-5781.650390625
-2447.76416015625,-3439.58544921875,12067.1591796875,-7642.1103515625,7517.337890625,2872.94384765625,3540.515869140625,-5482.0380859375,0.0,-5036.1953125,-2290.407958984375,-11247.7939453125,0.0,0.0,0.0,-3405.411865234375,3062.884033203125,11947.1552734375,-0.0,-1028.3787841796875,5872.24951171875,9733.041015625,7259.845703125,3137.58837890625,2752.14501953125,-8049.8056640625,-5635.42041015625,7403.69189453125,-554.7205810546875,-1946.2904052734375,10329.8828125,-6089.21044921875,9078.9794921875,7900.3974609375,5607.60498046875,8342.265625,2803.802490234375,-1482.963623046875,5571.84228515625,-0.0,4504.52197265625,-14939.30859375,2368.291259765625,13058.98046875,2632.14111328125,-7162.09423828125,4376.5703125,5091.826171875,4153.25146484375,4398.82275390625,3163.814453125,-4316.17138671875,-10179.6787109375,-5085.46826171875,2242.72412109375,-4286.76611328125,0.0,-6120.205078125,0.0,-6852.94482421875,-10260.7412109375,3942.6484375,-10178.8837890625,0.0,-13214.7470703125,-1362.164794921875,0.0,-6345.90771484375,0.0,5237.26123046875,-0.0,-5780.85546875
-2475.57958984375,-3481.705810546875,12048.880859375,-7652.44140625,7508.595703125,2864.201904296875,3540.515869140625,-5487.6005859375,0.0,-5042.552734375,-2313.454833984375,-11246.9990234375,0.0,0.0,0.0,-3409.3857421875,3047.7841796875,11938.4130859375,-0.0,-1029.96826171875,5860.32861328125,9722.7099609375,7254.28271484375,3131.230712890625,2738.634765625,-8064.90625,-5640.9833984375,7399.7177734375,-567.4362182617188,-1934.369384765625,10318.755859375,-6110.66796875,9063.0849609375,7886.88671875,5598.86328125,8332.7294921875,2801.418212890625,-1488.5267333984375,5548.00048828125,-0.0,4491.80615234375,-14954.4072265625,2361.933349609375,13053.4169921875,2633.730712890625,-7170.04150390625,4352.728515625,5083.083984375,4147.6884765625,4392.46533203125,3163.019775390625,-4322.52880859375,-10214.646484375,-5105.33642578125,2230.80322265625,-4305.04443359375,0.0,-6131.3310546875,0.0,-6861.6865234375,-10278.224609375,3936.290771484375,-10182.0634765625,0.0,-13237.0,-1362.95947265625,0.0,-6347.49755859375,0.0,5224.5458984375,-0.0,-5780.85546875
-2471.60595703125,-3448.327392578125,12061.595703125,-7632.57373046875,7519.72216796875,2880.096435546875,3543.69482421875,-5475.6796875,0.0,-5032.22119140625,-2303.918212890625,-11210.44140625,0.0,0.0,0.0,-3397.46484375,3064.473388671875,11951.923828125,-0.0,-1022.0209350585938,5872.24951171875,9737.8095703125,7266.20361328125,3143.9462890625,2748.171630859375,-8047.42138671875,-5633.0361328125,7416.4072265625,-558.6942138671875,-1904.9644775390625,10332.2666015625,-6093.18408203125,9077.3896484375,7904.3701171875,5611.57861328125,8345.4443359375,2806.186767578125,-1475.81103515625,5563.89453125,-0.0,4503.72705078125,-14940.8974609375,2369.0859375,13066.1328125,2636.11474609375,-7159.7099609375,4363.85498046875,5106.130859375,4161.19921875,4411.53857421875,3164.609130859375,-4309.81298828125,-10186.8310546875,-5079.11083984375,2239.545166015625,-4287.56103515625,0.0,-6119.41015625,0.0,-6849.765625,-10258.357421875,3947.416748046875,-10173.3203125,0.0,-13231.4365234375,-1340.7071533203125,0.0,-6350.67626953125,0.0,5226.13525390625,-0.0,-5786.4189453125
-2483.52685546875,-3438.79052734375,12068.748046875,-7629.39453125,7524.490234375,2882.480712890625,3544.489501953125,-5474.88525390625,0.0,-5033.81103515625,-2304.712890625,-11219.978515625,0.0,0.0,0.0,-3399.05419921875,3068.447021484375,11955.8974609375,-0.0,-1022.815673828125,5877.81298828125,9741.783203125,7266.998046875,3145.53564453125,2757.708251953125,-8036.2958984375,-5632.24169921875,7415.61279296875,-549.9522094726562,-1921.65380859375,10337.830078125,-6086.826171875,9085.337890625,7907.5498046875,5616.3466796875,8347.0341796875,2807.776123046875,-1475.0162353515625,5579.78955078125,-0.0,4511.67431640625,-14940.1025390625,2372.264892578125,13066.927734375,2636.11474609375,-7157.32568359375,4374.98095703125,5107.720703125,4166.76171875,4411.53857421875,3166.19873046875,-4309.81298828125,-10174.115234375,-5073.54736328125,2246.69775390625,-4287.56103515625,0.0,-6117.02587890625,0.0,-6852.94482421875,-10253.5888671875,3949.006591796875,-10173.3203125,0.0,-13209.9794921875,-1371.7015380859375,0.0,-6388.02880859375,0.0,5218.18798828125,-0.0,-5780.06103515625
-2486.705810546875,-3458.658935546875,12075.9013671875,-7631.77880859375,7523.6953125,2880.096435546875,3546.078857421875,-5478.85888671875,0.0,-5037.78466796875,-2315.04443359375,-11245.41015625,0.0,0.0,0.0,-3399.848876953125,3069.24169921875,11954.3076171875,-0.0,-1025.199951171875,5878.607421875,9739.3994140625,7265.4091796875,3142.35693359375,2752.93994140625,-8036.2958984375,-5627.47314453125,7412.43359375,-553.131103515625,-1962.1849365234375,10336.240234375,-6090.00537109375,9086.1318359375,7903.57568359375,5616.3466796875,8346.240234375,2807.776123046875,-1476.605712890625,5586.1474609375,-0.0,4513.263671875,-14944.076171875,2375.443603515625,13066.927734375,2637.7041015625,-7158.9150390625,4384.517578125,5115.66796875,4168.3515625,4409.154296875,3167.788330078125,-4312.9921875,-10185.2421875,-5092.62109375,2243.518798828125,-4303.45556640625,0.0,-6116.2314453125,0.0,-6858.5078125,-10262.330078125,3947.416748046875,-10176.4990234375,0.0,-13202.03125,-1374.8804931640625,0.0,-6485.7802734375,0.0,5180.041015625,-0.0,-5784.03466796875
-2501.010986328125,-3496.010986328125,12067.1591796875,-7646.083984375,7514.95361328125,2868.175537109375,3542.900146484375,-5484.42236328125,0.0,-5041.75830078125,-2322.197021484375,-11289.9140625,0.0,0.0,0.0,-3403.82275390625,3057.32080078125,11945.5654296875,-0.0,-1029.96826171875,5869.0703125,9727.478515625,7257.46142578125,3135.9990234375,2737.04541015625,-8070.46875,-5633.0361328125,7405.28125,-569.8204345703125,-1984.437255859375,10324.3193359375,-6097.9521484375,9075.80078125,7893.24462890625,5607.60498046875,8335.908203125,2803.802490234375,-1482.963623046875,5586.9423828125,-0.0,4503.72705078125,-14956.7919921875,2369.0859375,13058.98046875,2633.730712890625,-7165.27294921875,4379.74951171875,5099.7734375,4161.19921875,4402.79638671875,3163.814453125,-4320.14453125,-10209.083984375,-5141.099609375,2227.624267578125,-4305.83935546875,0.0,-6132.9208984375,0.0,-6860.09716796875,-10279.01953125,3939.4697265625,-10180.4736328125,0.0,-13218.720703125,-1390.7750244140625,0.0,-6453.99072265625,0.0,5183.2197265625,-0.0,-5791.1875
-2510.547607421875,-3511.111083984375,12071.9267578125,-7645.2890625,7512.5693359375,2867.380859375,3540.515869140625,-5486.80615234375,0.0,-5039.3740234375,-2315.839111328125,-11304.2197265625,0.0,0.0,0.0,-3411.769775390625,3059.705078125,11945.5654296875,-0.0,-1025.199951171875,5869.865234375,9729.8623046875,7257.46142578125,3135.204345703125,2729.09814453125,-8068.87890625,-5645.751953125,7398.92333984375,-578.5624389648438,-1961.3902587890625,10326.703125,-6092.3896484375,9078.9794921875,7896.42333984375,5608.39990234375,8335.908203125,2803.802490234375,-1484.552978515625,5586.9423828125,-0.0,4503.72705078125,-14955.203125,2365.906982421875,13054.2119140625,2629.7568359375,-7165.27294921875,4382.92822265625,5076.7265625,4157.22509765625,4400.412109375,3160.6357421875,-4323.32373046875,-10217.826171875,-5160.1728515625,2219.677001953125,-4312.9921875,0.0,-6152.78857421875,0.0,-6856.12353515625,-10281.4033203125,3940.26416015625,-10179.6787109375,0.0,-13266.404296875,-1409.8485107421875,0.0,-6346.70263671875,0.0,5229.314453125,-0.0,-5775.29296875
-2469.221923828125,-3492.832275390625,12089.412109375,-7634.9580078125,7518.1328125,2872.94384765625,3540.515869140625,-5487.6005859375,0.0,-5038.57958984375,-2296.765625,-11252.5625,0.0,0.0,0.0,-3418.92236328125,3070.03662109375,11951.923828125,-0.0,-1025.199951171875,5879.40234375,9737.0146484375,7260.640625,3138.383056640625,2742.6083984375,-8053.77978515625,-5649.7255859375,7402.10205078125,-565.8467407226562,-1925.6273193359375,10335.4453125,-6085.23681640625,9090.900390625,7905.16552734375,5610.7841796875,8340.6767578125,2803.0078125,-1483.75830078125,5585.3525390625,-0.0,4514.05859375,-14944.87109375,2365.906982421875,13057.3916015625,2631.346435546875,-7164.478515625,4399.61767578125,5095.0048828125,4158.81494140625,4404.38623046875,3160.6357421875,-4323.32373046875,-10207.494140625,-5124.41015625,2232.392578125,-4303.45556640625,0.0,-6146.43115234375,0.0,-6862.4814453125,-10271.8671875,3943.443359375,-10180.4736328125,0.0,-13275.9404296875,-1387.59619140625,0.0,-6327.62890625,0.0,5222.16162109375,-0.0,-5773.703125
-2445.3798828125,-3492.03759765625,12087.822265625,-7646.083984375,7511.7744140625,2864.201904296875,3539.72119140625,-5494.75341796875,0.0,-5048.1162109375,-2311.865478515625,-11247.7939453125,0.0,0.0,0.0,-3432.432861328125,3062.089111328125,11943.9765625,-0.0,-1033.147216796875,5871.45458984375,9728.2724609375,7252.693359375,3130.43603515625,2744.19775390625,-8057.75341796875,-5647.34130859375,7390.97607421875,-565.8467407226562,-1954.2376708984375,10325.1142578125,-6090.7998046875,9084.5419921875,7894.83349609375,5602.83642578125,8332.7294921875,2799.828857421875,-1493.2950439453125,5578.19970703125,-0.0,4507.70068359375,-14951.2294921875,2363.522705078125,13047.05859375,2629.7568359375,-7174.01513671875,4386.10693359375,5094.2099609375,4155.6357421875,4390.87548828125,3160.6357421875,-4335.24462890625,-10213.8515625,-5115.66796875,2233.982177734375,-4351.93408203125,0.0,-6154.37841796875,0.0,-6874.40234375,-10271.8671875,3933.906494140625,-10186.8310546875,0.0,-13228.2568359375,-1385.2119140625,0.0,-6353.85498046875,0.0,5215.00927734375,-0.0,-5780.06103515625
-2449.353515625,-3517.46875,12083.84765625,-7657.2099609375,7502.23779296875,2850.691650390625,3536.542236328125,-5505.8798828125,0.0,-5060.037109375,-2322.197021484375,-11300.24609375,0.0,0.0,0.0,-3443.558837890625,3049.37353515625,11932.849609375,-0.0,-1041.094482421875,5863.5078125,9716.3515625,7247.1298828125,3120.1044921875,2738.634765625,-8075.2373046875,-5644.16259765625,7375.8759765625,-569.0256958007812,-2021.78955078125,10314.7822265625,-6106.69482421875,9075.005859375,7882.1181640625,5594.88916015625,8323.1923828125,2795.855224609375,-1503.62646484375,5565.484375,-0.0,4498.95849609375,-14967.1240234375,2361.138671875,13033.548828125,2628.16748046875,-7183.5517578125,4355.9072265625,5092.62109375,4150.07275390625,4374.18603515625,3158.25146484375,-4345.57568359375,-10228.951171875,-5144.27783203125,2228.4189453125,-4372.5966796875,0.0,-6173.45166015625,0.0,-6885.5283203125,-10293.32421875,3927.548828125,-10197.1630859375,0.0,-13209.18359375,-1424.1536865234375,0.0,-6380.8759765625,0.0,5205.47265625,-0.0,-5792.7763671875
-2449.353515625,-3527.80029296875,12052.0595703125,-7660.38916015625,7500.6484375,2849.896728515625,3536.542236328125,-5503.49560546875,0.0,-5056.06298828125,-2305.507568359375,-11318.5244140625,0.0,0.0,0.0,-3436.406494140625,3046.19482421875,11936.0283203125,-0.0,-1037.120849609375,5857.1494140625,9717.146484375,7247.9248046875,3122.48876953125,2741.01904296875,-8082.3896484375,-5640.9833984375,7379.05517578125,-561.8731079101562,-1989.20556640625,10314.7822265625,-6109.87353515625,9062.2900390625,7879.73388671875,5594.88916015625,8323.1923828125,2797.444580078125,-1498.858154296875,5548.00048828125,-0.0,4486.24267578125,-14970.302734375,2361.933349609375,13036.7275390625,2628.962158203125,-7179.578125,4332.0654296875,5079.9052734375,4150.07275390625,4376.5703125,3159.046142578125,-4340.01318359375,-10203.5205078125,-5159.3779296875,2233.1875,-4321.73388671875,0.0,-6171.06787109375,0.0,-6879.96533203125,-10285.3779296875,3930.7275390625,-10190.8046875,0.0,-13198.05859375,-1441.6376953125,0.0,-6384.849609375,0.0,5195.935546875,-0.0,-5791.98193359375
-2438.227294921875,-3490.447998046875,12059.2119140625,-7647.67333984375,7514.15869140625,2865.791259765625,3540.515869140625,-5493.1640625,0.0,-5048.1162109375,-2269.744873046875,-11277.9931640625,0.0,0.0,0.0,-3426.074951171875,3062.089111328125,11949.5390625,-0.0,-1029.96826171875,5871.45458984375,9732.24609375,7261.43505859375,3133.61474609375,2762.4765625,-8072.85302734375,-5632.24169921875,7390.97607421875,-542.7996215820312,-1928.8062744140625,10329.8828125,-6086.826171875,9076.595703125,7896.42333984375,5607.60498046875,8336.703125,2804.59716796875,-1488.5267333984375,5576.6103515625,-0.0,4502.93212890625,-14955.9970703125,2370.67529296875,13048.6484375,2632.935791015625,-7169.24658203125,4390.0810546875,5086.26318359375,4168.3515625,4391.67041015625,3163.814453125,-4329.681640625,-10151.86328125,-5123.615234375,2253.850341796875,-4292.3291015625,0.0,-6159.14697265625,0.0,-6868.83935546875,-10258.357421875,3942.6484375,-10182.0634765625,0.0,-13167.8583984375,-1418.590576171875,0.0,-6391.20703125,0.0,5188.783203125,-0.0,-5790.392578125
-2431.86962890625,-3471.37451171875,12085.4375,-7643.69970703125,7523.6953125,2868.175537109375,3545.2841796875,-5493.958984375,0.0,-5046.5263671875,-2260.2080078125,-11250.1787109375,0.0,0.0,0.0,-3432.432861328125,3070.03662109375,11951.12890625,-0.0,-1029.1734619140625,5882.5810546875,9735.4248046875,7265.4091796875,3135.9990234375,2775.98681640625,-8067.29052734375,-5623.49951171875,7387.796875,-533.2628784179688,-1917.68017578125,10335.4453125,-6075.7001953125,9090.900390625,7901.986328125,5613.16845703125,8339.087890625,2807.776123046875,-1487.73193359375,5597.2734375,-0.0,4518.0322265625,-14952.0234375,2377.827880859375,13047.8544921875,2637.7041015625,-7167.6572265625,4402.001953125,5080.69970703125,4180.2724609375,4389.2861328125,3167.788330078125,-4331.2705078125,-10149.478515625,-5111.6943359375,2264.9765625,-4296.302734375,0.0,-6161.53076171875,0.0,-6872.81298828125,-10258.357421875,3944.23828125,-10181.267578125,0.0,-13155.9375,-1413.8221435546875,0.0,-6392.001953125,0.0,5210.24072265625,-0.0,-5788.00830078125
-2417.564453125,-3474.553466796875,12070.337890625,-7642.1103515625,7517.337890625,2862.612548828125,3543.69482421875,-5497.1376953125,0.0,-5052.884765625,-2275.307861328125,-11235.078125,0.0,0.0,0.0,-3432.432861328125,3066.06298828125,11945.5654296875,-0.0,-1039.5050048828125,5874.6337890625,9732.24609375,7260.640625,3132.025390625,2764.86083984375,-8064.11083984375,-5622.705078125,7384.6181640625,-542.7996215820312,-1918.474853515625,10330.6767578125,-6080.46875,9083.748046875,7898.01318359375,5608.39990234375,8335.11328125,2804.59716796875,-1491.70556640625,5581.37890625,-0.0,4506.111328125,-14950.4345703125,2373.0595703125,13043.880859375,2636.11474609375,-7171.630859375,4370.21240234375,5087.8525390625,4177.09375,4385.3125,3165.404052734375,-4334.44970703125,-10162.1943359375,-5145.07275390625,2254.64501953125,-4303.45556640625,0.0,-6163.9150390625,0.0,-6875.99169921875,-10242.4619140625,3941.05908203125,-10186.8310546875,0.0,-13164.6796875,-1422.564208984375,0.0,-6391.20703125,0.0,5190.37255859375,-0.0,-5798.33984375
-2418.359130859375,-3472.964111328125,12063.98046875,-7642.1103515625,7508.595703125,2864.99658203125,3543.69482421875,-5492.369140625,0.0,-5045.73193359375,-2288.818359375,-11254.9462890625,0.0,0.0,0.0,-3425.2802734375,3063.6787109375,11947.1552734375,-0.0,-1032.3524169921875,5871.45458984375,9732.24609375,7258.25634765625,3133.61474609375,2741.813720703125,-8064.11083984375,-5633.8310546875,7387.796875,-566.6414794921875,-1934.369384765625,10329.8828125,-6087.62109375,9077.3896484375,7897.2177734375,5605.220703125,8337.498046875,2803.802490234375,-1487.73193359375,5567.07373046875,-0.0,4499.75341796875,-14949.6396484375,2369.880615234375,13047.8544921875,2636.11474609375,-7166.8623046875,4364.6494140625,5088.6474609375,4167.556640625,4386.90185546875,3164.609130859375,-4329.681640625,-10163.7841796875,-5149.84130859375,2232.392578125,-4311.40283203125,0.0,-6158.35205078125,0.0,-6864.86572265625,-10257.5615234375,3944.23828125,-10182.0634765625,0.0,-13202.03125,-1434.485107421875,0.0,-6399.15478515625,0.0,5174.47802734375,-0.0,-5791.98193359375
-2431.074951171875,-3468.195556640625,12056.8271484375,-7642.1103515625,7507.80126953125,2868.97021484375,3542.10546875,-5487.6005859375,0.0,-5039.3740234375,-2304.712890625,-11279.5830078125,0.0,0.0,0.0,-3420.511962890625,3060.5,11948.7451171875,-0.0,-1027.5841064453125,5869.0703125,9732.24609375,7259.05078125,3135.204345703125,2734.6611328125,-8062.52197265625,-5634.6259765625,7390.97607421875,-574.5887451171875,-1939.1378173828125,10329.8828125,-6090.7998046875,9071.0322265625,7897.2177734375,5605.220703125,8339.8818359375,2803.802490234375,-1485.3477783203125,5559.12646484375,-0.0,4495.779296875,-14947.2548828125,2369.880615234375,13051.033203125,2632.935791015625,-7162.09423828125,4360.67578125,5087.8525390625,4168.3515625,4390.87548828125,3163.019775390625,-4324.9130859375,-10174.91015625,-5109.31005859375,2224.4453125,-4317.76025390625,0.0,-6155.1728515625,0.0,-6857.71337890625,-10275.8408203125,3945.03271484375,-10178.8837890625,0.0,-13241.767578125,-1404.285400390625,0.0,-6387.23388671875,0.0,5193.5517578125,-0.0,-5780.85546875
-2435.84326171875,-3461.837890625,12052.0595703125,-7632.57373046875,7503.82763671875,2874.533447265625,3540.515869140625,-5488.3955078125,0.0,-5039.3740234375,-2303.918212890625,-11259.71484375,0.0,0.0,0.0,-3422.896240234375,3061.29443359375,11950.333984375,-0.0,-1029.1734619140625,5865.09716796875,9735.4248046875,7259.05078125,3137.58837890625,2734.6611328125,-8041.064453125,-5637.8046875,7398.12841796875,-574.5887451171875,-1911.322265625,10329.8828125,-6093.18408203125,9070.2373046875,7901.19189453125,5604.42578125,8342.265625,2801.418212890625,-1487.73193359375,5559.12646484375,-0.0,4492.60107421875,-14937.71875,2367.49658203125,13055.8017578125,2630.551513671875,-7163.68359375,4349.5498046875,5109.31005859375,4166.76171875,4402.79638671875,3161.430419921875,-4325.7080078125,-10183.65234375,-5064.0107421875,2223.650634765625,-4290.73974609375,0.0,-6151.994140625,0.0,-6863.27587890625,-10266.3037109375,3943.443359375,-10181.267578125,0.0,-13234.615234375,-1385.2119140625,0.0,-6362.59716796875,0.0,5222.16162109375,-0.0,-5772.90869140625
-2445.3798828125,-3476.142822265625,12043.31640625,-7637.341796875,7495.8798828125,2869.76513671875,3538.1318359375,-5492.369140625,0.0,-5041.75830078125,-2292.7919921875,-11282.76171875,0.0,0.0,0.0,-3427.66455078125,3055.7314453125,11945.5654296875,-0.0,-1030.7630615234375,5860.32861328125,9729.8623046875,7253.48828125,3133.61474609375,2729.892822265625,-8045.037109375,-5645.751953125,7392.5654296875,-576.17822265625,-1926.422119140625,10325.908203125,-6097.9521484375,9064.6748046875,7897.2177734375,5597.2734375,8339.087890625,2799.0341796875,-1492.500244140625,5555.94775390625,-0.0,4483.8583984375,-14940.1025390625,2363.522705078125,13047.8544921875,2629.7568359375,-7166.0673828125,4330.47607421875,5109.31005859375,4160.404296875,4398.82275390625,3159.8408203125,-4330.47607421875,-10199.546875,-5067.98388671875,2220.4716796875,-4298.68701171875,0.0,-6159.94140625,0.0,-6866.455078125,-10265.509765625,3941.05908203125,-10186.0361328125,0.0,-13210.7734375,-1434.485107421875,0.0,-6369.74951171875,0.0,5230.90380859375,-0.0,-5780.06103515625
-2461.2744140625,-3496.010986328125,12060.8017578125,-7647.67333984375,7500.6484375,2862.612548828125,3537.337158203125,-5493.1640625,0.0,-5040.9638671875,-2315.839111328125,-11296.2724609375,0.0,0.0,0.0,-3429.25390625,3058.11572265625,11943.9765625,-0.0,-1032.3524169921875,5865.89208984375,9726.68359375,7251.8984375,3129.641357421875,2733.071533203125,-8059.34228515625,-5644.95703125,7385.41259765625,-572.9993286132812,-1956.621826171875,10325.1142578125,-6093.18408203125,9070.2373046875,7894.0390625,5601.2470703125,8335.908203125,2799.828857421875,-1494.0897216796875,5555.94775390625,-0.0,4492.60107421875,-14947.2548828125,2364.317626953125,13043.0859375,2631.346435546875,-7167.6572265625,4346.37060546875,5091.03173828125,4165.17236328125,4388.4912109375,3160.6357421875,-4332.8603515625,-10214.646484375,-5099.7734375,2223.650634765625,-4317.76025390625,0.0,-6161.53076171875,0.0,-6866.455078125,-10281.4033203125,3938.6748046875,-10186.0361328125,0.0,-13207.5947265625,-1447.2008056640625,0.0,-6357.0341796875,0.0,5226.13525390625,-0.0,-5776.88232421875
-2452.532470703125,-3500.779296875,12090.2060546875,-7635.75244140625,7506.2119140625,2860.228271484375,3538.1318359375,-5495.54833984375,0.0,-5042.552734375,-2335.70751953125,-11277.19921875,0.0,0.0,0.0,-3426.86962890625,3064.473388671875,11944.7705078125,-0.0,-1032.3524169921875,5873.8388671875,9729.8623046875,7253.48828125,3128.846435546875,2735.455810546875,-8064.11083984375,-5644.16259765625,7385.41259765625,-571.4098510742188,-1969.33740234375,10329.0869140625,-6086.826171875,9084.5419921875,7903.57568359375,5606.015625,8334.3193359375,2800.62353515625,-1495.67919921875,5576.6103515625,-0.0,4506.111328125,-14944.87109375,2365.906982421875,13042.291015625,2631.346435546875,-7170.04150390625,4347.9599609375,5091.826171875,4172.3251953125,4381.33837890625,3161.430419921875,-4333.65478515625,-10226.5673828125,-5097.38916015625,2225.239990234375,-4322.52880859375,0.0,-6155.9677734375,0.0,-6864.86572265625,-10302.861328125,3940.26416015625,-10186.8310546875,0.0,-13229.8466796875,-1440.0482177734375,0.0,-6347.49755859375,0.0,5222.9560546875,-0.0,-5776.88232421875
-2430.280029296875,-3499.190185546875,12133.12109375,-7623.03662109375,7521.3115234375,2869.76513671875,3542.10546875,-5485.216796875,0.0,-5034.60546875,-2311.07080078125,-11260.509765625,0.0,0.0,0.0,-3413.359375,3085.136474609375,11959.076171875,-0.0,-1025.99462890625,5896.09130859375,9744.1669921875,7264.6142578125,3139.97265625,2752.14501953125,-8060.1376953125,-5633.8310546875,7396.5390625,-554.7205810546875,-1978.07958984375,10344.1875,-6065.36865234375,9112.3583984375,7920.26513671875,5620.32080078125,8346.240234375,2804.59716796875,-1486.1424560546875,5613.16845703125,-0.0,4531.54248046875,-14932.1552734375,2372.264892578125,13052.623046875,2635.320068359375,-7158.9150390625,4416.30712890625,5100.568359375,4189.0146484375,4390.87548828125,3163.814453125,-4320.939453125,-10197.95703125,-5159.3779296875,2242.72412109375,-4328.09228515625,0.0,-6139.2783203125,0.0,-6852.94482421875,-10289.3515625,3951.390625,-10177.294921875,0.0,-13235.41015625,-1405.0802001953125,0.0,-6329.21826171875,0.0,5236.466796875,-0.0,-5768.9345703125
-2454.121826171875,-3506.342529296875,12138.6845703125,-7623.8310546875,7524.490234375,2868.175537109375,3542.900146484375,-5486.80615234375,0.0,-5038.57958984375,-2311.865478515625,-11286.7353515625,0.0,0.0,0.0,-3416.538330078125,3084.341796875,11958.28125,-0.0,-1030.7630615234375,5896.09130859375,9743.373046875,7266.20361328125,3139.97265625,2764.06591796875,-8060.93212890625,-5631.44677734375,7394.15478515625,-542.7996215820312,-1974.1058349609375,10344.982421875,-6067.7529296875,9115.537109375,7917.880859375,5620.32080078125,8348.6240234375,2803.0078125,-1488.5267333984375,5613.16845703125,-0.0,4538.69482421875,-14928.181640625,2373.0595703125,13050.23828125,2633.730712890625,-7161.29931640625,4456.837890625,5103.7470703125,4192.98779296875,4391.67041015625,3163.814453125,-4323.32373046875,-10190.009765625,-5127.5888671875,2253.0556640625,-4335.24462890625,0.0,-6145.63623046875,0.0,-6858.5078125,-10285.3779296875,3952.97998046875,-10179.6787109375,0.0,-13236.205078125,-1400.311767578125,0.0,-6341.93408203125,0.0,5226.93017578125,-0.0,-5779.2666015625
-2485.9111328125,-3554.0263671875,12078.28515625,-7632.57373046875,7510.18505859375,2873.738525390625,3544.489501953125,-5475.6796875,0.0,-5026.65869140625,-2327.760009765625,-11284.3515625,0.0,0.0,0.0,-3395.875244140625,3066.06298828125,11955.8974609375,-0.0,-1022.815673828125,5873.8388671875,9737.0146484375,7263.02490234375,3142.35693359375,2752.93994140625,-8052.9853515625,-5632.24169921875,7405.28125,-551.5416259765625,-1949.46923828125,10335.4453125,-6089.21044921875,9082.158203125,7905.16552734375,5613.16845703125,8347.8291015625,2805.39208984375,-1481.3741455078125,5559.12646484375,-0.0,4507.70068359375,-14928.9765625,2372.264892578125,13058.185546875,2635.320068359375,-7151.7626953125,4338.42333984375,5091.03173828125,4187.42529296875,4401.20703125,3166.19873046875,-4310.60791015625,-10239.283203125,-5137.92041015625,2244.3134765625,-4328.88671875,0.0,-6125.76806640625,0.0,-6837.8447265625,-10286.966796875,3951.390625,-10172.5263671875,0.0,-13224.2841796875,-1382.032958984375,0.0,-6322.06591796875,0.0,5234.08251953125,-0.0,-5770.5244140625
-2455.71142578125,-3569.126220703125,12060.005859375,-7627.80517578125,7512.5693359375,2878.5068359375,3545.2841796875,-5471.70654296875,0.0,-5021.89013671875,-2282.46044921875,-11262.099609375,0.0,0.0,0.0,-3390.312255859375,3065.268310546875,11955.8974609375,-0.0,-1018.8421020507812,5873.04443359375,9738.6044921875,7266.998046875,3145.53564453125,2760.88720703125,-8041.064453125,-5625.8837890625,7410.84423828125,-547.5679931640625,-1935.9588623046875,10337.830078125,-6087.62109375,9078.9794921875,7907.5498046875,5613.16845703125,8351.0087890625,2806.186767578125,-1477.400390625,5567.86865234375,-0.0,4502.1376953125,-14924.208984375,2374.64892578125,13063.748046875,2635.320068359375,-7147.7890625,4355.11279296875,5093.41552734375,4196.1669921875,4408.359375,3165.404052734375,-4306.63427734375,-10206.69921875,-5134.7412109375,2250.67138671875,-4306.63427734375,0.0,-6120.205078125,0.0,-6832.28173828125,-10254.3828125,3952.18505859375,-10170.9365234375,0.0,-13212.36328125,-1399.51708984375,0.0,-6301.40283203125,0.0,5242.02978515625,-0.0,-5750.65625
-2464.453369140625,-3516.674072265625,12026.6279296875,-7646.083984375,7493.49609375,2860.228271484375,3538.1318359375,-5493.1640625,0.0,-5041.75830078125,-2290.407958984375,-11262.099609375,0.0,0.0,0.0,-3414.94873046875,3050.963134765625,11939.2080078125,-0.0,-1034.736572265625,5855.560546875,9723.50390625,7251.10400390625,3128.0517578125,2743.403076171875,-8056.16357421875,-5637.8046875,7390.18115234375,-565.052001953125,-1953.44287109375,10318.755859375,-6097.15771484375,9058.31640625,7892.44921875,5596.47900390625,8332.7294921875,2798.239501953125,-1495.67919921875,5552.7685546875,-0.0,4483.06396484375,-14940.8974609375,2362.72802734375,13043.880859375,2628.16748046875,-7166.8623046875,4354.318359375,5084.67333984375,4181.06689453125,4389.2861328125,3158.25146484375,-4327.29736328125,-10202.7255859375,-5149.04638671875,2232.392578125,-4289.9453125,0.0,-6144.046875,0.0,-6859.302734375,-10245.640625,3936.290771484375,-10186.8310546875,0.0,-13202.826171875,-1430.511474609375,0.0,-6326.833984375,0.0,5231.69873046875,-0.0,-5756.21923828125
-2484.321533203125,-3472.169189453125,12048.0849609375,-7638.93115234375,7497.46923828125,2866.5859375,3538.92626953125,-5489.98486328125,0.0,-5045.73193359375,-2304.712890625,-11248.5888671875,0.0,0.0,0.0,-3412.564453125,3055.7314453125,11946.3603515625,-0.0,-1035.5313720703125,5862.712890625,9729.8623046875,7253.48828125,3133.61474609375,2744.992431640625,-8052.18994140625,-5642.57275390625,7394.15478515625,-561.078369140625,-1940.727294921875,10325.1142578125,-6093.18408203125,9068.6484375,7897.2177734375,5602.04150390625,8337.498046875,2799.828857421875,-1494.884521484375,5567.07373046875,-0.0,4490.216796875,-14936.1298828125,2365.1123046875,13047.8544921875,2630.551513671875,-7165.27294921875,4343.986328125,5093.41552734375,4181.06689453125,4394.84912109375,3159.8408203125,-4326.50244140625,-10193.1884765625,-5142.68896484375,2236.3662109375,-4279.61328125,0.0,-6136.89404296875,0.0,-6859.302734375,-10259.9462890625,3941.05908203125,-10184.447265625,0.0,-13198.05859375,-1412.2327880859375,0.0,-6333.1923828125,0.0,5221.36669921875,-0.0,-5777.67724609375
-2497.037109375,-3472.964111328125,12045.701171875,-7651.64697265625,7494.291015625,2864.201904296875,3539.72119140625,-5482.83251953125,0.0,-5032.22119140625,-2314.249755859375,-11264.4833984375,0.0,0.0,0.0,-3407.00146484375,3046.989501953125,11943.9765625,-0.0,-1025.99462890625,5859.53369140625,9725.09375,7254.28271484375,3132.820068359375,2740.22412109375,-8063.31640625,-5644.16259765625,7396.5390625,-566.6414794921875,-1956.621826171875,10321.9345703125,-6105.10498046875,9061.49609375,7886.88671875,5600.45263671875,8335.908203125,2800.62353515625,-1491.70556640625,5559.92138671875,-0.0,4487.03759765625,-14944.076171875,2363.522705078125,13049.443359375,2631.346435546875,-7159.7099609375,4343.986328125,5076.7265625,4177.88818359375,4393.259765625,3161.430419921875,-4320.14453125,-10193.1884765625,-5147.45703125,2229.213623046875,-4297.09765625,0.0,-6130.53662109375,0.0,-6846.5869140625,-10295.708984375,3941.05908203125,-10179.6787109375,0.0,-13218.720703125,-1400.311767578125,0.0,-6335.57666015625,0.0,5222.9560546875,-0.0,-5753.04052734375
-2472.400634765625,-3465.0166015625,12045.701171875,-7648.4677734375,7495.8798828125,2866.5859375,3538.1318359375,-5479.65380859375,0.0,-5025.86376953125,-2309.4814453125,-11276.404296875,0.0,0.0,0.0,-3396.670166015625,3049.37353515625,11945.5654296875,-0.0,-1022.815673828125,5862.712890625,9727.478515625,7258.25634765625,3137.58837890625,2741.813720703125,-8060.1376953125,-5638.599609375,7401.3076171875,-567.4362182617188,-1968.5428466796875,10323.5244140625,-6104.310546875,9063.0849609375,7886.88671875,5602.83642578125,8339.087890625,2802.212890625,-1486.9371337890625,5559.92138671875,-0.0,4491.80615234375,-14939.30859375,2366.701904296875,13053.4169921875,2631.346435546875,-7154.146484375,4356.7021484375,5084.67333984375,4181.06689453125,4395.6435546875,3160.6357421875,-4312.9921875,-10181.267578125,-5147.45703125,2230.80322265625,-4305.04443359375,0.0,-6126.5625,0.0,-6834.666015625,-10290.1455078125,3945.03271484375,-10176.4990234375,0.0,-13215.5419921875,-1393.9539794921875,0.0,-6341.93408203125,0.0,5230.90380859375,-0.0,-5740.32470703125
-2428.690673828125,-3456.274658203125,12057.6220703125,-7640.5205078125,7501.443359375,2868.97021484375,3540.515869140625,-5482.83251953125,0.0,-5034.60546875,-2304.712890625,-11264.4833984375,0.0,0.0,0.0,-3409.3857421875,3056.526123046875,11949.5390625,-0.0,-1028.3787841796875,5869.865234375,9733.8359375,7259.845703125,3139.97265625,2748.171630859375,-8053.77978515625,-5633.8310546875,7397.33349609375,-560.28369140625,-1939.1378173828125,10328.29296875,-6094.77392578125,9071.0322265625,7893.24462890625,5606.81005859375,8341.4716796875,2803.0078125,-1487.73193359375,5568.6630859375,-0.0,4498.95849609375,-14934.5400390625,2370.67529296875,13051.8271484375,2631.346435546875,-7158.9150390625,4370.21240234375,5089.44189453125,4188.2197265625,4396.4384765625,3163.814453125,-4319.349609375,-10142.326171875,-5130.767578125,2236.3662109375,-4309.0185546875,0.0,-6136.09912109375,0.0,-6851.35498046875,-10266.3037109375,3947.416748046875,-10180.4736328125,0.0,-13199.646484375,-1386.0067138671875,0.0,-6353.06005859375,0.0,5231.69873046875,-0.0,-5770.5244140625
-2388.9541015625,-3449.1220703125,12067.9541015625,-7645.2890625,7501.443359375,2867.380859375,3538.1318359375,-5491.57470703125,0.0,-5049.70556640625,-2311.865478515625,-11271.6357421875,0.0,0.0,0.0,-3424.4853515625,3062.884033203125,11950.333984375,-0.0,-1039.5050048828125,5871.45458984375,9732.24609375,7259.05078125,3135.204345703125,2752.93994140625,-8055.369140625,-5637.8046875,7389.38671875,-552.3363647460938,-1922.448486328125,10331.4716796875,-6084.4423828125,9078.9794921875,7895.62890625,5606.81005859375,8338.2919921875,2799.828857421875,-1492.500244140625,5586.9423828125,-0.0,4502.93212890625,-14939.30859375,2366.701904296875,13046.2646484375,2628.16748046875,-7169.24658203125,4377.365234375,5085.46826171875,4189.80908203125,4392.46533203125,3159.8408203125,-4328.88671875,-10078.748046875,-5110.10498046875,2241.92919921875,-4309.0185546875,0.0,-6147.22607421875,0.0,-6873.607421875,-10237.693359375,3945.03271484375,-10187.6259765625,0.0,-13194.87890625,-1397.9276123046875,0.0,-6368.955078125,0.0,5211.830078125,-0.0,-5807.87646484375
-2403.25927734375,-3463.42724609375,12068.748046875,-7645.2890625,7497.46923828125,2866.5859375,3537.337158203125,-5490.77978515625,0.0,-5047.3212890625,-2306.30224609375,-11250.1787109375,0.0,0.0,0.0,-3420.511962890625,3060.5,11947.94921875,-0.0,-1036.3260498046875,5869.0703125,9730.65625,7256.66650390625,3134.40966796875,2745.787353515625,-8051.3955078125,-5643.36767578125,7394.15478515625,-560.28369140625,-1935.9588623046875,10329.0869140625,-6088.41552734375,9078.9794921875,7894.0390625,5604.42578125,8335.11328125,2799.828857421875,-1494.884521484375,5592.5048828125,-0.0,4498.95849609375,-14940.1025390625,2364.317626953125,13047.05859375,2628.962158203125,-7169.24658203125,4376.5703125,5087.8525390625,4183.451171875,4395.6435546875,3160.6357421875,-4328.09228515625,-10126.431640625,-5097.38916015625,2237.160888671875,-4297.89208984375,0.0,-6142.45751953125,0.0,-6868.83935546875,-10246.4365234375,3943.443359375,-10185.2421875,0.0,-13213.1572265625,-1391.5697021484375,0.0,-6371.33935546875,0.0,5207.8564453125,-0.0,-5786.4189453125
-2450.94287109375,-3488.063720703125,12051.2646484375,-7650.05712890625,7495.8798828125,2864.201904296875,3539.72119140625,-5489.98486328125,0.0,-5042.552734375,-2302.328857421875,-11265.2783203125,0.0,0.0,0.0,-3418.92236328125,3053.347412109375,11947.1552734375,-0.0,-1030.7630615234375,5863.5078125,9726.68359375,7255.8720703125,3134.40966796875,2744.19775390625,-8059.34228515625,-5640.1884765625,7395.744140625,-561.078369140625,-1962.9796142578125,10325.1142578125,-6098.7470703125,9070.2373046875,7888.4765625,5602.04150390625,8334.3193359375,2801.418212890625,-1492.500244140625,5571.84228515625,-0.0,4493.3955078125,-14948.05078125,2366.701904296875,13048.6484375,2631.346435546875,-7168.45166015625,4355.11279296875,5082.2890625,4183.451171875,4397.2333984375,3162.22509765625,-4326.50244140625,-10222.5947265625,-5123.615234375,2235.571533203125,-4301.0712890625,0.0,-6142.45751953125,0.0,-6864.07080078125,-10257.5615234375,3941.05908203125,-10182.857421875,0.0,-13206.7998046875,-1379.6488037109375,0.0,-6366.57080078125,0.0,5213.41943359375,-0.0,-5771.31884765625
-2461.2744140625,-3507.13720703125,12044.90625,-7653.236328125,7495.8798828125,2864.201904296875,3544.489501953125,-5488.3955078125,0.0,-5039.3740234375,-2300.7392578125,-11293.09375,0.0,0.0,0.0,-3415.74365234375,3049.37353515625,11947.94921875,-0.0,-1029.1734619140625,5861.91796875,9727.478515625,7258.25634765625,3133.61474609375,2744.992431640625,-8061.7265625,-5634.6259765625,7394.15478515625,-559.4889526367188,-1964.569091796875,10322.73046875,-6102.720703125,9064.6748046875,7885.296875,5602.04150390625,8336.703125,2803.802490234375,-1491.70556640625,5540.84765625,-0.0,4492.60107421875,-14952.8193359375,2369.0859375,13047.05859375,2633.730712890625,-7165.27294921875,4346.37060546875,5075.931640625,4187.42529296875,4393.259765625,3163.814453125,-4324.1181640625,-10213.8515625,-5162.55712890625,2236.3662109375,-4328.88671875,0.0,-6150.404296875,0.0,-6858.5078125,-10263.919921875,3942.6484375,-10181.267578125,0.0,-13201.236328125,-1393.9539794921875,0.0,-6348.2919921875,0.0,5214.21435546875,-0.0,-5776.08740234375
-2412.7958984375,-3507.13720703125,12071.9267578125,-7633.3681640625,7507.80126953125,2872.149169921875,3544.489501953125,-5486.80615234375,0.0,-5043.34765625,-2279.28173828125,-11274.814453125,0.0,0.0,0.0,-3416.538330078125,3067.65234375,11957.486328125,-0.0,-1030.7630615234375,5877.01806640625,9740.193359375,7266.20361328125,3140.767333984375,2765.655517578125,-8056.16357421875,-5624.29443359375,7398.12841796875,-538.8259887695312,-1939.9324951171875,10335.4453125,-6079.673828125,9085.337890625,7901.986328125,5613.16845703125,8344.650390625,2805.39208984375,-1486.9371337890625,5578.99462890625,-0.0,4506.90625,-14941.6923828125,2374.64892578125,13052.623046875,2634.525390625,-7163.68359375,4376.5703125,5102.15771484375,4202.52490234375,4402.79638671875,3165.404052734375,-4324.1181640625,-10131.9951171875,-5136.3310546875,2257.029296875,-4314.58154296875,0.0,-6154.37841796875,0.0,-6860.09716796875,-10251.2041015625,3951.390625,-10179.6787109375,0.0,-13185.341796875,-1397.9276123046875,0.0,-6355.4443359375,0.0,5215.00927734375,-0.0,-5784.03466796875
-2429.4853515625,-3511.90576171875,12066.3642578125,-7642.1103515625,7501.443359375,2868.175537109375,3545.2841796875,-5492.369140625,0.0,-5042.552734375,-2306.30224609375,-11275.609375,0.0,0.0,0.0,-3420.511962890625,3059.705078125,11951.923828125,-0.0,-1029.96826171875,5870.66015625,9733.8359375,7261.43505859375,3135.9990234375,2754.529296875,-8066.4951171875,-5629.0625,7394.15478515625,-553.131103515625,-1947.8797607421875,10329.8828125,-6091.5947265625,9077.3896484375,7892.44921875,5605.220703125,8336.703125,2804.59716796875,-1490.1160888671875,5575.81591796875,-0.0,4499.75341796875,-14952.0234375,2371.47021484375,13049.443359375,2635.320068359375,-7168.45166015625,4367.828125,5090.23681640625,4195.3720703125,4400.412109375,3163.019775390625,-4328.09228515625,-10155.0419921875,-5124.41015625,2245.1083984375,-4301.0712890625,0.0,-6161.53076171875,0.0,-6867.25,-10258.357421875,3947.416748046875,-10181.267578125,0.0,-13216.3359375,-1410.6431884765625,0.0,-6370.54443359375,0.0,5211.830078125,-0.0,-5780.06103515625
-2467.63232421875,-3504.753173828125,12051.2646484375,-7651.64697265625,7492.701171875,2861.817626953125,3538.1318359375,-5497.1376953125,0.0,-5048.91064453125,-2324.5810546875,-11263.6884765625,0.0,0.0,0.0,-3421.306640625,3048.578857421875,11940.796875,-0.0,-1036.3260498046875,5859.53369140625,9724.2998046875,7253.48828125,3128.846435546875,2742.6083984375,-8067.29052734375,-5637.8046875,7391.77099609375,-565.052001953125,-1947.0850830078125,10317.9619140625,-6105.89990234375,9063.8798828125,7882.1181640625,5596.47900390625,8329.55078125,2800.62353515625,-1496.473876953125,5558.33203125,-0.0,4491.01123046875,-14963.150390625,2364.317626953125,13044.6748046875,2628.962158203125,-7174.81005859375,4351.13916015625,5078.31591796875,4187.42529296875,4398.82275390625,3159.8408203125,-4331.2705078125,-10227.3623046875,-5132.35693359375,2231.597900390625,-4289.9453125,0.0,-6163.1201171875,0.0,-6865.66015625,-10271.8671875,3937.085693359375,-10188.419921875,0.0,-13231.4365234375,-1436.8692626953125,0.0,-6380.8759765625,0.0,5196.72998046875,-0.0,-5791.1875
-2488.29541015625,-3486.474365234375,12052.853515625,-7652.44140625,7493.49609375,2862.612548828125,3537.337158203125,-5493.958984375,0.0,-5040.9638671875,-2307.09716796875,-11272.4306640625,0.0,0.0,0.0,-3418.127685546875,3048.578857421875,11941.591796875,-0.0,-1030.7630615234375,5860.32861328125,9725.09375,7253.48828125,3130.43603515625,2753.734619140625,-8064.90625,-5645.751953125,7394.15478515625,-553.9258422851562,-1950.263916015625,10320.345703125,-6099.5419921875,9062.2900390625,7883.7080078125,5598.068359375,8331.9345703125,2799.828857421875,-1494.884521484375,5544.8212890625,-0.0,4492.60107421875,-14961.560546875,2361.933349609375,13047.8544921875,2628.962158203125,-7171.630859375,4355.11279296875,5072.75244140625,4188.2197265625,4400.412109375,3159.8408203125,-4326.50244140625,-10236.1044921875,-5134.7412109375,2241.92919921875,-4291.5341796875,0.0,-6154.37841796875,0.0,-6861.6865234375,-10281.4033203125,3938.6748046875,-10186.0361328125,0.0,-13207.5947265625,-1446.406005859375,0.0,-6372.9287109375,0.0,5219.77734375,-0.0,-5778.4716796875
-2472.400634765625,-3466.606201171875,12060.005859375,-7655.62060546875,7495.08544921875,2861.02294921875,3540.515869140625,-5495.54833984375,0.0,-5038.57958984375,-2303.12353515625,-11279.5830078125,0.0,0.0,0.0,-3422.896240234375,3050.963134765625,11943.1806640625,-0.0,-1025.99462890625,5861.91796875,9725.09375,7256.66650390625,3129.641357421875,2746.58203125,-8065.70068359375,-5647.34130859375,7388.591796875,-561.8731079101562,-1953.44287109375,10322.73046875,-6096.36328125,9067.8525390625,7884.50244140625,5598.86328125,8330.3447265625,2803.802490234375,-1495.67919921875,5563.89453125,-0.0,4493.3955078125,-14963.9443359375,2361.933349609375,13044.6748046875,2631.346435546875,-7170.8359375,4360.67578125,5072.75244140625,4185.83544921875,4391.67041015625,3160.6357421875,-4329.681640625,-10193.1884765625,-5121.23095703125,2235.571533203125,-4305.04443359375,0.0,-6155.9677734375,0.0,-6866.455078125,-10293.32421875,3941.05908203125,-10183.65234375,0.0,-13217.92578125,-1434.485107421875,0.0,-6353.85498046875,0.0,5232.4931640625,-0.0,-5760.98779296875
-2448.558837890625,-3467.40087890625,12057.6220703125,-7662.77294921875,7491.11181640625,2857.04931640625,3538.92626953125,-5498.7275390625,0.0,-5043.34765625,-2304.712890625,-11267.662109375,0.0,0.0,0.0,-3425.2802734375,3047.7841796875,11940.796875,-0.0,-1031.5577392578125,5860.32861328125,9720.3251953125,7254.28271484375,3128.0517578125,2737.04541015625,-8068.87890625,-5645.751953125,7385.41259765625,-569.8204345703125,-1951.0587158203125,10317.9619140625,-6101.92626953125,9065.46875,7880.5283203125,5596.47900390625,8327.1669921875,2799.0341796875,-1499.65283203125,5557.537109375,-0.0,4490.216796875,-14968.712890625,2361.138671875,13040.7021484375,2629.7568359375,-7171.630859375,4362.26513671875,5067.189453125,4184.24609375,4386.10693359375,3159.8408203125,-4332.8603515625,-10197.1630859375,-5110.10498046875,2227.624267578125,-4312.9921875,0.0,-6154.37841796875,0.0,-6868.83935546875,-10291.7353515625,3936.290771484375,-10188.419921875,0.0,-13232.2314453125,-1400.311767578125,0.0,-6351.470703125,0.0,5227.724609375,-0.0,-5776.88232421875
-2431.86962890625,-3467.40087890625,12056.8271484375,-7662.77294921875,7491.11181640625,2858.638671875,3538.1318359375,-5497.9326171875,0.0,-5044.93701171875,-2307.891845703125,-11253.357421875,0.0,0.0,0.0,-3421.306640625,3046.989501953125,11940.796875,-0.0,-1032.3524169921875,5861.12353515625,9720.3251953125,7255.0771484375,3128.846435546875,2737.04541015625,-8070.46875,-5643.36767578125,7390.18115234375,-570.6151123046875,-1946.2904052734375,10318.755859375,-6103.515625,9065.46875,7878.939453125,5597.2734375,8327.9609375,2797.444580078125,-1499.65283203125,5558.33203125,-0.0,4491.01123046875,-14968.712890625,2361.138671875,13043.880859375,2628.16748046875,-7172.42578125,4364.6494140625,5067.98388671875,4184.24609375,4387.69677734375,3159.8408203125,-4330.47607421875,-10209.8779296875,-5103.7470703125,2226.82958984375,-4309.0185546875,0.0,-6148.81494140625,0.0,-6864.86572265625,-10275.8408203125,3937.085693359375,-10188.419921875,0.0,-13237.0,-1393.1593017578125,0.0,-6352.265625,0.0,5223.7509765625,-0.0,-5799.134765625
