-2794.265625,-3702.640625,12198.2890625,-7844.765625,7556.27978515625,2839.565185546875,3610.451904296875,-5555.15283203125,0.0,-5083.87890625,-2214.114013671875,-11783.4404296875,0.0,0.0,0.0,-3511.90576171875,3083.546875,11966.228515625,-0.0,-954.4690551757812,5955.6962890625,9681.3837890625,7336.9345703125,3106.593994140625,2802.212890625,-8288.224609375,-5608.39990234375,7371.107421875,-677.1087646484375,-2191.066650390625,10320.345703125,-6173.45166015625,9153.68359375,7832.8447265625,5738.7353515625,8250.0771484375,2868.97021484375,-1513.9580078125,5609.1943359375,-0.0,4664.26220703125,-15061.6962890625,2497.037109375,12989.8388671875,2702.8720703125,-7147.7890625,4533.1318359375,4947.98046875,4628.49951171875,4326.50244140625,3217.856201171875,-4363.85498046875,-10186.0361328125,-5413.69091796875,2264.9765625,-4414.71728515625,0.0,-6145.63623046875,0.0,-6921.29150390625,-10476.1123046875,3949.006591796875,-10101.794921875,0.0,-13256.0732421875,-1708.66650390625,0.0,-6765.5244140625,0.0,5143.4833984375,-0.0,-5904.83349609375
-2790.2919921875,-3688.33544921875,12208.62109375,-7829.666015625,7558.6640625,2853.07568359375,3614.42578125,-5546.4111328125,0.0,-5074.34228515625,-2181.530029296875,-11773.904296875,0.0,0.0,0.0,-3497.6005859375,3095.4677734375,11974.970703125,-0.0,-948.9059448242188,5964.43798828125,9693.3046875,7343.2919921875,3113.74658203125,2818.107666015625,-8273.125,-5610.7841796875,7383.0283203125,-660.41943359375,-2177.556396484375,10329.0869140625,-6159.94140625,9165.6044921875,7846.35546875,5744.29833984375,8261.2041015625,2872.149169921875,-1505.2159423828125,5621.115234375,-0.0,4671.4150390625,-15047.390625,2497.83203125,13001.759765625,2705.256103515625,-7140.63623046875,4549.8212890625,4964.669921875,4624.525390625,4340.01318359375,3220.240234375,-4353.5234375,-10150.2734375,-5398.59130859375,2283.25537109375,-4386.10693359375,0.0,-6144.046875,0.0,-6911.75439453125,-10477.7021484375,3956.95361328125,-10096.232421875,0.0,-13253.6884765625,-1681.645751953125,0.0,-6752.01416015625,0.0,5158.5830078125,-0.0,-5890.5283203125
-2787.11328125,-3680.38818359375,12201.46875,-7826.4873046875,7553.1005859375,2852.28076171875,3612.04150390625,-5545.6162109375,0.0,-5072.75244140625,-2164.8408203125,-11777.8779296875,0.0,0.0,0.0,-3492.832275390625,3095.4677734375,11972.5869140625,-0.0,-949.70068359375,5958.875,9693.3046875,7340.11328125,3113.74658203125,2807.776123046875,-8265.177734375,-5613.16845703125,7382.23388671875,-671.545654296875,-2164.046142578125,10325.908203125,-6158.35205078125,9162.42578125,7847.9453125,5741.9140625,8259.6142578125,2871.354248046875,-1506.805419921875,5616.3466796875,-0.0,4665.8515625,-15046.5966796875,2496.242431640625,13000.1708984375,2702.8720703125,-7140.63623046875,4546.64208984375,4972.61669921875,4618.16796875,4340.8076171875,3217.856201171875,-4351.93408203125,-10151.86328125,-5381.90234375,2273.718505859375,-4383.72265625,0.0,-6148.0205078125,0.0,-6906.986328125,-10506.3125,3953.77490234375,-10098.6162109375,0.0,-13246.5361328125,-1716.61376953125,0.0,-6748.04052734375,0.0,5166.53076171875,-0.0,-5878.607421875
-2798.239501953125,-3701.845947265625,12195.904296875,-7840.79248046875,7569.7900390625,2846.7177734375,3613.631103515625,-5544.02685546875,0.0,-5070.3681640625,-2210.14013671875,-11814.4345703125,0.0,0.0,0.0,-3490.447998046875,3088.315185546875,11970.2021484375,-0.0,-946.521728515625,5960.46435546875,9684.5625,7342.49755859375,3112.1572265625,2781.550048828125,-8279.482421875,-5610.7841796875,7381.439453125,-700.9506225585938,-2191.861328125,10321.9345703125,-6167.09375,9158.4521484375,7837.61328125,5743.50341796875,8254.05078125,2873.738525390625,-1509.1895751953125,5613.16845703125,-0.0,4673.798828125,-15055.3388671875,2499.42138671875,12997.7861328125,2706.05078125,-7139.04736328125,4533.92626953125,4945.59619140625,4626.115234375,4336.833984375,3219.445556640625,-4351.13916015625,-10176.4990234375,-5425.61181640625,2245.1083984375,-4402.001953125,0.0,-6143.251953125,0.0,-6905.39697265625,-10520.6171875,3952.18505859375,-10097.0263671875,0.0,-13290.24609375,-1738.0714111328125,0.0,-6744.06689453125,0.0,5171.298828125,-0.0,-5871.45458984375
-2791.0869140625,-3697.8720703125,12204.6474609375,-7833.64013671875,7538.79541015625,2849.10205078125,3609.6572265625,-5541.642578125,0.0,-5067.98388671875,-2183.11962890625,-11800.9248046875,0.0,0.0,0.0,-3492.03759765625,3088.315185546875,11968.6123046875,-0.0,-947.3164672851562,5953.31201171875,9686.15234375,7336.1396484375,3112.951904296875,2814.1337890625,-8271.53515625,-5623.49951171875,7386.20751953125,-667.572021484375,-2174.37744140625,10323.5244140625,-6168.68359375,9160.0419921875,7840.79248046875,5733.966796875,8257.2294921875,2869.76513671875,-1506.0106201171875,5621.91015625,-0.0,4656.31494140625,-15046.5966796875,2488.29541015625,13000.96484375,2702.8720703125,-7136.6630859375,4556.17919921875,4959.9013671875,4602.2734375,4341.6025390625,3216.2666015625,-4349.5498046875,-10162.9892578125,-5408.12841796875,2278.487060546875,-4379.74951171875,0.0,-6128.15234375,0.0,-6903.80712890625,-10478.49609375,3952.18505859375,-10097.0263671875,0.0,-13279.1201171875,-1722.1768798828125,0.0,-6738.50390625,0.0,5175.2724609375,-0.0,-5868.27587890625
-2784.72900390625,-3693.103759765625,12201.46875,-7839.203125,7517.337890625,2839.565185546875,3609.6572265625,-5545.6162109375,0.0,-5063.2158203125,-2175.967041015625,-11765.162109375,0.0,0.0,0.0,-3497.6005859375,3083.546875,11963.8447265625,-0.0,-945.72705078125,5946.9541015625,9680.5888671875,7331.37109375,3108.18359375,2828.43896484375,-8289.814453125,-5621.115234375,7377.4658203125,-650.0880126953125,-2205.371826171875,10316.3720703125,-6173.45166015625,9155.2734375,7835.22900390625,5727.609375,8252.4619140625,2868.175537109375,-1508.3948974609375,5629.857421875,-0.0,4648.3671875,-15053.7490234375,2487.50048828125,12994.607421875,2701.282470703125,-7135.0732421875,4550.61572265625,4951.9541015625,4594.326171875,4327.29736328125,3217.856201171875,-4352.728515625,-10145.5048828125,-5409.7177734375,2291.997314453125,-4413.1279296875,0.0,-6126.5625,0.0,-6901.4228515625,-10464.986328125,3948.211669921875,-10097.8212890625,0.0,-13237.0,-1716.61376953125,0.0,-6734.52978515625,0.0,5182.4248046875,-0.0,-5856.35498046875
-2791.0869140625,-3686.745849609375,12201.46875,-7833.64013671875,7539.59033203125,2848.307373046875,3616.01513671875,-5541.642578125,0.0,-5057.65283203125,-2190.27197265625,-11773.109375,0.0,0.0,0.0,-3490.447998046875,3093.87841796875,11972.5869140625,-0.0,-937.7797241210938,5960.46435546875,9689.3310546875,7340.11328125,3116.130859375,2806.9814453125,-8277.0986328125,-5616.3466796875,7384.6181640625,-669.9561767578125,-2213.319091796875,10323.5244140625,-6165.50439453125,9161.6318359375,7842.38134765625,5740.32470703125,8261.2041015625,2872.94384765625,-1502.037109375,5633.0361328125,-0.0,4665.8515625,-15041.828125,2497.037109375,13001.759765625,2707.640380859375,-7131.099609375,4541.0791015625,4959.9013671875,4603.06787109375,4333.65478515625,3223.419189453125,-4346.37060546875,-10136.763671875,-5424.8173828125,2270.53955078125,-4405.9755859375,0.0,-6126.5625,0.0,-6892.68115234375,-10477.7021484375,3953.77490234375,-10090.6689453125,0.0,-13250.509765625,-1710.2559814453125,0.0,-6736.9140625,0.0,5169.70947265625,-0.0,-5857.9443359375
-2795.060302734375,-3678.00390625,12208.62109375,-7817.7451171875,7557.07421875,2860.228271484375,3614.42578125,-5538.46337890625,0.0,-5063.2158203125,-2218.08740234375,-11776.2880859375,0.0,0.0,0.0,-3488.8583984375,3100.236083984375,11980.533203125,-0.0,-940.1639404296875,5970.7958984375,9698.8681640625,7344.0869140625,3120.899169921875,2783.934326171875,-8252.4619140625,-5613.16845703125,7390.97607421875,-695.3875122070312,-2182.32470703125,10332.2666015625,-6158.35205078125,9168.7841796875,7855.09765625,5749.06689453125,8270.740234375,2875.328125,-1501.2423095703125,5629.0625,-0.0,4692.87255859375,-15024.3447265625,2501.8056640625,13008.912109375,2706.845458984375,-7131.099609375,4538.69482421875,4980.56396484375,4607.0419921875,4346.37060546875,3222.62451171875,-4343.986328125,-10136.763671875,-5408.9228515625,2246.69775390625,-4398.82275390625,0.0,-6126.5625,0.0,-6893.47607421875,-10476.1123046875,3958.543212890625,-10090.6689453125,0.0,-13273.556640625,-1699.9244384765625,0.0,-6761.55078125,0.0,5146.662109375,-0.0,-5876.22314453125
-2803.0078125,-3678.798583984375,12219.7470703125,-7816.1552734375,7573.76318359375,2870.5595703125,3614.42578125,-5529.7216796875,0.0,-5065.60009765625,-2232.392578125,-11777.8779296875,0.0,0.0,0.0,-3480.9111328125,3102.620361328125,11982.91796875,-0.0,-946.521728515625,5979.5380859375,9701.251953125,7348.85546875,3124.872802734375,2786.318603515625,-8234.9775390625,-5606.015625,7403.69189453125,-698.56640625,-2147.356689453125,10337.03515625,-6159.94140625,9175.1416015625,7855.89208984375,5755.42431640625,8274.71484375,2876.122802734375,-1496.473876953125,5625.08935546875,-0.0,4720.68798828125,-15015.6025390625,2506.573974609375,13016.8603515625,2706.845458984375,-7129.51025390625,4549.8212890625,4976.5908203125,4626.115234375,4367.03369140625,3221.034912109375,-4337.62890625,-10158.2216796875,-5393.8232421875,2246.69775390625,-4390.87548828125,0.0,-6113.84716796875,0.0,-6892.68115234375,-10471.34375,3960.132568359375,-10093.052734375,0.0,-13318.8564453125,-1718.2032470703125,0.0,-6763.93505859375,0.0,5153.81494140625,-0.0,-5894.501953125
-2783.934326171875,-3679.59326171875,12226.8994140625,-7801.0556640625,7559.45849609375,2879.3017578125,3614.42578125,-5525.74755859375,0.0,-5057.65283203125,-2146.561767578125,-11830.330078125,0.0,0.0,0.0,-3480.11669921875,3108.978271484375,11986.0966796875,-0.0,-940.9586791992188,5977.15380859375,9711.5830078125,7346.47119140625,3131.230712890625,2838.7705078125,-8211.9306640625,-5617.1416015625,7409.25439453125,-644.52490234375,-2108.414794921875,10343.392578125,-6153.58349609375,9179.115234375,7863.83935546875,5752.24560546875,8279.482421875,2875.328125,-1491.70556640625,5633.8310546875,-0.0,4699.22998046875,-15002.091796875,2499.42138671875,13023.216796875,2706.845458984375,-7122.35791015625,4589.5576171875,4998.8427734375,4626.115234375,4377.365234375,3221.034912109375,-4334.44970703125,-10154.2470703125,-5382.69677734375,2299.944580078125,-4364.6494140625,0.0,-6105.89990234375,0.0,-6893.47607421875,-10468.9599609375,3964.106201171875,-10089.080078125,0.0,-13323.625,-1727.739990234375,0.0,-6734.52978515625,0.0,5178.45166015625,-0.0,-5869.0703125
-2757.708251953125,-3674.0302734375,12207.03125,-7836.0244140625,7537.2060546875,2844.333740234375,3615.22021484375,-5539.25830078125,0.0,-5052.08984375,-2162.45654296875,-11741.3203125,0.0,0.0,0.0,-3485.6796875,3093.083740234375,11969.4072265625,-0.0,-933.0113525390625,5950.927734375,9689.3310546875,7336.9345703125,3115.336181640625,2837.18115234375,-8296.966796875,-5619.52587890625,7377.4658203125,-639.7565307617188,-2192.65625,10324.3193359375,-6160.736328125,9162.42578125,7843.97119140625,5734.76171875,8258.025390625,2874.533447265625,-1501.2423095703125,5625.8837890625,-0.0,4638.0361328125,-15044.2119140625,2493.8583984375,12997.7861328125,2709.229736328125,-7123.947265625,4562.53662109375,4945.59619140625,4614.1943359375,4324.9130859375,3221.82958984375,-4345.57568359375,-10141.5322265625,-5381.107421875,2302.328857421875,-4405.9755859375,0.0,-6125.76806640625,0.0,-6891.88623046875,-10463.3974609375,3952.18505859375,-10089.8740234375,0.0,-13216.3359375,-1679.2615966796875,0.0,-6724.19873046875,0.0,5199.1142578125,-0.0,-5838.076171875
-2772.80810546875,-3690.7197265625,12190.341796875,-7848.73974609375,7524.490234375,2840.35986328125,3612.836181640625,-5541.642578125,0.0,-5051.294921875,-2201.398193359375,-11766.7509765625,0.0,0.0,0.0,-3484.090087890625,3080.3681640625,11959.8701171875,-0.0,-935.3955688476562,5938.2119140625,9675.8203125,7331.37109375,3107.388671875,2791.0869140625,-8311.271484375,-5623.49951171875,7378.26025390625,-689.0296630859375,-2210.14013671875,10311.603515625,-6172.6572265625,9148.12109375,7831.255859375,5724.43017578125,8249.283203125,2871.354248046875,-1506.0106201171875,5611.57861328125,-0.0,4632.47314453125,-15050.5703125,2489.884521484375,12995.40234375,2706.845458984375,-7127.92041015625,4534.72119140625,4932.08544921875,4593.53125,4331.2705078125,3221.034912109375,-4347.9599609375,-10178.8837890625,-5398.59130859375,2254.64501953125,-4414.71728515625,0.0,-6129.74169921875,0.0,-6891.88623046875,-10489.623046875,3944.23828125,-10092.2587890625,0.0,-13242.5625,-1707.0770263671875,0.0,-6744.86181640625,0.0,5198.31982421875,-0.0,-5839.666015625
-2794.265625,-3701.051025390625,12193.5205078125,-7841.5869140625,7527.66943359375,2848.307373046875,3610.451904296875,-5540.052734375,0.0,-5060.037109375,-2226.034912109375,-11796.951171875,0.0,0.0,0.0,-3491.24267578125,3081.95751953125,11962.2548828125,-0.0,-943.3428344726562,5942.18603515625,9679.7939453125,7332.166015625,3109.77294921875,2783.139404296875,-8278.6875,-5623.49951171875,7389.38671875,-696.9769897460938,-2195.835205078125,10314.7822265625,-6171.06787109375,9148.9150390625,7835.22900390625,5726.814453125,8255.640625,2871.354248046875,-1506.805419921875,5606.015625,-0.0,4642.8046875,-15039.4443359375,2490.679443359375,12999.375,2705.256103515625,-7131.099609375,4530.748046875,4944.80126953125,4592.73681640625,4351.93408203125,3218.65087890625,-4348.7548828125,-10213.0576171875,-5408.12841796875,2247.492431640625,-4420.2802734375,0.0,-6130.53662109375,0.0,-6898.244140625,-10498.3642578125,3947.416748046875,-10095.4375,0.0,-13283.888671875,-1730.9189453125,0.0,-6759.96142578125,0.0,5176.8623046875,-0.0,-5864.30224609375
-2816.51806640625,-3694.693359375,12205.44140625,-7828.87158203125,7541.1796875,2848.307373046875,3612.04150390625,-5536.87451171875,0.0,-5056.85791015625,-2209.345458984375,-11770.7255859375,0.0,0.0,0.0,-3490.447998046875,3092.2890625,11972.5869140625,-0.0,-941.75341796875,5956.4912109375,9688.537109375,7338.52392578125,3115.336181640625,2810.955078125,-8278.6875,-5618.73095703125,7385.41259765625,-667.572021484375,-2181.530029296875,10325.908203125,-6159.14697265625,9162.42578125,7845.56103515625,5737.14599609375,8262.7939453125,2873.738525390625,-1502.037109375,5615.55224609375,-0.0,4660.28857421875,-15027.5234375,2496.242431640625,13000.1708984375,2706.05078125,-7123.15234375,4562.53662109375,4956.72216796875,4603.86279296875,4337.62890625,3219.445556640625,-4348.7548828125,-10186.0361328125,-5387.46484375,2276.8974609375,-4405.1806640625,0.0,-6127.357421875,0.0,-6895.8603515625,-10480.0859375,3954.5693359375,-10092.2587890625,0.0,-13254.4833984375,-1703.8980712890625,0.0,-6742.4775390625,0.0,5175.2724609375,-0.0,-5865.89208984375
-2852.28076171875,-3696.28271484375,12199.083984375,-7827.28173828125,7547.537109375,2836.386474609375,3612.04150390625,-5541.642578125,0.0,-5059.2421875,-2195.835205078125,-11774.69921875,0.0,0.0,0.0,-3491.24267578125,3091.494384765625,11967.818359375,-0.0,-944.9323120117188,5956.4912109375,9686.15234375,7336.1396484375,3111.362548828125,2799.0341796875,-8265.9716796875,-5617.9365234375,7371.107421875,-679.492919921875,-2162.45654296875,10323.5244140625,-6162.3251953125,9159.2470703125,7846.35546875,5738.7353515625,8258.025390625,2870.5595703125,-1507.6002197265625,5624.29443359375,-0.0,4663.46728515625,-15024.3447265625,2496.242431640625,12990.6337890625,2704.46142578125,-7123.947265625,4564.9208984375,4963.875,4603.86279296875,4314.58154296875,3219.445556640625,-4355.11279296875,-10160.60546875,-5378.72314453125,2264.9765625,-4375.77587890625,0.0,-6125.76806640625,0.0,-6895.8603515625,-10492.8017578125,3951.390625,-10093.8486328125,0.0,-13270.3779296875,-1688.0035400390625,0.0,-6738.50390625,0.0,5173.68310546875,-0.0,-5864.30224609375
-2820.49169921875,-3704.22998046875,12204.6474609375,-7817.7451171875,7564.2265625,2847.512451171875,3615.22021484375,-5537.6689453125,0.0,-5057.65283203125,-2195.835205078125,-11824.767578125,0.0,0.0,0.0,-3489.6533203125,3097.057373046875,11974.970703125,-0.0,-943.3428344726562,5966.02783203125,9694.099609375,7342.49755859375,3116.130859375,2790.2919921875,-8246.1044921875,-5614.75732421875,7376.6708984375,-691.4138793945312,-2133.051513671875,10331.4716796875,-6154.37841796875,9166.400390625,7853.5078125,5748.27197265625,8267.5615234375,2873.738525390625,-1506.0106201171875,5632.24169921875,-0.0,4670.6201171875,-15006.0654296875,2501.010986328125,12997.7861328125,2707.640380859375,-7119.1787109375,4567.30517578125,4980.56396484375,4611.81005859375,4329.681640625,3221.034912109375,-4352.728515625,-10163.7841796875,-5382.69677734375,2253.0556640625,-4390.0810546875,0.0,-6147.22607421875,0.0,-6893.47607421875,-10527.7705078125,3956.95361328125,-10091.4638671875,0.0,-13306.140625,-1722.1768798828125,0.0,-6743.2724609375,0.0,5164.146484375,-0.0,-5862.712890625
-2768.83447265625,-3700.25634765625,12195.1103515625,-7823.30810546875,7545.1533203125,2850.691650390625,3613.631103515625,-5536.07958984375,0.0,-5056.85791015625,-2195.04052734375,-11796.1572265625,0.0,0.0,0.0,-3484.090087890625,3089.110107421875,11970.2021484375,-0.0,-944.1375732421875,5955.6962890625,9690.125,7337.72900390625,3116.130859375,2800.62353515625,-8249.283203125,-5618.73095703125,7383.8232421875,-682.671875,-2186.29833984375,10324.3193359375,-6163.1201171875,9156.0673828125,7845.56103515625,5739.5302734375,8266.7666015625,2872.149169921875,-1505.2159423828125,5616.3466796875,-0.0,4649.95703125,-15006.859375,2495.44775390625,13000.1708984375,2703.666748046875,-7119.1787109375,4545.05322265625,4967.84814453125,4606.2470703125,4337.62890625,3220.240234375,-4348.7548828125,-10172.5263671875,-5384.28662109375,2262.59228515625,-4387.69677734375,0.0,-6151.19921875,0.0,-6891.091796875,-10515.0537109375,3952.97998046875,-10093.052734375,0.0,-13292.6298828125,-1716.61376953125,0.0,-6732.14599609375,0.0,5167.32568359375,-0.0,-5863.5078125
-2743.403076171875,-3685.951171875,12203.8525390625,-7822.513671875,7526.07958984375,2854.6650390625,3613.631103515625,-5531.31103515625,0.0,-5053.67919921875,-2168.814453125,-11761.9833984375,0.0,0.0,0.0,-3480.9111328125,3091.494384765625,11970.2021484375,-0.0,-941.75341796875,5952.51708984375,9691.71484375,7333.75537109375,3117.720458984375,2822.081298828125,-8250.0771484375,-5615.55224609375,7390.18115234375,-659.624755859375,-2243.518798828125,10325.908203125,-6163.1201171875,9160.0419921875,7847.14990234375,5732.37744140625,8265.177734375,2870.5595703125,-1502.037109375,5615.55224609375,-0.0,4658.69921875,-15006.0654296875,2493.8583984375,13003.349609375,2703.666748046875,-7117.58935546875,4550.61572265625,4968.64306640625,4603.06787109375,4341.6025390625,3220.240234375,-4343.19140625,-10144.7109375,-5379.51806640625,2286.43408203125,-4402.001953125,0.0,-6132.9208984375,0.0,-6888.70751953125,-10466.5751953125,3953.77490234375,-10093.052734375,0.0,-13256.0732421875,-1722.1768798828125,0.0,-6722.60888671875,0.0,5180.041015625,-0.0,-5857.9443359375
-2772.80810546875,-3674.0302734375,12204.6474609375,-7818.53955078125,7541.974609375,2856.254638671875,3612.836181640625,-5536.07958984375,0.0,-5057.65283203125,-2168.814453125,-11774.69921875,0.0,0.0,0.0,-3494.421630859375,3096.2626953125,11974.970703125,-0.0,-946.521728515625,5958.875,9695.689453125,7339.31884765625,3118.51513671875,2813.33935546875,-8247.693359375,-5611.57861328125,7383.0283203125,-665.9825439453125,-2197.424560546875,10329.0869140625,-6164.70947265625,9162.42578125,7851.1240234375,5738.7353515625,8267.5615234375,2872.149169921875,-1502.037109375,5618.73095703125,-0.0,4665.056640625,-15004.4755859375,2497.83203125,13002.5546875,2703.666748046875,-7123.15234375,4549.8212890625,4978.1796875,4609.42578125,4341.6025390625,3219.445556640625,-4351.13916015625,-10155.0419921875,-5363.623046875,2276.8974609375,-4402.001953125,0.0,-6123.3837890625,0.0,-6896.65478515625,-10445.1181640625,3957.74853515625,-10095.4375,0.0,-13275.146484375,-1727.739990234375,0.0,-6726.5830078125,0.0,5178.45166015625,-0.0,-5858.7392578125
-2783.934326171875,-3682.7724609375,12202.2626953125,-7838.40869140625,7544.35888671875,2846.7177734375,3612.04150390625,-5541.642578125,0.0,-5061.62646484375,-2179.145751953125,-11754.0361328125,0.0,0.0,0.0,-3496.805908203125,3089.110107421875,11969.4072265625,-0.0,-947.3164672851562,5956.4912109375,9686.15234375,7336.1396484375,3112.951904296875,2806.9814453125,-8274.71484375,-5612.37353515625,7379.05517578125,-674.724609375,-2148.1513671875,10323.5244140625,-6169.47802734375,9158.4521484375,7839.203125,5737.9404296875,8259.6142578125,2872.149169921875,-1506.805419921875,5621.115234375,-0.0,4661.8779296875,-15030.701171875,2495.44775390625,12994.607421875,2704.46142578125,-7129.51025390625,4546.64208984375,4947.98046875,4607.83642578125,4336.833984375,3218.65087890625,-4355.9072265625,-10175.705078125,-5388.259765625,2271.33447265625,-4383.72265625,0.0,-6114.6416015625,0.0,-6901.4228515625,-10449.88671875,3952.97998046875,-10097.0263671875,0.0,-13308.525390625,-1706.2822265625,0.0,-6727.37744140625,0.0,5178.45166015625,-0.0,-5857.1494140625
-2786.318603515625,-3690.7197265625,12215.7734375,-7826.4873046875,7557.869140625,2853.870361328125,3614.42578125,-5540.052734375,0.0,-5059.2421875,-2164.046142578125,-11780.26171875,0.0,0.0,0.0,-3492.832275390625,3096.2626953125,11974.970703125,-0.0,-945.72705078125,5966.02783203125,9692.509765625,7341.703125,3116.925537109375,2807.776123046875,-8261.998046875,-5607.60498046875,7383.8232421875,-673.9298706054688,-2152.919677734375,10331.4716796875,-6163.9150390625,9169.578125,7845.56103515625,5744.29833984375,8265.9716796875,2872.94384765625,-1503.62646484375,5631.44677734375,-0.0,4673.00390625,-15019.576171875,2500.21630859375,12999.375,2705.256103515625,-7125.53662109375,4560.947265625,4959.9013671875,4622.1416015625,4341.6025390625,3218.65087890625,-4351.93408203125,-10151.86328125,-5397.001953125,2272.923828125,-4388.4912109375,0.0,-6117.82080078125,0.0,-6899.03857421875,-10468.1650390625,3958.543212890625,-10093.052734375,0.0,-13296.6044921875,-1708.66650390625,0.0,-6721.01953125,0.0,5178.45166015625,-0.0,-5849.20263671875
-2789.497314453125,-3696.28271484375,12210.2099609375,-7816.1552734375,7570.5849609375,2857.843994140625,3616.01513671875,-5544.02685546875,0.0,-5066.39501953125,-2191.861328125,-11831.919921875,0.0,0.0,0.0,-3498.395263671875,3097.85205078125,11979.7392578125,-0.0,-950.4954223632812,5968.412109375,9697.2783203125,7344.88134765625,3118.51513671875,2791.881591796875,-8252.4619140625,-5600.45263671875,7383.8232421875,-690.619140625,-2123.514892578125,10333.0615234375,-6163.9150390625,9167.9892578125,7851.91845703125,5747.47705078125,8268.3564453125,2873.738525390625,-1505.2159423828125,5623.49951171875,-0.0,4676.9775390625,-15002.88671875,2504.984619140625,13002.5546875,2706.05078125,-7129.51025390625,4549.8212890625,4975.0009765625,4634.857421875,4340.8076171875,3219.445556640625,-4352.728515625,-10151.86328125,-5397.796875,2256.234375,-4395.6435546875,0.0,-6127.357421875,0.0,-6908.57568359375,-10476.9072265625,3960.927490234375,-10097.0263671875,0.0,-13300.578125,-1729.3294677734375,0.0,-6732.9404296875,0.0,5162.55712890625,-0.0,-5869.865234375
-2776.78173828125,-3696.28271484375,12205.44140625,-7824.103515625,7535.6162109375,2857.04931640625,3611.246826171875,-5544.02685546875,0.0,-5069.57373046875,-2183.9140625,-11791.388671875,0.0,0.0,0.0,-3496.010986328125,3092.2890625,11970.9970703125,-0.0,-953.67431640625,5957.28564453125,9690.9208984375,7333.75537109375,3113.74658203125,2811.749755859375,-8266.7666015625,-5617.9365234375,7382.23388671875,-666.7772827148438,-2198.21923828125,10325.908203125,-6167.09375,9160.8359375,7845.56103515625,5733.966796875,8262.7939453125,2868.97021484375,-1509.984375,5612.37353515625,-0.0,4663.46728515625,-15009.244140625,2492.268798828125,13000.1708984375,2702.8720703125,-7135.0732421875,4550.61572265625,4955.92724609375,4602.2734375,4336.833984375,3217.856201171875,-4353.5234375,-10148.6845703125,-5400.1806640625,2278.487060546875,-4427.43310546875,0.0,-6128.94677734375,0.0,-6908.57568359375,-10473.728515625,3950.595947265625,-10101.794921875,0.0,-13259.251953125,-1728.53466796875,0.0,-6731.3515625,0.0,5162.55712890625,-0.0,-5880.99169921875
-2777.576416015625,-3683.567138671875,12203.0576171875,-7832.05029296875,7526.87451171875,2851.486328125,3611.246826171875,-5538.46337890625,0.0,-5060.83154296875,-2178.35107421875,-11742.115234375,0.0,0.0,0.0,-3483.29541015625,3089.110107421875,11968.6123046875,-0.0,-945.72705078125,5953.31201171875,9686.15234375,7334.55029296875,3113.74658203125,2817.31298828125,-8279.482421875,-5621.91015625,7390.18115234375,-661.2141723632812,-2220.4716796875,10324.3193359375,-6165.50439453125,9157.6572265625,7841.5869140625,5732.37744140625,8258.8193359375,2869.76513671875,-1506.0106201171875,5609.9892578125,-0.0,4657.10986328125,-15032.291015625,2490.679443359375,13003.349609375,2702.8720703125,-7128.71533203125,4549.0263671875,4954.337890625,4596.7099609375,4340.8076171875,3219.445556640625,-4345.57568359375,-10159.810546875,-5387.46484375,2284.050048828125,-4405.1806640625,0.0,-6115.4365234375,0.0,-6896.65478515625,-10453.8603515625,3949.006591796875,-10096.232421875,0.0,-13250.509765625,-1698.3350830078125,0.0,-6722.60888671875,0.0,5179.24658203125,-0.0,-5861.12353515625
-2782.3447265625,-3683.567138671875,12193.5205078125,-7820.923828125,7532.43798828125,2850.691650390625,3610.451904296875,-5541.642578125,0.0,-5066.39501953125,-2170.40380859375,-11748.4736328125,0.0,0.0,0.0,-3488.063720703125,3089.110107421875,11967.818359375,-0.0,-949.70068359375,5950.1328125,9688.537109375,7333.75537109375,3112.1572265625,2809.365478515625,-8254.05078125,-5616.3466796875,7388.591796875,-669.9561767578125,-2160.072265625,10325.1142578125,-6163.1201171875,9153.68359375,7845.56103515625,5732.37744140625,8258.025390625,2868.97021484375,-1506.805419921875,5608.39990234375,-0.0,4652.34130859375,-15041.0341796875,2492.268798828125,13000.1708984375,2702.8720703125,-7131.89453125,4529.158203125,4984.53759765625,4604.65771484375,4342.39697265625,3216.2666015625,-4347.9599609375,-10170.9365234375,-5377.92822265625,2273.718505859375,-4395.6435546875,0.0,-6119.41015625,0.0,-6902.2177734375,-10452.2705078125,3950.595947265625,-10097.8212890625,0.0,-13264.8154296875,-1690.3876953125,0.0,-6737.708984375,0.0,5168.9150390625,-0.0,-5865.09716796875
-2784.72900390625,-3685.951171875,12207.8251953125,-7824.89794921875,7538.79541015625,2845.12841796875,3612.04150390625,-5545.6162109375,0.0,-5067.189453125,-2186.29833984375,-11742.9091796875,0.0,0.0,0.0,-3491.24267578125,3090.699462890625,11968.6123046875,-0.0,-951.2901611328125,5956.4912109375,9686.15234375,7334.55029296875,3110.56787109375,2813.33935546875,-8277.0986328125,-5613.16845703125,7383.0283203125,-669.9561767578125,-2151.330322265625,10325.908203125,-6162.3251953125,9161.6318359375,7843.1767578125,5734.76171875,8255.640625,2868.97021484375,-1509.984375,5615.55224609375,-0.0,4662.67236328125,-15048.1865234375,2493.8583984375,12994.607421875,2702.0771484375,-7138.25244140625,4553.0,4971.02734375,4611.01513671875,4330.47607421875,3214.677001953125,-4352.728515625,-10186.0361328125,-5382.69677734375,2275.307861328125,-4394.84912109375,0.0,-6127.357421875,0.0,-6903.80712890625,-10470.5498046875,3949.801025390625,-10099.4111328125,0.0,-13268.7880859375,-1687.208740234375,0.0,-6744.06689453125,0.0,5163.3515625,-0.0,-5871.45458984375
-2780.75537109375,-3669.261962890625,12216.568359375,-7816.1552734375,7545.9482421875,2851.486328125,3612.836181640625,-5545.6162109375,0.0,-5068.77880859375,-2204.5771484375,-11746.8837890625,0.0,0.0,0.0,-3492.03759765625,3098.64697265625,11975.765625,-0.0,-948.9059448242188,5966.02783203125,9694.099609375,7339.31884765625,3118.51513671875,2808.57080078125,-8267.5615234375,-5610.7841796875,7388.591796875,-673.9298706054688,-2135.435791015625,10333.0615234375,-6155.1728515625,9171.962890625,7851.1240234375,5741.119140625,8262.7939453125,2872.149169921875,-1506.0106201171875,5625.8837890625,-0.0,4670.6201171875,-15037.8544921875,2496.242431640625,13000.96484375,2704.46142578125,-7135.8681640625,4570.484375,4981.35888671875,4617.373046875,4341.6025390625,3218.65087890625,-4351.13916015625,-10159.015625,-5365.212890625,2268.9501953125,-4385.3125,0.0,-6127.357421875,0.0,-6905.39697265625,-10476.9072265625,3953.77490234375,-10099.4111328125,0.0,-13279.1201171875,-1695.9508056640625,0.0,-6748.04052734375,0.0,5160.1728515625,-0.0,-5874.6337890625
-2799.0341796875,-3680.38818359375,12206.2373046875,-7826.4873046875,7544.35888671875,2846.7177734375,3612.04150390625,-5550.384765625,0.0,-5071.9580078125,-2196.6298828125,-11779.4677734375,0.0,0.0,0.0,-3498.395263671875,3089.90478515625,11968.6123046875,-0.0,-952.0848388671875,5958.875,9686.15234375,7334.55029296875,3109.77294921875,2812.544677734375,-8267.5615234375,-5610.7841796875,7380.64453125,-665.1878662109375,-2179.145751953125,10324.3193359375,-6165.50439453125,9162.42578125,7841.5869140625,5733.966796875,8258.025390625,2871.354248046875,-1511.57373046875,5622.705078125,-0.0,4664.26220703125,-15042.623046875,2494.653076171875,12994.607421875,2705.256103515625,-7139.841796875,4561.7421875,4965.46435546875,4618.962890625,4336.0390625,3220.240234375,-4356.7021484375,-10129.611328125,-5394.61767578125,2276.102783203125,-4410.74365234375,0.0,-6136.09912109375,0.0,-6908.57568359375,-10484.8544921875,3949.801025390625,-10102.58984375,0.0,-13260.046875,-1713.434814453125,0.0,-6744.86181640625,0.0,5151.4306640625,-0.0,-5870.66015625
-2812.544677734375,-3692.30908203125,12207.8251953125,-7819.3349609375,7553.8955078125,2856.254638671875,3613.631103515625,-5544.02685546875,0.0,-5070.3681640625,-2187.887939453125,-11817.6142578125,0.0,0.0,0.0,-3494.421630859375,3096.2626953125,11972.5869140625,-0.0,-949.70068359375,5963.6435546875,9692.509765625,7338.52392578125,3114.541259765625,2808.57080078125,-8245.30859375,-5604.42578125,7385.41259765625,-673.1351318359375,-2156.8935546875,10329.8828125,-6157.55712890625,9167.9892578125,7848.73974609375,5738.7353515625,8265.177734375,2873.738525390625,-1506.805419921875,5636.21533203125,-0.0,4667.44091796875,-15030.701171875,2501.010986328125,13000.96484375,2706.05078125,-7137.45751953125,4564.9208984375,4978.974609375,4633.26806640625,4345.57568359375,3221.82958984375,-4353.5234375,-10143.916015625,-5391.43896484375,2270.53955078125,-4382.13330078125,0.0,-6135.3046875,0.0,-6907.78125,-10490.41796875,3954.5693359375,-10099.4111328125,0.0,-13256.8671875,-1722.9715576171875,0.0,-6740.88818359375,0.0,5157.78857421875,-0.0,-5876.22314453125
-2797.444580078125,-3684.36181640625,12216.568359375,-7820.12939453125,7561.0478515625,2853.870361328125,3613.631103515625,-5548.00048828125,0.0,-5076.7265625,-2193.450927734375,-11783.4404296875,0.0,0.0,0.0,-3498.395263671875,3101.82568359375,11975.765625,-0.0,-953.67431640625,5967.6171875,9695.689453125,7342.49755859375,3116.130859375,2793.47119140625,-8263.587890625,-5604.42578125,7383.8232421875,-687.4402465820312,-2137.820068359375,10335.4453125,-6148.81494140625,9175.9365234375,7852.71337890625,5744.29833984375,8263.587890625,2872.94384765625,-1506.0106201171875,5640.1884765625,-0.0,4672.20947265625,-15034.67578125,2501.8056640625,12997.7861328125,2705.256103515625,-7140.63623046875,4570.484375,4980.56396484375,4640.42041015625,4340.8076171875,3219.445556640625,-4355.11279296875,-10153.453125,-5374.74951171875,2255.439697265625,-4374.18603515625,0.0,-6134.51025390625,0.0,-6914.138671875,-10487.2392578125,3955.3642578125,-10100.205078125,0.0,-13271.9677734375,-1706.2822265625,0.0,-6740.88818359375,0.0,5159.3779296875,-0.0,-5889.73388671875
-2772.013427734375,-3659.72509765625,12221.3359375,-7819.3349609375,7546.74267578125,2852.28076171875,3612.04150390625,-5542.43701171875,0.0,-5069.57373046875,-2168.814453125,-11721.4521484375,0.0,0.0,0.0,-3492.03759765625,3103.415283203125,11977.35546875,-0.0,-951.2901611328125,5968.412109375,9696.4833984375,7340.908203125,3118.51513671875,2815.723388671875,-8280.27734375,-5611.57861328125,7387.00244140625,-664.3931274414062,-2152.919677734375,10337.03515625,-6144.841796875,9177.525390625,7853.5078125,5742.70849609375,8264.3828125,2870.5595703125,-1504.4212646484375,5644.95703125,-0.0,4676.18310546875,-15036.265625,2496.242431640625,13001.759765625,2704.46142578125,-7135.8681640625,4571.27880859375,4978.1796875,4624.525390625,4338.42333984375,3217.856201171875,-4350.34423828125,-10138.3525390625,-5344.5498046875,2278.487060546875,-4392.46533203125,0.0,-6124.97314453125,0.0,-6904.60205078125,-10450.6806640625,3956.1591796875,-10098.6162109375,0.0,-13206.0048828125,-1680.0562744140625,0.0,-6733.7353515625,0.0,5167.32568359375,-0.0,-5889.73388671875
-2774.397705078125,-3661.314697265625,12230.0791015625,-7815.36083984375,7578.53173828125,2860.228271484375,3616.01513671875,-5540.052734375,0.0,-5067.189453125,-2176.76171875,-11745.2939453125,0.0,0.0,0.0,-3490.447998046875,3106.593994140625,11986.0966796875,-0.0,-949.70068359375,5981.12744140625,9702.841796875,7350.44482421875,3124.078125,2833.207275390625,-8261.2041015625,-5588.53125,7394.15478515625,-651.6774291992188,-2144.97265625,10342.59765625,-6148.0205078125,9183.0888671875,7857.48193359375,5753.8349609375,8271.53515625,2875.328125,-1502.037109375,5644.16259765625,-0.0,4698.435546875,-15025.93359375,2511.34228515625,13007.3232421875,2708.43505859375,-7131.89453125,4582.4052734375,4982.1533203125,4661.0830078125,4349.5498046875,3222.62451171875,-4345.57568359375,-10152.6572265625,-5353.2919921875,2295.970947265625,-4378.16015625,0.0,-6119.41015625,0.0,-6900.62841796875,-10449.88671875,3963.311767578125,-10094.642578125,0.0,-13277.5302734375,-1683.235107421875,0.0,-6752.01416015625,0.0,5167.32568359375,-0.0,-5884.96533203125
-2767.2451171875,-3658.930419921875,12221.3359375,-7811.3876953125,7562.63720703125,2864.201904296875,3616.01513671875,-5535.28466796875,0.0,-5060.83154296875,-2161.661865234375,-11739.73046875,0.0,0.0,0.0,-3481.705810546875,3107.388671875,11985.3017578125,-0.0,-945.72705078125,5973.974609375,9704.4306640625,7347.265625,3127.257080078125,2813.33935546875,-8252.4619140625,-5598.068359375,7400.5126953125,-667.572021484375,-2144.97265625,10341.0078125,-6148.81494140625,9179.91015625,7859.8662109375,5751.451171875,8273.125,2875.328125,-1498.858154296875,5647.34130859375,-0.0,4682.541015625,-15022.7548828125,2506.573974609375,13010.501953125,2708.43505859375,-7126.33154296875,4572.8681640625,4988.51171875,4638.0361328125,4354.318359375,3221.034912109375,-4340.01318359375,-10149.478515625,-5359.6494140625,2277.692138671875,-4371.8017578125,0.0,-6112.25732421875,0.0,-6894.2705078125,-10450.6806640625,3963.311767578125,-10093.8486328125,0.0,-13291.041015625,-1670.51953125,0.0,-6728.96728515625,0.0,5179.24658203125,-0.0,-5869.0703125
-2779.960693359375,-3662.904052734375,12195.904296875,-7809.00341796875,7526.07958984375,2862.612548828125,3610.451904296875,-5536.87451171875,0.0,-5059.2421875,-2162.45654296875,-11746.8837890625,0.0,0.0,0.0,-3479.32177734375,3097.85205078125,11974.17578125,-0.0,-947.3164672851562,5957.28564453125,9698.8681640625,7333.75537109375,3120.899169921875,2818.90234375,-8250.0771484375,-5624.29443359375,7396.5390625,-660.41943359375,-2136.23046875,10331.4716796875,-6155.1728515625,9164.015625,7855.09765625,5737.14599609375,8266.7666015625,2869.76513671875,-1502.831787109375,5625.8837890625,-0.0,4654.7255859375,-15021.1650390625,2488.29541015625,13008.1171875,2702.0771484375,-7127.92041015625,4535.51611328125,4998.8427734375,4606.2470703125,4352.728515625,3216.2666015625,-4342.39697265625,-10155.0419921875,-5354.88134765625,2284.8447265625,-4371.00732421875,0.0,-6117.02587890625,0.0,-6891.091796875,-10455.44921875,3955.3642578125,-10095.4375,0.0,-13265.609375,-1680.8509521484375,0.0,-6705.919921875,0.0,5184.80908203125,-0.0,-5865.89208984375
-2784.72900390625,-3671.64599609375,12206.2373046875,-7809.7978515625,7530.84814453125,2861.817626953125,3609.6572265625,-5543.23193359375,0.0,-5065.60009765625,-2171.198486328125,-11777.0830078125,0.0,0.0,0.0,-3488.8583984375,3097.057373046875,11974.17578125,-0.0,-952.0848388671875,5959.66943359375,9698.8681640625,7331.37109375,3118.51513671875,2810.955078125,-8242.1298828125,-5628.267578125,7391.77099609375,-669.9561767578125,-2129.87255859375,10331.4716796875,-6156.7626953125,9166.400390625,7853.5078125,5734.76171875,8265.177734375,2867.380859375,-1507.6002197265625,5623.49951171875,-0.0,4665.8515625,-15016.396484375,2486.705810546875,13004.1435546875,2701.282470703125,-7132.68896484375,4548.2314453125,5002.02197265625,4614.1943359375,4350.34423828125,3216.2666015625,-4350.34423828125,-10150.2734375,-5364.41796875,2276.102783203125,-4360.67578125,0.0,-6122.5888671875,0.0,-6899.03857421875,-10462.6015625,3952.18505859375,-10100.205078125,0.0,-13267.19921875,-1699.1297607421875,0.0,-6722.60888671875,0.0,5169.70947265625,-0.0,-5875.4287109375
-2787.907958984375,-3679.59326171875,12211.0048828125,-7812.97705078125,7549.126953125,2854.6650390625,3611.246826171875,-5546.4111328125,0.0,-5066.39501953125,-2173.582763671875,-11736.5517578125,0.0,0.0,0.0,-3491.24267578125,3097.057373046875,11974.17578125,-0.0,-953.67431640625,5968.412109375,9696.4833984375,7333.75537109375,3115.336181640625,2792.67626953125,-8258.8193359375,-5621.115234375,7386.20751953125,-687.4402465820312,-2210.934814453125,10332.2666015625,-6156.7626953125,9167.9892578125,7849.5341796875,5741.119140625,8263.587890625,2868.97021484375,-1509.984375,5631.44677734375,-0.0,4692.07763671875,-15021.9599609375,2492.268798828125,13000.1708984375,2702.0771484375,-7134.27880859375,4551.41064453125,5007.5849609375,4628.49951171875,4340.8076171875,3217.061279296875,-4352.728515625,-10153.453125,-5393.0283203125,2257.823974609375,-4401.20703125,0.0,-6127.357421875,0.0,-6900.62841796875,-10470.5498046875,3951.390625,-10102.58984375,0.0,-13289.451171875,-1691.9771728515625,0.0,-6731.3515625,0.0,5164.94140625,-0.0,-5872.24951171875
-2800.62353515625,-3672.440673828125,12224.5146484375,-7792.31396484375,7561.84228515625,2854.6650390625,3611.246826171875,-5548.79541015625,0.0,-5072.75244140625,-2170.40380859375,-11746.8837890625,0.0,0.0,0.0,-3498.395263671875,3107.388671875,11978.943359375,-0.0,-956.0584716796875,5980.3330078125,9704.4306640625,7337.72900390625,3117.720458984375,2802.212890625,-8247.693359375,-5613.962890625,7382.23388671875,-680.2876586914062,-2222.06103515625,10338.6240234375,-6148.81494140625,9182.2939453125,7862.25048828125,5748.27197265625,8268.3564453125,2868.97021484375,-1510.779052734375,5641.7783203125,-0.0,4718.3037109375,-15009.244140625,2496.242431640625,12998.5810546875,2701.282470703125,-7138.25244140625,4566.5107421875,5052.884765625,4638.83056640625,4340.8076171875,3217.061279296875,-4356.7021484375,-10155.8369140625,-5369.9814453125,2266.56591796875,-4437.7646484375,0.0,-6133.71533203125,0.0,-6906.986328125,-10469.75390625,3955.3642578125,-10104.9736328125,0.0,-13293.42578125,-1711.0506591796875,0.0,-6744.86181640625,0.0,5160.96728515625,-0.0,-5872.24951171875
-2803.802490234375,-3663.698974609375,12200.6728515625,-7767.67724609375,7530.84814453125,2879.3017578125,3611.246826171875,-5535.28466796875,0.0,-5062.42138671875,-2191.066650390625,-11784.236328125,0.0,0.0,0.0,-3484.090087890625,3113.74658203125,11982.123046875,-0.0,-951.2901611328125,5964.43798828125,9717.146484375,7335.3447265625,3128.846435546875,2804.59716796875,-8187.2939453125,-5619.52587890625,7405.28125,-673.1351318359375,-2117.95166015625,10344.1875,-6136.09912109375,9173.552734375,7877.349609375,5740.32470703125,8281.8671875,2868.175537109375,-1500.4476318359375,5640.1884765625,-0.0,4669.8251953125,-14974.2763671875,2491.47412109375,13016.064453125,2703.666748046875,-7127.1259765625,4544.25830078125,5072.75244140625,4617.373046875,4373.3916015625,3217.856201171875,-4340.8076171875,-10151.86328125,-5343.75537109375,2269.744873046875,-4362.26513671875,0.0,-6114.6416015625,0.0,-6899.03857421875,-10455.44921875,3960.927490234375,-10099.4111328125,0.0,-13224.2841796875,-1702.30859375,0.0,-6734.52978515625,0.0,5172.09375,-0.0,-5866.6865234375
-2823.670654296875,-3681.9775390625,12209.4150390625,-7826.4873046875,7535.6162109375,2861.817626953125,3612.04150390625,-5536.87451171875,0.0,-5056.06298828125,-2170.40380859375,-11733.373046875,0.0,0.0,0.0,-3478.527099609375,3099.44140625,11976.5595703125,-0.0,-947.3164672851562,5954.9013671875,9694.099609375,7335.3447265625,3122.48876953125,2825.26025390625,-8246.8984375,-5611.57861328125,7397.33349609375,-653.2669067382812,-2106.82568359375,10330.6767578125,-6143.251953125,9167.1943359375,7849.5341796875,5734.76171875,8270.740234375,2871.354248046875,-1500.4476318359375,5643.36767578125,-0.0,4638.0361328125,-15014.8076171875,2494.653076171875,13009.70703125,2703.666748046875,-7122.35791015625,4570.484375,4925.72802734375,4629.2939453125,4355.9072265625,3219.445556640625,-4340.01318359375,-10148.6845703125,-5351.7021484375,2289.613037109375,-4363.06005859375,0.0,-6109.0791015625,0.0,-6891.091796875,-10471.34375,3958.543212890625,-10097.0263671875,0.0,-13255.2783203125,-1669.724853515625,0.0,-6724.19873046875,0.0,5180.8359375,-0.0,-5857.1494140625
-2832.41259765625,-3685.156494140625,12202.2626953125,-7834.4345703125,7559.45849609375,2846.7177734375,3613.631103515625,-5542.43701171875,0.0,-5058.447265625,-2219.677001953125,-11728.6044921875,0.0,0.0,0.0,-3485.6796875,3091.494384765625,11973.380859375,-0.0,-948.9059448242188,5958.875,9685.357421875,7336.9345703125,3116.130859375,2794.265625,-8289.01953125,-5606.015625,7383.0283203125,-685.8507690429688,-2150.53564453125,10324.3193359375,-6159.14697265625,9164.810546875,7841.5869140625,5738.7353515625,8264.3828125,2870.5595703125,-1509.1895751953125,5637.01025390625,-0.0,4660.28857421875,-15026.728515625,2499.42138671875,12998.5810546875,2703.666748046875,-7126.33154296875,4545.84765625,4933.67529296875,4648.3671875,4334.44970703125,3219.445556640625,-4347.9599609375,-10158.2216796875,-5360.4443359375,2258.61865234375,-4387.69677734375,0.0,-6121.79443359375,0.0,-6891.091796875,-10474.5224609375,3955.3642578125,-10099.4111328125,0.0,-13271.9677734375,-1666.5458984375,0.0,-6723.40380859375,0.0,5172.09375,-0.0,-5858.7392578125
-2782.3447265625,-3671.64599609375,12194.3154296875,-7811.3876953125,7534.02734375,2872.149169921875,3613.631103515625,-5528.9267578125,0.0,-5052.884765625,-2228.4189453125,-11781.056640625,0.0,0.0,0.0,-3474.553466796875,3095.4677734375,11976.5595703125,-0.0,-943.3428344726562,5953.31201171875,9698.8681640625,7334.55029296875,3127.257080078125,2806.186767578125,-8235.7724609375,-5621.91015625,7403.69189453125,-673.9298706054688,-2133.84619140625,10329.0869140625,-6156.7626953125,9159.2470703125,7852.71337890625,5733.966796875,8277.892578125,2870.5595703125,-1499.65283203125,5625.8837890625,-0.0,4644.39404296875,-14992.5546875,2492.268798828125,13013.6806640625,2705.256103515625,-7119.9736328125,4549.0263671875,4975.0009765625,4622.1416015625,4370.21240234375,3219.445556640625,-4336.0390625,-10162.1943359375,-5366.00732421875,2271.33447265625,-4382.13330078125,0.0,-6106.69482421875,0.0,-6883.14453125,-10444.3232421875,3957.74853515625,-10093.8486328125,0.0,-13265.609375,-1683.235107421875,0.0,-6712.27783203125,0.0,5178.45166015625,-0.0,-5855.560546875
-2750.5556640625,-3649.393798828125,12214.978515625,-7785.16162109375,7513.3642578125,2888.838623046875,3612.836181640625,-5521.7744140625,0.0,-5048.1162109375,-2195.835205078125,-11788.208984375,0.0,0.0,0.0,-3470.579833984375,3107.388671875,11982.91796875,-0.0,-941.75341796875,5959.66943359375,9713.1728515625,7335.3447265625,3134.40966796875,2838.7705078125,-8205.5732421875,-5626.6787109375,7414.81787109375,-643.7301635742188,-2077.42041015625,10341.0078125,-6143.251953125,9171.962890625,7869.40283203125,5735.55615234375,8287.4296875,2871.354248046875,-1491.70556640625,5639.39404296875,-0.0,4649.162109375,-14972.6865234375,2490.679443359375,13027.9853515625,2704.46142578125,-7112.0263671875,4576.841796875,5018.7109375,4614.98876953125,4386.90185546875,3218.65087890625,-4330.47607421875,-10150.2734375,-5337.39697265625,2302.328857421875,-4369.41748046875,0.0,-6100.33642578125,0.0,-6879.1708984375,-10442.7333984375,3962.516845703125,-10089.8740234375,0.0,-13248.9208984375,-1709.461181640625,0.0,-6705.12548828125,0.0,5187.193359375,-0.0,-5850.7919921875
-2748.96630859375,-3643.83056640625,12220.5419921875,-7811.3876953125,7537.2060546875,2857.843994140625,3612.836181640625,-5535.28466796875,0.0,-5049.70556640625,-2183.9140625,-11708.736328125,0.0,0.0,0.0,-3478.527099609375,3102.620361328125,11979.7392578125,-0.0,-944.1375732421875,5966.822265625,9701.251953125,7336.1396484375,3120.1044921875,2828.43896484375,-8256.435546875,-5616.3466796875,7390.18115234375,-654.0616455078125,-2144.97265625,10337.03515625,-6144.046875,9175.9365234375,7855.89208984375,5740.32470703125,8269.150390625,2872.149169921875,-1501.2423095703125,5636.21533203125,-0.0,4667.44091796875,-15013.2177734375,2495.44775390625,13007.3232421875,2705.256103515625,-7119.9736328125,4582.4052734375,4977.38525390625,4632.47314453125,4340.01318359375,3218.65087890625,-4341.6025390625,-10134.37890625,-5341.37109375,2291.997314453125,-4353.5234375,0.0,-6109.0791015625,0.0,-6883.939453125,-10440.349609375,3958.543212890625,-10092.2587890625,0.0,-13252.89453125,-1668.9300537109375,0.0,-6705.919921875,0.0,5186.39892578125,-0.0,-5853.97119140625
-2759.297607421875,-3666.0830078125,12218.158203125,-7820.12939453125,7539.59033203125,2847.512451171875,3612.836181640625,-5541.642578125,0.0,-5056.85791015625,-2172.787841796875,-11708.736328125,0.0,0.0,0.0,-3482.500732421875,3100.236083984375,11975.765625,-0.0,-947.3164672851562,5966.02783203125,9694.099609375,7336.1396484375,3114.541259765625,2829.23388671875,-8268.3564453125,-5611.57861328125,7384.6181640625,-653.2669067382812,-2164.046142578125,10333.0615234375,-6147.22607421875,9172.7568359375,7848.73974609375,5738.7353515625,8261.998046875,2870.5595703125,-1503.62646484375,5635.42041015625,-0.0,4668.23583984375,-15030.701171875,2496.242431640625,12999.375,2703.666748046875,-7127.1259765625,4573.6630859375,4967.0537109375,4636.4462890625,4328.88671875,3217.061279296875,-4346.37060546875,-10156.6318359375,-5351.7021484375,2291.997314453125,-4359.880859375,0.0,-6116.2314453125,0.0,-6889.501953125,-10460.2177734375,3955.3642578125,-10097.0263671875,0.0,-13279.1201171875,-1668.13525390625,0.0,-6714.662109375,0.0,5177.65673828125,-0.0,-5871.45458984375
-2783.934326171875,-3674.0302734375,12195.904296875,-7816.95068359375,7524.490234375,2853.870361328125,3611.246826171875,-5540.052734375,0.0,-5056.85791015625,-2165.63525390625,-11740.525390625,0.0,0.0,0.0,-3476.142822265625,3095.4677734375,11971.791015625,-0.0,-945.72705078125,5953.31201171875,9695.689453125,7332.166015625,3115.336181640625,2809.365478515625,-8259.6142578125,-5620.32080078125,7395.744140625,-670.7509155273438,-2151.330322265625,10329.0869140625,-6151.19921875,9161.6318359375,7847.9453125,5732.37744140625,8263.587890625,2870.5595703125,-1502.037109375,5629.857421875,-0.0,4648.3671875,-15029.9072265625,2489.884521484375,13005.7333984375,2703.666748046875,-7125.53662109375,4534.72119140625,4978.974609375,4622.93603515625,4349.5498046875,3220.240234375,-4342.39697265625,-10168.552734375,-5354.88134765625,2273.718505859375,-4367.828125,0.0,-6115.4365234375,0.0,-6890.296875,-10465.78125,3953.77490234375,-10097.0263671875,0.0,-13256.0732421875,-1657.0091552734375,0.0,-6714.662109375,0.0,5177.65673828125,-0.0,-5853.17626953125
-2795.060302734375,-3674.824951171875,12198.2890625,-7817.7451171875,7526.07958984375,2853.07568359375,3612.836181640625,-5540.84765625,0.0,-5056.06298828125,-2164.046142578125,-11747.677734375,0.0,0.0,0.0,-3479.32177734375,3093.083740234375,11970.9970703125,-0.0,-944.1375732421875,5954.10693359375,9693.3046875,7332.96044921875,3115.336181640625,2806.186767578125,-8256.435546875,-5619.52587890625,7392.5654296875,-677.1087646484375,-2147.356689453125,10326.703125,-6157.55712890625,9160.8359375,7844.765625,5731.58251953125,8261.2041015625,2872.94384765625,-1502.831787109375,5627.47314453125,-0.0,4650.75146484375,-15031.4970703125,2492.268798828125,13004.939453125,2705.256103515625,-7128.71533203125,4548.2314453125,4982.9482421875,4624.525390625,4346.37060546875,3221.034912109375,-4341.6025390625,-10181.267578125,-5357.265625,2268.1552734375,-4377.365234375,0.0,-6121.79443359375,0.0,-6891.091796875,-10449.091796875,3952.97998046875,-10093.8486328125,0.0,-13262.4306640625,-1658.5985107421875,0.0,-6724.9931640625,0.0,5173.68310546875,-0.0,-5852.38134765625
-2766.4501953125,-3660.519775390625,12219.7470703125,-7810.5927734375,7539.59033203125,2860.228271484375,3614.42578125,-5539.25830078125,0.0,-5055.2685546875,-2188.6826171875,-11726.2197265625,0.0,0.0,0.0,-3480.9111328125,3101.82568359375,11979.7392578125,-0.0,-940.9586791992188,5967.6171875,9701.251953125,7339.31884765625,3120.1044921875,2818.107666015625,-8251.6669921875,-5614.75732421875,7394.15478515625,-663.598388671875,-2140.998779296875,10337.03515625,-6151.19921875,9175.9365234375,7850.32958984375,5740.32470703125,8265.9716796875,2874.533447265625,-1499.65283203125,5634.6259765625,-0.0,4671.4150390625,-15029.11328125,2497.037109375,13009.70703125,2707.640380859375,-7127.1259765625,4580.02099609375,4992.48486328125,4637.2412109375,4347.9599609375,3222.62451171875,-4340.8076171875,-10162.1943359375,-5348.5234375,2280.87109375,-4380.5439453125,0.0,-6124.17822265625,0.0,-6891.091796875,-10430.0185546875,3959.337646484375,-10091.4638671875,0.0,-13260.841796875,-1689.593017578125,0.0,-6744.06689453125,0.0,5176.8623046875,-0.0,-5863.5078125
-2750.5556640625,-3657.341064453125,12203.0576171875,-7812.18212890625,7534.82177734375,2859.433349609375,3612.836181640625,-5538.46337890625,0.0,-5056.06298828125,-2197.424560546875,-11730.1943359375,0.0,0.0,0.0,-3477.732421875,3101.82568359375,11975.765625,-0.0,-943.3428344726562,5960.46435546875,9698.0732421875,7336.1396484375,3118.51513671875,2814.9287109375,-8256.435546875,-5621.115234375,7397.33349609375,-665.1878662109375,-2148.1513671875,10334.6513671875,-6147.22607421875,9167.9892578125,7850.32958984375,5735.55615234375,8263.587890625,2872.149169921875,-1499.65283203125,5626.6787109375,-0.0,4661.0830078125,-15033.0859375,2493.063720703125,13008.1171875,2706.05078125,-7126.33154296875,4550.61572265625,4990.8955078125,4630.8837890625,4351.13916015625,3221.82958984375,-4340.01318359375,-10139.9423828125,-5350.11279296875,2279.28173828125,-4374.98095703125,0.0,-6121.0,0.0,-6887.91259765625,-10454.654296875,3956.1591796875,-10092.2587890625,0.0,-13259.251953125,-1688.79833984375,0.0,-6727.37744140625,0.0,5182.4248046875,-0.0,-5865.09716796875
-2755.32421875,-3665.288330078125,12191.931640625,-7818.53955078125,7530.84814453125,2851.486328125,3611.246826171875,-5544.02685546875,0.0,-5056.85791015625,-2190.27197265625,-11742.9091796875,0.0,0.0,0.0,-3480.11669921875,3093.083740234375,11969.4072265625,-0.0,-947.3164672851562,5952.51708984375,9690.125,7328.9873046875,3112.1572265625,2803.0078125,-8262.7939453125,-5620.32080078125,7390.18115234375,-674.724609375,-2144.177734375,10326.703125,-6153.58349609375,9158.4521484375,7843.97119140625,5730.78759765625,8258.025390625,2869.76513671875,-1505.2159423828125,5619.52587890625,-0.0,4652.34130859375,-15039.4443359375,2490.679443359375,13001.759765625,2702.8720703125,-7131.099609375,4537.10546875,4989.30615234375,4624.525390625,4344.78125,3219.445556640625,-4345.57568359375,-10133.583984375,-5354.08642578125,2268.9501953125,-4391.67041015625,0.0,-6142.45751953125,0.0,-6885.5283203125,-10480.0859375,3949.006591796875,-10097.0263671875,0.0,-13264.01953125,-1689.593017578125,0.0,-6709.0986328125,0.0,5187.193359375,-0.0,-5864.30224609375
-2774.397705078125,-3674.824951171875,12180.8056640625,-7828.076171875,7535.6162109375,2852.28076171875,3612.836181640625,-5543.23193359375,0.0,-5056.06298828125,-2201.398193359375,-11752.4462890625,0.0,0.0,0.0,-3478.527099609375,3084.341796875,11967.818359375,-0.0,-944.1375732421875,5950.1328125,9685.357421875,7328.9873046875,3112.951904296875,2775.1923828125,-8265.177734375,-5622.705078125,7396.5390625,-704.1295166015625,-2154.50927734375,10320.345703125,-6165.50439453125,9149.7109375,7837.61328125,5730.78759765625,8254.845703125,2869.76513671875,-1507.6002197265625,5606.81005859375,-0.0,4647.57275390625,-15045.0068359375,2490.679443359375,13005.7333984375,2702.0771484375,-7133.48388671875,4519.62158203125,4978.974609375,4622.1416015625,4351.93408203125,3217.856201171875,-4343.19140625,-10135.9677734375,-5377.1337890625,2241.92919921875,-4398.82275390625,0.0,-6151.994140625,0.0,-6891.88623046875,-10462.6015625,3949.006591796875,-10097.8212890625,0.0,-13279.9150390625,-1701.513916015625,0.0,-6725.7880859375,0.0,5175.2724609375,-0.0,-5855.560546875
-2771.218505859375,-3673.235595703125,12191.931640625,-7827.28173828125,7540.384765625,2858.638671875,3611.246826171875,-5538.46337890625,0.0,-5056.06298828125,-2186.29833984375,-11758.009765625,0.0,0.0,0.0,-3468.990234375,3091.494384765625,11974.17578125,-0.0,-942.548095703125,5958.080078125,9691.71484375,7335.3447265625,3118.51513671875,2785.523681640625,-8267.5615234375,-5621.115234375,7407.6650390625,-696.9769897460938,-2156.8935546875,10329.0869140625,-6164.70947265625,9156.86328125,7841.5869140625,5736.35107421875,8260.4091796875,2871.354248046875,-1502.037109375,5617.1416015625,-0.0,4646.7783203125,-15044.2119140625,2493.8583984375,13012.091796875,2702.8720703125,-7128.71533203125,4538.69482421875,4978.1796875,4630.0888671875,4359.880859375,3218.65087890625,-4333.65478515625,-10137.5576171875,-5376.3388671875,2248.287109375,-4396.4384765625,0.0,-6124.97314453125,0.0,-6888.70751953125,-10433.197265625,3954.5693359375,-10093.052734375,0.0,-13279.1201171875,-1726.1505126953125,0.0,-6728.96728515625,0.0,5177.65673828125,-0.0,-5862.712890625
-2749.760986328125,-3657.341064453125,12207.03125,-7819.3349609375,7515.74853515625,2848.307373046875,3608.862548828125,-5555.15283203125,0.0,-5067.189453125,-2160.072265625,-11729.3994140625,0.0,0.0,0.0,-3494.421630859375,3095.4677734375,11970.2021484375,-0.0,-948.1112060546875,5953.31201171875,9691.71484375,7328.9873046875,3107.388671875,2814.9287109375,-8272.330078125,-5621.91015625,7378.26025390625,-665.1878662109375,-2136.23046875,10328.29296875,-6157.55712890625,9165.6044921875,7842.38134765625,5726.814453125,8254.05078125,2868.175537109375,-1508.3948974609375,5629.0625,-0.0,4649.95703125,-15052.1591796875,2485.9111328125,12995.40234375,2701.282470703125,-7138.25244140625,4560.947265625,4991.68994140625,4626.115234375,4330.47607421875,3216.2666015625,-4352.728515625,-10134.37890625,-5354.08642578125,2279.28173828125,-4377.365234375,0.0,-6137.68896484375,0.0,-6904.60205078125,-10421.2763671875,3949.006591796875,-10097.8212890625,0.0,-13249.71484375,-1670.51953125,0.0,-6731.3515625,0.0,5177.65673828125,-0.0,-5873.04443359375
-2750.5556640625,-3647.80419921875,12203.8525390625,-7806.619140625,7522.10595703125,2857.04931640625,3610.451904296875,-5547.20556640625,0.0,-5064.0107421875,-2182.32470703125,-11717.478515625,0.0,0.0,0.0,-3489.6533203125,3101.82568359375,11975.765625,-0.0,-948.1112060546875,5959.66943359375,9700.4580078125,7332.166015625,3115.336181640625,2812.544677734375,-8256.435546875,-5618.73095703125,7388.591796875,-666.7772827148438,-2147.356689453125,10334.6513671875,-6149.60986328125,9170.373046875,7851.91845703125,5733.171875,8260.4091796875,2869.76513671875,-1502.831787109375,5624.29443359375,-0.0,4657.904296875,-15042.623046875,2488.29541015625,13003.349609375,2702.8720703125,-7135.0732421875,4548.2314453125,5007.5849609375,4627.70458984375,4343.986328125,3217.061279296875,-4349.5498046875,-10151.86328125,-5339.78125,2277.692138671875,-4364.6494140625,0.0,-6117.82080078125,0.0,-6899.03857421875,-10419.6865234375,3953.77490234375,-10096.232421875,0.0,-13254.4833984375,-1658.5985107421875,0.0,-6720.22509765625,0.0,5186.39892578125,-0.0,-5865.09716796875
-2764.06591796875,-3662.109375,12205.44140625,-7797.08251953125,7528.4638671875,2864.99658203125,3609.6572265625,-5543.23193359375,0.0,-5066.39501953125,-2179.9404296875,-11730.1943359375,0.0,0.0,0.0,-3483.29541015625,3104.2099609375,11978.1494140625,-0.0,-950.4954223632812,5963.6435546875,9705.2255859375,7332.96044921875,3119.3095703125,2810.955078125,-8242.1298828125,-5617.1416015625,7397.33349609375,-669.1614990234375,-2180.7353515625,10336.240234375,-6148.81494140625,9171.16796875,7855.89208984375,5736.35107421875,8265.177734375,2868.175537109375,-1503.62646484375,5627.47314453125,-0.0,4657.10986328125,-15028.3173828125,2489.884521484375,13008.1171875,2702.0771484375,-7136.6630859375,4549.8212890625,5015.5322265625,4630.8837890625,4354.318359375,3217.061279296875,-4344.78125,-10145.5048828125,-5366.80224609375,2274.51318359375,-4375.77587890625,0.0,-6117.82080078125,0.0,-6898.244140625,-10434.787109375,3955.3642578125,-10098.6162109375,0.0,-13252.0986328125,-1664.9564208984375,0.0,-6723.40380859375,0.0,5184.0146484375,-0.0,-5869.0703125
-2764.86083984375,-3658.1357421875,12219.7470703125,-7787.5458984375,7540.384765625,2870.5595703125,3613.631103515625,-5541.642578125,0.0,-5067.189453125,-2160.072265625,-11759.5986328125,0.0,0.0,0.0,-3483.29541015625,3112.951904296875,11986.8916015625,-0.0,-947.3164672851562,5973.18017578125,9713.9677734375,7339.31884765625,3125.66748046875,2810.955078125,-8233.3876953125,-5614.75732421875,7399.7177734375,-669.1614990234375,-2156.8935546875,10344.982421875,-6139.2783203125,9180.705078125,7863.83935546875,5745.0927734375,8273.9189453125,2871.354248046875,-1499.65283203125,5641.7783203125,-0.0,4667.44091796875,-15017.986328125,2493.8583984375,13013.6806640625,2704.46142578125,-7134.27880859375,4572.8681640625,5021.89013671875,4638.83056640625,4360.67578125,3219.445556640625,-4342.39697265625,-10134.37890625,-5357.265625,2275.307861328125,-4375.77587890625,0.0,-6121.0,0.0,-6899.83349609375,-10436.3759765625,3960.927490234375,-10094.642578125,0.0,-13262.4306640625,-1679.2615966796875,0.0,-6731.3515625,0.0,5176.0673828125,-0.0,-5873.8388671875
-2773.602783203125,-3656.54638671875,12209.4150390625,-7813.771484375,7556.27978515625,2856.254638671875,3614.42578125,-5544.8212890625,0.0,-5067.189453125,-2185.503662109375,-11762.7783203125,0.0,0.0,0.0,-3486.474365234375,3104.2099609375,11981.328125,-0.0,-948.1112060546875,5968.412109375,9698.8681640625,7340.908203125,3119.3095703125,2802.212890625,-8271.53515625,-5605.220703125,7390.97607421875,-678.6982421875,-2076.625732421875,10337.830078125,-6146.43115234375,9174.3466796875,7849.5341796875,5745.0927734375,8265.177734375,2875.328125,-1501.2423095703125,5629.857421875,-0.0,4666.646484375,-15046.5966796875,2499.42138671875,13005.7333984375,2705.256103515625,-7135.0732421875,4553.794921875,5000.4326171875,4656.31494140625,4347.9599609375,3220.240234375,-4345.57568359375,-10158.2216796875,-5336.6025390625,2264.9765625,-4358.29150390625,0.0,-6125.76806640625,0.0,-6899.83349609375,-10444.3232421875,3956.95361328125,-10096.232421875,0.0,-13272.7626953125,-1691.1824951171875,0.0,-6729.76171875,0.0,5177.65673828125,-0.0,-5876.22314453125
-2786.318603515625,-3670.8515625,12192.7265625,-7820.12939453125,7534.82177734375,2855.4599609375,3610.451904296875,-5548.00048828125,0.0,-5068.77880859375,-2206.16650390625,-11782.646484375,0.0,0.0,0.0,-3488.8583984375,3091.494384765625,11970.9970703125,-0.0,-952.0848388671875,5954.9013671875,9691.71484375,7330.57666015625,3112.1572265625,2786.318603515625,-8258.025390625,-5612.37353515625,7387.00244140625,-694.5927734375,-2128.283203125,10328.29296875,-6159.94140625,9160.8359375,7839.9970703125,5732.37744140625,8259.6142578125,2870.5595703125,-1508.3948974609375,5620.32080078125,-0.0,4651.54638671875,-15043.41796875,2492.268798828125,13003.349609375,2702.8720703125,-7137.45751953125,4531.54248046875,4991.68994140625,4634.0625,4346.37060546875,3217.856201171875,-4348.7548828125,-10188.419921875,-5373.15966796875,2250.67138671875,-4365.4443359375,0.0,-6128.94677734375,0.0,-6897.44970703125,-10459.4228515625,3950.595947265625,-10101.0009765625,0.0,-13285.4775390625,-1703.1033935546875,0.0,-6729.76171875,0.0,5173.68310546875,-0.0,-5879.40234375
-2768.83447265625,-3654.162109375,12211.7998046875,-7807.41357421875,7521.3115234375,2866.5859375,3614.42578125,-5534.490234375,0.0,-5051.294921875,-2180.7353515625,-11765.162109375,0.0,0.0,0.0,-3468.990234375,3103.415283203125,11978.943359375,-0.0,-940.1639404296875,5962.0537109375,9702.841796875,7334.55029296875,3125.66748046875,2824.465576171875,-8243.7197265625,-5620.32080078125,7403.69189453125,-656.44580078125,-2168.01953125,10338.6240234375,-6148.0205078125,9171.962890625,7852.71337890625,5735.55615234375,8271.53515625,2872.149169921875,-1495.67919921875,5637.01025390625,-0.0,4657.904296875,-15025.138671875,2490.679443359375,13016.064453125,2705.256103515625,-7122.35791015625,4560.15234375,4992.48486328125,4619.75732421875,4360.67578125,3220.240234375,-4335.24462890625,-10162.9892578125,-5376.3388671875,2288.818359375,-4364.6494140625,0.0,-6112.25732421875,0.0,-6879.1708984375,-10441.939453125,3958.543212890625,-10089.8740234375,0.0,-13268.7880859375,-1676.8773193359375,0.0,-6710.68798828125,0.0,5201.49853515625,-0.0,-5853.17626953125
-2755.32421875,-3650.1884765625,12217.3623046875,-7814.56640625,7538.00048828125,2859.433349609375,3613.631103515625,-5538.46337890625,0.0,-5060.83154296875,-2181.530029296875,-11745.2939453125,0.0,0.0,0.0,-3480.11669921875,3104.2099609375,11979.7392578125,-0.0,-946.521728515625,5965.23291015625,9699.662109375,7338.52392578125,3122.48876953125,2810.955078125,-8265.177734375,-5612.37353515625,7397.33349609375,-674.724609375,-2137.820068359375,10337.830078125,-6144.841796875,9175.1416015625,7851.1240234375,5739.5302734375,8268.3564453125,2871.354248046875,-1499.65283203125,5637.8046875,-0.0,4665.056640625,-15031.4970703125,2496.242431640625,13009.70703125,2705.256103515625,-7129.51025390625,4578.431640625,4981.35888671875,4638.83056640625,4351.93408203125,3219.445556640625,-4343.986328125,-10155.0419921875,-5363.623046875,2272.129150390625,-4375.77587890625,0.0,-6122.5888671875,0.0,-6893.47607421875,-10437.1708984375,3958.543212890625,-10094.642578125,0.0,-13300.578125,-1683.235107421875,0.0,-6725.7880859375,0.0,5188.783203125,-0.0,-5864.30224609375
-2752.14501953125,-3657.341064453125,12214.978515625,-7820.12939453125,7528.4638671875,2857.843994140625,3610.451904296875,-5541.642578125,0.0,-5063.2158203125,-2176.76171875,-11717.478515625,0.0,0.0,0.0,-3483.29541015625,3098.64697265625,11974.17578125,-0.0,-948.1112060546875,5959.66943359375,9694.8935546875,7332.166015625,3118.51513671875,2811.749755859375,-8279.482421875,-5628.267578125,7393.3603515625,-673.1351318359375,-2118.74658203125,10330.6767578125,-6149.60986328125,9171.16796875,7843.97119140625,5732.37744140625,8265.177734375,2868.97021484375,-1502.831787109375,5632.24169921875,-0.0,4660.28857421875,-15029.11328125,2488.29541015625,13005.7333984375,2702.8720703125,-7133.48388671875,4567.30517578125,4971.02734375,4634.0625,4350.34423828125,3217.061279296875,-4344.78125,-10159.015625,-5354.88134765625,2274.51318359375,-4378.16015625,0.0,-6129.74169921875,0.0,-6893.47607421875,-10439.5546875,3952.18505859375,-10097.0263671875,0.0,-13298.98828125,-1685.619384765625,0.0,-6718.6357421875,0.0,5187.98828125,-0.0,-5862.712890625
-2740.22412109375,-3650.1884765625,12206.2373046875,-7808.20849609375,7526.07958984375,2866.5859375,3611.246826171875,-5537.6689453125,0.0,-5061.62646484375,-2175.172119140625,-11711.12109375,0.0,0.0,0.0,-3482.500732421875,3100.236083984375,11976.5595703125,-0.0,-944.1375732421875,5959.66943359375,9702.046875,7331.37109375,3120.899169921875,2808.57080078125,-8259.6142578125,-5628.267578125,7397.33349609375,-673.1351318359375,-2165.63525390625,10333.0615234375,-6144.046875,9169.578125,7851.1240234375,5731.58251953125,8269.9462890625,2871.354248046875,-1498.858154296875,5634.6259765625,-0.0,4654.7255859375,-15010.833984375,2489.08984375,13010.501953125,2704.46142578125,-7128.71533203125,4534.72119140625,4983.7431640625,4634.857421875,4354.318359375,3217.856201171875,-4341.6025390625,-10137.5576171875,-5341.37109375,2273.718505859375,-4403.59130859375,0.0,-6126.5625,0.0,-6891.88623046875,-10430.8125,3955.3642578125,-10093.8486328125,0.0,-13257.6630859375,-1682.4404296875,0.0,-6714.662109375,0.0,5187.193359375,-0.0,-5868.27587890625
-2750.5556640625,-3660.519775390625,12194.3154296875,-7812.18212890625,7522.10595703125,2854.6650390625,3611.246826171875,-5544.8212890625,0.0,-5069.57373046875,-2204.5771484375,-11740.525390625,0.0,0.0,0.0,-3492.03759765625,3095.4677734375,11969.4072265625,-0.0,-948.1112060546875,5952.51708984375,9694.8935546875,7329.7822265625,3114.541259765625,2791.881591796875,-8254.845703125,-5624.29443359375,7387.796875,-688.2349853515625,-2132.2568359375,10328.29296875,-6149.60986328125,9163.220703125,7847.9453125,5726.01953125,8261.998046875,2869.76513671875,-1505.2159423828125,5630.65185546875,-0.0,4646.7783203125,-15021.9599609375,2485.9111328125,13001.759765625,2702.8720703125,-7134.27880859375,4538.69482421875,4998.04833984375,4630.8837890625,4344.78125,3217.061279296875,-4349.5498046875,-10131.2001953125,-5340.576171875,2256.234375,-4380.5439453125,0.0,-6130.53662109375,0.0,-6903.0126953125,-10437.9658203125,3950.595947265625,-10100.205078125,0.0,-13264.8154296875,-1681.645751953125,0.0,-6744.06689453125,0.0,5164.146484375,-0.0,-5888.14404296875
-2783.139404296875,-3673.235595703125,12183.9833984375,-7828.076171875,7519.72216796875,2837.18115234375,3608.862548828125,-5554.35791015625,0.0,-5076.7265625,-2201.398193359375,-11746.8837890625,0.0,0.0,0.0,-3498.395263671875,3079.573486328125,11956.69140625,-0.0,-954.4690551757812,5941.39111328125,9678.2041015625,7321.83447265625,3103.415283203125,2788.70263671875,-8258.8193359375,-5623.49951171875,7373.49169921875,-691.4138793945312,-2148.946044921875,10313.9873046875,-6166.29931640625,9148.9150390625,7834.4345703125,5720.45654296875,8246.8984375,2867.380859375,-1516.3421630859375,5619.52587890625,-0.0,4639.62548828125,-15045.8017578125,2484.321533203125,12989.0439453125,2701.282470703125,-7139.841796875,4537.900390625,4981.35888671875,4631.67822265625,4328.88671875,3217.856201171875,-4361.470703125,-10142.326171875,-5348.5234375,2253.0556640625,-4397.2333984375,0.0,-6134.51025390625,0.0,-6910.16552734375,-10451.4765625,3940.26416015625,-10107.3583984375,0.0,-13271.9677734375,-1694.361328125,0.0,-6763.93505859375,0.0,5150.63623046875,-0.0,-5890.5283203125
-2779.960693359375,-3655.75146484375,12185.5732421875,-7818.53955078125,7522.90087890625,2852.28076171875,3611.246826171875,-5538.46337890625,0.0,-5060.037109375,-2193.450927734375,-11721.4521484375,0.0,0.0,0.0,-3476.9375,3086.725830078125,11964.638671875,-0.0,-945.72705078125,5947.74853515625,9689.3310546875,7325.80810546875,3115.336181640625,2789.497314453125,-8240.5400390625,-5625.8837890625,7388.591796875,-690.619140625,-2176.76171875,10319.55078125,-6161.53076171875,9153.68359375,7841.5869140625,5727.609375,8261.2041015625,2872.149169921875,-1505.2159423828125,5619.52587890625,-0.0,4642.009765625,-15020.3701171875,2488.29541015625,13004.1435546875,2703.666748046875,-7121.56298828125,4534.72119140625,4978.1796875,4627.70458984375,4344.78125,3220.240234375,-4344.78125,-10151.86328125,-5345.3447265625,2251.466064453125,-4408.359375,0.0,-6111.462890625,0.0,-6887.91259765625,-10439.5546875,3949.006591796875,-10098.6162109375,0.0,-13251.3046875,-1677.6719970703125,0.0,-6732.14599609375,0.0,5163.3515625,-0.0,-5867.4814453125
-2761.681884765625,-3641.4462890625,12205.44140625,-7785.9560546875,7547.537109375,2882.480712890625,3612.836181640625,-5521.7744140625,0.0,-5049.70556640625,-2200.603515625,-11761.9833984375,0.0,0.0,0.0,-3462.63232421875,3107.388671875,11982.91796875,-0.0,-942.548095703125,5966.02783203125,9711.5830078125,7340.11328125,3133.61474609375,2798.239501953125,-8179.34716796875,-5613.16845703125,7410.04931640625,-684.2613525390625,-2129.87255859375,10339.4189453125,-6144.841796875,9171.962890625,7865.4287109375,5744.29833984375,8284.2509765625,2875.328125,-1492.500244140625,5635.42041015625,-0.0,4666.646484375,-14974.2763671875,2497.83203125,13024.0126953125,2704.46142578125,-7110.43701171875,4551.41064453125,5020.30029296875,4656.31494140625,4374.98095703125,3220.240234375,-4329.681640625,-10160.60546875,-5330.24462890625,2260.2080078125,-4361.470703125,0.0,-6095.568359375,0.0,-6873.607421875,-10431.607421875,3964.106201171875,-10089.080078125,0.0,-13283.09375,-1681.645751953125,0.0,-6707.50927734375,0.0,5165.73583984375,-0.0,-5870.66015625
-2744.19775390625,-3635.088623046875,12218.9521484375,-7783.57177734375,7539.59033203125,2881.68603515625,3616.01513671875,-5518.59521484375,0.0,-5042.552734375,-2173.582763671875,-11757.21484375,0.0,0.0,0.0,-3461.837890625,3113.74658203125,11985.3017578125,-0.0,-937.7797241210938,5970.0009765625,9713.1728515625,7340.908203125,3135.9990234375,2817.31298828125,-8195.2412109375,-5619.52587890625,7410.04931640625,-662.0089111328125,-2112.388671875,10342.59765625,-6135.3046875,9181.4990234375,7871.787109375,5745.8876953125,8287.4296875,2876.91748046875,-1490.1160888671875,5662.44140625,-0.0,4669.8251953125,-14971.892578125,2497.83203125,13024.0126953125,2706.845458984375,-7105.66845703125,4569.689453125,5016.3271484375,4644.39404296875,4371.8017578125,3222.62451171875,-4328.88671875,-10147.0947265625,-5322.29736328125,2280.87109375,-4341.6025390625,0.0,-6093.97900390625,0.0,-6872.81298828125,-10410.9453125,3968.080078125,-10085.10546875,0.0,-13261.6357421875,-1674.4931640625,0.0,-6699.56201171875,0.0,5184.0146484375,-0.0,-5854.765625
-2752.14501953125,-3627.141357421875,12218.158203125,-7799.466796875,7531.64306640625,2859.433349609375,3615.22021484375,-5529.7216796875,0.0,-5043.34765625,-2148.946044921875,-11702.3779296875,0.0,0.0,0.0,-3475.34814453125,3108.18359375,11978.943359375,-0.0,-937.7797241210938,5965.23291015625,9702.841796875,7336.1396484375,3125.66748046875,2821.286376953125,-8251.6669921875,-5623.49951171875,7393.3603515625,-660.41943359375,-2123.514892578125,10337.03515625,-6135.3046875,9177.525390625,7864.63427734375,5738.7353515625,8276.3037109375,2873.738525390625,-1498.0634765625,5661.646484375,-0.0,4663.46728515625,-14990.9658203125,2493.8583984375,13009.70703125,2705.256103515625,-7110.43701171875,4574.45751953125,4998.04833984375,4638.83056640625,4345.57568359375,3219.445556640625,-4340.01318359375,-10143.916015625,-5313.55517578125,2285.639404296875,-4370.21240234375,0.0,-6104.310546875,0.0,-6879.1708984375,-10397.4345703125,3962.516845703125,-10089.080078125,0.0,-13251.3046875,-1661.7774658203125,0.0,-6703.53564453125,0.0,5198.31982421875,-0.0,-5838.076171875
-2771.218505859375,-3631.90966796875,12191.931640625,-7804.23486328125,7552.3056640625,2860.228271484375,3616.01513671875,-5532.900390625,0.0,-5046.5263671875,-2165.63525390625,-11707.146484375,0.0,0.0,0.0,-3476.142822265625,3100.236083984375,11977.35546875,-0.0,-942.548095703125,5962.0537109375,9699.662109375,7338.52392578125,3123.283447265625,2791.0869140625,-8249.283203125,-5610.7841796875,7394.15478515625,-691.4138793945312,-2137.025146484375,10334.6513671875,-6143.251953125,9165.6044921875,7859.07080078125,5741.119140625,8273.125,2873.738525390625,-1500.4476318359375,5625.8837890625,-0.0,4661.8779296875,-14993.349609375,2500.21630859375,13007.3232421875,2706.05078125,-7113.61572265625,4535.51611328125,4996.45849609375,4661.8779296875,4349.5498046875,3219.445556640625,-4340.01318359375,-10174.115234375,-5319.91357421875,2255.439697265625,-4374.18603515625,0.0,-6120.205078125,0.0,-6880.76025390625,-10420.4814453125,3960.927490234375,-10091.4638671875,0.0,-13266.404296875,-1650.6513671875,0.0,-6710.68798828125,0.0,5192.7568359375,-0.0,-5846.0234375
-2772.80810546875,-3645.420166015625,12192.7265625,-7801.0556640625,7576.9423828125,2872.149169921875,3615.22021484375,-5531.31103515625,0.0,-5056.06298828125,-2201.398193359375,-11733.373046875,0.0,0.0,0.0,-3478.527099609375,3102.620361328125,11982.91796875,-0.0,-950.4954223632812,5969.20654296875,9706.0205078125,7343.2919921875,3128.0517578125,2772.013427734375,-8231.00390625,-5599.65771484375,7402.10205078125,-712.87158203125,-2149.740966796875,10340.2138671875,-6142.45751953125,9168.7841796875,7860.66064453125,5748.27197265625,8276.3037109375,2875.328125,-1498.0634765625,5623.49951171875,-0.0,4671.4150390625,-14989.3759765625,2504.984619140625,13016.064453125,2704.46142578125,-7118.3837890625,4522.80029296875,5000.4326171875,4681.74609375,4371.8017578125,3219.445556640625,-4340.8076171875,-10167.7578125,-5327.8603515625,2233.1875,-4394.05419921875,0.0,-6127.357421875,0.0,-6891.091796875,-10463.3974609375,3964.106201171875,-10097.0263671875,0.0,-13287.0673828125,-1674.4931640625,0.0,-6726.5830078125,0.0,5173.68310546875,-0.0,-5867.4814453125
-2741.813720703125,-3641.4462890625,12232.462890625,-7791.51904296875,7519.72216796875,2886.454345703125,3610.451904296875,-5524.15869140625,0.0,-5049.70556640625,-2205.371826171875,-11742.9091796875,0.0,0.0,0.0,-3466.606201171875,3116.130859375,11985.3017578125,-0.0,-945.72705078125,5969.20654296875,9713.9677734375,7335.3447265625,3132.025390625,2828.43896484375,-8226.2353515625,-5627.47314453125,7416.4072265625,-656.44580078125,-2140.2041015625,10344.982421875,-6122.5888671875,9186.267578125,7869.40283203125,5738.7353515625,8282.6611328125,2870.5595703125,-1493.2950439453125,5653.69921875,-0.0,4664.26220703125,-14983.8134765625,2485.1162109375,13027.19140625,2702.8720703125,-7115.205078125,4597.5048828125,5011.55859375,4624.525390625,4387.69677734375,3217.856201171875,-4330.47607421875,-10135.173828125,-5330.24462890625,2290.407958984375,-4386.90185546875,0.0,-6110.66796875,0.0,-6880.76025390625,-10463.3974609375,3961.721923828125,-10095.4375,0.0,-13254.4833984375,-1676.8773193359375,0.0,-6707.50927734375,0.0,5187.98828125,-0.0,-5853.97119140625
-2731.482177734375,-3631.90966796875,12235.6416015625,-7791.51904296875,7522.10595703125,2867.380859375,3612.836181640625,-5533.6953125,0.0,-5046.5263671875,-2187.093017578125,-11727.8095703125,0.0,0.0,0.0,-3473.7587890625,3120.1044921875,11985.3017578125,-0.0,-943.3428344726562,5973.974609375,9711.5830078125,7336.9345703125,3124.872802734375,2833.207275390625,-8239.74609375,-5625.8837890625,7396.5390625,-651.6774291992188,-2108.414794921875,10344.982421875,-6123.3837890625,9190.2421875,7869.40283203125,5741.9140625,8275.5087890625,2872.149169921875,-1497.2686767578125,5664.8251953125,-0.0,4673.798828125,-14998.9130859375,2489.884521484375,13013.6806640625,2704.46142578125,-7118.3837890625,4602.2734375,5019.505859375,4632.47314453125,4349.5498046875,3218.65087890625,-4336.833984375,-10123.2529296875,-5316.734375,2295.970947265625,-4351.93408203125,0.0,-6105.10498046875,0.0,-6879.96533203125,-10422.0703125,3960.132568359375,-10093.8486328125,0.0,-13279.9150390625,-1648.26708984375,0.0,-6693.9990234375,0.0,5198.31982421875,-0.0,-5844.43408203125
-2733.071533203125,-3632.70458984375,12224.5146484375,-7782.77734375,7538.00048828125,2865.791259765625,3611.246826171875,-5538.46337890625,0.0,-5058.447265625,-2173.582763671875,-11754.830078125,0.0,0.0,0.0,-3485.6796875,3117.720458984375,11989.2763671875,-0.0,-949.70068359375,5975.564453125,9714.7626953125,7340.11328125,3123.283447265625,2819.697021484375,-8215.109375,-5619.52587890625,7391.77099609375,-663.598388671875,-2067.089111328125,10347.3662109375,-6132.1259765625,9188.65234375,7870.99169921875,5745.8876953125,8277.0986328125,2872.149169921875,-1499.65283203125,5660.05712890625,-0.0,4673.00390625,-14998.1181640625,2493.8583984375,13009.70703125,2702.8720703125,-7125.53662109375,4580.02099609375,5041.75830078125,4644.39404296875,4345.57568359375,3217.856201171875,-4342.39697265625,-10126.431640625,-5308.787109375,2283.25537109375,-4351.93408203125,0.0,-6111.462890625,0.0,-6892.68115234375,-10395.0498046875,3960.132568359375,-10097.0263671875,0.0,-13279.1201171875,-1666.5458984375,0.0,-6703.53564453125,0.0,5183.2197265625,-0.0,-5862.712890625
-2756.11865234375,-3638.267578125,12192.7265625,-7792.31396484375,7518.1328125,2861.817626953125,3608.862548828125,-5547.20556640625,0.0,-5068.77880859375,-2203.7822265625,-11750.857421875,0.0,0.0,0.0,-3494.421630859375,3102.620361328125,11978.943359375,-0.0,-955.2637939453125,5957.28564453125,9703.6357421875,7329.7822265625,3116.925537109375,2797.444580078125,-8233.3876953125,-5627.47314453125,7389.38671875,-682.671875,-2081.394287109375,10335.4453125,-6147.22607421875,9164.810546875,7857.48193359375,5730.78759765625,8268.3564453125,2867.380859375,-1507.6002197265625,5624.29443359375,-0.0,4645.18896484375,-15011.6279296875,2485.9111328125,13004.939453125,2700.48779296875,-7133.48388671875,4534.72119140625,5032.22119140625,4624.525390625,4348.7548828125,3215.471923828125,-4350.34423828125,-10155.8369140625,-5304.8134765625,2262.59228515625,-4361.470703125,0.0,-6124.97314453125,0.0,-6903.80712890625,-10410.1494140625,3952.97998046875,-10104.9736328125,0.0,-13260.046875,-1672.9036865234375,0.0,-6723.40380859375,0.0,5170.50390625,-0.0,-5874.6337890625
-2764.86083984375,-3654.162109375,12195.904296875,-7827.28173828125,7520.51708984375,2845.923095703125,3609.6572265625,-5551.9736328125,0.0,-5070.3681640625,-2185.503662109375,-11715.0947265625,0.0,0.0,0.0,-3495.21630859375,3092.2890625,11972.5869140625,-0.0,-953.67431640625,5953.31201171875,9689.3310546875,7328.1923828125,3110.56787109375,2804.59716796875,-8282.6611328125,-5624.29443359375,7382.23388671875,-677.9035034179688,-2192.65625,10327.498046875,-6154.37841796875,9160.8359375,7839.203125,5727.609375,8255.640625,2869.76513671875,-1510.779052734375,5621.115234375,-0.0,4646.7783203125,-15042.623046875,2486.705810546875,12996.1962890625,2702.0771484375,-7136.6630859375,4545.05322265625,4959.9013671875,4626.115234375,4335.24462890625,3216.2666015625,-4355.9072265625,-10140.736328125,-5370.77587890625,2265.771240234375,-4390.87548828125,0.0,-6132.9208984375,0.0,-6905.39697265625,-10428.4287109375,3947.416748046875,-10104.9736328125,0.0,-13261.6357421875,-1669.724853515625,0.0,-6721.01953125,0.0,5176.0673828125,-0.0,-5867.4814453125
-2763.271240234375,-3638.267578125,12206.2373046875,-7808.20849609375,7530.0537109375,2861.817626953125,3613.631103515625,-5542.43701171875,0.0,-5064.0107421875,-2174.37744140625,-11721.4521484375,0.0,0.0,0.0,-3484.090087890625,3107.388671875,11982.123046875,-0.0,-948.9059448242188,5964.43798828125,9704.4306640625,7336.9345703125,3121.69384765625,2814.1337890625,-8258.025390625,-5617.1416015625,7394.15478515625,-667.572021484375,-2148.946044921875,10340.2138671875,-6138.4833984375,9173.552734375,7855.09765625,5738.7353515625,8268.3564453125,2870.5595703125,-1501.2423095703125,5635.42041015625,-0.0,4657.904296875,-15028.3173828125,2492.268798828125,13008.1171875,2703.666748046875,-7129.51025390625,4553.0,4992.48486328125,4634.857421875,4349.5498046875,3219.445556640625,-4347.16552734375,-10133.583984375,-5357.265625,2276.8974609375,-4375.77587890625,0.0,-6124.97314453125,0.0,-6899.03857421875,-10428.4287109375,3956.95361328125,-10099.4111328125,0.0,-13260.046875,-1686.4140625,0.0,-6709.0986328125,0.0,5183.2197265625,-0.0,-5862.712890625
-2781.550048828125,-3637.472900390625,12207.8251953125,-7805.82421875,7530.84814453125,2861.817626953125,3612.836181640625,-5544.02685546875,0.0,-5067.98388671875,-2181.530029296875,-11722.2470703125,0.0,0.0,0.0,-3486.474365234375,3109.77294921875,11983.7119140625,-0.0,-950.4954223632812,5966.822265625,9703.6357421875,7338.52392578125,3120.899169921875,2812.544677734375,-8258.025390625,-5617.1416015625,7394.94921875,-669.1614990234375,-2152.919677734375,10342.59765625,-6138.4833984375,9175.1416015625,7855.89208984375,5741.119140625,8269.9462890625,2870.5595703125,-1500.4476318359375,5638.599609375,-0.0,4659.494140625,-15031.4970703125,2493.8583984375,13009.70703125,2702.8720703125,-7135.8681640625,4553.794921875,4999.6376953125,4638.0361328125,4351.13916015625,3217.856201171875,-4347.9599609375,-10142.326171875,-5339.78125,2276.102783203125,-4377.365234375,0.0,-6129.74169921875,0.0,-6902.2177734375,-10430.8125,3958.543212890625,-10100.205078125,0.0,-13264.01953125,-1692.77197265625,0.0,-6715.45654296875,0.0,5173.68310546875,-0.0,-5869.0703125
-2781.550048828125,-3642.2412109375,12219.7470703125,-7803.43994140625,7541.1796875,2865.791259765625,3612.836181640625,-5541.642578125,0.0,-5068.77880859375,-2178.35107421875,-11728.6044921875,0.0,0.0,0.0,-3481.705810546875,3115.336181640625,11989.2763671875,-0.0,-950.4954223632812,5976.35888671875,9709.19921875,7341.703125,3123.283447265625,2808.57080078125,-8254.845703125,-5615.55224609375,7399.7177734375,-673.1351318359375,-2159.277587890625,10346.572265625,-6135.3046875,9184.677734375,7857.48193359375,5745.8876953125,8275.5087890625,2874.533447265625,-1498.0634765625,5651.3154296875,-0.0,4676.9775390625,-15033.880859375,2497.037109375,13013.6806640625,2705.256103515625,-7135.0732421875,4571.27880859375,5000.4326171875,4647.57275390625,4355.11279296875,3220.240234375,-4342.39697265625,-10138.3525390625,-5338.98681640625,2272.129150390625,-4372.5966796875,0.0,-6148.81494140625,0.0,-6900.62841796875,-10422.8662109375,3961.721923828125,-10098.6162109375,0.0,-13277.5302734375,-1683.235107421875,0.0,-6721.01953125,0.0,5179.24658203125,-0.0,-5870.66015625
-2764.06591796875,-3644.62548828125,12222.92578125,-7804.23486328125,7553.8955078125,2870.5595703125,3613.631103515625,-5540.052734375,0.0,-5071.9580078125,-2199.808837890625,-11748.4736328125,0.0,0.0,0.0,-3476.142822265625,3118.51513671875,11992.4541015625,-0.0,-952.8795776367188,5985.8955078125,9712.37890625,7344.88134765625,3125.66748046875,2790.2919921875,-8256.435546875,-5611.57861328125,7404.486328125,-689.8244018554688,-2146.561767578125,10352.134765625,-6132.1259765625,9192.6259765625,7858.2763671875,5753.04052734375,8274.71484375,2872.94384765625,-1496.473876953125,5661.646484375,-0.0,4700.8193359375,-15037.8544921875,2499.42138671875,13015.2705078125,2705.256103515625,-7135.0732421875,4561.7421875,5002.02197265625,4655.52001953125,4359.880859375,3221.82958984375,-4337.62890625,-10131.9951171875,-5340.576171875,2255.439697265625,-4371.00732421875,0.0,-6144.046875,0.0,-6901.4228515625,-10430.8125,3964.106201171875,-10097.0263671875,0.0,-13302.9619140625,-1698.3350830078125,0.0,-6728.17236328125,0.0,5175.2724609375,-0.0,-5882.5810546875
-2733.866455078125,-3656.54638671875,12222.92578125,-7803.43994140625,7564.2265625,2870.5595703125,3616.01513671875,-5543.23193359375,0.0,-5076.7265625,-2194.24560546875,-11746.0888671875,0.0,0.0,0.0,-3480.11669921875,3119.3095703125,11994.8388671875,-0.0,-957.64794921875,5991.458984375,9713.9677734375,7347.265625,3127.257080078125,2804.59716796875,-8262.7939453125,-5609.9892578125,7405.28125,-677.9035034179688,-2126.69384765625,10352.9287109375,-6130.53662109375,9193.419921875,7859.8662109375,5757.013671875,8274.71484375,2874.533447265625,-1496.473876953125,5661.646484375,-0.0,4721.48291015625,-15044.2119140625,2501.8056640625,13018.44921875,2706.05078125,-7139.841796875,4556.97412109375,5009.17431640625,4662.67236328125,4360.67578125,3221.82958984375,-4340.01318359375,-10131.9951171875,-5346.1396484375,2268.9501953125,-4356.7021484375,0.0,-6130.53662109375,0.0,-6905.39697265625,-10428.4287109375,3964.106201171875,-10097.8212890625,0.0,-13298.98828125,-1681.645751953125,0.0,-6733.7353515625,0.0,5170.50390625,-0.0,-5892.91259765625
-2721.945556640625,-3660.519775390625,12203.8525390625,-7792.31396484375,7526.07958984375,2868.175537109375,3612.04150390625,-5549.58984375,0.0,-5080.69970703125,-2184.708740234375,-11714.298828125,0.0,0.0,0.0,-3489.6533203125,3116.130859375,11986.8916015625,-0.0,-955.2637939453125,5968.412109375,9711.5830078125,7336.9345703125,3121.69384765625,2803.802490234375,-8261.2041015625,-5621.91015625,7396.5390625,-675.519287109375,-2148.1513671875,10344.982421875,-6129.74169921875,9179.115234375,7859.8662109375,5741.9140625,8270.740234375,2871.354248046875,-1501.2423095703125,5648.13623046875,-0.0,4665.056640625,-15043.41796875,2490.679443359375,13012.8857421875,2702.8720703125,-7144.60986328125,4555.38427734375,5037.78466796875,4633.26806640625,4354.318359375,3221.034912109375,-4348.7548828125,-10135.173828125,-5350.11279296875,2269.744873046875,-4368.623046875,0.0,-6119.41015625,0.0,-6910.9599609375,-10422.8662109375,3956.1591796875,-10101.0009765625,0.0,-13235.41015625,-1673.698486328125,0.0,-6724.19873046875,0.0,5172.09375,-0.0,-5890.5283203125
-2744.19775390625,-3647.009521484375,12213.3896484375,-7766.087890625,7519.72216796875,2877.712158203125,3612.04150390625,-5548.00048828125,0.0,-5080.69970703125,-2181.530029296875,-11765.162109375,0.0,0.0,0.0,-3484.885009765625,3120.899169921875,11987.6865234375,-0.0,-953.67431640625,5962.0537109375,9719.53125,7336.1396484375,3123.283447265625,2812.544677734375,-8234.18359375,-5618.73095703125,7402.89697265625,-669.1614990234375,-2137.025146484375,10348.1611328125,-6122.5888671875,9179.91015625,7872.58154296875,5736.35107421875,8277.0986328125,2871.354248046875,-1501.2423095703125,5653.69921875,-0.0,4630.0888671875,-15023.548828125,2490.679443359375,13018.44921875,2704.46142578125,-7144.60986328125,4568.89501953125,5098.18408203125,4632.47314453125,4364.6494140625,3219.445556640625,-4345.57568359375,-10143.916015625,-5325.47607421875,2276.102783203125,-4357.49658203125,0.0,-6117.82080078125,0.0,-6909.37060546875,-10426.8388671875,3959.337646484375,-10101.0009765625,0.0,-13258.45703125,-1706.2822265625,0.0,-6718.6357421875,0.0,5174.47802734375,-0.0,-5885.759765625
-2765.655517578125,-3641.4462890625,12218.9521484375,-7755.75634765625,7534.02734375,2886.454345703125,3614.42578125,-5537.6689453125,0.0,-5073.54736328125,-2180.7353515625,-11771.51953125,0.0,0.0,0.0,-3475.34814453125,3129.641357421875,11994.8388671875,-0.0,-948.1112060546875,5973.974609375,9728.2724609375,7344.0869140625,3132.820068359375,2809.365478515625,-8221.466796875,-5613.962890625,7412.43359375,-673.1351318359375,-2100.4677734375,10356.1083984375,-6116.2314453125,9189.4462890625,7882.1181640625,5746.6826171875,8285.83984375,2873.738525390625,-1494.884521484375,5657.6728515625,-0.0,4657.10986328125,-15009.244140625,2495.44775390625,13027.19140625,2706.845458984375,-7137.45751953125,4560.947265625,5110.10498046875,4642.8046875,4376.5703125,3221.034912109375,-4337.62890625,-10149.478515625,-5319.11865234375,2272.129150390625,-4336.833984375,0.0,-6115.4365234375,0.0,-6900.62841796875,-10457.0390625,3965.69580078125,-10095.4375,0.0,-13278.3251953125,-1688.0035400390625,0.0,-6713.8671875,0.0,5181.63037109375,-0.0,-5874.6337890625
-2767.2451171875,-3662.109375,12209.4150390625,-7834.4345703125,7535.6162109375,2853.07568359375,3612.836181640625,-5549.58984375,0.0,-5078.31591796875,-2182.32470703125,-11696.021484375,0.0,0.0,0.0,-3488.8583984375,3103.415283203125,11978.1494140625,-0.0,-952.0848388671875,5966.02783203125,9695.689453125,7335.3447265625,3114.541259765625,2814.1337890625,-8289.814453125,-5610.7841796875,7390.97607421875,-667.572021484375,-2143.383056640625,10333.85546875,-6139.2783203125,9174.3466796875,7839.9970703125,5737.9404296875,8260.4091796875,2872.94384765625,-1508.3948974609375,5644.95703125,-0.0,4660.28857421875,-15059.3115234375,2495.44775390625,13004.1435546875,2703.666748046875,-7145.40478515625,4549.8212890625,4930.49609375,4640.42041015625,4342.39697265625,3221.034912109375,-4351.13916015625,-10152.6572265625,-5359.6494140625,2278.487060546875,-4390.0810546875,0.0,-6134.51025390625,0.0,-6908.57568359375,-10462.6015625,3951.390625,-10102.58984375,0.0,-13276.736328125,-1661.7774658203125,0.0,-6730.556640625,0.0,5171.298828125,-0.0,-5877.01806640625
-2755.32421875,-3641.4462890625,12207.03125,-7820.12939453125,7543.56396484375,2860.228271484375,3614.42578125,-5549.58984375,0.0,-5081.49462890625,-2188.6826171875,-11692.841796875,0.0,0.0,0.0,-3491.24267578125,3105.004638671875,11980.533203125,-0.0,-953.67431640625,5968.412109375,9702.841796875,7339.31884765625,3116.925537109375,2792.67626953125,-8269.9462890625,-5608.39990234375,7393.3603515625,-689.0296630859375,-2170.40380859375,10337.830078125,-6141.66259765625,9175.1416015625,7845.56103515625,5742.70849609375,8263.587890625,2873.738525390625,-1507.6002197265625,5633.8310546875,-0.0,4665.056640625,-15042.623046875,2499.42138671875,13008.1171875,2704.46142578125,-7146.19970703125,4549.8212890625,4956.72216796875,4642.8046875,4347.16552734375,3221.82958984375,-4351.13916015625,-10157.42578125,-5338.19189453125,2257.029296875,-4393.259765625,0.0,-6136.09912109375,0.0,-6911.75439453125,-10416.5078125,3955.3642578125,-10104.1796875,0.0,-13290.24609375,-1664.9564208984375,0.0,-6732.14599609375,0.0,5165.73583984375,-0.0,-5888.14404296875
-2744.19775390625,-3633.4990234375,12211.7998046875,-7790.72412109375,7557.07421875,2876.122802734375,3612.836181640625,-5545.6162109375,0.0,-5077.52099609375,-2198.21923828125,-11716.68359375,0.0,0.0,0.0,-3487.26904296875,3113.74658203125,11989.2763671875,-0.0,-953.67431640625,5977.15380859375,9716.3515625,7344.0869140625,3125.66748046875,2791.881591796875,-8231.00390625,-5614.75732421875,7404.486328125,-693.798095703125,-2173.582763671875,10348.9560546875,-6136.89404296875,9180.705078125,7862.25048828125,5751.451171875,8277.0986328125,2872.149169921875,-1501.2423095703125,5636.21533203125,-0.0,4670.6201171875,-15014.8076171875,2499.42138671875,13018.44921875,2703.666748046875,-7139.04736328125,4553.794921875,5009.96923828125,4650.75146484375,4365.4443359375,3221.034912109375,-4347.16552734375,-10155.0419921875,-5350.11279296875,2253.850341796875,-4386.90185546875,0.0,-6130.53662109375,0.0,-6906.986328125,-10394.255859375,3961.721923828125,-10102.58984375,0.0,-13288.6572265625,-1672.1090087890625,0.0,-6740.88818359375,0.0,5168.9150390625,-0.0,-5888.14404296875
-2736.250732421875,-3637.472900390625,12210.2099609375,-7790.72412109375,7536.4111328125,2884.070068359375,3612.836181640625,-5537.6689453125,0.0,-5071.1630859375,-2200.603515625,-11726.2197265625,0.0,0.0,0.0,-3477.732421875,3112.1572265625,11987.6865234375,-0.0,-950.4954223632812,5969.20654296875,9717.146484375,7338.52392578125,3129.641357421875,2807.776123046875,-8218.2880859375,-5623.49951171875,7417.2021484375,-677.9035034179688,-2121.130615234375,10347.3662109375,-6139.2783203125,9178.3212890625,7862.25048828125,5743.50341796875,8279.482421875,2871.354248046875,-1497.2686767578125,5637.8046875,-0.0,4656.31494140625,-15011.6279296875,2492.268798828125,13026.396484375,2702.8720703125,-7134.27880859375,4552.20556640625,5013.94287109375,4649.95703125,4383.72265625,3220.240234375,-4338.42333984375,-10151.86328125,-5347.728515625,2267.360595703125,-4343.986328125,0.0,-6118.61572265625,0.0,-6900.62841796875,-10396.6396484375,3960.927490234375,-10101.0009765625,0.0,-13274.3525390625,-1650.6513671875,0.0,-6736.11962890625,0.0,5181.63037109375,-0.0,-5866.6865234375
-2729.892822265625,-3648.598876953125,12218.9521484375,-7797.876953125,7519.72216796875,2872.94384765625,3611.246826171875,-5536.87451171875,0.0,-5067.189453125,-2179.145751953125,-11719.0673828125,0.0,0.0,0.0,-3472.169189453125,3113.74658203125,11981.328125,-0.0,-947.3164672851562,5965.23291015625,9712.37890625,7332.166015625,3125.66748046875,2824.465576171875,-8239.74609375,-5622.705078125,7413.228515625,-657.2405395507812,-2071.857421875,10341.8037109375,-6138.4833984375,9182.2939453125,7860.66064453125,5734.76171875,8273.125,2871.354248046875,-1497.2686767578125,5647.34130859375,-0.0,4665.056640625,-15023.548828125,2489.08984375,13021.6279296875,2703.666748046875,-7133.48388671875,4566.5107421875,5021.89013671875,4642.009765625,4372.5966796875,3218.65087890625,-4337.62890625,-10143.12109375,-5336.6025390625,2288.023681640625,-4369.41748046875,0.0,-6121.0,0.0,-6895.0654296875,-10394.255859375,3956.95361328125,-10099.4111328125,0.0,-13280.708984375,-1641.1146240234375,0.0,-6707.50927734375,0.0,5190.37255859375,-0.0,-5854.765625
-2731.482177734375,-3656.54638671875,12222.130859375,-7795.49267578125,7530.0537109375,2868.97021484375,3612.836181640625,-5538.46337890625,0.0,-5073.54736328125,-2166.43017578125,-11712.7099609375,0.0,0.0,0.0,-3474.553466796875,3116.130859375,11982.91796875,-0.0,-951.2901611328125,5970.0009765625,9711.5830078125,7336.1396484375,3124.078125,2816.51806640625,-8254.05078125,-5621.115234375,7410.04931640625,-667.572021484375,-2114.772705078125,10345.7763671875,-6131.3310546875,9183.8837890625,7863.044921875,5740.32470703125,8273.125,2871.354248046875,-1498.858154296875,5647.34130859375,-0.0,4669.03076171875,-15019.576171875,2491.47412109375,13020.0390625,2703.666748046875,-7136.6630859375,4569.689453125,5012.353515625,4642.8046875,4365.4443359375,3218.65087890625,-4340.8076171875,-10136.763671875,-5340.576171875,2279.28173828125,-4386.90185546875,0.0,-6114.6416015625,0.0,-6897.44970703125,-10398.228515625,3958.543212890625,-10101.794921875,0.0,-13284.68359375,-1676.8773193359375,0.0,-6718.6357421875,0.0,5175.2724609375,-0.0,-5870.66015625
-2722.740234375,-3647.80419921875,12224.5146484375,-7797.08251953125,7536.4111328125,2857.843994140625,3614.42578125,-5544.02685546875,0.0,-5072.75244140625,-2156.8935546875,-11715.888671875,0.0,0.0,0.0,-3484.090087890625,3114.541259765625,11981.328125,-0.0,-951.2901611328125,5970.7958984375,9706.814453125,7333.75537109375,3118.51513671875,2816.51806640625,-8257.2294921875,-5616.3466796875,7390.97607421875,-669.1614990234375,-2137.025146484375,10342.59765625,-6128.15234375,9184.677734375,7863.044921875,5738.7353515625,8269.9462890625,2872.149169921875,-1502.831787109375,5656.08349609375,-0.0,4669.8251953125,-15021.1650390625,2493.063720703125,13008.1171875,2704.46142578125,-7139.04736328125,4576.04736328125,4999.6376953125,4649.95703125,4343.19140625,3219.445556640625,-4348.7548828125,-10115.3056640625,-5345.3447265625,2278.487060546875,-4391.67041015625,0.0,-6124.97314453125,0.0,-6902.2177734375,-10412.5341796875,3956.1591796875,-10102.58984375,0.0,-13258.45703125,-1657.0091552734375,0.0,-6732.9404296875,0.0,5171.298828125,-0.0,-5869.0703125
-2725.9189453125,-3626.3466796875,12211.0048828125,-7784.36669921875,7531.64306640625,2866.5859375,3613.631103515625,-5540.84765625,0.0,-5066.39501953125,-2179.145751953125,-11743.705078125,0.0,0.0,0.0,-3475.34814453125,3113.74658203125,11981.328125,-0.0,-946.521728515625,5966.02783203125,9711.5830078125,7332.96044921875,3122.48876953125,2807.776123046875,-8219.8779296875,-5617.1416015625,7393.3603515625,-676.3140258789062,-2110.799072265625,10344.1875,-6129.74169921875,9179.115234375,7868.607421875,5737.14599609375,8273.9189453125,2872.149169921875,-1502.831787109375,5644.95703125,-0.0,4662.67236328125,-14999.70703125,2492.268798828125,13011.2958984375,2705.256103515625,-7133.48388671875,4556.97412109375,5029.04248046875,4644.39404296875,4351.13916015625,3220.240234375,-4343.986328125,-10126.431640625,-5327.8603515625,2268.9501953125,-4340.01318359375,0.0,-6116.2314453125,0.0,-6895.8603515625,-10412.5341796875,3956.95361328125,-10100.205078125,0.0,-13250.509765625,-1664.9564208984375,0.0,-6732.9404296875,0.0,5172.88818359375,-0.0,-5861.91796875
-2751.350341796875,-3620.783447265625,12196.7001953125,-7787.5458984375,7528.4638671875,2869.76513671875,3613.631103515625,-5536.87451171875,0.0,-5063.2158203125,-2194.24560546875,-11728.6044921875,0.0,0.0,0.0,-3469.784912109375,3108.978271484375,11980.533203125,-0.0,-946.521728515625,5959.66943359375,9711.5830078125,7331.37109375,3124.078125,2806.186767578125,-8217.494140625,-5619.52587890625,7400.5126953125,-677.9035034179688,-2129.87255859375,10341.0078125,-6136.09912109375,9167.9892578125,7864.63427734375,5733.966796875,8277.0986328125,2871.354248046875,-1502.037109375,5628.267578125,-0.0,4654.7255859375,-14990.9658203125,2491.47412109375,13015.2705078125,2704.46142578125,-7127.92041015625,4542.6689453125,5023.4794921875,4640.42041015625,4359.880859375,3217.856201171875,-4340.8076171875,-10163.7841796875,-5332.62890625,2268.9501953125,-4340.8076171875,0.0,-6108.2841796875,0.0,-6889.501953125,-10415.712890625,3957.74853515625,-10100.205078125,0.0,-13252.89453125,-1666.5458984375,0.0,-6728.17236328125,0.0,5175.2724609375,-0.0,-5856.35498046875
-2744.992431640625,-3616.01513671875,12205.44140625,-7797.08251953125,7532.43798828125,2861.817626953125,3612.04150390625,-5536.07958984375,0.0,-5063.2158203125,-2180.7353515625,-11691.2529296875,0.0,0.0,0.0,-3472.169189453125,3108.978271484375,11980.533203125,-0.0,-952.8795776367188,5965.23291015625,9708.404296875,7331.37109375,3123.283447265625,2808.57080078125,-8249.283203125,-5614.75732421875,7394.94921875,-675.519287109375,-2110.00439453125,10338.6240234375,-6133.71533203125,9172.7568359375,7861.455078125,5735.55615234375,8273.9189453125,2870.5595703125,-1503.62646484375,5638.599609375,-0.0,4661.0830078125,-14996.5283203125,2492.268798828125,13010.501953125,2703.666748046875,-7126.33154296875,4562.53662109375,4995.6640625,4647.57275390625,4349.5498046875,3218.65087890625,-4342.39697265625,-10144.7109375,-5322.29736328125,2272.129150390625,-4355.11279296875,0.0,-6108.2841796875,0.0,-6888.70751953125,-10410.1494140625,3958.543212890625,-10101.0009765625,0.0,-13271.1728515625,-1662.572265625,0.0,-6714.662109375,0.0,5179.24658203125,-0.0,-5859.53369140625
-2752.14501953125,-3622.372802734375,12214.978515625,-7789.134765625,7538.00048828125,2868.97021484375,3610.451904296875,-5538.46337890625,0.0,-5072.75244140625,-2162.45654296875,-11692.841796875,0.0,0.0,0.0,-3484.885009765625,3112.951904296875,11981.328125,-0.0,-960.0321655273438,5968.412109375,9713.1728515625,7332.96044921875,3122.48876953125,2812.544677734375,-8234.18359375,-5611.57861328125,7394.15478515625,-670.7509155273438,-2107.6201171875,10341.8037109375,-6132.1259765625,9179.115234375,7865.4287109375,5737.9404296875,8277.892578125,2869.76513671875,-1506.0106201171875,5641.7783203125,-0.0,4669.03076171875,-14979.8388671875,2494.653076171875,13010.501953125,2701.282470703125,-7131.89453125,4577.63671875,4996.45849609375,4657.10986328125,4354.318359375,3217.061279296875,-4348.7548828125,-10151.068359375,-5315.14501953125,2273.718505859375,-4361.470703125,0.0,-6110.66796875,0.0,-6898.244140625,-10411.7392578125,3956.1591796875,-10104.9736328125,0.0,-13299.783203125,-1668.13525390625,0.0,-6728.17236328125,0.0,5167.32568359375,-0.0,-5876.22314453125
-2749.760986328125,-3622.372802734375,12211.7998046875,-7771.65087890625,7538.79541015625,2890.427734375,3612.04150390625,-5530.51611328125,0.0,-5069.57373046875,-2148.1513671875,-11727.8095703125,0.0,0.0,0.0,-3480.11669921875,3121.69384765625,11988.48046875,-0.0,-956.0584716796875,5971.59033203125,9729.8623046875,7338.52392578125,3134.40966796875,2822.8759765625,-8180.93603515625,-5613.16845703125,7410.84423828125,-656.44580078125,-2123.514892578125,10352.134765625,-6122.5888671875,9182.2939453125,7878.14404296875,5744.29833984375,8291.4033203125,2872.149169921875,-1494.884521484375,5644.95703125,-0.0,4667.44091796875,-14952.8193359375,2496.242431640625,13024.806640625,2702.0771484375,-7126.33154296875,4564.9208984375,5017.916015625,4650.75146484375,4380.5439453125,3218.65087890625,-4340.01318359375,-10151.86328125,-5310.37646484375,2288.818359375,-4338.42333984375,0.0,-6102.720703125,0.0,-6896.65478515625,-10415.712890625,3964.106201171875,-10101.0009765625,0.0,-13256.8671875,-1653.8302001953125,0.0,-6744.86181640625,0.0,5160.96728515625,-0.0,-5882.5810546875
-2762.4765625,-3623.96240234375,12182.39453125,-7801.8505859375,7538.00048828125,2857.843994140625,3609.6572265625,-5542.43701171875,0.0,-5070.3681640625,-2187.887939453125,-11701.583984375,0.0,0.0,0.0,-3483.29541015625,3102.620361328125,11974.17578125,-0.0,-960.826904296875,5957.28564453125,9704.4306640625,7332.166015625,3116.925537109375,2788.70263671875,-8236.5673828125,-5613.16845703125,7393.3603515625,-693.798095703125,-2110.799072265625,10333.85546875,-6136.09912109375,9163.220703125,7855.09765625,5735.55615234375,8268.3564453125,2871.354248046875,-1504.4212646484375,5626.6787109375,-0.0,4652.34130859375,-15008.44921875,2493.063720703125,13006.5283203125,2702.0771484375,-7131.099609375,4512.46875,5001.22705078125,4650.75146484375,4349.5498046875,3217.061279296875,-4347.9599609375,-10155.8369140625,-5292.892578125,2252.260986328125,-4359.08642578125,0.0,-6113.05224609375,0.0,-6898.244140625,-10434.787109375,3953.77490234375,-10106.5634765625,0.0,-13241.767578125,-1638.7303466796875,0.0,-6728.17236328125,0.0,5163.3515625,-0.0,-5884.96533203125
-2771.218505859375,-3622.372802734375,12207.8251953125,-7801.8505859375,7561.0478515625,2857.04931640625,3615.22021484375,-5535.28466796875,0.0,-5057.65283203125,-2230.00830078125,-11697.6103515625,0.0,0.0,0.0,-3471.37451171875,3111.362548828125,11982.123046875,-0.0,-950.4954223632812,5972.38525390625,9707.6103515625,7340.11328125,3124.078125,2781.550048828125,-8243.7197265625,-5609.9892578125,7398.12841796875,-702.5401000976562,-2101.262451171875,10341.8037109375,-6132.9208984375,9176.7314453125,7859.07080078125,5745.8876953125,8273.9189453125,2876.122802734375,-1497.2686767578125,5639.39404296875,-0.0,4674.59326171875,-15015.6025390625,2499.42138671875,13011.2958984375,2706.845458984375,-7123.15234375,4549.0263671875,5003.611328125,4669.8251953125,4347.16552734375,3221.034912109375,-4338.42333984375,-10153.453125,-5293.6875,2244.3134765625,-4362.26513671875,0.0,-6106.69482421875,0.0,-6884.73388671875,-10418.8916015625,3962.516845703125,-10098.6162109375,0.0,-13264.8154296875,-1659.393310546875,0.0,-6688.43603515625,0.0,5183.2197265625,-0.0,-5864.30224609375
-2767.2451171875,-3607.273193359375,12218.158203125,-7793.1083984375,7529.2587890625,2865.791259765625,3614.42578125,-5532.10595703125,0.0,-5053.67919921875,-2194.24560546875,-11700.7890625,0.0,0.0,0.0,-3468.195556640625,3115.336181640625,11982.123046875,-0.0,-948.9059448242188,5966.822265625,9713.1728515625,7335.3447265625,3126.462158203125,2822.081298828125,-8229.4150390625,-5619.52587890625,7404.486328125,-662.8036499023438,-2102.851806640625,10343.392578125,-6128.15234375,9179.115234375,7864.63427734375,5737.14599609375,8277.0986328125,2872.94384765625,-1498.858154296875,5645.751953125,-0.0,4661.0830078125,-14999.70703125,2491.47412109375,13016.064453125,2706.05078125,-7120.76806640625,4571.27880859375,5013.94287109375,4654.7255859375,4357.49658203125,3220.240234375,-4336.0390625,-10156.6318359375,-5294.48193359375,2285.639404296875,-4362.26513671875,0.0,-6104.310546875,0.0,-6879.1708984375,-10387.103515625,3961.721923828125,-10097.0263671875,0.0,-13267.19921875,-1678.466796875,0.0,-6691.61474609375,0.0,5191.9619140625,-0.0,-5849.20263671875
-2773.602783203125,-3614.42578125,12221.3359375,-7794.6982421875,7527.66943359375,2866.5859375,3613.631103515625,-5534.490234375,0.0,-5056.85791015625,-2175.172119140625,-11705.5576171875,0.0,0.0,0.0,-3471.37451171875,3116.130859375,11982.123046875,-0.0,-948.9059448242188,5969.20654296875,9711.5830078125,7332.96044921875,3127.257080078125,2824.465576171875,-8230.208984375,-5620.32080078125,7405.28125,-656.44580078125,-2115.5673828125,10342.59765625,-6130.53662109375,9183.0888671875,7863.044921875,5736.35107421875,8274.71484375,2872.149169921875,-1500.4476318359375,5660.85205078125,-0.0,4664.26220703125,-15001.296875,2491.47412109375,13015.2705078125,2706.05078125,-7123.15234375,4574.45751953125,5009.96923828125,4647.57275390625,4361.470703125,3220.240234375,-4337.62890625,-10151.86328125,-5318.32373046875,2288.818359375,-4355.9072265625,0.0,-6105.10498046875,0.0,-6884.73388671875,-10395.8447265625,3958.543212890625,-10097.8212890625,0.0,-13260.841796875,-1654.625,0.0,-6718.6357421875,0.0,5183.2197265625,-0.0,-5849.20263671875
-2772.80810546875,-3620.783447265625,12213.3896484375,-7793.9033203125,7522.10595703125,2868.97021484375,3612.04150390625,-5536.07958984375,0.0,-5055.2685546875,-2191.066650390625,-11715.888671875,0.0,0.0,0.0,-3472.169189453125,3111.362548828125,11980.533203125,-0.0,-948.9059448242188,5964.43798828125,9710.7890625,7332.96044921875,3127.257080078125,2822.8759765625,-8227.0302734375,-5621.91015625,7406.076171875,-658.8300170898438,-2103.646484375,10341.0078125,-6136.89404296875,9179.91015625,7863.044921875,5735.55615234375,8275.5087890625,2872.149169921875,-1498.858154296875,5660.85205078125,-0.0,4657.10986328125,-15001.296875,2491.47412109375,13016.8603515625,2703.666748046875,-7123.15234375,4556.97412109375,5021.89013671875,4638.83056640625,4363.06005859375,3220.240234375,-4337.62890625,-10150.2734375,-5310.37646484375,2286.43408203125,-4352.728515625,0.0,-6109.0791015625,0.0,-6886.3232421875,-10425.25,3956.95361328125,-10097.8212890625,0.0,-13255.2783203125,-1656.21435546875,0.0,-6710.68798828125,0.0,5181.63037109375,-0.0,-5849.20263671875
-2776.78173828125,-3632.70458984375,12226.1044921875,-7791.51904296875,7534.82177734375,2867.380859375,3613.631103515625,-5536.87451171875,0.0,-5058.447265625,-2187.887939453125,-11725.42578125,0.0,0.0,0.0,-3476.9375,3116.130859375,11981.328125,-0.0,-948.9059448242188,5971.59033203125,9711.5830078125,7335.3447265625,3124.078125,2823.670654296875,-8234.18359375,-5614.75732421875,7398.92333984375,-658.8300170898438,-2111.593994140625,10344.1875,-6130.53662109375,9187.0625,7863.044921875,5740.32470703125,8274.71484375,2872.149169921875,-1500.4476318359375,5671.18310546875,-0.0,4669.03076171875,-15003.681640625,2493.8583984375,13014.4755859375,2706.05078125,-7127.1259765625,4577.63671875,5022.6845703125,4653.1357421875,4357.49658203125,3221.034912109375,-4340.8076171875,-10141.5322265625,-5310.37646484375,2287.228759765625,-4365.4443359375,0.0,-6117.82080078125,0.0,-6887.91259765625,-10414.123046875,3959.337646484375,-10096.232421875,0.0,-13260.841796875,-1680.8509521484375,0.0,-6699.56201171875,0.0,5176.8623046875,-0.0,-5856.35498046875
-2781.550048828125,-3640.651611328125,12219.7470703125,-7797.876953125,7542.76904296875,2864.201904296875,3614.42578125,-5537.6689453125,0.0,-5063.2158203125,-2194.24560546875,-11715.0947265625,0.0,0.0,0.0,-3475.34814453125,3111.362548828125,11980.533203125,-0.0,-950.4954223632812,5968.412109375,9706.0205078125,7335.3447265625,3122.48876953125,2807.776123046875,-8241.3359375,-5614.75732421875,7398.92333984375,-674.724609375,-2120.3359375,10340.2138671875,-6136.89404296875,9181.4990234375,7856.6865234375,5739.5302734375,8270.740234375,2872.94384765625,-1499.65283203125,5651.3154296875,-0.0,4667.44091796875,-15011.6279296875,2496.242431640625,13013.6806640625,2706.05078125,-7130.3046875,4568.10009765625,5010.763671875,4659.494140625,4358.29150390625,3219.445556640625,-4342.39697265625,-10162.9892578125,-5327.06591796875,2270.53955078125,-4369.41748046875,0.0,-6115.4365234375,0.0,-6891.88623046875,-10403.7919921875,3958.543212890625,-10097.8212890625,0.0,-13273.556640625,-1681.645751953125,0.0,-6703.53564453125,0.0,5172.09375,-0.0,-5872.24951171875
-2757.708251953125,-3635.088623046875,12205.44140625,-7801.8505859375,7549.126953125,2865.791259765625,3612.836181640625,-5541.642578125,0.0,-5065.60009765625,-2208.55078125,-11727.015625,0.0,0.0,0.0,-3481.705810546875,3106.593994140625,11978.1494140625,-0.0,-955.2637939453125,5963.6435546875,9703.6357421875,7336.9345703125,3120.899169921875,2791.881591796875,-8247.693359375,-5609.9892578125,7399.7177734375,-691.4138793945312,-2134.640869140625,10335.4453125,-6144.046875,9171.16796875,7852.71337890625,5736.35107421875,8268.3564453125,2872.149169921875,-1502.037109375,5621.115234375,-0.0,4661.8779296875,-15017.986328125,2496.242431640625,13013.6806640625,2703.666748046875,-7134.27880859375,4547.43701171875,5002.81689453125,4665.056640625,4363.85498046875,3217.856201171875,-4344.78125,-10173.3203125,-5331.03955078125,2252.260986328125,-4385.3125,0.0,-6123.3837890625,0.0,-6899.03857421875,-10414.123046875,3956.1591796875,-10101.794921875,0.0,-13294.2197265625,-1679.2615966796875,0.0,-6715.45654296875,0.0,5163.3515625,-0.0,-5880.197265625
-2741.813720703125,-3637.472900390625,12203.8525390625,-7802.64501953125,7515.74853515625,2875.328125,3610.451904296875,-5538.46337890625,0.0,-5063.2158203125,-2187.093017578125,-11761.1884765625,0.0,0.0,0.0,-3476.9375,3105.004638671875,11974.970703125,-0.0,-953.67431640625,5957.28564453125,9706.814453125,7329.7822265625,3121.69384765625,2808.57080078125,-8238.15625,-5626.6787109375,7409.25439453125,-674.724609375,-2142.58837890625,10333.0615234375,-6146.43115234375,9170.373046875,7852.71337890625,5728.40380859375,8269.9462890625,2868.175537109375,-1501.2423095703125,5625.08935546875,-0.0,4653.9306640625,-15015.6025390625,2484.321533203125,13021.6279296875,2702.8720703125,-7135.8681640625,4552.20556640625,5000.4326171875,4635.65185546875,4385.3125,3216.2666015625,-4340.01318359375,-10160.60546875,-5338.19189453125,2270.53955078125,-4391.67041015625,0.0,-6119.41015625,0.0,-6895.8603515625,-10429.22265625,3952.97998046875,-10101.0009765625,0.0,-13294.2197265625,-1693.566650390625,0.0,-6713.8671875,0.0,5176.0673828125,-0.0,-5870.66015625
-2740.22412109375,-3640.651611328125,12189.5478515625,-7805.029296875,7507.80126953125,2864.99658203125,3609.6572265625,-5545.6162109375,0.0,-5067.189453125,-2189.477294921875,-11727.8095703125,0.0,0.0,0.0,-3484.090087890625,3097.85205078125,11970.2021484375,-0.0,-952.8795776367188,5949.33837890625,9701.251953125,7325.013671875,3116.925537109375,2810.955078125,-8249.283203125,-5628.267578125,7399.7177734375,-673.1351318359375,-2123.514892578125,10329.0869140625,-6150.404296875,9162.42578125,7847.14990234375,5722.8408203125,8262.7939453125,2867.380859375,-1507.6002197265625,5625.08935546875,-0.0,4644.39404296875,-15025.93359375,2483.52685546875,13014.4755859375,2701.282470703125,-7139.04736328125,4537.900390625,5005.9951171875,4628.49951171875,4367.828125,3215.471923828125,-4346.37060546875,-10152.6572265625,-5326.27099609375,2270.53955078125,-4355.11279296875,0.0,-6125.76806640625,0.0,-6900.62841796875,-10428.4287109375,3947.416748046875,-10104.9736328125,0.0,-13264.8154296875,-1678.466796875,0.0,-6728.96728515625,0.0,5170.50390625,-0.0,-5870.66015625
-2749.760986328125,-3643.035888671875,12195.904296875,-7801.8505859375,7520.51708984375,2855.4599609375,3610.451904296875,-5548.79541015625,0.0,-5067.98388671875,-2195.04052734375,-11696.8154296875,0.0,0.0,0.0,-3482.500732421875,3100.236083984375,11972.5869140625,-0.0,-955.2637939453125,5955.6962890625,9702.046875,7327.39794921875,3112.951904296875,2807.776123046875,-8247.693359375,-5621.115234375,7393.3603515625,-675.519287109375,-2110.00439453125,10331.4716796875,-6144.841796875,9167.9892578125,7848.73974609375,5726.814453125,8260.4091796875,2870.5595703125,-1509.1895751953125,5629.0625,-0.0,4651.54638671875,-15034.67578125,2488.29541015625,13005.7333984375,2702.8720703125,-7140.63623046875,4542.6689453125,5017.916015625,4639.62548828125,4343.986328125,3217.856201171875,-4348.7548828125,-10153.453125,-5321.5029296875,2268.9501953125,-4324.9130859375,0.0,-6126.5625,0.0,-6901.4228515625,-10425.25,3949.006591796875,-10103.384765625,0.0,-13266.404296875,-1667.340576171875,0.0,-6726.5830078125,0.0,5164.94140625,-0.0,-5878.607421875
-2770.423828125,-3643.83056640625,12205.44140625,-7799.466796875,7526.87451171875,2862.612548828125,3613.631103515625,-5542.43701171875,0.0,-5064.0107421875,-2175.967041015625,-11707.146484375,0.0,0.0,0.0,-3471.37451171875,3105.79931640625,11975.765625,-0.0,-950.4954223632812,5962.0537109375,9706.814453125,7330.57666015625,3117.720458984375,2812.544677734375,-8243.7197265625,-5618.73095703125,7402.10205078125,-670.7509155273438,-2120.3359375,10335.4453125,-6141.66259765625,9174.3466796875,7851.91845703125,5730.78759765625,8263.587890625,2872.94384765625,-1503.62646484375,5637.8046875,-0.0,4661.8779296875,-15032.291015625,2490.679443359375,13013.6806640625,2704.46142578125,-7134.27880859375,4553.0,5016.3271484375,4645.9833984375,4355.11279296875,3221.82958984375,-4340.8076171875,-10161.3994140625,-5324.681640625,2275.307861328125,-4377.365234375,0.0,-6122.5888671875,0.0,-6892.68115234375,-10431.607421875,3954.5693359375,-10098.6162109375,0.0,-13297.3984375,-1660.9827880859375,0.0,-6701.9462890625,0.0,5182.4248046875,-0.0,-5871.45458984375
-2780.75537109375,-3639.85693359375,12206.2373046875,-7799.466796875,7524.490234375,2861.817626953125,3614.42578125,-5545.6162109375,0.0,-5063.2158203125,-2175.172119140625,-11699.994140625,0.0,0.0,0.0,-3474.553466796875,3106.593994140625,11973.380859375,-0.0,-948.9059448242188,5958.080078125,9705.2255859375,7329.7822265625,3117.720458984375,2801.418212890625,-8241.3359375,-5618.73095703125,7398.12841796875,-681.0823974609375,-2120.3359375,10334.6513671875,-6137.68896484375,9174.3466796875,7853.5078125,5729.1982421875,8262.7939453125,2872.149169921875,-1504.4212646484375,5641.7783203125,-0.0,4654.7255859375,-15031.4970703125,2489.884521484375,13013.6806640625,2706.845458984375,-7134.27880859375,4554.58984375,5017.916015625,4644.39404296875,4352.728515625,3221.82958984375,-4340.8076171875,-10162.9892578125,-5322.29736328125,2266.56591796875,-4417.896484375,0.0,-6125.76806640625,0.0,-6893.47607421875,-10438.759765625,3950.595947265625,-10098.6162109375,0.0,-13283.888671875,-1660.9827880859375,0.0,-6704.33056640625,0.0,5182.4248046875,-0.0,-5865.09716796875
-2789.497314453125,-3648.598876953125,12206.2373046875,-7783.57177734375,7532.43798828125,2872.94384765625,3616.01513671875,-5540.052734375,0.0,-5064.0107421875,-2202.193115234375,-11754.0361328125,0.0,0.0,0.0,-3472.964111328125,3110.56787109375,11978.1494140625,-0.0,-948.1112060546875,5959.66943359375,9712.37890625,7332.96044921875,3122.48876953125,2794.265625,-8203.1884765625,-5613.16845703125,7406.076171875,-690.619140625,-2084.572998046875,10338.6240234375,-6136.89404296875,9175.1416015625,7860.66064453125,5733.171875,8271.53515625,2875.328125,-1499.65283203125,5640.1884765625,-0.0,4653.9306640625,-15008.44921875,2494.653076171875,13019.244140625,2708.43505859375,-7132.68896484375,4559.35791015625,5044.14208984375,4653.1357421875,4365.4443359375,3224.2138671875,-4336.833984375,-10163.7841796875,-5326.27099609375,2257.029296875,-4371.8017578125,0.0,-6121.0,0.0,-6892.68115234375,-10450.6806640625,3953.77490234375,-10097.8212890625,0.0,-13291.041015625,-1676.8773193359375,0.0,-6717.04638671875,0.0,5168.1201171875,-0.0,-5861.12353515625
-2791.0869140625,-3660.519775390625,12211.0048828125,-7803.43994140625,7551.51123046875,2861.02294921875,3613.631103515625,-5545.6162109375,0.0,-5067.189453125,-2203.7822265625,-11729.3994140625,0.0,0.0,0.0,-3477.732421875,3102.620361328125,11975.765625,-0.0,-951.2901611328125,5962.8486328125,9700.4580078125,7335.3447265625,3117.720458984375,2801.418212890625,-8232.59375,-5602.83642578125,7398.12841796875,-684.2613525390625,-2132.2568359375,10333.0615234375,-6147.22607421875,9172.7568359375,7848.73974609375,5735.55615234375,8264.3828125,2874.533447265625,-1504.4212646484375,5632.24169921875,-0.0,4667.44091796875,-15025.93359375,2497.83203125,13012.091796875,2706.05078125,-7135.8681640625,4568.89501953125,5008.37939453125,4670.6201171875,4356.7021484375,3221.034912109375,-4344.78125,-10165.3740234375,-5335.8076171875,2262.59228515625,-4362.26513671875,0.0,-6124.97314453125,0.0,-6897.44970703125,-10446.7080078125,3950.595947265625,-10101.0009765625,0.0,-13312.4990234375,-1691.1824951171875,0.0,-6724.9931640625,0.0,5179.24658203125,-0.0,-5861.91796875
-2779.166015625,-3666.0830078125,12180.0107421875,-7831.255859375,7513.3642578125,2840.35986328125,3608.862548828125,-5553.5634765625,0.0,-5067.189453125,-2230.80322265625,-11677.7421875,0.0,0.0,0.0,-3480.9111328125,3085.136474609375,11958.28125,-0.0,-952.8795776367188,5942.18603515625,9679.7939453125,7321.83447265625,3105.004638671875,2789.497314453125,-8289.814453125,-5621.115234375,7390.18115234375,-693.0033569335938,-2160.866943359375,10313.193359375,-6164.70947265625,9150.5048828125,7829.666015625,5715.68798828125,8246.8984375,2869.76513671875,-1512.3685302734375,5604.42578125,-0.0,4636.4462890625,-15056.927734375,2482.732177734375,13000.1708984375,2702.0771484375,-7142.2255859375,4523.59521484375,4975.7958984375,4634.857421875,4339.21826171875,3215.471923828125,-4349.5498046875,-10177.294921875,-5338.98681640625,2253.0556640625,-4364.6494140625,0.0,-6121.79443359375,0.0,-6900.62841796875,-10432.40234375,3939.4697265625,-10104.1796875,0.0,-13275.146484375,-1646.6776123046875,0.0,-6700.35693359375,0.0,5195.935546875,-0.0,-5850.7919921875
-2773.602783203125,-3658.930419921875,12185.5732421875,-7817.7451171875,7506.2119140625,2849.10205078125,3606.478515625,-5549.58984375,0.0,-5067.98388671875,-2214.90869140625,-11702.3779296875,0.0,0.0,0.0,-3480.9111328125,3091.494384765625,11961.4599609375,-0.0,-952.8795776367188,5942.18603515625,9688.537109375,7321.03955078125,3108.978271484375,2795.060302734375,-8268.3564453125,-5634.6259765625,7394.94921875,-685.8507690429688,-2135.435791015625,10318.755859375,-6161.53076171875,9156.0673828125,7838.40869140625,5716.482421875,8250.873046875,2868.175537109375,-1510.779052734375,5622.705078125,-0.0,4636.4462890625,-15046.5966796875,2478.758544921875,13005.7333984375,2700.48779296875,-7141.43115234375,4519.62158203125,4998.04833984375,4630.0888671875,4347.9599609375,3214.677001953125,-4347.9599609375,-10181.267578125,-5337.39697265625,2260.2080078125,-4352.728515625,0.0,-6121.0,0.0,-6902.2177734375,-10432.40234375,3942.6484375,-10104.9736328125,0.0,-13264.01953125,-1647.472412109375,0.0,-6707.50927734375,0.0,5189.57763671875,-0.0,-5856.35498046875
-2772.80810546875,-3649.393798828125,12195.904296875,-7809.7978515625,7516.54296875,2854.6650390625,3608.862548828125,-5549.58984375,0.0,-5075.13671875,-2195.04052734375,-11699.994140625,0.0,0.0,0.0,-3483.29541015625,3097.057373046875,11967.818359375,-0.0,-956.8532104492188,5950.927734375,9694.8935546875,7323.423828125,3112.951904296875,2804.59716796875,-8258.025390625,-5629.0625,7397.33349609375,-677.9035034179688,-2130.66748046875,10326.703125,-6152.78857421875,9165.6044921875,7844.765625,5723.63525390625,8254.845703125,2867.380859375,-1509.1895751953125,5635.42041015625,-0.0,4648.3671875,-15040.23828125,2482.732177734375,13007.3232421875,2700.48779296875,-7142.2255859375,4536.310546875,5005.20068359375,4642.009765625,4351.93408203125,3214.677001953125,-4349.5498046875,-10186.0361328125,-5334.21826171875,2268.9501953125,-4351.93408203125,0.0,-6122.5888671875,0.0,-6908.57568359375,-10442.7333984375,3947.416748046875,-10105.76953125,0.0,-13275.9404296875,-1649.061767578125,0.0,-6739.29833984375,0.0,5163.3515625,-0.0,-5877.01806640625
-2767.2451171875,-3640.651611328125,12195.1103515625,-7807.41357421875,7517.337890625,2853.870361328125,3609.6572265625,-5550.384765625,0.0,-5082.2890625,-2195.04052734375,-11713.5048828125,0.0,0.0,0.0,-3486.474365234375,3097.85205078125,11968.6123046875,-0.0,-957.64794921875,5950.1328125,9697.2783203125,7325.80810546875,3113.74658203125,2803.802490234375,-8252.4619140625,-5621.91015625,7398.92333984375,-678.6982421875,-2124.3095703125,10327.498046875,-6150.404296875,9163.220703125,7846.35546875,5724.43017578125,8256.435546875,2868.175537109375,-1507.6002197265625,5631.44677734375,-0.0,4646.7783203125,-15035.4697265625,2485.9111328125,13009.70703125,2702.0771484375,-7145.40478515625,4539.48974609375,5007.5849609375,4641.21484375,4355.9072265625,3216.2666015625,-4351.13916015625,-10176.4990234375,-5327.06591796875,2264.9765625,-4348.7548828125,0.0,-6118.61572265625,0.0,-6912.54931640625,-10430.8125,3949.801025390625,-10106.5634765625,0.0,-13289.451171875,-1641.9093017578125,0.0,-6762.345703125,0.0,5148.251953125,-0.0,-5895.29638671875
