-3849.665283203125,-4687.30908203125,12023.44921875,-7876.5556640625,6922.08642578125,2754.529296875,3547.66845703125,-5710.125,0.0,-5025.86376953125,-2355.57568359375,-12718.041015625,0.0,0.0,0.0,-3469.784912109375,2916.65380859375,11910.59765625,-0.0,-692.2086181640625,5959.66943359375,9679.0,7184.3466796875,3039.8369140625,2614.6572265625,-7700.125,-5811.0556640625,7207.3935546875,-1154.74072265625,-2447.76416015625,10187.6259765625,-6185.373046875,9140.173828125,7751.78271484375,5687.078125,8155.50537109375,2838.7705078125,-1388.390869140625,5462.16943359375,-0.0,4712.740234375,-15060.107421875,2590.0205078125,12893.6767578125,2653.598876953125,-7108.052734375,4392.46533203125,5002.81689453125,6651.87841796875,4222.39306640625,3134.40966796875,-4425.048828125,-10824.998046875,-5834.8974609375,2014.636962890625,-3986.358642578125,0.0,-6059.80517578125,0.0,-6812.41357421875,-10996.6591796875,3831.386474609375,-9960.333984375,0.0,-14042.0595703125,-1948.674560546875,0.0,-6869.63427734375,0.0,5009.17431640625,-0.0,-5892.1181640625
-3836.155029296875,-4666.646484375,12031.3955078125,-7875.76025390625,6918.1123046875,2756.11865234375,3545.2841796875,-5710.919921875,0.0,-5025.06884765625,-2348.423095703125,-12704.53125,0.0,0.0,0.0,-3470.579833984375,2919.8330078125,11912.982421875,-0.0,-693.798095703125,5961.25927734375,9682.1787109375,7184.3466796875,3039.042236328125,2617.8359375,-7700.125,-5810.2607421875,7208.1884765625,-1149.9722900390625,-2450.1484375,10189.2158203125,-6176.63037109375,9145.736328125,7753.3720703125,5687.078125,8155.50537109375,2837.18115234375,-1387.59619140625,5468.52734375,-0.0,4712.740234375,-15059.3115234375,2587.63623046875,12896.85546875,2651.214599609375,-7108.052734375,4397.2333984375,4995.6640625,6649.494140625,4226.36669921875,3132.025390625,-4424.25390625,-10840.0986328125,-5815.029296875,2017.8157958984375,-3988.742919921875,0.0,-6055.037109375,0.0,-6816.38720703125,-10991.890625,3832.97607421875,-9961.1279296875,0.0,-14053.185546875,-1932.7799072265625,0.0,-6863.27587890625,0.0,5022.6845703125,-0.0,-5888.14404296875
-3789.265869140625,-4649.162109375,12017.0908203125,-7883.7080078125,6914.93359375,2757.708251953125,3544.489501953125,-5710.125,0.0,-5027.453125,-2339.680908203125,-12691.0205078125,0.0,0.0,0.0,-3468.990234375,2915.064453125,11908.2138671875,-0.0,-698.56640625,5955.6962890625,9678.2041015625,7181.96240234375,3039.042236328125,2613.067626953125,-7699.33056640625,-5813.43994140625,7213.75146484375,-1153.9459228515625,-2447.76416015625,10184.447265625,-6182.19384765625,9137.7900390625,7745.4248046875,5683.10400390625,8153.91552734375,2835.591552734375,-1387.59619140625,5455.81201171875,-0.0,4705.587890625,-15062.4912109375,2586.046875,12896.85546875,2651.214599609375,-7112.8212890625,4378.16015625,4985.33251953125,6646.31494140625,4231.134765625,3131.230712890625,-4424.25390625,-10838.5087890625,-5790.392578125,2013.0474853515625,-3987.153564453125,0.0,-6043.9111328125,0.0,-6817.18212890625,-10967.2548828125,3831.386474609375,-9964.306640625,0.0,-14061.1337890625,-1930.395751953125,0.0,-6867.25,0.0,5015.5322265625,-0.0,-5900.06494140625
-3740.78759765625,-4634.0625,11998.8125,-7887.68115234375,6906.986328125,2758.5029296875,3544.489501953125,-5706.94580078125,0.0,-5024.2744140625,-2326.96533203125,-12684.6630859375,0.0,0.0,0.0,-3456.274658203125,2908.70654296875,11904.2392578125,-0.0,-696.1822509765625,5946.1591796875,9675.8203125,7178.783203125,3038.247314453125,2607.504638671875,-7695.35693359375,-5816.61865234375,7222.49365234375,-1157.9195556640625,-2442.200927734375,10178.0888671875,-6190.14111328125,9124.279296875,7741.451171875,5677.541015625,8153.12109375,2833.207275390625,-1386.8013916015625,5439.12255859375,-0.0,4696.05126953125,-15064.080078125,2584.45751953125,12900.03515625,2652.00927734375,-7108.84716796875,4355.11279296875,4985.33251953125,6639.95751953125,4236.6982421875,3130.43603515625,-4417.896484375,-10836.1240234375,-5776.88232421875,2009.86865234375,-3972.848388671875,0.0,-6028.81103515625,0.0,-6806.8505859375,-10932.2861328125,3826.6181640625,-9963.5126953125,0.0,-14057.1591796875,-1967.7479248046875,0.0,-6869.63427734375,0.0,5017.12158203125,-0.0,-5895.29638671875
-3731.250732421875,-4620.55224609375,12021.064453125,-7885.296875,6912.54931640625,2751.350341796875,3547.66845703125,-5712.50927734375,0.0,-5025.86376953125,-2359.54931640625,-12656.84765625,0.0,0.0,0.0,-3462.63232421875,2914.269775390625,11907.41796875,-0.0,-696.1822509765625,5955.6962890625,9676.615234375,7181.16748046875,3035.068603515625,2605.9150390625,-7698.5361328125,-5812.64501953125,7205.80419921875,-1161.0985107421875,-2435.04833984375,10181.267578125,-6182.19384765625,9137.7900390625,7743.83544921875,5681.5146484375,8153.12109375,2835.591552734375,-1389.9803466796875,5458.1962890625,-0.0,4709.56201171875,-15062.4912109375,2586.841552734375,12892.0869140625,2652.00927734375,-7111.2314453125,4392.46533203125,4998.8427734375,6646.31494140625,4215.240234375,3132.025390625,-4425.048828125,-10840.892578125,-5764.96142578125,2008.279052734375,-3963.311767578125,0.0,-6044.7060546875,0.0,-6806.8505859375,-10897.318359375,3827.412841796875,-9964.306640625,0.0,-14066.6962890625,-1914.501220703125,0.0,-6879.1708984375,0.0,5013.14794921875,-0.0,-5893.70703125
-3775.755615234375,-4618.962890625,12014.70703125,-7875.76025390625,6911.75439453125,2751.350341796875,3546.873779296875,-5713.30419921875,0.0,-5025.86376953125,-2346.038818359375,-12655.2578125,0.0,0.0,0.0,-3468.990234375,2914.269775390625,11905.0341796875,-0.0,-696.1822509765625,5952.51708984375,9678.2041015625,7177.1943359375,3034.27392578125,2605.120361328125,-7689.7939453125,-5812.64501953125,7205.00927734375,-1162.6878662109375,-2433.458984375,10179.6787109375,-6179.8095703125,9135.4052734375,7747.80908203125,5679.92529296875,8153.91552734375,2835.591552734375,-1390.7750244140625,5464.5537109375,-0.0,4703.99853515625,-15055.3388671875,2586.841552734375,12892.0869140625,2652.00927734375,-7112.0263671875,4385.3125,5009.17431640625,6646.31494140625,4217.62451171875,3132.820068359375,-4429.8173828125,-10845.6611328125,-5749.861328125,2007.484375,-3952.97998046875,0.0,-6045.50048828125,0.0,-6814.0029296875,-10881.423828125,3827.412841796875,-9965.896484375,0.0,-14065.9013671875,-1902.580322265625,0.0,-6862.4814453125,0.0,5011.55859375,-0.0,-5882.5810546875
-3809.13427734375,-4620.55224609375,12025.0390625,-7859.8662109375,6918.9072265625,2760.88720703125,3543.69482421875,-5705.3564453125,0.0,-5019.505859375,-2335.70751953125,-12642.54296875,0.0,0.0,0.0,-3457.864013671875,2923.01171875,11910.59765625,-0.0,-693.0033569335938,5960.46435546875,9687.7412109375,7181.96240234375,3042.22119140625,2615.451904296875,-7676.283203125,-5811.0556640625,7216.93017578125,-1152.3564453125,-2414.385498046875,10187.6259765625,-6168.68359375,9144.9423828125,7758.935546875,5685.48828125,8161.06787109375,2835.591552734375,-1386.0067138671875,5478.06396484375,-0.0,4711.1513671875,-15043.41796875,2588.43115234375,12901.6240234375,2652.80419921875,-7108.052734375,4396.4384765625,5019.505859375,6651.87841796875,4234.31396484375,3132.820068359375,-4421.0751953125,-10829.7666015625,-5723.63525390625,2016.2265625,-3942.6484375,0.0,-6048.67919921875,0.0,-6807.6455078125,-10895.7294921875,3831.386474609375,-9961.9228515625,0.0,-14059.5439453125,-1887.4803466796875,0.0,-6846.5869140625,0.0,5017.12158203125,-0.0,-5869.0703125
-3763.039794921875,-4621.34716796875,12025.0390625,-7866.22314453125,6917.31787109375,2760.092529296875,3542.900146484375,-5704.5615234375,0.0,-5025.86376953125,-2356.3701171875,-12660.8212890625,0.0,0.0,0.0,-3450.71142578125,2924.601318359375,11910.59765625,-0.0,-699.3611450195312,5960.46435546875,9686.15234375,7181.16748046875,3041.426513671875,2612.27294921875,-7685.8203125,-5811.85009765625,7217.72509765625,-1155.535400390625,-2430.280029296875,10186.8310546875,-6163.1201171875,9144.9423828125,7758.140625,5684.69384765625,8157.09423828125,2834.002197265625,-1385.2119140625,5478.85888671875,-0.0,4713.53515625,-15048.98046875,2586.046875,12900.8291015625,2651.214599609375,-7109.64208984375,4397.2333984375,5009.96923828125,6650.2890625,4230.34033203125,3130.43603515625,-4417.896484375,-10801.15625,-5729.9931640625,2015.431640625,-3961.721923828125,0.0,-6068.5478515625,0.0,-6802.876953125,-10913.212890625,3830.591796875,-9964.306640625,0.0,-14061.927734375,-1902.580322265625,0.0,-6860.8916015625,0.0,4998.8427734375,-0.0,-5897.6806640625
-3721.714111328125,-4595.91552734375,12027.4228515625,-7851.91845703125,6922.08642578125,2775.1923828125,3546.078857421875,-5688.66748046875,0.0,-5019.505859375,-2373.8544921875,-12652.0791015625,0.0,0.0,0.0,-3424.4853515625,2935.727294921875,11920.9287109375,-0.0,-696.9769897460938,5967.6171875,9697.2783203125,7188.3203125,3052.552490234375,2607.504638671875,-7669.130859375,-5807.87646484375,7238.38818359375,-1160.3037109375,-2427.895751953125,10197.1630859375,-6149.60986328125,9151.2998046875,7770.8564453125,5691.05126953125,8169.81005859375,2837.18115234375,-1373.291015625,5466.93798828125,-0.0,4715.91943359375,-15031.4970703125,2589.225830078125,12917.5185546875,2652.80419921875,-7099.310546875,4393.259765625,5033.81103515625,6654.2626953125,4247.82421875,3132.820068359375,-4398.82275390625,-10807.5146484375,-5741.119140625,2009.073974609375,-3953.77490234375,0.0,-6027.2216796875,0.0,-6786.98193359375,-10888.576171875,3840.128662109375,-9957.154296875,0.0,-14065.1064453125,-1895.427734375,0.0,-6837.8447265625,0.0,5017.12158203125,-0.0,-5896.88623046875
-3713.766845703125,-4613.3994140625,12034.5751953125,-7835.22900390625,6922.08642578125,2779.960693359375,3546.078857421875,-5693.435546875,0.0,-5024.2744140625,-2365.1123046875,-12623.4697265625,0.0,0.0,0.0,-3436.406494140625,2940.495849609375,11923.3134765625,-0.0,-701.745361328125,5970.0009765625,9705.2255859375,7186.73095703125,3054.14208984375,2607.504638671875,-7642.90478515625,-5809.4658203125,7238.38818359375,-1161.0985107421875,-2407.23291015625,10201.9306640625,-6148.81494140625,9156.86328125,7780.39306640625,5691.84619140625,8175.373046875,2837.18115234375,-1376.469970703125,5478.06396484375,-0.0,4716.71435546875,-15014.8076171875,2590.0205078125,12919.1083984375,2652.80419921875,-7103.2841796875,4405.9755859375,5075.931640625,6655.0576171875,4255.771484375,3132.025390625,-4405.1806640625,-10823.4091796875,-5756.21923828125,2007.484375,-3918.806640625,0.0,-5999.40625,0.0,-6796.51904296875,-10879.833984375,3840.92333984375,-9961.1279296875,0.0,-14090.5380859375,-1849.3333740234375,0.0,-6810.029296875,0.0,5030.6318359375,-0.0,-5892.91259765625
-3717.740234375,-4620.55224609375,12050.4697265625,-7809.00341796875,6929.23876953125,2792.67626953125,3549.258056640625,-5687.87255859375,0.0,-5021.09521484375,-2363.522705078125,-12587.70703125,0.0,0.0,0.0,-3435.61181640625,2954.80078125,11932.0556640625,-0.0,-698.56640625,5980.3330078125,9719.53125,7194.677734375,3060.5,2610.683349609375,-7618.2685546875,-5802.3134765625,7241.56689453125,-1157.9195556640625,-2377.827880859375,10214.646484375,-6122.5888671875,9168.7841796875,7799.466796875,5699.79345703125,8186.49951171875,2840.35986328125,-1371.7015380859375,5504.2900390625,-0.0,4725.4560546875,-14996.5283203125,2596.37841796875,12924.6708984375,2653.598876953125,-7096.92626953125,4414.71728515625,5098.18408203125,6662.2099609375,4272.4609375,3133.61474609375,-4403.59130859375,-10791.619140625,-5706.1513671875,2010.663330078125,-3883.0439453125,0.0,-5977.15380859375,0.0,-6793.34033203125,-10870.2978515625,3845.691650390625,-9957.94921875,0.0,-14082.5908203125,-1822.312744140625,0.0,-6780.62451171875,0.0,5034.60546875,-0.0,-5888.93896484375
-3733.635009765625,-4566.5107421875,12063.185546875,-7790.72412109375,6941.9541015625,2808.57080078125,3553.2314453125,-5671.18310546875,0.0,-5002.02197265625,-2354.781005859375,-12588.5009765625,0.0,0.0,0.0,-3412.564453125,2972.284912109375,11946.3603515625,-0.0,-685.0560302734375,5993.04833984375,9732.24609375,7205.80419921875,3074.804931640625,2621.014892578125,-7606.34765625,-5794.3662109375,7258.25634765625,-1145.2039794921875,-2353.986083984375,10226.5673828125,-6105.10498046875,9187.857421875,7814.56640625,5712.50927734375,8200.009765625,2845.12841796875,-1358.191162109375,5535.28466796875,-0.0,4738.96630859375,-14982.2236328125,2602.736328125,12939.7705078125,2657.572509765625,-7080.23681640625,4423.45947265625,5104.5419921875,6672.541015625,4289.9453125,3135.9990234375,-4385.3125,-10794.798828125,-5656.8779296875,2020.994873046875,-3883.838623046875,0.0,-5976.35888671875,0.0,-6771.087890625,-10891.7548828125,3859.2021484375,-9944.4384765625,0.0,-14083.3857421875,-1842.180908203125,0.0,-6747.24560546875,0.0,5056.85791015625,-0.0,-5857.1494140625
-3697.8720703125,-4487.83251953125,12065.5703125,-7781.1875,6945.13330078125,2830.8232421875,3554.821044921875,-5648.13623046875,0.0,-4977.38525390625,-2334.91259765625,-12564.6591796875,0.0,0.0,0.0,-3384.749267578125,2985.795166015625,11959.8701171875,-0.0,-669.9561767578125,6002.5849609375,9748.1416015625,7213.75146484375,3091.494384765625,2606.709716796875,-7584.09521484375,-5794.3662109375,7283.6875,-1161.8931884765625,-2334.91259765625,10239.283203125,-6088.41552734375,9197.39453125,7828.87158203125,5724.43017578125,8215.904296875,2848.307373046875,-1338.322998046875,5528.9267578125,-0.0,4745.32470703125,-14962.35546875,2604.325439453125,12962.818359375,2658.3671875,-7057.18994140625,4416.30712890625,5105.33642578125,6675.72021484375,4316.9658203125,3138.383056640625,-4360.67578125,-10763.8046875,-5624.29443359375,2007.484375,-3875.0966796875,0.0,-5958.875,0.0,-6739.29833984375,-10849.634765625,3875.891357421875,-9929.33984375,0.0,-14077.822265625,-1817.5443115234375,0.0,-6701.1513671875,0.0,5104.5419921875,-0.0,-5817.4130859375
-3658.930419921875,-4471.9375,12054.443359375,-7778.80322265625,6933.21240234375,2835.591552734375,3550.052734375,-5643.36767578125,0.0,-4976.5908203125,-2317.4287109375,-12553.5322265625,0.0,0.0,0.0,-3377.5966796875,2983.4111328125,11958.28125,-0.0,-675.519287109375,5997.81640625,9749.73046875,7210.57275390625,3093.87841796875,2613.067626953125,-7571.37939453125,-5810.2607421875,7290.84033203125,-1155.535400390625,-2344.44921875,10240.078125,-6090.00537109375,9189.4462890625,7828.87158203125,5718.072265625,8217.494140625,2844.333740234375,-1335.14404296875,5510.6484375,-0.0,4738.171875,-14954.4072265625,2597.9677734375,12968.380859375,2654.3935546875,-7055.6005859375,4398.82275390625,5121.23095703125,6666.18359375,4322.52880859375,3135.204345703125,-4355.9072265625,-10751.8837890625,-5630.65185546875,2013.84228515625,-3887.812255859375,0.0,-5947.74853515625,0.0,-6737.708984375,-10781.2880859375,3876.68603515625,-9927.75,0.0,-14063.517578125,-1801.649658203125,0.0,-6717.04638671875,0.0,5102.15771484375,-0.0,-5834.1025390625
-3659.72509765625,-4507.70068359375,12032.9853515625,-7792.31396484375,6923.67578125,2813.33935546875,3548.463134765625,-5665.6201171875,0.0,-5009.17431640625,-2350.012451171875,-12582.9384765625,0.0,0.0,0.0,-3410.97509765625,2965.132568359375,11941.591796875,-0.0,-696.9769897460938,5981.92236328125,9733.041015625,7197.06201171875,3077.189208984375,2605.9150390625,-7588.86328125,-5813.43994140625,7266.998046875,-1162.6878662109375,-2330.93896484375,10223.388671875,-6111.462890625,9167.9892578125,7811.3876953125,5702.97265625,8199.21484375,2839.565185546875,-1357.396484375,5486.80615234375,-0.0,4724.6611328125,-14971.892578125,2590.0205078125,12946.9228515625,2652.80419921875,-7081.03173828125,4386.10693359375,5116.462890625,6657.44140625,4297.09765625,3132.025390625,-4382.13330078125,-10814.6669921875,-5625.08935546875,2006.6898193359375,-3925.959228515625,0.0,-5975.564453125,0.0,-6775.85595703125,-10776.51953125,3859.2021484375,-9947.6171875,0.0,-14072.2587890625,-1821.5179443359375,0.0,-6777.4453125,0.0,5036.98974609375,-0.0,-5908.01220703125
-3682.7724609375,-4550.61572265625,12040.9326171875,-7784.36669921875,6930.828125,2816.51806640625,3552.436767578125,-5661.646484375,0.0,-5003.611328125,-2351.601806640625,-12599.6279296875,0.0,0.0,0.0,-3408.591064453125,2965.92724609375,11944.7705078125,-0.0,-690.619140625,5984.30615234375,9734.630859375,7199.4462890625,3079.573486328125,2605.120361328125,-7581.7109375,-5807.87646484375,7273.35595703125,-1163.482666015625,-2313.454833984375,10225.7724609375,-6113.05224609375,9172.7568359375,7814.56640625,5706.94580078125,8203.1884765625,2841.949462890625,-1354.217529296875,5497.1376953125,-0.0,4728.63525390625,-14967.91796875,2593.994140625,12950.8974609375,2654.3935546875,-7076.263671875,4398.02783203125,5153.0205078125,6663.79931640625,4300.2763671875,3135.9990234375,-4378.95458984375,-10844.8671875,-5648.93115234375,2005.1002197265625,-3910.859619140625,0.0,-5962.8486328125,0.0,-6771.88232421875,-10812.2822265625,3862.380859375,-9943.64453125,0.0,-14089.7431640625,-1786.5499267578125,0.0,-6771.087890625,0.0,5036.1953125,-0.0,-5904.0390625
-3732.84033203125,-4587.96826171875,12051.2646484375,-7765.29296875,6935.5966796875,2814.1337890625,3553.2314453125,-5668.798828125,0.0,-5007.5849609375,-2341.2705078125,-12594.0634765625,0.0,0.0,0.0,-3429.25390625,2969.90087890625,11942.38671875,-0.0,-686.6455078125,5989.07470703125,9736.220703125,7199.4462890625,3075.599609375,2606.709716796875,-7557.869140625,-5806.287109375,7262.22998046875,-1161.0985107421875,-2346.83349609375,10226.5673828125,-6113.84716796875,9177.525390625,7817.7451171875,5707.74072265625,8203.1884765625,2842.744140625,-1357.396484375,5513.82666015625,-0.0,4735.7880859375,-14959.9716796875,2594.788818359375,12943.7451171875,2656.777587890625,-7077.8525390625,4409.154296875,5186.39892578125,6666.978515625,4291.5341796875,3136.7939453125,-4387.69677734375,-10817.845703125,-5698.9990234375,2007.484375,-3886.222900390625,0.0,-5977.15380859375,0.0,-6783.80322265625,-10843.27734375,3859.2021484375,-9944.4384765625,0.0,-14120.73828125,-1777.01318359375,0.0,-6819.56640625,0.0,5014.73779296875,-0.0,-5896.09130859375
-3746.3505859375,-4560.15234375,12043.31640625,-7790.72412109375,6927.64892578125,2792.67626953125,3549.258056640625,-5683.10400390625,0.0,-5005.20068359375,-2379.41748046875,-12600.421875,0.0,0.0,0.0,-3441.9697265625,2961.953369140625,11931.259765625,-0.0,-685.8507690429688,5978.7431640625,9719.53125,7191.4990234375,3062.884033203125,2603.53076171875,-7612.705078125,-5811.85009765625,7239.18310546875,-1164.2774658203125,-2353.19140625,10215.44140625,-6112.25732421875,9170.373046875,7805.029296875,5698.2041015625,8187.2939453125,2841.15478515625,-1366.138427734375,5520.18505859375,-0.0,4726.2509765625,-14986.197265625,2591.60986328125,12925.4658203125,2655.98291015625,-7084.2109375,4391.67041015625,5122.02587890625,6659.03076171875,4264.513671875,3135.204345703125,-4402.001953125,-10813.8720703125,-5719.66162109375,2004.3055419921875,-3898.9384765625,0.0,-6014.505859375,0.0,-6785.392578125,-10863.14453125,3848.87060546875,-9949.20703125,0.0,-14119.9423828125,-1858.8701171875,0.0,-6810.82373046875,0.0,5023.4794921875,-0.0,-5877.01806640625
-3720.12451171875,-4520.416015625,12023.44921875,-7815.36083984375,6914.138671875,2778.37109375,3548.463134765625,-5691.84619140625,0.0,-5005.9951171875,-2387.36474609375,-12605.1904296875,0.0,0.0,0.0,-3450.71142578125,2952.416748046875,11920.134765625,-0.0,-685.0560302734375,5965.23291015625,9705.2255859375,7183.5517578125,3052.552490234375,2600.35205078125,-7655.62060546875,-5818.2080078125,7222.49365234375,-1165.8668212890625,-2338.88623046875,10205.109375,-6110.66796875,9156.86328125,7793.9033203125,5687.87255859375,8173.783203125,2837.18115234375,-1373.291015625,5489.98486328125,-0.0,4709.56201171875,-15006.859375,2586.046875,12915.134765625,2653.598876953125,-7090.568359375,4367.03369140625,5087.8525390625,6643.93115234375,4247.82421875,3133.61474609375,-4409.154296875,-10806.7197265625,-5679.13037109375,2001.1265869140625,-3907.680419921875,0.0,-6031.990234375,0.0,-6786.98193359375,-10862.3505859375,3839.333740234375,-9953.9755859375,0.0,-14105.6376953125,-1912.9117431640625,0.0,-6818.771484375,0.0,5027.453125,-0.0,-5861.91796875
-3705.024658203125,-4478.2958984375,12012.322265625,-7824.89794921875,6906.986328125,2772.013427734375,3546.078857421875,-5695.81982421875,0.0,-5006.7900390625,-2372.264892578125,-12605.984375,0.0,0.0,0.0,-3457.0693359375,2944.469482421875,11917.75,-0.0,-686.6455078125,5960.46435546875,9701.251953125,7182.7568359375,3047.7841796875,2595.583740234375,-7651.64697265625,-5813.43994140625,7216.1357421875,-1170.63525390625,-2339.680908203125,10199.546875,-6116.2314453125,9147.326171875,7788.34033203125,5683.89892578125,8167.42626953125,2837.18115234375,-1374.8804931640625,5478.85888671875,-0.0,4702.4091796875,-15013.2177734375,2586.841552734375,12911.9560546875,2651.214599609375,-7092.15771484375,4358.29150390625,5068.77880859375,6632.009765625,4235.9033203125,3132.025390625,-4413.1279296875,-10804.3359375,-5637.8046875,1995.5634765625,-3937.880126953125,0.0,-6032.78515625,0.0,-6790.1611328125,-10881.423828125,3837.744384765625,-9955.5654296875,0.0,-14099.2802734375,-1917.68017578125,0.0,-6844.99755859375,0.0,5018.7109375,-0.0,-5857.1494140625
-3707.408935546875,-4475.91162109375,11998.8125,-7855.09765625,6912.54931640625,2755.32421875,3546.078857421875,-5703.76708984375,0.0,-5014.73779296875,-2386.570068359375,-12605.1904296875,0.0,0.0,0.0,-3467.40087890625,2927.7802734375,11908.2138671875,-0.0,-691.4138793945312,5950.927734375,9685.357421875,7180.37255859375,3039.8369140625,2570.947021484375,-7679.46240234375,-5799.92919921875,7204.21435546875,-1196.861328125,-2367.49658203125,10185.2421875,-6140.0732421875,9133.8154296875,7765.29296875,5677.541015625,8155.50537109375,2836.386474609375,-1382.8277587890625,5462.96435546875,-0.0,4693.6669921875,-15035.4697265625,2589.225830078125,12899.2392578125,2651.214599609375,-7100.10546875,4347.16552734375,5019.505859375,6640.75244140625,4216.82958984375,3132.025390625,-4423.45947265625,-10828.177734375,-5638.599609375,1970.132080078125,-3956.95361328125,0.0,-6037.55322265625,0.0,-6800.49267578125,-10871.88671875,3830.591796875,-9959.5380859375,0.0,-14111.99609375,-1927.2169189453125,0.0,-6852.14990234375,0.0,5017.12158203125,-0.0,-5865.89208984375
-3681.9775390625,-4494.1904296875,12001.197265625,-7860.66064453125,6903.0126953125,2758.5029296875,3543.69482421875,-5701.38330078125,0.0,-5019.505859375,-2379.41748046875,-12583.732421875,0.0,0.0,0.0,-3463.42724609375,2926.190673828125,11908.2138671875,-0.0,-695.3875122070312,5947.74853515625,9685.357421875,7175.6044921875,3041.426513671875,2580.483642578125,-7675.48876953125,-5819.00244140625,7208.98291015625,-1186.52978515625,-2359.54931640625,10185.2421875,-6144.046875,9133.8154296875,7763.70361328125,5673.5673828125,8158.68359375,2833.207275390625,-1383.62255859375,5458.99072265625,-0.0,4693.6669921875,-15033.0859375,2581.278564453125,12901.6240234375,2650.419921875,-7102.4892578125,4355.9072265625,5017.12158203125,6635.98388671875,4223.982421875,3128.846435546875,-4419.4853515625,-10828.177734375,-5601.2470703125,1981.2584228515625,-3943.443359375,0.0,-6031.1953125,0.0,-6801.287109375,-10850.4296875,3829.00244140625,-9961.9228515625,0.0,-14104.8427734375,-1913.7064208984375,0.0,-6849.765625,0.0,5003.611328125,-0.0,-5886.5546875
-3658.930419921875,-4473.52734375,12005.169921875,-7849.5341796875,6903.80712890625,2770.423828125,3544.489501953125,-5693.435546875,0.0,-5013.94287109375,-2367.49658203125,-12555.9169921875,0.0,0.0,0.0,-3451.50634765625,2928.57470703125,11913.7763671875,-0.0,-693.798095703125,5951.72265625,9692.509765625,7177.98876953125,3046.989501953125,2591.60986328125,-7660.38916015625,-5826.9501953125,7222.49365234375,-1175.403564453125,-2346.038818359375,10190.009765625,-6146.43115234375,9133.8154296875,7770.8564453125,5677.541015625,8165.83642578125,2833.207275390625,-1375.6751708984375,5456.6064453125,-0.0,4698.435546875,-15025.138671875,2580.483642578125,12912.75,2651.214599609375,-7096.1318359375,4364.6494140625,5034.60546875,6633.599609375,4240.671875,3129.641357421875,-4410.74365234375,-10812.2822265625,-5572.63720703125,1991.58984375,-3934.701416015625,0.0,-6024.04248046875,0.0,-6793.34033203125,-10825.79296875,3832.18115234375,-9957.94921875,0.0,-14102.458984375,-1884.301513671875,0.0,-6844.99755859375,0.0,5002.02197265625,-0.0,-5899.2705078125
-3665.288330078125,-4463.99072265625,12000.4013671875,-7844.765625,6905.39697265625,2775.1923828125,3547.66845703125,-5690.2568359375,0.0,-5009.96923828125,-2378.622802734375,-12553.5322265625,0.0,0.0,0.0,-3448.327392578125,2929.36962890625,11916.16015625,-0.0,-691.4138793945312,5951.72265625,9693.3046875,7181.96240234375,3048.578857421875,2586.046875,-7649.2626953125,-5819.79736328125,7228.8515625,-1181.7613525390625,-2355.57568359375,10191.599609375,-6152.78857421875,9133.8154296875,7772.44580078125,5679.92529296875,8167.42626953125,2836.386474609375,-1371.7015380859375,5451.837890625,-0.0,4694.4619140625,-15022.7548828125,2583.662841796875,12916.724609375,2652.80419921875,-7094.5419921875,4355.11279296875,5045.73193359375,6635.18896484375,4246.23486328125,3132.025390625,-4408.359375,-10816.2568359375,-5609.9892578125,1987.6163330078125,-3928.34326171875,0.0,-6019.2744140625,0.0,-6791.75048828125,-10804.3359375,3836.155029296875,-9954.7705078125,0.0,-14100.869140625,-1872.380615234375,0.0,-6830.6923828125,0.0,5020.30029296875,-0.0,-5889.73388671875
-3676.41455078125,-4471.9375,12003.5810546875,-7838.40869140625,6908.57568359375,2781.550048828125,3550.052734375,-5683.89892578125,0.0,-5005.20068359375,-2381.0068359375,-12552.73828125,0.0,0.0,0.0,-3441.1748046875,2934.9326171875,11920.134765625,-0.0,-688.2349853515625,5957.28564453125,9699.662109375,7185.93603515625,3054.936767578125,2589.225830078125,-7642.90478515625,-5815.82421875,7236.00390625,-1178.58251953125,-2354.781005859375,10194.7783203125,-6151.994140625,9137.7900390625,7778.0087890625,5684.69384765625,8172.98876953125,2838.7705078125,-1366.9332275390625,5457.4013671875,-0.0,4699.22998046875,-15017.986328125,2586.046875,12922.287109375,2653.598876953125,-7088.1845703125,4358.29150390625,5061.62646484375,6637.5732421875,4253.3876953125,3133.61474609375,-4401.20703125,-10817.05078125,-5593.2998046875,1990.00048828125,-3902.912109375,0.0,-6006.55908203125,0.0,-6781.41943359375,-10805.9248046875,3839.333740234375,-9950.001953125,0.0,-14097.6904296875,-1859.6649169921875,0.0,-6811.61865234375,0.0,5025.06884765625,-0.0,-5885.759765625
-3687.540771484375,-4482.26953125,12012.322265625,-7832.05029296875,6914.93359375,2783.139404296875,3550.052734375,-5682.3095703125,0.0,-5004.40576171875,-2375.443603515625,-12551.1484375,0.0,0.0,0.0,-3440.380126953125,2936.522216796875,11923.3134765625,-0.0,-687.4402465820312,5961.25927734375,9702.046875,7188.3203125,3058.11572265625,2594.788818359375,-7641.3154296875,-5814.234375,7236.798828125,-1171.429931640625,-2342.065185546875,10197.95703125,-6147.22607421875,9142.5576171875,7782.77734375,5686.283203125,8175.373046875,2839.565185546875,-1365.34375,5464.5537109375,-0.0,4705.587890625,-15017.19140625,2588.43115234375,12926.2607421875,2654.3935546875,-7088.1845703125,4366.2392578125,5070.3681640625,6640.75244140625,4256.56640625,3132.820068359375,-4396.4384765625,-10820.2294921875,-5570.2529296875,1994.768798828125,-3901.322509765625,0.0,-6002.5849609375,0.0,-6780.62451171875,-10819.435546875,3840.92333984375,-9948.4130859375,0.0,-14097.6904296875,-1855.6912841796875,0.0,-6807.6455078125,0.0,5029.8369140625,-0.0,-5873.8388671875
-3700.25634765625,-4483.06396484375,12014.70703125,-7831.255859375,6916.52294921875,2787.11328125,3550.052734375,-5679.13037109375,0.0,-5002.02197265625,-2383.39111328125,-12551.943359375,0.0,0.0,0.0,-3435.61181640625,2938.906494140625,11926.4921875,-0.0,-684.2613525390625,5962.0537109375,9702.046875,7189.90966796875,3059.705078125,2593.994140625,-7637.341796875,-5813.43994140625,7241.56689453125,-1173.0194091796875,-2341.2705078125,10198.751953125,-6142.45751953125,9144.146484375,7785.9560546875,5686.283203125,8179.34716796875,2840.35986328125,-1362.95947265625,5466.14306640625,-0.0,4707.177734375,-15015.6025390625,2589.225830078125,12931.029296875,2655.188232421875,-7087.3896484375,4367.828125,5071.1630859375,6641.546875,4260.5400390625,3133.61474609375,-4393.259765625,-10838.5087890625,-5583.76318359375,1995.5634765625,-3912.448974609375,0.0,-5997.81640625,0.0,-6780.62451171875,-10850.4296875,3845.691650390625,-9946.8232421875,0.0,-14108.021484375,-1845.35986328125,0.0,-6797.3134765625,0.0,5040.1689453125,-0.0,-5867.4814453125
-3707.408935546875,-4486.24267578125,12019.474609375,-7819.3349609375,6918.1123046875,2793.47119140625,3548.463134765625,-5676.74658203125,0.0,-5002.02197265625,-2382.59619140625,-12555.9169921875,0.0,0.0,0.0,-3431.637939453125,2946.853515625,11925.697265625,-0.0,-687.4402465820312,5965.23291015625,9708.404296875,7190.7041015625,3062.089111328125,2595.583740234375,-7619.85791015625,-5813.43994140625,7246.33544921875,-1172.224609375,-2367.49658203125,10202.7255859375,-6135.3046875,9149.7109375,7793.9033203125,5688.66748046875,8181.7314453125,2837.975830078125,-1361.3701171875,5476.474609375,-0.0,4707.97216796875,-15005.2705078125,2589.225830078125,12934.2080078125,2653.598876953125,-7086.59521484375,4371.8017578125,5087.0576171875,6642.341796875,4264.513671875,3131.230712890625,-4393.259765625,-10836.9189453125,-5581.37890625,1996.358154296875,-3936.290771484375,0.0,-5997.81640625,0.0,-6779.03515625,-10867.119140625,3844.89697265625,-9946.0283203125,0.0,-14105.6376953125,-1839.001953125,0.0,-6783.80322265625,0.0,5036.98974609375,-0.0,-5873.8388671875
-3718.53515625,-4468.75927734375,12021.859375,-7812.18212890625,6918.9072265625,2796.64990234375,3546.078857421875,-5676.74658203125,0.0,-5005.20068359375,-2392.133056640625,-12551.943359375,0.0,0.0,0.0,-3429.25390625,2947.648193359375,11924.9033203125,-0.0,-691.4138793945312,5965.23291015625,9713.1728515625,7188.3203125,3062.884033203125,2593.199462890625,-7611.11572265625,-5813.43994140625,7250.30908203125,-1174.60888671875,-2350.80712890625,10205.9052734375,-6132.1259765625,9152.0947265625,7797.876953125,5690.2568359375,8184.115234375,2837.975830078125,-1360.5753173828125,5486.01171875,-0.0,4711.94580078125,-14997.3232421875,2587.63623046875,12936.591796875,2651.214599609375,-7087.3896484375,4371.8017578125,5101.36279296875,6643.13671875,4270.87158203125,3131.230712890625,-4392.46533203125,-10847.2509765625,-5566.27880859375,1992.3846435546875,-3908.475341796875,0.0,-5994.63818359375,0.0,-6776.65087890625,-10825.79296875,3844.89697265625,-9949.20703125,0.0,-14111.201171875,-1821.5179443359375,0.0,-6798.1083984375,0.0,5017.12158203125,-0.0,-5888.14404296875
-3752.70849609375,-4467.16943359375,12026.6279296875,-7813.771484375,6919.7021484375,2795.855224609375,3546.078857421875,-5675.1572265625,0.0,-5005.20068359375,-2383.39111328125,-12535.2548828125,0.0,0.0,0.0,-3428.459228515625,2948.443115234375,11924.9033203125,-0.0,-689.8244018554688,5967.6171875,9713.1728515625,7189.115234375,3063.6787109375,2595.583740234375,-7619.85791015625,-5812.64501953125,7249.51416015625,-1173.0194091796875,-2306.30224609375,10205.109375,-6128.15234375,9153.68359375,7800.26123046875,5689.46240234375,8184.90966796875,2837.975830078125,-1361.3701171875,5492.369140625,-0.0,4712.740234375,-14997.3232421875,2586.046875,12938.181640625,2653.598876953125,-7085.80029296875,4368.623046875,5091.826171875,6642.341796875,4274.05029296875,3132.025390625,-4391.67041015625,-10859.171875,-5571.04736328125,1997.153076171875,-3865.559814453125,0.0,-5994.63818359375,0.0,-6774.2666015625,-10804.3359375,3844.10205078125,-9950.796875,0.0,-14108.8173828125,-1815.954833984375,0.0,-6793.34033203125,0.0,5027.453125,-0.0,-5888.93896484375
-3747.1455078125,-4502.1376953125,12022.654296875,-7805.82421875,6919.7021484375,2798.239501953125,3546.873779296875,-5675.95166015625,0.0,-5004.40576171875,-2351.601806640625,-12538.4326171875,0.0,0.0,0.0,-3430.84326171875,2955.595703125,11928.8759765625,-0.0,-685.8507690429688,5968.412109375,9716.3515625,7190.7041015625,3066.06298828125,2602.736328125,-7615.88427734375,-5812.64501953125,7247.9248046875,-1165.8668212890625,-2302.328857421875,10208.2890625,-6118.61572265625,9156.86328125,7805.82421875,5690.2568359375,8188.8837890625,2838.7705078125,-1358.98583984375,5493.1640625,-0.0,4708.76708984375,-14994.14453125,2587.63623046875,12937.38671875,2653.598876953125,-7085.00537109375,4354.318359375,5095.7998046875,6642.341796875,4274.84521484375,3132.820068359375,-4390.87548828125,-10852.8134765625,-5583.76318359375,2005.1002197265625,-3861.58642578125,0.0,-6000.20068359375,0.0,-6776.65087890625,-10841.6875,3847.28125,-9949.20703125,0.0,-14096.896484375,-1839.001953125,0.0,-6774.2666015625,0.0,5044.14208984375,-0.0,-5866.6865234375
-3730.4560546875,-4539.48974609375,12047.291015625,-7791.51904296875,6926.8544921875,2810.955078125,3552.436767578125,-5665.6201171875,0.0,-4996.45849609375,-2390.543701171875,-12547.17578125,0.0,0.0,0.0,-3418.127685546875,2966.7216796875,11938.4130859375,-0.0,-681.0823974609375,5978.7431640625,9725.09375,7199.4462890625,3075.599609375,2599.55712890625,-7602.37353515625,-5809.4658203125,7259.05078125,-1168.2509765625,-2311.865478515625,10220.2099609375,-6109.0791015625,9170.373046875,7817.7451171875,5698.9990234375,8197.625,2841.15478515625,-1349.44921875,5503.49560546875,-0.0,4723.86669921875,-14983.8134765625,2591.60986328125,12948.5126953125,2655.188232421875,-7077.05810546875,4391.67041015625,5112.4892578125,6647.10986328125,4285.97119140625,3135.204345703125,-4382.13330078125,-10852.8134765625,-5589.326171875,2001.92138671875,-3856.81787109375,0.0,-5989.86962890625,0.0,-6764.72998046875,-10878.2451171875,3855.228515625,-9943.64453125,0.0,-14117.55859375,-1839.796630859375,0.0,-6752.80908203125,0.0,5053.67919921875,-0.0,-5856.35498046875
-3749.529541015625,-4536.310546875,12039.34375,-7792.31396484375,6922.08642578125,2810.160400390625,3550.052734375,-5668.00439453125,0.0,-5002.81689453125,-2408.822265625,-12543.99609375,0.0,0.0,0.0,-3423.69091796875,2958.774658203125,11935.234375,-0.0,-685.8507690429688,5973.974609375,9723.50390625,7197.06201171875,3074.804931640625,2592.404541015625,-7596.81103515625,-5810.2607421875,7260.640625,-1174.60888671875,-2311.865478515625,10216.236328125,-6121.0,9162.42578125,7812.97705078125,5694.23046875,8196.8310546875,2840.35986328125,-1351.8333740234375,5488.3955078125,-0.0,4717.5087890625,-14983.017578125,2590.0205078125,12950.1025390625,2654.3935546875,-7081.03173828125,4390.0810546875,5119.6416015625,6643.93115234375,4290.73974609375,3133.61474609375,-4386.10693359375,-10858.376953125,-5617.9365234375,1993.9739990234375,-3862.380859375,0.0,-5994.63818359375,0.0,-6775.06103515625,-10868.708984375,3852.84423828125,-9946.0283203125,0.0,-14127.095703125,-1823.107421875,0.0,-6755.193359375,0.0,5047.3212890625,-0.0,-5861.12353515625
-3770.9873046875,-4523.59521484375,12024.2431640625,-7790.72412109375,6918.9072265625,2808.57080078125,3548.463134765625,-5675.95166015625,0.0,-5017.12158203125,-2407.23291015625,-12526.51171875,0.0,0.0,0.0,-3436.406494140625,2952.416748046875,11928.0810546875,-0.0,-696.1822509765625,5966.02783203125,9720.3251953125,7190.7041015625,3069.24169921875,2593.994140625,-7592.8369140625,-5813.43994140625,7255.0771484375,-1174.60888671875,-2322.99169921875,10209.8779296875,-6125.76806640625,9152.0947265625,7809.7978515625,5687.87255859375,8193.65234375,2837.18115234375,-1358.191162109375,5486.01171875,-0.0,4707.97216796875,-14981.4287109375,2585.251953125,12946.9228515625,2652.00927734375,-7091.36328125,4372.5966796875,5129.97314453125,6639.16259765625,4293.12353515625,3132.025390625,-4394.05419921875,-10865.529296875,-5664.03076171875,1993.9739990234375,-3862.380859375,0.0,-6002.5849609375,0.0,-6790.1611328125,-10836.1240234375,3846.486328125,-9954.7705078125,0.0,-14124.7109375,-1821.5179443359375,0.0,-6778.240234375,0.0,5018.7109375,-0.0,-5896.09130859375
-3713.766845703125,-4507.70068359375,12029.806640625,-7776.4189453125,6924.47021484375,2820.49169921875,3549.258056640625,-5667.20947265625,0.0,-5015.5322265625,-2386.570068359375,-12491.5439453125,0.0,0.0,0.0,-3423.69091796875,2961.953369140625,11936.82421875,-0.0,-693.0033569335938,5975.564453125,9731.4521484375,7194.677734375,3077.98388671875,2601.94140625,-7573.76318359375,-5810.2607421875,7267.79296875,-1167.456298828125,-2315.839111328125,10218.6201171875,-6120.205078125,9162.42578125,7824.103515625,5695.02490234375,8203.9833984375,2839.565185546875,-1351.03857421875,5494.75341796875,-0.0,4718.3037109375,-14967.91796875,2588.43115234375,12956.4599609375,2653.598876953125,-7085.00537109375,4368.623046875,5150.63623046875,6642.341796875,4308.2236328125,3132.820068359375,-4383.72265625,-10850.4296875,-5664.03076171875,2001.1265869140625,-3862.380859375,0.0,-5982.716796875,0.0,-6779.03515625,-10809.103515625,3854.433837890625,-9950.001953125,0.0,-14123.1220703125,-1800.060302734375,0.0,-6790.1611328125,0.0,4972.61669921875,-0.0,-5922.3173828125
-3696.28271484375,-4513.263671875,12042.5224609375,-7778.0087890625,6930.828125,2826.054931640625,3550.847412109375,-5656.08349609375,0.0,-5006.7900390625,-2373.0595703125,-12526.51171875,0.0,0.0,0.0,-3399.848876953125,2966.7216796875,11940.001953125,-0.0,-685.8507690429688,5980.3330078125,9734.630859375,7199.4462890625,3086.725830078125,2599.55712890625,-7572.96875,-5802.3134765625,7283.6875,-1171.429931640625,-2308.6865234375,10221.0048828125,-6107.4892578125,9168.7841796875,7828.076171875,5699.79345703125,8208.751953125,2841.949462890625,-1341.5018310546875,5497.1376953125,-0.0,4727.04541015625,-14964.740234375,2594.788818359375,12966.7919921875,2657.572509765625,-7076.263671875,4385.3125,5147.45703125,6644.7255859375,4318.55517578125,3135.9990234375,-4368.623046875,-10842.482421875,-5638.599609375,1997.153076171875,-3872.71240234375,0.0,-5950.927734375,0.0,-6761.55078125,-10811.48828125,3858.4072265625,-9943.64453125,0.0,-14133.453125,-1852.5123291015625,0.0,-6793.34033203125,0.0,4994.07421875,-0.0,-5909.6015625
-3747.1455078125,-4556.17919921875,12036.9599609375,-7771.65087890625,6935.5966796875,2815.723388671875,3550.847412109375,-5666.41455078125,0.0,-5009.17431640625,-2380.212158203125,-12551.943359375,0.0,0.0,0.0,-3414.94873046875,2962.748291015625,11937.6181640625,-0.0,-688.2349853515625,5977.94873046875,9731.4521484375,7200.2412109375,3079.573486328125,2592.404541015625,-7581.7109375,-5796.75048828125,7266.998046875,-1176.1983642578125,-2342.85986328125,10217.0302734375,-6111.462890625,9164.015625,7826.4873046875,5699.79345703125,8206.3671875,2841.949462890625,-1347.8597412109375,5486.80615234375,-0.0,4724.6611328125,-14966.3291015625,2596.37841796875,12956.4599609375,2656.777587890625,-7080.23681640625,4378.16015625,5184.0146484375,6651.08349609375,4292.3291015625,3135.204345703125,-4382.92822265625,-10878.2451171875,-5594.88916015625,1993.9739990234375,-3916.42236328125,0.0,-5968.412109375,0.0,-6774.2666015625,-10830.5615234375,3854.433837890625,-9946.8232421875,0.0,-14146.1689453125,-1810.3917236328125,0.0,-6770.29296875,0.0,5033.01611328125,-0.0,-5884.96533203125
-3743.96630859375,-4618.962890625,12039.34375,-7772.44580078125,6929.23876953125,2806.9814453125,3546.873779296875,-5675.1572265625,0.0,-5017.916015625,-2356.3701171875,-12565.453125,0.0,0.0,0.0,-3434.022216796875,2959.5693359375,11932.849609375,-0.0,-695.3875122070312,5975.564453125,9725.888671875,7194.677734375,3070.03662109375,2606.709716796875,-7580.12158203125,-5807.08154296875,7248.7197265625,-1162.6878662109375,-2322.197021484375,10212.26171875,-6125.76806640625,9164.810546875,7823.30810546875,5693.435546875,8198.4208984375,2837.975830078125,-1356.6016845703125,5503.49560546875,-0.0,4723.86669921875,-14967.1240234375,2586.841552734375,12944.5390625,2652.80419921875,-7088.1845703125,4378.95458984375,5166.53076171875,6645.5205078125,4276.4345703125,3132.820068359375,-4394.84912109375,-10885.3974609375,-5584.55810546875,2007.484375,-3907.680419921875,0.0,-5985.10107421875,0.0,-6787.77685546875,-10836.1240234375,3846.486328125,-9953.9755859375,0.0,-14128.6845703125,-1777.807861328125,0.0,-6753.603515625,0.0,5034.60546875,-0.0,-5904.0390625
-3711.382568359375,-4550.61572265625,12053.6494140625,-7764.498046875,6938.775390625,2827.644287109375,3550.847412109375,-5652.904296875,0.0,-5004.40576171875,-2342.85986328125,-12493.927734375,0.0,0.0,0.0,-3405.411865234375,2977.053466796875,11945.5654296875,-0.0,-685.0560302734375,5987.4853515625,9739.3994140625,7203.419921875,3086.725830078125,2613.8623046875,-7558.6640625,-5803.1083984375,7278.91943359375,-1154.74072265625,-2240.340087890625,10227.3623046875,-6097.9521484375,9179.115234375,7842.38134765625,5704.5615234375,8213.5205078125,2841.949462890625,-1340.7071533203125,5513.82666015625,-0.0,4737.376953125,-14949.6396484375,2592.404541015625,12967.5869140625,2655.98291015625,-7073.08447265625,4386.90185546875,5127.5888671875,6652.67333984375,4309.81298828125,3135.9990234375,-4372.5966796875,-10848.044921875,-5558.33203125,2014.636962890625,-3843.3076171875,0.0,-5942.98046875,0.0,-6771.087890625,-10802.74609375,3859.996826171875,-9941.2607421875,0.0,-14120.73828125,-1750.787109375,0.0,-6729.76171875,0.0,5045.73193359375,-0.0,-5896.09130859375
-3685.156494140625,-4432.201171875,12056.8271484375,-7762.9091796875,6943.5439453125,2840.35986328125,3550.847412109375,-5640.1884765625,0.0,-4994.869140625,-2357.959716796875,-12443.0654296875,0.0,0.0,0.0,-3384.749267578125,2982.616455078125,11951.12890625,-0.0,-680.2876586914062,5992.25390625,9747.345703125,7210.57275390625,3096.2626953125,2616.24658203125,-7545.9482421875,-5802.3134765625,7296.4033203125,-1152.3564453125,-2229.213623046875,10234.515625,-6086.826171875,9182.2939453125,7849.5341796875,5712.50927734375,8223.056640625,2844.333740234375,-1329.5809326171875,5505.0849609375,-0.0,4738.96630859375,-14940.8974609375,2596.37841796875,12982.6865234375,2655.98291015625,-7063.5478515625,4383.72265625,5133.94677734375,6655.85205078125,4328.88671875,3135.204345703125,-4357.49658203125,-10827.3818359375,-5552.7685546875,2014.636962890625,-3822.64453125,0.0,-5912.78076171875,0.0,-6758.3720703125,-10812.2822265625,3867.944091796875,-9936.4921875,0.0,-14123.9169921875,-1722.9715576171875,0.0,-6719.4306640625,0.0,5059.2421875,-0.0,-5888.14404296875
-3681.9775390625,-4423.45947265625,12033.7802734375,-7774.03515625,6935.5966796875,2837.18115234375,3551.64208984375,-5638.599609375,0.0,-4990.8955078125,-2384.98046875,-12452.6025390625,0.0,0.0,0.0,-3378.391357421875,2969.90087890625,11947.1552734375,-0.0,-676.3140258789062,5981.92236328125,9739.3994140625,7207.3935546875,3094.673095703125,2605.9150390625,-7553.1005859375,-5807.87646484375,7295.6083984375,-1163.482666015625,-2271.33447265625,10225.7724609375,-6107.4892578125,9166.400390625,7836.81884765625,5704.5615234375,8218.2880859375,2841.949462890625,-1329.5809326171875,5472.50146484375,-0.0,4723.072265625,-14948.05078125,2592.404541015625,12981.8916015625,2655.98291015625,-7061.16357421875,4372.5966796875,5149.04638671875,6649.494140625,4324.1181640625,3135.204345703125,-4355.11279296875,-10849.634765625,-5626.6787109375,2004.3055419921875,-3813.902587890625,0.0,-5904.83349609375,0.0,-6748.8349609375,-10819.435546875,3865.559814453125,-9934.107421875,0.0,-14122.3271484375,-1753.9659423828125,0.0,-6682.078125,0.0,5074.34228515625,-0.0,-5877.01806640625
-3702.640625,-4510.08447265625,12019.474609375,-7775.62451171875,6928.44384765625,2829.23388671875,3550.847412109375,-5644.16259765625,0.0,-4988.51171875,-2404.848876953125,-12499.4912109375,0.0,0.0,0.0,-3379.18603515625,2957.18505859375,11938.4130859375,-0.0,-673.1351318359375,5969.20654296875,9731.4521484375,7201.0361328125,3089.110107421875,2592.404541015625,-7566.61083984375,-5810.2607421875,7287.6611328125,-1179.377197265625,-2317.4287109375,10217.0302734375,-6126.5625,9151.2998046875,7825.6923828125,5695.81982421875,8209.5458984375,2840.35986328125,-1333.5545654296875,5452.6328125,-0.0,4714.330078125,-14956.7919921875,2588.43115234375,12973.1494140625,2655.188232421875,-7060.369140625,4365.4443359375,5174.47802734375,6640.75244140625,4311.40283203125,3133.61474609375,-4359.08642578125,-10886.986328125,-5655.28857421875,1991.58984375,-3825.823486328125,0.0,-5915.9599609375,0.0,-6743.2724609375,-10839.302734375,3856.81787109375,-9935.6962890625,0.0,-14127.095703125,-1779.3973388671875,0.0,-6647.90478515625,0.0,5088.6474609375,-0.0,-5862.712890625
-3713.766845703125,-4551.41064453125,12019.474609375,-7772.44580078125,6926.0595703125,2825.26025390625,3549.258056640625,-5648.93115234375,0.0,-4992.48486328125,-2398.490966796875,-12536.84375,0.0,0.0,0.0,-3387.927978515625,2957.97998046875,11934.439453125,-0.0,-676.3140258789062,5970.0009765625,9727.478515625,7199.4462890625,3085.93115234375,2589.225830078125,-7568.20068359375,-5812.64501953125,7282.892578125,-1179.377197265625,-2381.801513671875,10214.646484375,-6116.2314453125,9152.0947265625,7828.87158203125,5695.81982421875,8207.95703125,2839.565185546875,-1338.322998046875,5456.6064453125,-0.0,4715.12451171875,-14959.17578125,2588.43115234375,12968.380859375,2653.598876953125,-7064.34228515625,4355.11279296875,5160.1728515625,6635.98388671875,4307.4287109375,3132.820068359375,-4363.85498046875,-10876.6552734375,-5582.96826171875,1990.00048828125,-3858.4072265625,0.0,-5933.443359375,0.0,-6750.4248046875,-10867.119140625,3853.638916015625,-9938.0810546875,0.0,-14131.0693359375,-1761.1185302734375,0.0,-6668.56787109375,0.0,5076.7265625,-0.0,-5867.4814453125
-3709.79296875,-4524.3896484375,12008.349609375,-7768.47216796875,6918.9072265625,2822.081298828125,3547.66845703125,-5650.5205078125,0.0,-4988.51171875,-2403.25927734375,-12578.169921875,0.0,0.0,0.0,-3397.46484375,2953.21142578125,11930.4658203125,-0.0,-672.3403930664062,5962.8486328125,9727.478515625,7197.06201171875,3082.752197265625,2579.68896484375,-7571.37939453125,-5812.64501953125,7277.330078125,-1188.1192626953125,-2423.92236328125,10208.2890625,-6122.5888671875,9145.736328125,7826.4873046875,5687.87255859375,8203.1884765625,2840.35986328125,-1342.296630859375,5457.4013671875,-0.0,4704.79345703125,-14959.9716796875,2586.046875,12965.2021484375,2653.598876953125,-7065.931640625,4337.62890625,5156.19921875,6629.6259765625,4307.4287109375,3133.61474609375,-4368.623046875,-10865.529296875,-5556.7421875,1981.2584228515625,-3848.87060546875,0.0,-5950.927734375,0.0,-6755.98779296875,-10894.9345703125,3849.665283203125,-9938.8759765625,0.0,-14136.6318359375,-1779.3973388671875,0.0,-6723.40380859375,0.0,5062.42138671875,-0.0,-5850.7919921875
-3717.740234375,-4469.5537109375,11993.2490234375,-7794.6982421875,6910.16552734375,2810.160400390625,3546.078857421875,-5660.05712890625,0.0,-4993.27978515625,-2415.974853515625,-12590.884765625,0.0,0.0,0.0,-3414.154052734375,2938.906494140625,11916.955078125,-0.0,-672.3403930664062,5950.1328125,9712.37890625,7185.93603515625,3071.6259765625,2566.178466796875,-7581.7109375,-5817.4130859375,7263.8193359375,-1200.8348388671875,-2311.865478515625,10193.984375,-6139.2783203125,9130.63671875,7812.97705078125,5676.74658203125,8189.67822265625,2836.386474609375,-1352.6280517578125,5445.48046875,-0.0,4690.48828125,-14974.2763671875,2580.483642578125,12955.666015625,2653.598876953125,-7076.263671875,4324.9130859375,5137.92041015625,6619.29443359375,4297.09765625,3132.820068359375,-4382.92822265625,-10883.80859375,-5549.58984375,1968.5428466796875,-3863.175537109375,0.0,-5995.4326171875,0.0,-6767.90869140625,-10870.2978515625,3838.5390625,-9946.0283203125,0.0,-14167.6259765625,-1811.1864013671875,0.0,-6776.65087890625,0.0,5049.70556640625,-0.0,-5842.8447265625
-3739.197998046875,-4471.9375,11990.865234375,-7826.4873046875,6903.80712890625,2793.47119140625,3544.489501953125,-5672.77294921875,0.0,-5002.02197265625,-2432.6640625,-12558.30078125,0.0,0.0,0.0,-3426.074951171875,2923.806396484375,11901.85546875,-0.0,-677.9035034179688,5938.2119140625,9693.3046875,7176.3994140625,3058.11572265625,2567.76806640625,-7604.7578125,-5822.9765625,7249.51416015625,-1196.861328125,-2273.718505859375,10181.267578125,-6158.35205078125,9117.9208984375,7793.1083984375,5667.20947265625,8173.783203125,2832.41259765625,-1365.34375,5435.14892578125,-0.0,4682.541015625,-14996.5283203125,2576.51025390625,12941.3603515625,2652.00927734375,-7085.00537109375,4324.1181640625,5115.66796875,6611.34716796875,4278.0244140625,3131.230712890625,-4394.05419921875,-10900.4970703125,-5594.88916015625,1970.927001953125,-3911.654052734375,0.0,-6012.12158203125,0.0,-6778.240234375,-10859.171875,3826.6181640625,-9953.9755859375,0.0,-14174.779296875,-1866.022705078125,0.0,-6819.56640625,0.0,5030.6318359375,-0.0,-5856.35498046875
-3743.171630859375,-4509.2900390625,11990.0703125,-7844.765625,6907.78125,2781.550048828125,3543.69482421875,-5676.74658203125,0.0,-5005.20068359375,-2431.86962890625,-12522.5380859375,0.0,0.0,0.0,-3441.1748046875,2916.65380859375,11901.0615234375,-0.0,-679.492919921875,5938.2119140625,9685.357421875,7176.3994140625,3053.347412109375,2580.483642578125,-7619.85791015625,-5818.2080078125,7233.61962890625,-1185.735107421875,-2281.665771484375,10177.294921875,-6165.50439453125,9114.7421875,7785.16162109375,5666.41455078125,8166.630859375,2834.796875,-1366.9332275390625,5435.943359375,-0.0,4684.13037109375,-15012.423828125,2578.099609375,12931.82421875,2651.214599609375,-7085.80029296875,4328.09228515625,5065.60009765625,6615.32080078125,4256.56640625,3132.025390625,-4402.001953125,-10897.318359375,-5647.34130859375,1983.642578125,-3916.42236328125,0.0,-6013.71142578125,0.0,-6779.03515625,-10859.171875,3825.028564453125,-9953.181640625,0.0,-14153.3212890625,-1893.8382568359375,0.0,-6834.666015625,0.0,5019.505859375,-0.0,-5882.5810546875
-3746.3505859375,-4505.31640625,11990.0703125,-7838.40869140625,6916.52294921875,2783.139404296875,3545.2841796875,-5680.7197265625,0.0,-5008.37939453125,-2416.769775390625,-12493.1337890625,0.0,0.0,0.0,-3456.274658203125,2924.601318359375,11905.8291015625,-0.0,-680.2876586914062,5943.775390625,9691.71484375,7181.16748046875,3055.7314453125,2586.841552734375,-7614.29443359375,-5816.61865234375,7227.26220703125,-1180.9666748046875,-2275.307861328125,10184.447265625,-6150.404296875,9119.5107421875,7795.49267578125,5671.97802734375,8173.783203125,2837.975830078125,-1364.549072265625,5442.30126953125,-0.0,4692.07763671875,-15008.44921875,2581.278564453125,12931.82421875,2652.80419921875,-7086.59521484375,4332.8603515625,5062.42138671875,6622.47314453125,4254.18212890625,3131.230712890625,-4408.359375,-10898.9072265625,-5595.68408203125,1987.6163330078125,-3874.302001953125,0.0,-5985.8955078125,0.0,-6783.80322265625,-10844.0712890625,3829.00244140625,-9952.3857421875,0.0,-14132.6591796875,-1866.8175048828125,0.0,-6805.26123046875,0.0,5028.248046875,-0.0,-5871.45458984375
-3739.197998046875,-4483.06396484375,12004.375,-7819.3349609375,6929.23876953125,2799.828857421875,3548.463134765625,-5665.6201171875,0.0,-4999.6376953125,-2388.159423828125,-12462.93359375,0.0,0.0,0.0,-3433.2275390625,2942.8798828125,11920.9287109375,-0.0,-671.545654296875,5958.875,9709.19921875,7193.88330078125,3070.831298828125,2599.55712890625,-7600.7841796875,-5809.4658203125,7247.9248046875,-1169.8404541015625,-2265.771240234375,10197.95703125,-6132.9208984375,9134.6103515625,7812.97705078125,5685.48828125,8190.47265625,2840.35986328125,-1351.03857421875,5451.837890625,-0.0,4706.3828125,-14989.3759765625,2586.841552734375,12949.3076171875,2653.598876953125,-7077.05810546875,4346.37060546875,5095.7998046875,6632.8046875,4274.05029296875,3134.40966796875,-4390.87548828125,-10903.67578125,-5549.58984375,2001.1265869140625,-3844.89697265625,0.0,-5947.74853515625,0.0,-6775.06103515625,-10828.9716796875,3841.718017578125,-9943.64453125,0.0,-14123.1220703125,-1823.107421875,0.0,-6790.1611328125,0.0,5053.67919921875,-0.0,-5834.1025390625
-3745.555908203125,-4497.369140625,12011.5283203125,-7806.619140625,6932.41748046875,2811.749755859375,3550.052734375,-5656.8779296875,0.0,-4994.869140625,-2392.133056640625,-12474.060546875,0.0,0.0,0.0,-3414.154052734375,2949.23779296875,11928.0810546875,-0.0,-669.1614990234375,5965.23291015625,9717.146484375,7198.65185546875,3077.98388671875,2593.994140625,-7584.8896484375,-5808.67138671875,7263.8193359375,-1176.9930419921875,-2259.41357421875,10204.3154296875,-6134.51025390625,9144.146484375,7822.513671875,5689.46240234375,8196.8310546875,2839.565185546875,-1344.6807861328125,5468.52734375,-0.0,4711.1513671875,-14979.8388671875,2586.841552734375,12960.43359375,2655.188232421875,-7069.90576171875,4347.16552734375,5114.07861328125,6635.18896484375,4288.35546875,3135.9990234375,-4379.74951171875,-10881.423828125,-5543.23193359375,1993.9739990234375,-3852.049560546875,0.0,-5942.18603515625,0.0,-6765.5244140625,-10846.4560546875,3845.691650390625,-9938.0810546875,0.0,-14135.04296875,-1802.4444580078125,0.0,-6783.80322265625,0.0,5048.91064453125,-0.0,-5846.0234375
-3744.76123046875,-4505.31640625,12004.375,-7800.26123046875,6928.44384765625,2814.1337890625,3548.463134765625,-5657.6728515625,0.0,-4994.869140625,-2403.25927734375,-12497.90234375,0.0,0.0,0.0,-3409.3857421875,2949.23779296875,11925.697265625,-0.0,-671.545654296875,5962.0537109375,9718.7353515625,7197.06201171875,3078.778564453125,2580.483642578125,-7565.81640625,-5809.4658203125,7266.20361328125,-1188.1192626953125,-2283.25537109375,10204.3154296875,-6127.357421875,9140.173828125,7826.4873046875,5686.283203125,8196.0361328125,2839.565185546875,-1346.270263671875,5458.99072265625,-0.0,4706.3828125,-14977.455078125,2586.046875,12962.818359375,2655.188232421875,-7069.11083984375,4334.44970703125,5134.7412109375,6628.83154296875,4293.12353515625,3133.61474609375,-4378.95458984375,-10889.37109375,-5582.96826171875,1982.0531005859375,-3891.785888671875,0.0,-5958.875,0.0,-6761.55078125,-10846.4560546875,3844.89697265625,-9939.6708984375,0.0,-14148.552734375,-1794.4971923828125,0.0,-6721.01953125,0.0,5060.037109375,-0.0,-5850.7919921875
-3759.861083984375,-4542.6689453125,12014.70703125,-7780.39306640625,6929.23876953125,2826.849609375,3550.052734375,-5652.10986328125,0.0,-4992.48486328125,-2411.20654296875,-12493.1337890625,0.0,0.0,0.0,-3399.848876953125,2957.97998046875,11931.259765625,-0.0,-676.3140258789062,5968.412109375,9728.2724609375,7199.4462890625,3085.136474609375,2585.251953125,-7558.6640625,-5809.4658203125,7278.12451171875,-1182.55615234375,-2290.407958984375,10211.4677734375,-6117.02587890625,9147.326171875,7836.0244140625,5689.46240234375,8203.9833984375,2841.15478515625,-1341.5018310546875,5470.91162109375,-0.0,4711.1513671875,-14967.91796875,2586.046875,12973.9443359375,2654.3935546875,-7068.31591796875,4348.7548828125,5177.65673828125,6630.4208984375,4315.37646484375,3133.61474609375,-4372.5966796875,-10902.8818359375,-5619.52587890625,1986.0267333984375,-3899.7333984375,0.0,-5956.4912109375,0.0,-6754.3984375,-10838.5087890625,3849.665283203125,-9938.0810546875,0.0,-14154.9111328125,-1770.6552734375,0.0,-6671.74658203125,0.0,5076.7265625,-0.0,-5857.1494140625
-3800.39208984375,-4572.0732421875,12025.0390625,-7774.830078125,6928.44384765625,2830.028564453125,3551.64208984375,-5651.3154296875,0.0,-4998.04833984375,-2427.10107421875,-12493.1337890625,0.0,0.0,0.0,-3405.411865234375,2961.15869140625,11930.4658203125,-0.0,-677.9035034179688,5971.59033203125,9729.0673828125,7198.65185546875,3085.93115234375,2588.43115234375,-7568.20068359375,-5810.2607421875,7278.91943359375,-1178.58251953125,-2273.718505859375,10215.44140625,-6109.87353515625,9153.68359375,7842.38134765625,5689.46240234375,8206.3671875,2840.35986328125,-1341.5018310546875,5485.216796875,-0.0,4714.330078125,-14970.302734375,2586.841552734375,12974.7392578125,2655.98291015625,-7071.4951171875,4361.470703125,5153.81494140625,6630.4208984375,4320.939453125,3133.61474609375,-4374.98095703125,-10929.107421875,-5578.99462890625,1989.20556640625,-3832.18115234375,0.0,-5953.31201171875,0.0,-6761.55078125,-10874.271484375,3849.665283203125,-9939.6708984375,0.0,-14170.0107421875,-1751.581787109375,0.0,-6698.76708984375,0.0,5060.83154296875,-0.0,-5877.01806640625
-3774.960693359375,-4557.7685546875,12025.8330078125,-7781.982421875,6926.8544921875,2822.8759765625,3550.847412109375,-5653.69921875,0.0,-4998.8427734375,-2413.590576171875,-12505.8486328125,0.0,0.0,0.0,-3408.591064453125,2961.15869140625,11927.287109375,-0.0,-673.9298706054688,5970.0009765625,9726.68359375,7197.85693359375,3082.752197265625,2586.841552734375,-7576.1474609375,-5808.67138671875,7272.5615234375,-1178.58251953125,-2328.554931640625,10211.4677734375,-6109.0791015625,9153.68359375,7839.9970703125,5688.66748046875,8200.009765625,2839.565185546875,-1341.5018310546875,5482.0380859375,-0.0,4712.740234375,-14978.25,2586.841552734375,12969.970703125,2655.98291015625,-7073.87939453125,4351.13916015625,5132.35693359375,6628.83154296875,4305.04443359375,3135.204345703125,-4379.74951171875,-10921.955078125,-5562.3056640625,1988.410888671875,-3830.591796875,0.0,-5946.1591796875,0.0,-6763.14013671875,-10889.37109375,3847.28125,-9940.46484375,0.0,-14150.9375,-1784.96044921875,0.0,-6723.40380859375,0.0,5054.4736328125,-0.0,-5866.6865234375
-3759.06640625,-4528.36376953125,12017.8857421875,-7797.876953125,6924.47021484375,2808.57080078125,3549.258056640625,-5659.26220703125,0.0,-4998.8427734375,-2411.20654296875,-12508.2333984375,0.0,0.0,0.0,-3414.94873046875,2951.6220703125,11920.9287109375,-0.0,-673.1351318359375,5962.8486328125,9716.3515625,7194.677734375,3073.215576171875,2580.483642578125,-7597.60546875,-5813.43994140625,7260.640625,-1187.324462890625,-2357.1650390625,10203.5205078125,-6121.79443359375,9146.53125,7828.87158203125,5683.89892578125,8190.47265625,2837.18115234375,-1346.270263671875,5465.3486328125,-0.0,4709.56201171875,-14990.9658203125,2582.0732421875,12959.6396484375,2655.98291015625,-7077.8525390625,4336.0390625,5113.28369140625,6624.857421875,4282.79248046875,3134.40966796875,-4384.517578125,-10899.703125,-5594.0947265625,1981.2584228515625,-3856.81787109375,0.0,-5954.9013671875,0.0,-6764.72998046875,-10894.9345703125,3840.128662109375,-9943.64453125,0.0,-14143.7841796875,-1815.954833984375,0.0,-6702.7412109375,0.0,5059.2421875,-0.0,-5848.40771484375
-3761.450439453125,-4522.00537109375,11998.017578125,-7820.923828125,6916.52294921875,2789.497314453125,3546.078857421875,-5673.5673828125,0.0,-5012.353515625,-2415.974853515625,-12505.8486328125,0.0,0.0,0.0,-3437.201171875,2938.906494140625,11909.0078125,-0.0,-681.8771362304688,5950.1328125,9699.662109375,7186.73095703125,3062.089111328125,2574.1259765625,-7626.21533203125,-5815.82421875,7239.9775390625,-1194.47705078125,-2349.2177734375,10190.009765625,-6132.9208984375,9129.841796875,7812.97705078125,5674.3623046875,8176.962890625,2836.386474609375,-1359.7806396484375,5443.89111328125,-0.0,4696.05126953125,-15011.6279296875,2578.099609375,12942.9501953125,2652.00927734375,-7091.36328125,4321.73388671875,5087.8525390625,6620.0888671875,4260.5400390625,3132.025390625,-4401.20703125,-10900.4970703125,-5623.49951171875,1974.1058349609375,-3925.164794921875,0.0,-5983.51123046875,0.0,-6783.0087890625,-10915.5966796875,3830.591796875,-9953.181640625,0.0,-14173.1904296875,-1841.38623046875,0.0,-6742.4775390625,0.0,5035.400390625,-0.0,-5868.27587890625
-3754.2978515625,-4571.27880859375,12005.169921875,-7812.18212890625,6930.033203125,2796.64990234375,3546.873779296875,-5668.798828125,0.0,-5012.353515625,-2396.9013671875,-12517.76953125,0.0,0.0,0.0,-3433.2275390625,2948.443115234375,11916.955078125,-0.0,-682.671875,5959.66943359375,9708.404296875,7193.88330078125,3069.24169921875,2591.60986328125,-7615.88427734375,-5807.87646484375,7243.951171875,-1177.787841796875,-2352.396728515625,10198.751953125,-6119.41015625,9138.583984375,7823.30810546875,5683.89892578125,8185.7041015625,2839.565185546875,-1353.4227294921875,5447.06982421875,-0.0,4707.177734375,-15003.681640625,2582.867919921875,12949.3076171875,2653.598876953125,-7085.00537109375,4331.2705078125,5106.130859375,6633.599609375,4267.6923828125,3135.204345703125,-4395.6435546875,-10908.4443359375,-5612.37353515625,1993.1793212890625,-3937.880126953125,0.0,-5985.10107421875,0.0,-6782.2138671875,-10905.265625,3840.128662109375,-9949.20703125,0.0,-14166.83203125,-1835.822998046875,0.0,-6775.85595703125,0.0,5013.94287109375,-0.0,-5872.24951171875
-3790.060791015625,-4574.45751953125,12001.197265625,-7805.82421875,6929.23876953125,2800.62353515625,3550.052734375,-5666.41455078125,0.0,-5009.17431640625,-2418.359130859375,-12532.8701171875,0.0,0.0,0.0,-3434.817138671875,2947.648193359375,11919.3388671875,-0.0,-680.2876586914062,5959.66943359375,9710.7890625,7195.47265625,3072.4208984375,2596.37841796875,-7607.14208984375,-5807.87646484375,7248.7197265625,-1171.429931640625,-2342.85986328125,10198.751953125,-6121.79443359375,9136.994140625,7828.87158203125,5683.10400390625,8185.7041015625,2839.565185546875,-1352.6280517578125,5443.89111328125,-0.0,4704.79345703125,-14999.70703125,2584.45751953125,12953.28125,2655.98291015625,-7081.82666015625,4320.939453125,5112.4892578125,6632.009765625,4276.4345703125,3135.9990234375,-4394.05419921875,-10924.3388671875,-5575.021484375,1997.94775390625,-3906.8857421875,0.0,-5993.84326171875,0.0,-6774.2666015625,-10918.7763671875,3840.128662109375,-9944.4384765625,0.0,-14193.0576171875,-1834.233642578125,0.0,-6771.087890625,0.0,5017.12158203125,-0.0,-5869.865234375
-3791.650146484375,-4544.25830078125,12002.7861328125,-7809.7978515625,6926.8544921875,2803.802490234375,3550.847412109375,-5668.798828125,0.0,-5007.5849609375,-2419.948486328125,-12533.6650390625,0.0,0.0,0.0,-3445.943115234375,2944.469482421875,11918.544921875,-0.0,-677.9035034179688,5958.080078125,9709.994140625,7194.677734375,3071.6259765625,2600.35205078125,-7608.73193359375,-5806.287109375,7249.51416015625,-1165.8668212890625,-2316.634033203125,10197.1630859375,-6126.5625,9133.8154296875,7828.076171875,5681.5146484375,8187.2939453125,2841.949462890625,-1351.8333740234375,5449.45361328125,-0.0,4702.4091796875,-15000.5029296875,2582.867919921875,12953.28125,2655.188232421875,-7084.2109375,4328.09228515625,5106.92578125,6629.6259765625,4285.1767578125,3136.7939453125,-4397.2333984375,-10927.517578125,-5589.326171875,2003.5107421875,-3883.838623046875,0.0,-6014.505859375,0.0,-6777.4453125,-10893.3447265625,3837.744384765625,-9946.0283203125,0.0,-14198.62109375,-1843.7703857421875,0.0,-6777.4453125,0.0,5009.96923828125,-0.0,-5863.5078125
-3766.218994140625,-4505.31640625,11998.017578125,-7830.46044921875,6925.2646484375,2799.828857421875,3550.052734375,-5669.59375,0.0,-5009.17431640625,-2389.748779296875,-12528.896484375,0.0,0.0,0.0,-3444.353759765625,2934.9326171875,11914.5712890625,-0.0,-679.492919921875,5953.31201171875,9702.841796875,7190.7041015625,3066.857666015625,2600.35205078125,-7615.08935546875,-5807.87646484375,7246.33544921875,-1161.0985107421875,-2277.692138671875,10192.39453125,-6140.0732421875,9127.4580078125,7816.1552734375,5676.74658203125,8182.525390625,2839.565185546875,-1353.4227294921875,5449.45361328125,-0.0,4697.64111328125,-15010.0390625,2582.0732421875,12952.4873046875,2654.3935546875,-7085.80029296875,4332.0654296875,5067.189453125,6628.03662109375,4285.97119140625,3135.204345703125,-4398.82275390625,-10909.240234375,-5601.2470703125,2003.5107421875,-3875.0966796875,0.0,-6009.7373046875,0.0,-6783.80322265625,-10854.4033203125,3833.770751953125,-9946.0283203125,0.0,-14164.4482421875,-1841.38623046875,0.0,-6767.90869140625,0.0,5009.17431640625,-0.0,-5863.5078125
-3791.650146484375,-4506.111328125,12018.6806640625,-7828.87158203125,6932.41748046875,2807.776123046875,3552.436767578125,-5659.26220703125,0.0,-4998.8427734375,-2432.6640625,-12521.744140625,0.0,0.0,0.0,-3426.074951171875,2939.701171875,11921.7236328125,-0.0,-675.519287109375,5961.25927734375,9708.404296875,7197.85693359375,3075.599609375,2595.583740234375,-7602.37353515625,-5805.4921875,7254.28271484375,-1169.0457763671875,-2267.360595703125,10199.546875,-6142.45751953125,9138.583984375,7820.923828125,5683.89892578125,8191.26806640625,2839.565185546875,-1345.4755859375,5459.78564453125,-0.0,4708.76708984375,-15003.681640625,2586.841552734375,12959.6396484375,2655.188232421875,-7076.263671875,4366.2392578125,5077.52099609375,6632.8046875,4289.9453125,3134.40966796875,-4387.69677734375,-10903.67578125,-5598.86328125,1997.94775390625,-3863.970458984375,0.0,-5973.18017578125,0.0,-6771.88232421875,-10874.271484375,3840.92333984375,-9937.2861328125,0.0,-14149.3486328125,-1829.4652099609375,0.0,-6719.4306640625,0.0,5048.91064453125,-0.0,-5855.560546875
-3786.881591796875,-4566.5107421875,12021.859375,-7824.103515625,6930.033203125,2809.365478515625,3550.052734375,-5658.4677734375,0.0,-5002.02197265625,-2477.1689453125,-12504.259765625,0.0,0.0,0.0,-3427.66455078125,2942.085205078125,11923.3134765625,-0.0,-677.9035034179688,5962.0537109375,9709.19921875,7197.85693359375,3076.394287109375,2585.251953125,-7596.81103515625,-5805.4921875,7255.8720703125,-1181.7613525390625,-2279.28173828125,10199.546875,-6143.251953125,9138.583984375,7822.513671875,5686.283203125,8191.26806640625,2838.7705078125,-1345.4755859375,5457.4013671875,-0.0,4713.53515625,-14999.70703125,2585.251953125,12962.0234375,2654.3935546875,-7075.46875,4363.06005859375,5075.931640625,6630.4208984375,4286.76611328125,3132.820068359375,-4386.90185546875,-10925.9287109375,-5625.08935546875,1988.410888671875,-3854.433837890625,0.0,-5956.4912109375,0.0,-6775.85595703125,-10893.3447265625,3841.718017578125,-9938.0810546875,0.0,-14162.8583984375,-1796.086669921875,0.0,-6721.814453125,0.0,5055.2685546875,-0.0,-5866.6865234375
-3782.11328125,-4587.96826171875,11998.8125,-7824.103515625,6922.880859375,2804.59716796875,3546.873779296875,-5660.85205078125,0.0,-5005.9951171875,-2447.76416015625,-12483.5966796875,0.0,0.0,0.0,-3426.86962890625,2931.75390625,11916.16015625,-0.0,-682.671875,5952.51708984375,9704.4306640625,7193.88330078125,3071.6259765625,2573.3310546875,-7596.81103515625,-5810.2607421875,7255.0771484375,-1194.47705078125,-2336.501953125,10190.8046875,-6156.7626953125,9126.6630859375,7816.95068359375,5676.74658203125,8187.2939453125,2836.386474609375,-1348.6544189453125,5430.38037109375,-0.0,4700.02490234375,-14998.9130859375,2580.483642578125,12958.84375,2651.214599609375,-7079.4423828125,4318.55517578125,5084.67333984375,6624.06298828125,4284.3818359375,3131.230712890625,-4389.2861328125,-10929.107421875,-5623.49951171875,1974.9005126953125,-3859.2021484375,0.0,-5962.0537109375,0.0,-6777.4453125,-10882.21875,3836.94970703125,-9940.46484375,0.0,-14165.2421875,-1809.5970458984375,0.0,-6709.8935546875,0.0,5048.91064453125,-0.0,-5875.4287109375
-3795.623779296875,-4562.53662109375,11995.6328125,-7813.771484375,6914.93359375,2809.365478515625,3544.489501953125,-5654.49365234375,0.0,-5002.81689453125,-2415.18017578125,-12470.8818359375,0.0,0.0,0.0,-3414.154052734375,2934.9326171875,11916.16015625,-0.0,-680.2876586914062,5949.33837890625,9708.404296875,7189.90966796875,3075.599609375,2586.841552734375,-7590.45263671875,-5821.38671875,7262.22998046875,-1180.9666748046875,-2316.634033203125,10192.39453125,-6147.22607421875,9127.4580078125,7823.30810546875,5672.77294921875,8190.47265625,2835.591552734375,-1345.4755859375,5430.38037109375,-0.0,4698.435546875,-14989.3759765625,2574.920654296875,12964.408203125,2650.419921875,-7074.67431640625,4309.81298828125,5102.95263671875,6618.5,4293.91845703125,3129.641357421875,-4382.13330078125,-10929.107421875,-5588.53125,1988.410888671875,-3856.023193359375,0.0,-5959.66943359375,0.0,-6765.5244140625,-10883.013671875,3838.5390625,-9939.6708984375,0.0,-14159.6796875,-1816.74951171875,0.0,-6676.51513671875,0.0,5057.65283203125,-0.0,-5868.27587890625
-3786.881591796875,-4531.54248046875,12000.4013671875,-7794.6982421875,6924.47021484375,2823.670654296875,3549.258056640625,-5646.546875,0.0,-4997.25341796875,-2407.23291015625,-12477.23828125,0.0,0.0,0.0,-3404.6171875,2946.05908203125,11923.3134765625,-0.0,-674.724609375,5955.6962890625,9718.7353515625,7194.677734375,3083.546875,2598.762451171875,-7566.61083984375,-5813.43994140625,7274.94580078125,-1169.0457763671875,-2294.38134765625,10201.9306640625,-6133.71533203125,9134.6103515625,7836.81884765625,5679.92529296875,8200.009765625,2837.975830078125,-1339.912353515625,5441.5068359375,-0.0,4704.79345703125,-14972.6865234375,2578.894287109375,12974.7392578125,2655.188232421875,-7068.31591796875,4312.197265625,5146.662109375,6629.6259765625,4309.81298828125,3132.025390625,-4372.5966796875,-10928.3134765625,-5553.5634765625,2000.3319091796875,-3829.797119140625,0.0,-5949.33837890625,0.0,-6757.57763671875,-10890.166015625,3844.10205078125,-9934.90234375,0.0,-14149.3486328125,-1788.93408203125,0.0,-6664.59423828125,0.0,5064.8056640625,-0.0,-5860.32861328125
-3800.39208984375,-4534.72119140625,12001.197265625,-7756.55126953125,6931.623046875,2841.15478515625,3550.052734375,-5637.01025390625,0.0,-4995.6640625,-2409.6171875,-12526.51171875,0.0,0.0,0.0,-3397.46484375,2954.006103515625,11932.0556640625,-0.0,-676.3140258789062,5962.0537109375,9735.4248046875,7199.4462890625,3095.4677734375,2595.583740234375,-7512.5693359375,-5808.67138671875,7288.4560546875,-1173.0194091796875,-2407.23291015625,10210.6728515625,-6122.5888671875,9136.2001953125,7858.2763671875,5687.078125,8215.109375,2838.7705078125,-1330.375732421875,5435.943359375,-0.0,4707.177734375,-14941.6923828125,2583.662841796875,12986.66015625,2655.98291015625,-7061.16357421875,4313.787109375,5226.93017578125,6632.8046875,4328.88671875,3133.61474609375,-4363.85498046875,-10943.4130859375,-5559.12646484375,1997.153076171875,-3836.94970703125,0.0,-5935.033203125,0.0,-6752.01416015625,-10926.7236328125,3852.049560546875,-9929.33984375,0.0,-14157.294921875,-1745.2239990234375,0.0,-6668.56787109375,0.0,5064.0107421875,-0.0,-5864.30224609375
-3805.16064453125,-4595.12109375,12011.5283203125,-7740.65625,6937.185546875,2854.6650390625,3551.64208984375,-5622.705078125,0.0,-4987.716796875,-2400.080322265625,-12523.333984375,0.0,0.0,0.0,-3379.18603515625,2968.311279296875,11942.38671875,-0.0,-673.1351318359375,5973.18017578125,9748.1416015625,7208.1884765625,3105.79931640625,2599.55712890625,-7515.74853515625,-5808.67138671875,7304.3505859375,-1171.429931640625,-2392.133056640625,10223.388671875,-6105.10498046875,9148.9150390625,7876.5556640625,5695.81982421875,8227.0302734375,2841.949462890625,-1320.8388671875,5451.04345703125,-0.0,4715.12451171875,-14928.9765625,2586.841552734375,13000.1708984375,2653.598876953125,-7050.83203125,4321.73388671875,5216.5986328125,6637.5732421875,4345.57568359375,3136.7939453125,-4350.34423828125,-10954.5390625,-5660.05712890625,1999.5372314453125,-3854.433837890625,0.0,-5908.01220703125,0.0,-6741.6826171875,-10953.744140625,3860.79150390625,-9922.1865234375,0.0,-14157.294921875,-1695.9508056640625,0.0,-6674.92529296875,0.0,5061.62646484375,-0.0,-5865.09716796875
-3799.597412109375,-4637.2412109375,12009.1435546875,-7755.75634765625,6934.00732421875,2849.896728515625,3550.052734375,-5621.115234375,0.0,-4988.51171875,-2397.6962890625,-12500.2861328125,0.0,0.0,0.0,-3370.444091796875,2962.748291015625,11937.6181640625,-0.0,-673.1351318359375,5969.20654296875,9740.193359375,7205.80419921875,3103.415283203125,2595.583740234375,-7547.537109375,-5806.287109375,7309.91357421875,-1173.814208984375,-2274.51318359375,10217.826171875,-6117.02587890625,9143.3525390625,7870.197265625,5693.435546875,8223.056640625,2841.949462890625,-1320.044189453125,5439.9169921875,-0.0,4712.740234375,-14940.1025390625,2586.046875,13000.96484375,2653.598876953125,-7050.03759765625,4332.0654296875,5175.2724609375,6633.599609375,4345.57568359375,3133.61474609375,-4345.57568359375,-10950.5654296875,-5665.6201171875,1995.5634765625,-3817.876220703125,0.0,-5888.93896484375,0.0,-6738.50390625,-10948.181640625,3858.4072265625,-9923.775390625,0.0,-14177.9580078125,-1733.3031005859375,0.0,-6666.978515625,0.0,5061.62646484375,-0.0,-5872.24951171875
-3859.996826171875,-4642.009765625,12002.7861328125,-7772.44580078125,6922.08642578125,2830.028564453125,3548.463134765625,-5636.21533203125,0.0,-4998.8427734375,-2419.948486328125,-12508.2333984375,0.0,0.0,0.0,-3384.749267578125,2943.6748046875,11922.5185546875,-0.0,-681.0823974609375,5954.9013671875,9721.9150390625,7193.08837890625,3089.110107421875,2586.841552734375,-7555.48486328125,-5805.4921875,7291.63525390625,-1180.9666748046875,-2264.9765625,10201.13671875,-6135.3046875,9128.2529296875,7851.1240234375,5679.92529296875,8205.5732421875,2837.975830078125,-1333.5545654296875,5432.7646484375,-0.0,4702.4091796875,-14957.5869140625,2580.483642578125,12985.865234375,2652.80419921875,-7063.5478515625,4351.93408203125,5160.1728515625,6623.26806640625,4320.939453125,3130.43603515625,-4361.470703125,-10940.234375,-5686.283203125,1986.0267333984375,-3856.023193359375,0.0,-5903.244140625,0.0,-6749.6298828125,-10914.802734375,3845.691650390625,-9934.107421875,0.0,-14195.4423828125,-1763.502685546875,0.0,-6649.494140625,0.0,5048.91064453125,-0.0,-5888.93896484375
-3875.0966796875,-4634.0625,12016.296875,-7742.24609375,6929.23876953125,2842.744140625,3552.436767578125,-5625.08935546875,0.0,-4982.9482421875,-2452.532470703125,-12523.333984375,0.0,0.0,0.0,-3367.264892578125,2957.97998046875,11933.64453125,-0.0,-668.3667602539062,5966.822265625,9737.8095703125,7202.62548828125,3099.44140625,2594.788818359375,-7527.66943359375,-5806.287109375,7297.19775390625,-1174.60888671875,-2376.238525390625,10213.0576171875,-6136.09912109375,9141.7626953125,7866.22314453125,5688.66748046875,8219.0830078125,2842.744140625,-1321.6336669921875,5452.6328125,-0.0,4711.1513671875,-14936.1298828125,2585.251953125,12996.1962890625,2655.98291015625,-7050.03759765625,4361.470703125,5234.876953125,6629.6259765625,4324.1181640625,3133.61474609375,-4350.34423828125,-10955.333984375,-5691.84619140625,1995.5634765625,-3995.8955078125,0.0,-5898.4755859375,0.0,-6730.556640625,-10895.7294921875,3854.433837890625,-9920.5966796875,0.0,-14178.7529296875,-1663.366943359375,0.0,-6619.29443359375,0.0,5069.57373046875,-0.0,-5869.0703125
-3824.23388671875,-4638.0361328125,12031.3955078125,-7723.96728515625,6931.623046875,2853.07568359375,3553.2314453125,-5619.52587890625,0.0,-4976.5908203125,-2450.1484375,-12552.73828125,0.0,0.0,0.0,-3366.47021484375,2969.90087890625,11941.591796875,-0.0,-665.1878662109375,5973.974609375,9745.7568359375,7205.00927734375,3105.79931640625,2589.225830078125,-7505.4169921875,-5811.0556640625,7301.171875,-1180.1719970703125,-2466.042724609375,10221.0048828125,-6121.79443359375,9157.6572265625,7876.5556640625,5691.05126953125,8227.0302734375,2842.744140625,-1318.4547119140625,5458.99072265625,-0.0,4717.5087890625,-14923.4130859375,2584.45751953125,13001.759765625,2656.777587890625,-7046.06396484375,4351.13916015625,5291.30322265625,6629.6259765625,4335.24462890625,3134.40966796875,-4345.57568359375,-10992.6865234375,-5670.388671875,1990.795166015625,-3979.2060546875,0.0,-5904.83349609375,0.0,-6728.96728515625,-10936.259765625,3858.4072265625,-9919.802734375,0.0,-14177.9580078125,-1655.419677734375,0.0,-6620.0888671875,0.0,5083.083984375,-0.0,-5839.666015625
-3785.29248046875,-4600.68359375,12021.859375,-7721.5830078125,6926.0595703125,2846.7177734375,3552.436767578125,-5625.08935546875,0.0,-4978.974609375,-2429.4853515625,-12528.1015625,0.0,0.0,0.0,-3379.980712890625,2966.7216796875,11936.0283203125,-0.0,-665.9825439453125,5970.7958984375,9744.9619140625,7203.419921875,3100.236083984375,2593.994140625,-7524.490234375,-5807.87646484375,7294.01904296875,-1175.403564453125,-2344.44921875,10218.6201171875,-6117.82080078125,9151.2998046875,7877.349609375,5687.87255859375,8222.2626953125,2843.5390625,-1322.4283447265625,5463.7587890625,-0.0,4713.53515625,-14923.4130859375,2584.45751953125,12996.1962890625,2656.777587890625,-7048.4482421875,4324.9130859375,5285.73974609375,6620.8837890625,4328.88671875,3134.40966796875,-4351.93408203125,-10972.0234375,-5754.62939453125,1995.5634765625,-3824.23388671875,0.0,-5929.47021484375,0.0,-6736.11962890625,-10941.8232421875,3855.228515625,-9922.1865234375,0.0,-14167.6259765625,-1697.540283203125,0.0,-6626.447265625,0.0,5076.7265625,-0.0,-5834.8974609375
-3801.981689453125,-4622.93603515625,12000.4013671875,-7735.88818359375,6931.623046875,2837.18115234375,3553.2314453125,-5633.0361328125,0.0,-4982.1533203125,-2439.02197265625,-12511.4130859375,0.0,0.0,0.0,-3395.875244140625,2954.80078125,11929.6708984375,-0.0,-669.1614990234375,5960.46435546875,9734.630859375,7201.83056640625,3093.87841796875,2577.304931640625,-7541.974609375,-5797.544921875,7282.09814453125,-1192.0928955078125,-2299.149658203125,10208.2890625,-6124.97314453125,9133.8154296875,7867.81298828125,5683.89892578125,8213.5205078125,2843.5390625,-1327.991455078125,5423.22802734375,-0.0,4707.177734375,-14934.5400390625,2588.43115234375,12986.66015625,2658.3671875,-7054.0107421875,4293.12353515625,5253.15625,6629.6259765625,4325.7080078125,3135.9990234375,-4362.26513671875,-10954.5390625,-5881.7861328125,1978.07958984375,-3741.582275390625,0.0,-5959.66943359375,0.0,-6737.708984375,-10920.365234375,3848.075927734375,-9926.16015625,0.0,-14171.6005859375,-1803.2392578125,0.0,-6642.341796875,0.0,5072.75244140625,-0.0,-5843.63916015625
-3837.744384765625,-4642.009765625,11996.4287109375,-7748.60400390625,6930.828125,2841.949462890625,3548.463134765625,-5633.0361328125,0.0,-4985.33251953125,-2432.6640625,-12478.0341796875,0.0,0.0,0.0,-3401.4384765625,2954.006103515625,11929.6708984375,-0.0,-671.545654296875,5959.66943359375,9732.24609375,7199.4462890625,3093.87841796875,2584.45751953125,-7537.2060546875,-5805.4921875,7286.86669921875,-1183.3509521484375,-2198.21923828125,10207.494140625,-6132.1259765625,9132.2255859375,7865.4287109375,5681.5146484375,8215.904296875,2837.975830078125,-1327.19677734375,5421.638671875,-0.0,4705.587890625,-14937.71875,2582.0732421875,12989.0439453125,2655.188232421875,-7054.8056640625,4301.8662109375,5207.8564453125,6632.009765625,4340.8076171875,3133.61474609375,-4363.06005859375,-10927.517578125,-5642.57275390625,1984.437255859375,-3743.171630859375,0.0,-5954.10693359375,0.0,-6744.06689453125,-10929.107421875,3848.87060546875,-9927.75,0.0,-14206.568359375,-1851.7176513671875,0.0,-6639.16259765625,0.0,5077.52099609375,-0.0,-5838.87109375
-3877.480712890625,-4597.5048828125,11983.7119140625,-7782.77734375,6913.34375,2828.43896484375,3546.078857421875,-5640.9833984375,0.0,-4994.869140625,-2449.353515625,-12465.3173828125,0.0,0.0,0.0,-3406.206787109375,2937.31689453125,11915.3662109375,-0.0,-676.3140258789062,5946.1591796875,9717.146484375,7185.93603515625,3083.546875,2588.43115234375,-7552.3056640625,-5825.36083984375,7278.12451171875,-1176.9930419921875,-2207.756103515625,10193.984375,-6148.81494140625,9121.1005859375,7845.56103515625,5669.59375,8203.1884765625,2834.002197265625,-1335.14404296875,5423.22802734375,-0.0,4693.6669921875,-14955.9970703125,2571.74169921875,12981.09765625,2652.00927734375,-7063.5478515625,4297.09765625,5163.3515625,6616.91064453125,4325.7080078125,3132.820068359375,-4369.41748046875,-10958.5126953125,-5495.54833984375,1989.20556640625,-3838.5390625,0.0,-5942.18603515625,0.0,-6754.3984375,-10943.4130859375,3840.128662109375,-9934.90234375,0.0,-14255.8408203125,-1846.94921875,0.0,-6638.3681640625,0.0,5064.0107421875,-0.0,-5857.1494140625
-3872.71240234375,-4545.05322265625,11971.791015625,-7832.05029296875,6910.16552734375,2806.9814453125,3548.463134765625,-5643.36767578125,0.0,-4988.51171875,-2465.248046875,-12459.7548828125,0.0,0.0,0.0,-3396.670166015625,2917.44873046875,11903.4453125,-0.0,-673.1351318359375,5935.033203125,9694.099609375,7181.16748046875,3071.6259765625,2584.45751953125,-7589.658203125,-5824.56591796875,7270.17724609375,-1183.3509521484375,-2277.692138671875,10178.0888671875,-6163.9150390625,9105.205078125,7820.923828125,5659.26220703125,8184.90966796875,2834.002197265625,-1339.912353515625,5414.48583984375,-0.0,4682.541015625,-14989.3759765625,2571.74169921875,12969.970703125,2652.80419921875,-7064.34228515625,4289.150390625,5054.4736328125,6612.14208984375,4301.8662109375,3133.61474609375,-4369.41748046875,-10998.2490234375,-5541.642578125,1983.642578125,-3897.34912109375,0.0,-5931.8544921875,0.0,-6742.4775390625,-10936.259765625,3832.97607421875,-9935.6962890625,0.0,-14231.9990234375,-1809.5970458984375,0.0,-6635.98388671875,0.0,5069.57373046875,-0.0,-5849.20263671875
-3841.718017578125,-4569.689453125,11983.7119140625,-7835.22900390625,6915.72802734375,2801.418212890625,3547.66845703125,-5651.3154296875,0.0,-4998.8427734375,-2439.816650390625,-12465.3173828125,0.0,0.0,0.0,-3409.3857421875,2919.0380859375,11903.4453125,-0.0,-677.1087646484375,5937.41748046875,9690.9208984375,7181.16748046875,3066.06298828125,2584.45751953125,-7597.60546875,-5822.181640625,7260.640625,-1184.9403076171875,-2304.712890625,10178.0888671875,-6167.888671875,9107.58984375,7818.53955078125,5660.05712890625,8181.7314453125,2834.796875,-1346.270263671875,5413.69091796875,-0.0,4691.28271484375,-14998.1181640625,2572.536376953125,12961.228515625,2652.00927734375,-7072.2900390625,4318.55517578125,5045.73193359375,6619.29443359375,4289.9453125,3132.025390625,-4379.74951171875,-11041.1640625,-5620.32080078125,1985.2320556640625,-3872.71240234375,0.0,-5947.74853515625,0.0,-6759.16650390625,-10941.8232421875,3830.591796875,-9940.46484375,0.0,-14175.57421875,-1781.781494140625,0.0,-6666.978515625,0.0,5064.0107421875,-0.0,-5853.17626953125
-3844.89697265625,-4666.646484375,11994.0439453125,-7813.771484375,6921.29150390625,2805.39208984375,3546.078857421875,-5659.26220703125,0.0,-5011.55859375,-2446.174560546875,-12503.46484375,0.0,0.0,0.0,-3433.2275390625,2930.164306640625,11909.0078125,-0.0,-685.0560302734375,5946.1591796875,9702.841796875,7184.3466796875,3068.447021484375,2590.815185546875,-7588.86328125,-5815.029296875,7251.10400390625,-1178.58251953125,-2287.228759765625,10187.6259765625,-6150.404296875,9120.3046875,7834.4345703125,5664.8251953125,8187.2939453125,2836.386474609375,-1348.6544189453125,5404.94921875,-0.0,4696.05126953125,-14988.58203125,2575.71533203125,12957.2548828125,2651.214599609375,-7081.03173828125,4324.1181640625,5090.23681640625,6625.65234375,4290.73974609375,3131.230712890625,-4393.259765625,-11011.759765625,-5648.13623046875,1992.3846435546875,-3848.075927734375,0.0,-5969.20654296875,0.0,-6781.41943359375,-10995.0703125,3832.18115234375,-9946.0283203125,0.0,-14176.369140625,-1802.4444580078125,0.0,-6683.66748046875,0.0,5041.75830078125,-0.0,-5868.27587890625
-3835.3603515625,-4657.10986328125,11995.6328125,-7805.82421875,6922.08642578125,2814.1337890625,3546.873779296875,-5648.13623046875,0.0,-4998.04833984375,-2444.585205078125,-12520.94921875,0.0,0.0,0.0,-3416.538330078125,2938.906494140625,11914.5712890625,-0.0,-679.492919921875,5950.1328125,9710.7890625,7188.3203125,3076.394287109375,2597.173095703125,-7581.7109375,-5811.85009765625,7264.6142578125,-1173.0194091796875,-2286.43408203125,10192.39453125,-6130.53662109375,9129.0478515625,7846.35546875,5671.18310546875,8192.8564453125,2837.18115234375,-1339.11767578125,5404.94921875,-0.0,4698.435546875,-14982.2236328125,2577.304931640625,12969.1767578125,2652.80419921875,-7070.7001953125,4308.2236328125,5106.130859375,6627.24169921875,4301.8662109375,3132.820068359375,-4381.33837890625,-10972.8173828125,-5567.07373046875,1997.153076171875,-3848.87060546875,0.0,-5950.927734375,0.0,-6760.755859375,-11041.1640625,3838.5390625,-9938.0810546875,0.0,-14179.546875,-1804.033935546875,0.0,-6630.4208984375,0.0,5062.42138671875,-0.0,-5855.560546875
-3824.23388671875,-4597.5048828125,11988.48046875,-7784.36669921875,6921.29150390625,2828.43896484375,3545.2841796875,-5631.44677734375,0.0,-4989.30615234375,-2428.690673828125,-12540.8173828125,0.0,0.0,0.0,-3387.13330078125,2941.29052734375,11921.7236328125,-0.0,-677.1087646484375,5950.927734375,9720.3251953125,7191.4990234375,3085.93115234375,2593.994140625,-7550.71630859375,-5811.0556640625,7286.07177734375,-1173.814208984375,-2421.5380859375,10196.3681640625,-6139.2783203125,9124.279296875,7854.30224609375,5673.5673828125,8203.9833984375,2837.18115234375,-1330.375732421875,5400.1806640625,-0.0,4696.05126953125,-14959.9716796875,2576.51025390625,12982.6865234375,2652.00927734375,-7059.57421875,4293.12353515625,5180.8359375,6624.857421875,4318.55517578125,3132.820068359375,-4360.67578125,-10959.3076171875,-5572.63720703125,1996.358154296875,-3859.2021484375,0.0,-5915.1650390625,0.0,-6740.09326171875,-11006.9912109375,3845.691650390625,-9932.517578125,0.0,-14162.0634765625,-1746.8134765625,0.0,-6571.61083984375,0.0,5083.87890625,-0.0,-5852.38134765625
-3835.3603515625,-4675.38818359375,11969.4072265625,-7774.03515625,6913.34375,2822.8759765625,3544.489501953125,-5640.1884765625,0.0,-5000.4326171875,-2425.51171875,-12553.5322265625,0.0,0.0,0.0,-3391.10693359375,2924.601318359375,11911.392578125,-0.0,-687.4402465820312,5937.41748046875,9712.37890625,7183.5517578125,3079.573486328125,2582.867919921875,-7563.43212890625,-5815.029296875,7280.50830078125,-1183.3509521484375,-2441.40625,10186.0361328125,-6172.6572265625,9105.205078125,7846.35546875,5663.236328125,8197.625,2833.207275390625,-1339.11767578125,5361.23876953125,-0.0,4682.541015625,-14962.35546875,2572.536376953125,12977.91796875,2649.625,-7069.11083984375,4278.81884765625,5187.98828125,6616.11572265625,4312.9921875,3131.230712890625,-4367.03369140625,-10975.201171875,-5684.69384765625,1986.0267333984375,-3850.4599609375,0.0,-5921.5224609375,0.0,-6749.6298828125,-10925.1337890625,3838.5390625,-9941.2607421875,0.0,-14163.6533203125,-1753.9659423828125,0.0,-6576.37939453125,0.0,5069.57373046875,-0.0,-5863.5078125
-3869.533447265625,-4711.94580078125,11957.486328125,-7788.34033203125,6903.80712890625,2814.1337890625,3545.2841796875,-5647.34130859375,0.0,-4997.25341796875,-2442.995849609375,-12514.5908203125,0.0,0.0,0.0,-3395.08056640625,2914.269775390625,11905.0341796875,-0.0,-683.4666137695312,5928.67529296875,9702.841796875,7177.98876953125,3072.4208984375,2570.947021484375,-7581.7109375,-5817.4130859375,7272.5615234375,-1195.2718505859375,-2255.439697265625,10176.4990234375,-6185.373046875,9094.0791015625,7836.81884765625,5656.08349609375,8187.2939453125,2832.41259765625,-1343.09130859375,5374.74951171875,-0.0,4672.20947265625,-14981.4287109375,2568.562744140625,12970.7646484375,2649.625,-7070.7001953125,4270.07666015625,5139.509765625,6608.16796875,4301.0712890625,3131.230712890625,-4371.8017578125,-11006.1962890625,-5729.9931640625,1971.7216796875,-3837.744384765625,0.0,-5925.49658203125,0.0,-6753.603515625,-10913.212890625,3833.770751953125,-9942.849609375,0.0,-14182.7265625,-1789.728759765625,0.0,-6575.58447265625,0.0,5075.931640625,-0.0,-5849.20263671875
-3869.533447265625,-4676.18310546875,11955.1015625,-7824.89794921875,6898.244140625,2801.418212890625,3544.489501953125,-5654.49365234375,0.0,-4998.04833984375,-2466.042724609375,-12505.8486328125,0.0,0.0,0.0,-3405.411865234375,2911.885498046875,11897.0869140625,-0.0,-681.0823974609375,5925.49658203125,9690.125,7174.81005859375,3064.473388671875,2563.79443359375,-7591.24755859375,-5819.79736328125,7260.640625,-1203.2191162109375,-2206.96142578125,10169.3466796875,-6178.22021484375,9094.8740234375,7824.103515625,5651.3154296875,8178.5517578125,2833.207275390625,-1348.6544189453125,5381.107421875,-0.0,4669.8251953125,-15003.681640625,2566.973388671875,12961.228515625,2650.419921875,-7076.263671875,4264.513671875,5074.34228515625,6604.98974609375,4286.76611328125,3130.43603515625,-4378.95458984375,-11022.0908203125,-5679.92529296875,1966.1585693359375,-3874.302001953125,0.0,-5936.62255859375,0.0,-6757.57763671875,-10978.380859375,3827.412841796875,-9943.64453125,0.0,-14197.0322265625,-1823.902099609375,0.0,-6589.8896484375,0.0,5071.1630859375,-0.0,-5840.46044921875
-3838.5390625,-4607.83642578125,11954.3076171875,-7855.89208984375,6897.44970703125,2791.0869140625,3544.489501953125,-5662.44140625,0.0,-5003.611328125,-2461.2744140625,-12488.365234375,0.0,0.0,0.0,-3420.511962890625,2904.73291015625,11890.728515625,-0.0,-683.4666137695312,5920.72802734375,9679.7939453125,7173.22021484375,3058.910400390625,2573.3310546875,-7611.11572265625,-5819.00244140625,7250.30908203125,-1193.682373046875,-2245.1083984375,10162.9892578125,-6183.783203125,9090.900390625,7812.18212890625,5648.93115234375,8169.81005859375,2832.41259765625,-1353.4227294921875,5377.1337890625,-0.0,4669.03076171875,-15019.576171875,2566.973388671875,12954.076171875,2652.00927734375,-7081.03173828125,4266.10302734375,5028.248046875,6604.98974609375,4275.64013671875,3132.820068359375,-4388.4912109375,-11021.296875,-5622.705078125,1974.9005126953125,-3887.017578125,0.0,-5948.54345703125,0.0,-6767.90869140625,-11022.8857421875,3824.23388671875,-9945.2333984375,0.0,-14186.7001953125,-1828.6705322265625,0.0,-6631.21533203125,0.0,5051.294921875,-0.0,-5846.0234375
-3841.718017578125,-4589.5576171875,11936.0283203125,-7887.68115234375,6887.11767578125,2768.83447265625,3542.10546875,-5677.541015625,0.0,-5011.55859375,-2462.0693359375,-12503.46484375,0.0,0.0,0.0,-3440.380126953125,2881.68603515625,11874.0400390625,-0.0,-687.4402465820312,5904.0390625,9658.3369140625,7162.09423828125,3039.8369140625,2569.357666015625,-7635.75244140625,-5824.56591796875,7228.8515625,-1196.0665283203125,-2315.839111328125,10143.12109375,-6207.625,9068.6484375,7787.5458984375,5633.8310546875,8149.94140625,2829.23388671875,-1369.3173828125,5346.93408203125,-0.0,4654.7255859375,-15043.41796875,2561.41015625,12935.7978515625,2649.625,-7093.74755859375,4254.9765625,5013.14794921875,6595.45263671875,4250.20849609375,3131.230712890625,-4405.1806640625,-11014.1435546875,-5649.7255859375,1971.7216796875,-3895.759521484375,0.0,-5973.974609375,0.0,-6780.62451171875,-11008.580078125,3810.7236328125,-9953.9755859375,0.0,-14191.4677734375,-1817.5443115234375,0.0,-6679.69384765625,0.0,5032.22119140625,-0.0,-5846.0234375
-3888.60693359375,-4621.34716796875,11920.134765625,-7911.52294921875,6877.5810546875,2748.96630859375,3541.310546875,-5692.640625,0.0,-5018.7109375,-2476.374267578125,-12543.201171875,0.0,0.0,0.0,-3462.63232421875,2858.638671875,11858.1455078125,-0.0,-690.619140625,5886.5546875,9637.673828125,7150.96826171875,3023.1474609375,2560.615478515625,-7650.85205078125,-5830.12890625,7205.80419921875,-1205.603271484375,-2348.423095703125,10124.8427734375,-6241.00341796875,9047.1904296875,7765.29296875,5618.73095703125,8133.251953125,2826.849609375,-1382.032958984375,5331.83447265625,-0.0,4642.8046875,-15064.8759765625,2555.052490234375,12916.724609375,2648.03564453125,-7104.87353515625,4238.28759765625,5001.22705078125,6586.71044921875,4225.572265625,3128.846435546875,-4422.66455078125,-11014.1435546875,-5679.92529296875,1964.569091796875,-3944.23828125,0.0,-6006.55908203125,0.0,-6792.54541015625,-10979.17578125,3796.41845703125,-9961.9228515625,0.0,-14205.7734375,-1862.8438720703125,0.0,-6701.9462890625,0.0,5030.6318359375,-0.0,-5849.20263671875
-3902.912109375,-4618.16796875,11944.7705078125,-7886.88671875,6894.2705078125,2768.039794921875,3542.900146484375,-5679.92529296875,0.0,-5010.763671875,-2462.864013671875,-12522.5380859375,0.0,0.0,0.0,-3456.274658203125,2879.3017578125,11875.6298828125,-0.0,-686.6455078125,5906.4228515625,9656.7470703125,7164.478515625,3043.015625,2578.099609375,-7644.49462890625,-5822.181640625,7220.109375,-1187.324462890625,-2313.454833984375,10144.7109375,-6219.5458984375,9067.8525390625,7789.134765625,5635.42041015625,8154.7099609375,2830.8232421875,-1366.138427734375,5359.6494140625,-0.0,4659.494140625,-15043.41796875,2562.999755859375,12932.6181640625,2649.625,-7094.5419921875,4257.36083984375,5017.916015625,6601.810546875,4247.82421875,3130.43603515625,-4413.1279296875,-11011.759765625,-5665.6201171875,1981.2584228515625,-4012.584716796875,0.0,-6006.55908203125,0.0,-6788.57177734375,-10953.744140625,3813.107666015625,-9950.796875,0.0,-14193.8525390625,-1856.4859619140625,0.0,-6688.43603515625,0.0,5038.57958984375,-0.0,-5837.28173828125
-3891.785888671875,-4644.39404296875,11966.228515625,-7845.56103515625,6907.78125,2795.855224609375,3546.873779296875,-5657.6728515625,0.0,-4995.6640625,-2459.68505859375,-12522.5380859375,0.0,0.0,0.0,-3425.2802734375,2903.1435546875,11896.29296875,-0.0,-679.492919921875,5926.291015625,9682.1787109375,7177.1943359375,3064.473388671875,2589.225830078125,-7593.6318359375,-5815.82421875,7245.54052734375,-1176.9930419921875,-2288.818359375,10166.962890625,-6199.677734375,9091.6953125,7816.1552734375,5654.49365234375,8177.75732421875,2835.591552734375,-1345.4755859375,5382.69677734375,-0.0,4674.59326171875,-15007.6552734375,2571.74169921875,12955.666015625,2652.00927734375,-7077.05810546875,4281.99755859375,5076.7265625,6614.5263671875,4275.64013671875,3131.230712890625,-4390.0810546875,-11012.5537109375,-5660.85205078125,1990.795166015625,-4013.379638671875,0.0,-6000.20068359375,0.0,-6763.93505859375,-10972.0234375,3831.386474609375,-9937.2861328125,0.0,-14190.673828125,-1801.649658203125,0.0,-6647.90478515625,0.0,5058.447265625,-0.0,-5829.33447265625
-3899.7333984375,-4715.12451171875,11959.8701171875,-7827.28173828125,6903.0126953125,2803.802490234375,3546.078857421875,-5651.3154296875,0.0,-4994.07421875,-2471.60595703125,-12536.048828125,0.0,0.0,0.0,-3409.3857421875,2901.55419921875,11896.29296875,-0.0,-679.492919921875,5923.1123046875,9686.15234375,7175.6044921875,3067.65234375,2578.099609375,-7573.76318359375,-5819.79736328125,7259.05078125,-1187.324462890625,-2364.317626953125,10166.962890625,-6199.677734375,9088.5166015625,7819.3349609375,5651.3154296875,8180.1416015625,2832.41259765625,-1343.09130859375,5369.1865234375,-0.0,4671.4150390625,-14994.9384765625,2570.947021484375,12962.818359375,2651.214599609375,-7073.08447265625,4273.255859375,5127.5888671875,6611.34716796875,4288.35546875,3129.641357421875,-4378.95458984375,-11010.96484375,-5672.77294921875,1981.2584228515625,-3875.891357421875,0.0,-5984.30615234375,0.0,-6755.98779296875,-10979.17578125,3831.386474609375,-9937.2861328125,0.0,-14193.0576171875,-1826.286376953125,0.0,-6632.8046875,0.0,5060.83154296875,-0.0,-5834.8974609375
-3890.9912109375,-4762.80810546875,11953.5126953125,-7814.56640625,6903.0126953125,2803.0078125,3546.078857421875,-5653.69921875,0.0,-4998.8427734375,-2458.89013671875,-12533.6650390625,0.0,0.0,0.0,-3418.127685546875,2904.73291015625,11897.8818359375,-0.0,-682.671875,5923.1123046875,9691.71484375,7175.6044921875,3068.447021484375,2581.278564453125,-7582.505859375,-5818.2080078125,7261.43505859375,-1184.1456298828125,-2415.18017578125,10170.142578125,-6189.34619140625,9086.1318359375,7827.28173828125,5651.3154296875,8181.7314453125,2831.6181640625,-1343.09130859375,5369.1865234375,-0.0,4669.8251953125,-14990.1708984375,2570.15234375,12963.6123046875,2651.214599609375,-7077.05810546875,4268.4873046875,5145.07275390625,6612.9365234375,4290.73974609375,3128.846435546875,-4382.13330078125,-11010.169921875,-5695.81982421875,1983.642578125,-3850.4599609375,0.0,-5972.38525390625,0.0,-6760.755859375,-10972.0234375,3832.97607421875,-9938.8759765625,0.0,-14181.931640625,-1811.1864013671875,0.0,-6649.494140625,0.0,5051.294921875,-0.0,-5842.05029296875
-3886.222900390625,-4694.4619140625,11947.1552734375,-7824.89794921875,6895.8603515625,2798.239501953125,3544.489501953125,-5661.646484375,0.0,-5004.40576171875,-2442.200927734375,-12508.2333984375,0.0,0.0,0.0,-3430.84326171875,2907.1171875,11892.318359375,-0.0,-686.6455078125,5917.54931640625,9686.15234375,7172.42578125,3062.089111328125,2579.68896484375,-7599.19482421875,-5820.59228515625,7253.48828125,-1184.9403076171875,-2342.85986328125,10162.1943359375,-6179.8095703125,9084.5419921875,7826.4873046875,5644.95703125,8176.16748046875,2830.8232421875,-1348.6544189453125,5380.3125,-0.0,4660.28857421875,-14999.70703125,2567.76806640625,12957.2548828125,2649.625,-7081.82666015625,4250.20849609375,5112.4892578125,6605.7841796875,4291.5341796875,3129.641357421875,-4390.0810546875,-11032.421875,-5692.640625,1982.0531005859375,-3817.876220703125,0.0,-5947.74853515625,0.0,-6767.90869140625,-11031.6279296875,3825.028564453125,-9943.64453125,0.0,-14183.521484375,-1788.139404296875,0.0,-6640.75244140625,0.0,5041.75830078125,-0.0,-5845.228515625
-3890.196533203125,-4631.67822265625,11975.765625,-7838.40869140625,6901.4228515625,2799.0341796875,3545.2841796875,-5654.49365234375,0.0,-4997.25341796875,-2477.1689453125,-12492.3388671875,0.0,0.0,0.0,-3413.359375,2915.859130859375,11895.4970703125,-0.0,-684.2613525390625,5929.47021484375,9686.15234375,7177.98876953125,3066.06298828125,2580.483642578125,-7603.16845703125,-5813.43994140625,7255.0771484375,-1184.9403076171875,-2306.30224609375,10168.552734375,-6166.29931640625,9102.02734375,7829.666015625,5651.3154296875,8178.5517578125,2834.002197265625,-1343.885986328125,5404.154296875,-0.0,4676.9775390625,-15004.4755859375,2570.947021484375,12961.228515625,2651.214599609375,-7076.263671875,4287.56103515625,5062.42138671875,6608.16796875,4292.3291015625,3131.230712890625,-4382.13330078125,-11035.6015625,-5652.904296875,1982.0531005859375,-3846.486328125,0.0,-5938.2119140625,0.0,-6759.16650390625,-11057.853515625,3829.797119140625,-9938.8759765625,0.0,-14201.80078125,-1779.3973388671875,0.0,-6608.16796875,0.0,5052.884765625,-0.0,-5846.0234375
-3891.785888671875,-4630.0888671875,11965.43359375,-7837.61328125,6910.16552734375,2808.57080078125,3548.463134765625,-5642.57275390625,0.0,-4985.33251953125,-2466.042724609375,-12500.2861328125,0.0,0.0,0.0,-3392.6962890625,2911.0908203125,11901.0615234375,-0.0,-674.724609375,5927.0859375,9690.9208984375,7183.5517578125,3075.599609375,2577.304931640625,-7586.47900390625,-5804.69775390625,7268.58740234375,-1187.324462890625,-2315.04443359375,10171.7314453125,-6175.8359375,9093.2841796875,7829.666015625,5656.08349609375,8186.49951171875,2837.18115234375,-1331.965087890625,5376.3388671875,-0.0,4677.7724609375,-14996.5283203125,2576.51025390625,12973.1494140625,2653.598876953125,-7064.34228515625,4285.1767578125,5071.1630859375,6621.6787109375,4302.66064453125,3133.61474609375,-4367.03369140625,-11020.5009765625,-5665.6201171875,1980.4637451171875,-3859.2021484375,0.0,-5920.72802734375,0.0,-6741.6826171875,-11023.6806640625,3838.5390625,-9929.33984375,0.0,-14203.3896484375,-1766.681640625,0.0,-6577.96875,0.0,5075.931640625,-0.0,-5832.51318359375
-3890.9912109375,-4625.3203125,11964.638671875,-7829.666015625,6908.57568359375,2818.107666015625,3546.873779296875,-5637.01025390625,0.0,-4982.1533203125,-2454.916748046875,-12488.365234375,0.0,0.0,0.0,-3380.775390625,2911.885498046875,11904.2392578125,-0.0,-676.3140258789062,5927.0859375,9694.8935546875,7182.7568359375,3078.778564453125,2590.815185546875,-7565.81640625,-5811.85009765625,7278.12451171875,-1174.60888671875,-2290.407958984375,10172.5263671875,-6175.8359375,9094.0791015625,7833.64013671875,5656.08349609375,8192.0625,2836.386474609375,-1328.7862548828125,5373.15966796875,-0.0,4675.38818359375,-14984.607421875,2571.74169921875,12980.3017578125,2652.80419921875,-7059.57421875,4281.99755859375,5094.2099609375,6620.0888671875,4313.787109375,3132.025390625,-4358.29150390625,-11014.9384765625,-5652.10986328125,1993.1793212890625,-3836.94970703125,0.0,-5904.0390625,0.0,-6734.52978515625,-10983.1494140625,3840.92333984375,-9929.33984375,0.0,-14187.4951171875,-1744.42919921875,0.0,-6577.96875,0.0,5068.77880859375,-0.0,-5830.92333984375
-3898.9384765625,-4642.009765625,11956.69140625,-7836.81884765625,6901.4228515625,2813.33935546875,3546.078857421875,-5637.01025390625,0.0,-4983.7431640625,-2456.506103515625,-12452.6025390625,0.0,0.0,0.0,-3379.18603515625,2903.938232421875,11897.8818359375,-0.0,-677.1087646484375,5921.5224609375,9687.7412109375,7177.1943359375,3076.394287109375,2594.788818359375,-7573.76318359375,-5818.2080078125,7279.7138671875,-1173.0194091796875,-2295.17626953125,10166.16796875,-6186.9619140625,9083.748046875,7829.666015625,5650.5205078125,8188.8837890625,2834.796875,-1331.965087890625,5369.1865234375,-0.0,4669.8251953125,-14981.4287109375,2566.973388671875,12979.5078125,2650.419921875,-7060.369140625,4277.2294921875,5090.23681640625,6614.5263671875,4312.9921875,3131.230712890625,-4357.49658203125,-11022.8857421875,-5652.10986328125,1996.358154296875,-3827.412841796875,0.0,-5900.85986328125,0.0,-6735.32470703125,-10975.9970703125,3837.744384765625,-9930.9287109375,0.0,-14189.083984375,-1730.9189453125,0.0,-6574.78955078125,0.0,5065.60009765625,-0.0,-5830.12890625
-3929.93310546875,-4691.28271484375,11953.5126953125,-7836.81884765625,6899.83349609375,2810.160400390625,3545.2841796875,-5634.6259765625,0.0,-4975.0009765625,-2460.479736328125,-12478.0341796875,0.0,0.0,0.0,-3375.21240234375,2898.375244140625,11897.0869140625,-0.0,-671.545654296875,5918.34423828125,9684.5625,7177.98876953125,3074.804931640625,2582.867919921875,-7578.53173828125,-5817.4130859375,7278.91943359375,-1186.52978515625,-2381.0068359375,10162.9892578125,-6193.31982421875,9078.9794921875,7828.87158203125,5649.7255859375,8186.49951171875,2834.796875,-1328.7862548828125,5356.470703125,-0.0,4669.03076171875,-14979.044921875,2567.76806640625,12978.712890625,2650.419921875,-7055.6005859375,4276.4345703125,5098.18408203125,6612.9365234375,4307.4287109375,3131.230712890625,-4355.11279296875,-11047.5224609375,-5675.95166015625,1984.437255859375,-3859.2021484375,0.0,-5905.62841796875,0.0,-6724.19873046875,-10991.0966796875,3839.333740234375,-9926.955078125,0.0,-14198.62109375,-1746.018798828125,0.0,-6539.02685546875,0.0,5087.8525390625,-0.0,-5815.029296875
-3968.87451171875,-4711.94580078125,11963.0498046875,-7834.4345703125,6901.4228515625,2809.365478515625,3543.69482421875,-5636.21533203125,0.0,-4975.7958984375,-2455.71142578125,-12513.0009765625,0.0,0.0,0.0,-3383.15966796875,2903.1435546875,11897.0869140625,-0.0,-672.3403930664062,5919.93310546875,9686.15234375,7176.3994140625,3073.215576171875,2582.867919921875,-7573.76318359375,-5817.4130859375,7272.5615234375,-1185.735107421875,-2398.490966796875,10162.1943359375,-6191.73046875,9084.5419921875,7832.05029296875,5650.5205078125,8186.49951171875,2832.41259765625,-1330.375732421875,5359.6494140625,-0.0,4671.4150390625,-14973.4814453125,2567.76806640625,12975.533203125,2651.214599609375,-7057.18994140625,4282.79248046875,5109.31005859375,6611.34716796875,4302.66064453125,3131.230712890625,-4361.470703125,-11075.337890625,-5676.74658203125,1982.0531005859375,-3879.0703125,0.0,-5918.34423828125,0.0,-6725.7880859375,-10999.0439453125,3836.155029296875,-9930.1337890625,0.0,-14206.568359375,-1753.9659423828125,0.0,-6558.89501953125,0.0,5070.3681640625,-0.0,-5826.1552734375
-3960.132568359375,-4691.28271484375,11968.6123046875,-7839.9970703125,6902.2177734375,2801.418212890625,3546.873779296875,-5644.16259765625,0.0,-4980.56396484375,-2459.68505859375,-12532.0751953125,0.0,0.0,0.0,-3396.670166015625,2899.169921875,11890.728515625,-0.0,-673.9298706054688,5918.34423828125,9680.5888671875,7173.22021484375,3067.65234375,2585.251953125,-7580.916015625,-5815.82421875,7261.43505859375,-1184.1456298828125,-2369.0859375,10158.2216796875,-6202.06201171875,9087.7216796875,7828.076171875,5647.34130859375,8180.1416015625,2832.41259765625,-1339.912353515625,5377.1337890625,-0.0,4672.20947265625,-14980.6337890625,2565.3837890625,12966.7919921875,2652.00927734375,-7061.16357421875,4280.408203125,5094.2099609375,6611.34716796875,4292.3291015625,3132.025390625,-4371.8017578125,-11056.263671875,-5706.1513671875,1985.2320556640625,-3887.017578125,0.0,-5932.64892578125,0.0,-6736.9140625,-11037.9853515625,3831.386474609375,-9934.107421875,0.0,-14209.7470703125,-1769.860595703125,0.0,-6591.47900390625,0.0,5055.2685546875,-0.0,-5818.2080078125
-3943.443359375,-4696.05126953125,11951.923828125,-7844.765625,6891.88623046875,2786.318603515625,3543.69482421875,-5660.05712890625,0.0,-4990.8955078125,-2485.9111328125,-12587.70703125,0.0,0.0,0.0,-3414.94873046875,2887.2490234375,11878.8076171875,-0.0,-680.2876586914062,5906.4228515625,9667.873046875,7162.09423828125,3055.7314453125,2578.894287109375,-7596.81103515625,-5824.56591796875,7243.951171875,-1185.735107421875,-2373.8544921875,10147.888671875,-6207.625,9072.62109375,7820.12939453125,5633.8310546875,8166.630859375,2830.028564453125,-1353.4227294921875,5362.03369140625,-0.0,4660.28857421875,-14990.9658203125,2560.615478515625,12950.8974609375,2651.214599609375,-7073.87939453125,4261.3349609375,5098.18408203125,6603.39990234375,4274.05029296875,3128.0517578125,-4387.69677734375,-11040.3701171875,-5834.1025390625,1982.847900390625,-3926.75390625,0.0,-5952.51708984375,0.0,-6753.603515625,-11059.443359375,3819.465576171875,-9942.849609375,0.0,-14214.515625,-1786.5499267578125,0.0,-6618.5,0.0,5063.2158203125,-0.0,-5807.08154296875
-3928.34326171875,-4733.40380859375,11940.796875,-7823.30810546875,6888.70751953125,2787.907958984375,3543.69482421875,-5664.8251953125,0.0,-4996.45849609375,-2494.653076171875,-12629.0322265625,0.0,0.0,0.0,-3428.459228515625,2889.63330078125,11878.8076171875,-0.0,-681.0823974609375,5904.83349609375,9671.84765625,7161.29931640625,3056.526123046875,2577.304931640625,-7590.45263671875,-5826.1552734375,7237.59326171875,-1188.1192626953125,-2383.39111328125,10149.478515625,-6205.24072265625,9067.05859375,7825.6923828125,5633.0361328125,8169.01513671875,2829.23388671875,-1354.217529296875,5340.576171875,-0.0,4657.10986328125,-14980.6337890625,2562.205078125,12949.3076171875,2650.419921875,-7079.4423828125,4251.00341796875,5149.84130859375,6602.60546875,4275.64013671875,3128.846435546875,-4394.84912109375,-11050.701171875,-5823.77099609375,1981.2584228515625,-3930.7275390625,0.0,-5969.20654296875,0.0,-6763.14013671875,-11067.390625,3819.465576171875,-9944.4384765625,0.0,-14217.6943359375,-1778.6025390625,0.0,-6640.75244140625,0.0,5049.70556640625,-0.0,-5808.67138671875
-3906.8857421875,-4729.4296875,11940.001953125,-7796.28759765625,6895.8603515625,2806.9814453125,3544.489501953125,-5648.93115234375,0.0,-4989.30615234375,-2468.427001953125,-12596.4482421875,0.0,0.0,0.0,-3408.591064453125,2903.1435546875,11891.5244140625,-0.0,-677.1087646484375,5911.98583984375,9690.125,7172.42578125,3071.6259765625,2585.251953125,-7555.48486328125,-5818.2080078125,7259.845703125,-1181.7613525390625,-2380.212158203125,10161.3994140625,-6187.7568359375,9073.4169921875,7843.97119140625,5643.36767578125,8186.49951171875,2832.41259765625,-1339.11767578125,5340.576171875,-0.0,4661.8779296875,-14957.5869140625,2565.3837890625,12968.380859375,2650.419921875,-7067.521484375,4253.3876953125,5196.72998046875,6609.7578125,4300.2763671875,3129.641357421875,-4375.77587890625,-11052.291015625,-5725.22509765625,1989.20556640625,-3918.806640625,0.0,-5963.6435546875,0.0,-6741.6826171875,-11070.5693359375,3831.386474609375,-9935.6962890625,0.0,-14203.3896484375,-1755.5555419921875,0.0,-6607.37353515625,0.0,5047.3212890625,-0.0,-5815.029296875
-3918.806640625,-4733.40380859375,11943.1806640625,-7792.31396484375,6898.244140625,2817.31298828125,3546.078857421875,-5642.57275390625,0.0,-4984.53759765625,-2466.042724609375,-12536.84375,0.0,0.0,0.0,-3400.6435546875,2903.938232421875,11896.29296875,-0.0,-677.1087646484375,5915.1650390625,9693.3046875,7174.81005859375,3077.98388671875,2585.251953125,-7543.56396484375,-5817.4130859375,7267.79296875,-1182.55615234375,-2428.690673828125,10164.578125,-6189.34619140625,9074.2109375,7847.9453125,5645.751953125,8195.2412109375,2834.002197265625,-1331.965087890625,5342.96044921875,-0.0,4665.056640625,-14948.8447265625,2565.3837890625,12977.123046875,2652.00927734375,-7062.75341796875,4262.12939453125,5199.1142578125,6611.34716796875,4316.9658203125,3130.43603515625,-4369.41748046875,-11056.263671875,-5678.33544921875,1988.410888671875,-3910.859619140625,0.0,-5963.6435546875,0.0,-6736.11962890625,-11069.7744140625,3832.97607421875,-9933.3125,0.0,-14196.236328125,-1782.576171875,0.0,-6588.30029296875,0.0,5065.60009765625,-0.0,-5832.51318359375
-3945.827392578125,-4713.53515625,11947.94921875,-7810.5927734375,6896.65478515625,2818.107666015625,3544.489501953125,-5640.1884765625,0.0,-4982.9482421875,-2485.1162109375,-12482.802734375,0.0,0.0,0.0,-3402.233154296875,2901.55419921875,11896.29296875,-0.0,-676.3140258789062,5915.1650390625,9690.9208984375,7174.81005859375,3079.573486328125,2582.867919921875,-7549.126953125,-5819.00244140625,7269.38232421875,-1183.3509521484375,-2362.72802734375,10162.9892578125,-6194.90966796875,9075.80078125,7845.56103515625,5644.95703125,8192.8564453125,2834.002197265625,-1328.7862548828125,5344.5498046875,-0.0,4665.056640625,-14952.0234375,2564.58935546875,12978.712890625,2652.00927734375,-7063.5478515625,4276.4345703125,5133.94677734375,6608.962890625,4320.939453125,3129.641357421875,-4369.41748046875,-11063.416015625,-5687.078125,1985.2320556640625,-3884.63330078125,0.0,-5946.9541015625,0.0,-6740.88818359375,-11080.10546875,3834.5654296875,-9931.7236328125,0.0,-14220.8740234375,-1788.139404296875,0.0,-6580.3525390625,0.0,5081.49462890625,-0.0,-5825.36083984375
-3960.132568359375,-4733.40380859375,11938.4130859375,-7824.89794921875,6892.68115234375,2813.33935546875,3545.2841796875,-5637.8046875,0.0,-4982.9482421875,-2493.8583984375,-12461.3447265625,0.0,0.0,0.0,-3386.33837890625,2893.60693359375,11889.9345703125,-0.0,-678.6982421875,5908.01220703125,9682.97265625,7172.42578125,3075.599609375,2582.867919921875,-7544.35888671875,-5815.82421875,7271.7666015625,-1182.55615234375,-2268.9501953125,10155.8369140625,-6200.47216796875,9067.05859375,7836.0244140625,5640.1884765625,8186.49951171875,2833.207275390625,-1331.17041015625,5342.16552734375,-0.0,4656.31494140625,-14959.17578125,2563.79443359375,12976.3291015625,2652.00927734375,-7061.95849609375,4258.95068359375,5098.18408203125,6605.7841796875,4317.76025390625,3130.43603515625,-4363.85498046875,-11084.8740234375,-5708.53564453125,1985.2320556640625,-3844.10205078125,0.0,-5917.54931640625,0.0,-6731.3515625,-11067.390625,3832.18115234375,-9932.517578125,0.0,-14250.2783203125,-1785.755126953125,0.0,-6539.82177734375,0.0,5085.46826171875,-0.0,-5821.38671875
-3951.390625,-4780.29248046875,11928.0810546875,-7847.9453125,6885.5283203125,2798.239501953125,3540.515869140625,-5653.69921875,0.0,-5003.611328125,-2497.83203125,-12475.6494140625,0.0,0.0,0.0,-3407.00146484375,2880.89111328125,11876.423828125,-0.0,-692.2086181640625,5896.88623046875,9669.462890625,7162.09423828125,3061.29443359375,2582.0732421875,-7561.0478515625,-5822.181640625,7254.28271484375,-1184.1456298828125,-2255.439697265625,10143.12109375,-6217.95654296875,9059.111328125,7820.12939453125,5628.267578125,8172.98876953125,2827.644287109375,-1344.6807861328125,5354.08642578125,-0.0,4646.7783203125,-14976.6611328125,2557.436767578125,12961.228515625,2648.03564453125,-7079.4423828125,4240.671875,5080.69970703125,6595.45263671875,4298.68701171875,3125.66748046875,-4382.13330078125,-11086.4638671875,-5699.79345703125,1985.2320556640625,-3828.207763671875,0.0,-5934.23828125,0.0,-6755.193359375,-11046.7275390625,3819.465576171875,-9946.0283203125,0.0,-14223.2578125,-1814.3653564453125,0.0,-6563.66357421875,0.0,5056.06298828125,-0.0,-5832.51318359375
-3933.111572265625,-4726.2509765625,11946.3603515625,-7837.61328125,6895.0654296875,2812.544677734375,3542.900146484375,-5638.599609375,0.0,-4991.68994140625,-2472.400634765625,-12455.78125,0.0,0.0,0.0,-3389.517578125,2895.1962890625,11892.318359375,-0.0,-682.671875,5911.19140625,9684.5625,7172.42578125,3076.394287109375,2589.225830078125,-7567.40576171875,-5822.9765625,7271.7666015625,-1180.1719970703125,-2241.92919921875,10158.2216796875,-6209.21484375,9075.80078125,7836.0244140625,5642.57275390625,8188.8837890625,2831.6181640625,-1328.7862548828125,5356.470703125,-0.0,4662.67236328125,-14968.712890625,2562.205078125,12977.123046875,2649.625,-7067.521484375,4249.4140625,5073.54736328125,6604.98974609375,4312.197265625,3127.257080078125,-4367.03369140625,-11053.8798828125,-5645.751953125,1991.58984375,-3806.75,0.0,-5908.01220703125,0.0,-6742.4775390625,-11016.5283203125,3832.97607421875,-9935.6962890625,0.0,-14184.3154296875,-1769.06591796875,0.0,-6540.61669921875,0.0,5051.294921875,-0.0,-5826.9501953125
-3915.6279296875,-4682.541015625,11936.82421875,-7843.1767578125,6893.47607421875,2814.9287109375,3543.69482421875,-5627.47314453125,0.0,-4974.20654296875,-2473.1953125,-12453.396484375,0.0,0.0,0.0,-3363.29150390625,2892.81201171875,11893.908203125,-0.0,-672.3403930664062,5910.396484375,9684.5625,7176.3994140625,3082.752197265625,2582.0732421875,-7564.2265625,-5820.59228515625,7285.27685546875,-1181.7613525390625,-2253.0556640625,10158.2216796875,-6207.625,9071.0322265625,7834.4345703125,5642.57275390625,8192.0625,2833.207275390625,-1320.8388671875,5336.6025390625,-0.0,4658.69921875,-14971.0966796875,2561.41015625,12985.0703125,2649.625,-7055.6005859375,4242.26123046875,5069.57373046875,6604.19482421875,4316.17138671875,3129.641357421875,-4350.34423828125,-11054.6748046875,-5651.3154296875,1985.2320556640625,-3822.64453125,0.0,-5884.17041015625,0.0,-6717.04638671875,-11022.8857421875,3836.94970703125,-9925.365234375,0.0,-14197.826171875,-1739.660888671875,0.0,-6481.01171875,0.0,5081.49462890625,-0.0,-5808.67138671875
-3949.006591796875,-4703.20361328125,11916.955078125,-7874.9658203125,6881.55517578125,2799.828857421875,3541.310546875,-5644.16259765625,0.0,-4984.53759765625,-2492.268798828125,-12481.212890625,0.0,0.0,0.0,-3384.749267578125,2871.354248046875,11875.6298828125,-0.0,-677.1087646484375,5892.91259765625,9662.310546875,7162.88916015625,3066.857666015625,2566.973388671875,-7588.068359375,-5827.7451171875,7273.35595703125,-1198.45068359375,-2285.639404296875,10139.1474609375,-6226.6982421875,9051.1640625,7809.7978515625,5627.47314453125,8171.39892578125,2829.23388671875,-1335.14404296875,5315.14501953125,-0.0,4642.8046875,-14998.1181640625,2555.052490234375,12969.970703125,2649.625,-7070.7001953125,4224.77734375,5038.57958984375,6593.068359375,4305.04443359375,3128.0517578125,-4365.4443359375,-11073.7490234375,-5706.94580078125,1970.927001953125,-3857.612548828125,0.0,-5905.62841796875,0.0,-6735.32470703125,-11050.701171875,3822.64453125,-9938.0810546875,0.0,-14220.078125,-1765.09228515625,0.0,-6520.748046875,0.0,5078.31591796875,-0.0,-5812.64501953125
-3981.59033203125,-4722.27734375,11916.16015625,-7874.9658203125,6879.1708984375,2798.239501953125,3539.72119140625,-5651.3154296875,0.0,-4993.27978515625,-2493.063720703125,-12495.517578125,0.0,0.0,0.0,-3403.02783203125,2870.5595703125,11873.2451171875,-0.0,-682.671875,5889.73388671875,9660.720703125,7162.88916015625,3062.089111328125,2566.973388671875,-7588.86328125,-5830.12890625,7268.58740234375,-1199.2454833984375,-2295.970947265625,10136.763671875,-6233.056640625,9049.5751953125,7807.41357421875,5624.29443359375,8168.220703125,2827.644287109375,-1340.7071533203125,5321.5029296875,-0.0,4642.009765625,-15002.091796875,2555.052490234375,12966.7919921875,2648.03564453125,-7077.05810546875,4222.39306640625,5043.34765625,6591.47900390625,4305.83935546875,3127.257080078125,-4374.98095703125,-11078.5166015625,-5707.74072265625,1968.5428466796875,-3866.354736328125,0.0,-5925.49658203125,0.0,-6750.4248046875,-11072.1591796875,3819.465576171875,-9944.4384765625,0.0,-14223.2578125,-1793.7025146484375,0.0,-6576.37939453125,0.0,5061.62646484375,-0.0,-5826.9501953125
-3960.927490234375,-4724.6611328125,11930.4658203125,-7855.09765625,6889.501953125,2799.0341796875,3542.10546875,-5652.10986328125,0.0,-4995.6640625,-2481.142822265625,-12470.8818359375,0.0,0.0,0.0,-3407.00146484375,2883.275390625,11885.9609375,-0.0,-682.671875,5904.0390625,9671.84765625,7170.8359375,3066.06298828125,2580.483642578125,-7583.30029296875,-5822.9765625,7256.66650390625,-1184.9403076171875,-2287.228759765625,10148.6845703125,-6216.3671875,9061.49609375,7823.30810546875,5635.42041015625,8175.373046875,2828.43896484375,-1335.9388427734375,5334.21826171875,-0.0,4653.9306640625,-14994.9384765625,2559.82080078125,12965.2021484375,2649.625,-7077.8525390625,4237.4931640625,5079.11083984375,6601.015625,4292.3291015625,3125.66748046875,-4378.95458984375,-11061.828125,-5718.86669921875,1982.847900390625,-3863.970458984375,0.0,-5947.74853515625,0.0,-6755.98779296875,-11057.0595703125,3828.207763671875,-9939.6708984375,0.0,-14207.36328125,-1734.8924560546875,0.0,-6562.86865234375,0.0,5071.1630859375,-0.0,-5822.9765625
-3933.111572265625,-4750.0927734375,11939.2080078125,-7839.9970703125,6894.2705078125,2807.776123046875,3542.900146484375,-5645.751953125,0.0,-4993.27978515625,-2485.1162109375,-12480.41796875,0.0,0.0,0.0,-3400.6435546875,2892.017333984375,11893.908203125,-0.0,-681.0823974609375,5911.98583984375,9682.97265625,7177.1943359375,3072.4208984375,2583.662841796875,-7572.173828125,-5817.4130859375,7264.6142578125,-1181.7613525390625,-2302.328857421875,10155.8369140625,-6211.5986328125,9071.0322265625,7834.4345703125,5642.57275390625,8181.7314453125,2830.8232421875,-1329.5809326171875,5335.0126953125,-0.0,4660.28857421875,-14986.9921875,2559.82080078125,12973.1494140625,2650.419921875,-7076.263671875,4246.23486328125,5113.28369140625,6605.7841796875,4300.2763671875,3127.257080078125,-4374.18603515625,-11062.6220703125,-5736.35107421875,1986.8214111328125,-3859.996826171875,0.0,-5943.775390625,0.0,-6750.4248046875,-11058.6484375,3832.18115234375,-9936.4921875,0.0,-14209.7470703125,-1753.1712646484375,0.0,-6527.90087890625,0.0,5084.67333984375,-0.0,-5821.38671875
-3916.42236328125,-4745.32470703125,11955.1015625,-7813.771484375,6903.80712890625,2828.43896484375,3546.078857421875,-5628.267578125,0.0,-4978.1796875,-2471.60595703125,-12464.5234375,0.0,0.0,0.0,-3374.41748046875,2910.296142578125,11905.8291015625,-0.0,-673.9298706054688,5923.90673828125,9699.662109375,7186.73095703125,3088.315185546875,2593.199462890625,-7546.74267578125,-5814.234375,7287.6611328125,-1172.224609375,-2308.6865234375,10170.142578125,-6194.90966796875,9085.337890625,7854.30224609375,5653.69921875,8198.4208984375,2834.796875,-1315.2757568359375,5350.90771484375,-0.0,4673.798828125,-14966.3291015625,2567.76806640625,12992.22265625,2652.80419921875,-7060.369140625,4264.513671875,5154.60986328125,6613.7314453125,4325.7080078125,3131.230712890625,-4354.318359375,-11061.828125,-5676.74658203125,1996.358154296875,-3848.87060546875,0.0,-5905.62841796875,0.0,-6728.96728515625,-11048.3173828125,3843.3076171875,-9926.16015625,0.0,-14203.3896484375,-1714.2296142578125,0.0,-6487.36962890625,0.0,5107.720703125,-0.0,-5809.4658203125
-3935.495849609375,-4729.4296875,11965.43359375,-7811.3876953125,6909.37060546875,2832.41259765625,3546.078857421875,-5618.73095703125,0.0,-4970.232421875,-2473.990234375,-12476.4443359375,0.0,0.0,0.0,-3352.165283203125,2916.65380859375,11911.392578125,-0.0,-669.9561767578125,5930.26513671875,9703.6357421875,7190.7041015625,3096.2626953125,2598.762451171875,-7550.71630859375,-5810.2607421875,7297.19775390625,-1166.66162109375,-2281.665771484375,10177.294921875,-6186.9619140625,9092.490234375,7859.8662109375,5659.26220703125,8206.3671875,2835.591552734375,-1309.7127685546875,5357.265625,-0.0,4680.15673828125,-14964.740234375,2570.947021484375,12999.375,2653.598876953125,-7050.83203125,4278.81884765625,5125.20458984375,6619.29443359375,4330.47607421875,3130.43603515625,-4340.8076171875,-11076.1328125,-5652.10986328125,2002.716064453125,-3848.075927734375,0.0,-5875.4287109375,0.0,-6715.45654296875,-11061.0322265625,3850.4599609375,-9918.212890625,0.0,-14204.1845703125,-1672.9036865234375,0.0,-6468.2958984375,0.0,5119.6416015625,-0.0,-5807.87646484375
