-4061.063232421875,-4640.42041015625,12005.96484375,-7856.6865234375,6954.669921875,2860.228271484375,3621.578125,-5599.65771484375,0.0,-4930.49609375,-2414.385498046875,-12807.845703125,0.0,0.0,0.0,-3372.033447265625,2909.501220703125,11957.486328125,-0.0,-459.3531188964844,5996.22705078125,9703.6357421875,7245.54052734375,3141.562255859375,2641.677734375,-7633.3681640625,-5801.51904296875,7294.8134765625,-1274.74462890625,-2386.570068359375,10203.5205078125,-6237.0302734375,9147.326171875,7718.404296875,5710.125,8195.2412109375,2913.47509765625,-1208.7822265625,5422.43359375,-0.0,4778.703125,-14946.4609375,2736.250732421875,12956.4599609375,2736.250732421875,-6872.81298828125,4328.09228515625,5159.3779296875,6814.7978515625,4306.63427734375,3197.193115234375,-4238.28759765625,-11212.03125,-5566.27880859375,2017.021240234375,-3813.107666015625,0.0,-5939.8017578125,0.0,-6700.35693359375,-11184.2158203125,3920.396240234375,-9760.0625,0.0,-14279.68359375,-1648.26708984375,0.0,-6749.6298828125,0.0,5097.38916015625,-0.0,-5810.2607421875
-4043.5791015625,-4603.06787109375,12008.349609375,-7863.83935546875,6957.84912109375,2857.04931640625,3623.96240234375,-5605.220703125,0.0,-4929.701171875,-2411.20654296875,-12800.693359375,0.0,0.0,0.0,-3379.980712890625,2909.501220703125,11956.69140625,-0.0,-460.9425964355469,5998.611328125,9700.4580078125,7245.54052734375,3140.767333984375,2642.472412109375,-7656.41552734375,-5802.3134765625,7290.04541015625,-1273.949951171875,-2353.986083984375,10204.3154296875,-6238.619140625,9148.9150390625,7719.19873046875,5710.919921875,8194.4462890625,2914.269775390625,-1208.7822265625,5425.61181640625,-0.0,4781.8818359375,-14950.4345703125,2735.455810546875,12954.87109375,2736.250732421875,-6875.99169921875,4338.42333984375,5156.99365234375,6816.38720703125,4305.04443359375,3196.3984375,-4244.6455078125,-11208.0576171875,-5551.9736328125,2017.021240234375,-3787.676513671875,0.0,-5951.72265625,0.0,-6706.71484375,-11158.7841796875,3919.6015625,-9761.6513671875,0.0,-14274.9150390625,-1699.1297607421875,0.0,-6741.6826171875,0.0,5093.41552734375,-0.0,-5812.64501953125
-4054.705078125,-4630.0888671875,12017.8857421875,-7861.455078125,6972.154296875,2863.4072265625,3623.96240234375,-5604.42578125,0.0,-4925.72802734375,-2411.20654296875,-12796.7197265625,0.0,0.0,0.0,-3379.18603515625,2915.064453125,11961.4599609375,-0.0,-457.763671875,6007.353515625,9706.814453125,7251.10400390625,3144.740966796875,2640.08837890625,-7650.05712890625,-5796.75048828125,7296.4033203125,-1277.1287841796875,-2307.09716796875,10208.2890625,-6235.44091796875,9156.0673828125,7723.1728515625,5719.66162109375,8199.21484375,2915.859130859375,-1205.603271484375,5427.99609375,-0.0,4800.16064453125,-14948.8447265625,2739.429443359375,12961.228515625,2737.04541015625,-6874.40234375,4352.728515625,5160.1728515625,6829.8974609375,4316.17138671875,3198.78271484375,-4243.8505859375,-11216.7998046875,-5561.5107421875,2015.431640625,-3738.4033203125,0.0,-5958.875,0.0,-6705.919921875,-11150.04296875,3923.574951171875,-9759.2666015625,0.0,-14305.115234375,-1726.1505126953125,0.0,-6755.193359375,0.0,5085.46826171875,-0.0,-5807.87646484375
-4076.162841796875,-4676.9775390625,12011.5283203125,-7860.66064453125,6968.97509765625,2864.201904296875,3623.96240234375,-5604.42578125,0.0,-4924.93310546875,-2422.332763671875,-12761.751953125,0.0,0.0,0.0,-3371.23876953125,2911.885498046875,11957.486328125,-0.0,-456.96893310546875,6004.96923828125,9706.0205078125,7248.7197265625,3142.35693359375,2641.677734375,-7648.4677734375,-5798.33984375,7299.58203125,-1275.5394287109375,-2287.228759765625,10205.109375,-6241.00341796875,9150.5048828125,7718.404296875,5716.482421875,8197.625,2914.269775390625,-1206.39794921875,5423.22802734375,-0.0,4790.6240234375,-14955.203125,2735.455810546875,12963.6123046875,2735.455810546875,-6875.19677734375,4329.681640625,5168.9150390625,6827.51318359375,4320.14453125,3197.193115234375,-4240.671875,-11227.130859375,-5568.6630859375,2017.021240234375,-3728.86669921875,0.0,-5957.28564453125,0.0,-6705.919921875,-11165.1416015625,3921.190673828125,-9759.2666015625,0.0,-14312.267578125,-1695.1561279296875,0.0,-6772.6767578125,0.0,5088.6474609375,-0.0,-5805.4921875
-4081.72607421875,-4660.28857421875,12010.7333984375,-7862.25048828125,6944.33837890625,2856.254638671875,3621.578125,-5613.16845703125,0.0,-4928.11181640625,-2420.7431640625,-12758.572265625,0.0,0.0,0.0,-3381.570068359375,2905.52783203125,11950.333984375,-0.0,-456.1742248535156,5993.84326171875,9698.0732421875,7240.7724609375,3135.204345703125,2645.651611328125,-7669.130859375,-5807.08154296875,7288.4560546875,-1271.5657958984375,-2326.170654296875,10198.751953125,-6244.9775390625,9148.12109375,7712.04638671875,5704.5615234375,8187.2939453125,2912.680419921875,-1211.1663818359375,5434.3544921875,-0.0,4771.55078125,-14970.302734375,2731.482177734375,12953.28125,2734.6611328125,-6882.349609375,4325.7080078125,5183.2197265625,6805.26123046875,4308.2236328125,3197.98779296875,-4248.619140625,-11223.9521484375,-5613.962890625,2021.78955078125,-3758.271484375,0.0,-5976.35888671875,0.0,-6712.27783203125,-11188.189453125,3915.6279296875,-9759.2666015625,0.0,-14285.2470703125,-1721.382080078125,0.0,-6775.85595703125,0.0,5095.0048828125,-0.0,-5793.5712890625
-4076.162841796875,-4638.0361328125,12029.01171875,-7859.8662109375,6953.875,2857.04931640625,3621.578125,-5620.32080078125,0.0,-4932.08544921875,-2410.411865234375,-12760.95703125,0.0,0.0,0.0,-3399.848876953125,2913.47509765625,11953.5126953125,-0.0,-455.3794860839844,6003.3798828125,9702.046875,7243.951171875,3136.7939453125,2649.625,-7669.92578125,-5803.9033203125,7281.30322265625,-1266.79736328125,-2344.44921875,10205.9052734375,-6235.44091796875,9160.0419921875,7717.609375,5709.330078125,8188.08837890625,2913.47509765625,-1211.961181640625,5447.06982421875,-0.0,4783.4716796875,-14975.865234375,2735.455810546875,12951.69140625,2736.250732421875,-6885.5283203125,4346.37060546875,5172.09375,6814.0029296875,4304.25,3198.78271484375,-4256.56640625,-11247.7939453125,-5630.65185546875,2025.7633056640625,-3772.57666015625,0.0,-5990.6640625,0.0,-6722.60888671875,-11195.341796875,3916.42236328125,-9760.8564453125,0.0,-14280.478515625,-1746.018798828125,0.0,-6786.1875,0.0,5075.931640625,-0.0,-5800.72412109375
-4078.547119140625,-4593.53125,12040.9326171875,-7867.0185546875,6963.41162109375,2855.4599609375,3623.167724609375,-5620.32080078125,0.0,-4936.85400390625,-2407.23291015625,-12754.599609375,0.0,0.0,0.0,-3407.00146484375,2919.8330078125,11957.486328125,-0.0,-456.1742248535156,6010.5322265625,9704.4306640625,7247.1298828125,3137.58837890625,2652.80419921875,-7674.69384765625,-5801.51904296875,7282.892578125,-1264.4132080078125,-2312.66015625,10209.8779296875,-6224.314453125,9170.373046875,7716.814453125,5714.8935546875,8188.8837890625,2915.064453125,-1211.1663818359375,5458.1962890625,-0.0,4794.59765625,-14982.2236328125,2738.634765625,12951.69140625,2737.83984375,-6890.296875,4356.7021484375,5164.94140625,6823.53955078125,4301.8662109375,3198.78271484375,-4258.15576171875,-11249.3828125,-5591.71044921875,2028.1474609375,-3767.013671875,0.0,-5989.07470703125,0.0,-6726.5830078125,-11173.0888671875,3921.190673828125,-9760.0625,0.0,-14276.5048828125,-1730.1241455078125,0.0,-6784.59765625,0.0,5079.9052734375,-0.0,-5810.2607421875
-4076.957763671875,-4571.27880859375,12045.701171875,-7856.6865234375,6973.74365234375,2864.201904296875,3624.757080078125,-5610.7841796875,0.0,-4935.2646484375,-2419.15380859375,-12741.0888671875,0.0,0.0,0.0,-3391.10693359375,2925.39599609375,11963.8447265625,-0.0,-460.1478576660156,6016.095703125,9709.994140625,7251.8984375,3144.740966796875,2652.00927734375,-7665.1572265625,-5798.33984375,7295.6083984375,-1266.002685546875,-2280.076171875,10217.0302734375,-6221.1357421875,9175.1416015625,7721.5830078125,5721.2509765625,8195.2412109375,2915.859130859375,-1204.0137939453125,5457.4013671875,-0.0,4801.75,-14973.4814453125,2739.429443359375,12961.228515625,2737.04541015625,-6885.5283203125,4358.29150390625,5183.2197265625,6832.28173828125,4316.17138671875,3197.98779296875,-4249.4140625,-11227.130859375,-5555.94775390625,2026.557861328125,-3748.734619140625,0.0,-5979.5380859375,0.0,-6721.01953125,-11181.8310546875,3927.548828125,-9756.8828125,0.0,-14282.8623046875,-1717.4085693359375,0.0,-6758.3720703125,0.0,5095.7998046875,-0.0,-5828.53955078125
-4085.699462890625,-4587.17333984375,12039.34375,-7849.5341796875,6965.7958984375,2875.328125,3627.141357421875,-5594.0947265625,0.0,-4919.3701171875,-2419.15380859375,-12735.5263671875,0.0,0.0,0.0,-3368.8544921875,2930.164306640625,11969.4072265625,-0.0,-450.6111145019531,6016.89013671875,9716.3515625,7254.28271484375,3154.27783203125,2648.830322265625,-7652.44140625,-5801.51904296875,7312.2978515625,-1269.976318359375,-2272.129150390625,10222.5947265625,-6216.3671875,9174.3466796875,7728.7353515625,5723.63525390625,8206.3671875,2916.65380859375,-1195.2718505859375,5452.6328125,-0.0,4796.98193359375,-14962.35546875,2737.83984375,12974.7392578125,2738.634765625,-6871.2236328125,4355.11279296875,5175.2724609375,6824.33447265625,4329.681640625,3198.78271484375,-4234.31396484375,-11210.44140625,-5544.02685546875,2024.1737060546875,-3731.250732421875,0.0,-5963.6435546875,0.0,-6702.7412109375,-11200.1103515625,3935.495849609375,-9748.935546875,0.0,-14291.6044921875,-1710.2559814453125,0.0,-6729.76171875,0.0,5116.462890625,-0.0,-5809.4658203125
-4089.673583984375,-4633.26806640625,12036.1640625,-7846.35546875,6957.05419921875,2879.3017578125,3626.3466796875,-5587.73681640625,0.0,-4913.01220703125,-2407.23291015625,-12733.9365234375,0.0,0.0,0.0,-3362.49658203125,2932.548583984375,11973.380859375,-0.0,-445.0480041503906,6016.095703125,9720.3251953125,7255.8720703125,3158.25146484375,2647.240966796875,-7644.49462890625,-5804.69775390625,7314.68212890625,-1269.976318359375,-2325.375732421875,10223.388671875,-6216.3671875,9173.552734375,7734.298828125,5723.63525390625,8211.9306640625,2917.44873046875,-1192.8876953125,5448.6591796875,-0.0,4794.59765625,-14958.3818359375,2737.04541015625,12980.3017578125,2738.634765625,-6868.04443359375,4354.318359375,5176.8623046875,6816.38720703125,4333.65478515625,3197.193115234375,-4228.75048828125,-11198.5205078125,-5540.84765625,2023.3790283203125,-3734.4296875,0.0,-5954.10693359375,0.0,-6693.9990234375,-11203.2890625,3935.495849609375,-9744.1669921875,0.0,-14293.193359375,-1696.7454833984375,0.0,-6725.7880859375,0.0,5118.05224609375,-0.0,-5785.6240234375
-4072.984130859375,-4631.67822265625,12033.7802734375,-7844.765625,6959.4384765625,2884.86474609375,3626.3466796875,-5579.78955078125,0.0,-4903.47509765625,-2411.20654296875,-12743.47265625,0.0,0.0,0.0,-3345.807373046875,2930.958984375,11974.970703125,-0.0,-439.48492431640625,6016.89013671875,9723.50390625,7260.640625,3166.993408203125,2637.7041015625,-7644.49462890625,-5801.51904296875,7325.80810546875,-1279.5130615234375,-2334.91259765625,10223.388671875,-6222.72509765625,9172.7568359375,7735.88818359375,5726.814453125,8215.904296875,2919.0380859375,-1184.1456298828125,5449.45361328125,-0.0,4794.59765625,-14954.4072265625,2738.634765625,12990.6337890625,2741.01904296875,-6858.5078125,4346.37060546875,5180.8359375,6817.18212890625,4339.21826171875,3197.98779296875,-4215.240234375,-11212.826171875,-5551.9736328125,2013.84228515625,-3752.70849609375,0.0,-5963.6435546875,0.0,-6678.1044921875,-11181.037109375,3940.26416015625,-9738.6044921875,0.0,-14297.16796875,-1706.2822265625,0.0,-6710.68798828125,0.0,5126.79443359375,-0.0,-5764.96142578125
-4078.547119140625,-4611.81005859375,12027.4228515625,-7836.81884765625,6959.4384765625,2897.580322265625,3627.93603515625,-5562.3056640625,0.0,-4894.7333984375,-2431.074951171875,-12749.0361328125,0.0,0.0,0.0,-3317.197021484375,2931.75390625,11981.328125,-0.0,-436.3059997558594,6018.47998046875,9730.65625,7266.998046875,3174.94091796875,2632.935791015625,-7630.189453125,-5800.72412109375,7351.23974609375,-1284.2813720703125,-2291.997314453125,10228.1572265625,-6224.314453125,9168.7841796875,7739.06689453125,5729.1982421875,8223.8515625,2920.627685546875,-1170.63525390625,5440.7119140625,-0.0,4793.802734375,-14943.2822265625,2741.01904296875,13006.5283203125,2741.813720703125,-6846.5869140625,4334.44970703125,5192.7568359375,6819.56640625,4359.880859375,3201.166748046875,-4192.98779296875,-11221.568359375,-5555.94775390625,2009.073974609375,-3741.582275390625,0.0,-5933.443359375,0.0,-6661.4150390625,-11186.599609375,3947.416748046875,-9728.2724609375,0.0,-14303.525390625,-1725.355712890625,0.0,-6697.97265625,0.0,5146.662109375,-0.0,-5762.5771484375
-4071.39453125,-4588.7626953125,12021.859375,-7836.0244140625,6958.6435546875,2891.22265625,3627.141357421875,-5570.2529296875,0.0,-4905.06494140625,-2429.4853515625,-12716.4521484375,0.0,0.0,0.0,-3329.117919921875,2934.9326171875,11979.7392578125,-0.0,-443.45855712890625,6016.095703125,9730.65625,7263.02490234375,3169.377685546875,2636.909423828125,-7632.57373046875,-5802.3134765625,7336.1396484375,-1280.3077392578125,-2280.076171875,10228.1572265625,-6214.77734375,9169.578125,7741.451171875,5727.609375,8220.6728515625,2917.44873046875,-1177.787841796875,5445.48046875,-0.0,4788.23974609375,-14945.666015625,2737.04541015625,12996.9912109375,2738.634765625,-6852.94482421875,4324.1181640625,5197.52490234375,6817.9765625,4341.6025390625,3198.78271484375,-4204.90869140625,-11216.7998046875,-5530.51611328125,2014.636962890625,-3730.4560546875,0.0,-5930.26513671875,0.0,-6677.3095703125,-11177.857421875,3945.03271484375,-9733.8359375,0.0,-14290.8095703125,-1649.8565673828125,0.0,-6711.48291015625,0.0,5131.5625,-0.0,-5791.1875
-4058.67919921875,-4600.68359375,12021.859375,-7832.8447265625,6959.4384765625,2892.017333984375,3625.552001953125,-5575.021484375,0.0,-4909.83349609375,-2421.5380859375,-12730.7578125,0.0,0.0,0.0,-3345.0126953125,2937.31689453125,11981.328125,-0.0,-447.43218994140625,6016.89013671875,9730.65625,7263.02490234375,3168.5830078125,2636.909423828125,-7626.21533203125,-5806.287109375,7327.39794921875,-1280.3077392578125,-2337.296630859375,10229.7470703125,-6213.18798828125,9171.962890625,7742.24609375,5727.609375,8220.6728515625,2917.44873046875,-1180.1719970703125,5448.6591796875,-0.0,4787.4453125,-14940.8974609375,2736.250732421875,12993.8125,2738.634765625,-6858.5078125,4325.7080078125,5211.830078125,6815.59228515625,4341.6025390625,3197.98779296875,-4214.44580078125,-11221.568359375,-5568.6630859375,2013.0474853515625,-3720.12451171875,0.0,-5907.21728515625,0.0,-6685.2568359375,-11165.9365234375,3944.23828125,-9737.0146484375,0.0,-14293.98828125,-1637.140869140625,0.0,-6694.7939453125,0.0,5118.8466796875,-0.0,-5805.4921875
-4059.4736328125,-4622.93603515625,12017.0908203125,-7822.513671875,6957.05419921875,2902.348876953125,3625.552001953125,-5567.86865234375,0.0,-4910.6279296875,-2430.280029296875,-12734.73046875,0.0,0.0,0.0,-3333.886474609375,2938.111572265625,11983.7119140625,-0.0,-449.8163757324219,6016.095703125,9737.0146484375,7263.8193359375,3176.530029296875,2630.551513671875,-7598.39990234375,-5806.287109375,7338.52392578125,-1285.076171875,-2330.93896484375,10233.7197265625,-6217.95654296875,9167.1943359375,7745.4248046875,5729.1982421875,8228.619140625,2918.243408203125,-1175.403564453125,5441.5068359375,-0.0,4785.85595703125,-14926.5927734375,2736.250732421875,13001.759765625,2738.634765625,-6854.5341796875,4318.55517578125,5238.85107421875,6813.2080078125,4357.49658203125,3197.193115234375,-4206.49853515625,-11238.2578125,-5622.705078125,2006.6898193359375,-3729.6611328125,0.0,-5888.14404296875,0.0,-6677.3095703125,-11176.2685546875,3945.03271484375,-9735.4248046875,0.0,-14312.267578125,-1646.6776123046875,0.0,-6672.541015625,0.0,5119.6416015625,-0.0,-5819.79736328125
-4066.6259765625,-4607.0419921875,12018.6806640625,-7820.923828125,6957.84912109375,2912.680419921875,3627.141357421875,-5559.92138671875,0.0,-4912.2177734375,-2426.306396484375,-12740.294921875,0.0,0.0,0.0,-3325.939208984375,2943.6748046875,11989.2763671875,-0.0,-450.6111145019531,6020.86376953125,9744.1669921875,7269.38232421875,3182.09326171875,2628.16748046875,-7581.7109375,-5803.9033203125,7350.44482421875,-1288.255126953125,-2236.3662109375,10237.693359375,-6213.98291015625,9171.16796875,7751.78271484375,5732.37744140625,8236.5673828125,2919.8330078125,-1168.2509765625,5443.89111328125,-0.0,4789.0341796875,-14918.64453125,2738.634765625,13010.501953125,2741.01904296875,-6851.35498046875,4321.73388671875,5213.41943359375,6817.9765625,4372.5966796875,3199.577392578125,-4198.55126953125,-11229.5146484375,-5617.1416015625,2005.8948974609375,-3707.408935546875,0.0,-5884.17041015625,0.0,-6678.8994140625,-11168.3203125,3949.801025390625,-9732.24609375,0.0,-14314.6513671875,-1638.7303466796875,0.0,-6669.3623046875,0.0,5119.6416015625,-0.0,-5823.77099609375
-4088.878662109375,-4601.478515625,12004.375,-7840.79248046875,6956.25927734375,2898.375244140625,3629.525390625,-5558.33203125,0.0,-4901.8857421875,-2414.385498046875,-12698.9677734375,0.0,0.0,0.0,-3321.1708984375,2934.137939453125,11984.5078125,-0.0,-441.8691101074219,6014.505859375,9734.630859375,7268.58740234375,3178.11962890625,2628.16748046875,-7638.13623046875,-5803.9033203125,7342.49755859375,-1287.4603271484375,-2232.392578125,10231.3359375,-6221.1357421875,9164.810546875,7742.24609375,5729.1982421875,8229.4150390625,2920.627685546875,-1167.456298828125,5442.30126953125,-0.0,4781.08740234375,-14941.6923828125,2737.83984375,13005.7333984375,2742.6083984375,-6846.5869140625,4297.89208984375,5188.783203125,6815.59228515625,4355.11279296875,3201.96142578125,-4196.9619140625,-11230.3095703125,-5593.2998046875,2003.5107421875,-3729.6611328125,0.0,-5889.73388671875,0.0,-6670.95166015625,-11172.294921875,3950.595947265625,-9729.0673828125,0.0,-14303.525390625,-1635.551513671875,0.0,-6650.2890625,0.0,5138.71533203125,-0.0,-5792.7763671875
-4115.8994140625,-4596.7099609375,12011.5283203125,-7832.8447265625,6958.6435546875,2905.52783203125,3630.3203125,-5549.58984375,0.0,-4889.96484375,-2425.51171875,-12714.86328125,0.0,0.0,0.0,-3304.4814453125,2937.31689453125,11990.0703125,-0.0,-434.716552734375,6019.2744140625,9738.6044921875,7273.35595703125,3186.06689453125,2621.014892578125,-7627.80517578125,-5804.69775390625,7352.8291015625,-1296.2022705078125,-2247.492431640625,10235.3095703125,-6218.75146484375,9170.373046875,7748.60400390625,5734.76171875,8234.9775390625,2923.806396484375,-1160.3037109375,5444.685546875,-0.0,4781.08740234375,-14930.5654296875,2741.813720703125,13014.4755859375,2743.403076171875,-6834.666015625,4303.45556640625,5189.57763671875,6816.38720703125,4363.85498046875,3205.140380859375,-4187.42529296875,-11236.66796875,-5554.35791015625,1996.358154296875,-3719.329833984375,0.0,-5878.607421875,0.0,-6654.2626953125,-11212.826171875,3954.5693359375,-9722.7099609375,0.0,-14318.625,-1630.7830810546875,0.0,-6621.6787109375,0.0,5159.3779296875,-0.0,-5768.14013671875
-4111.92578125,-4618.16796875,12027.4228515625,-7828.076171875,6965.00146484375,2910.296142578125,3630.3203125,-5550.384765625,0.0,-4899.501953125,-2455.71142578125,-12729.16796875,0.0,0.0,0.0,-3310.83935546875,2940.495849609375,11991.66015625,-0.0,-441.0743713378906,6024.83740234375,9740.193359375,7274.15087890625,3187.656494140625,2620.22021484375,-7610.3212890625,-5802.3134765625,7356.0078125,-1297.7918701171875,-2267.360595703125,10237.693359375,-6214.77734375,9175.9365234375,7753.3720703125,5737.9404296875,8237.3623046875,2923.01171875,-1161.0985107421875,5443.89111328125,-0.0,4793.00830078125,-14919.4404296875,2741.813720703125,13016.064453125,2742.6083984375,-6836.25537109375,4332.0654296875,5190.37255859375,6820.36083984375,4372.5966796875,3203.551025390625,-4190.603515625,-11235.873046875,-5549.58984375,1994.768798828125,-3733.635009765625,0.0,-5884.96533203125,0.0,-6659.03076171875,-11221.568359375,3956.1591796875,-9725.09375,0.0,-14332.134765625,-1647.472412109375,0.0,-6636.7783203125,0.0,5129.97314453125,-0.0,-5791.98193359375
-4096.826171875,-4622.93603515625,12016.296875,-7825.6923828125,6961.02783203125,2908.70654296875,3627.141357421875,-5556.7421875,0.0,-4920.95947265625,-2449.353515625,-12724.3994140625,0.0,0.0,0.0,-3325.939208984375,2936.522216796875,11989.2763671875,-0.0,-460.9425964355469,6018.47998046875,9739.3994140625,7268.58740234375,3184.4775390625,2621.014892578125,-7601.5791015625,-5803.1083984375,7351.23974609375,-1295.4075927734375,-2265.771240234375,10235.3095703125,-6220.3408203125,9167.1943359375,7751.78271484375,5733.171875,8235.7724609375,2919.0380859375,-1166.66162109375,5437.53271484375,-0.0,4786.650390625,-14916.2607421875,2737.83984375,13012.091796875,2741.01904296875,-6848.970703125,4317.76025390625,5206.26708984375,6815.59228515625,4372.5966796875,3200.3720703125,-4200.140625,-11240.6416015625,-5535.28466796875,1996.358154296875,-3724.09814453125,0.0,-5902.44921875,0.0,-6674.130859375,-11197.7265625,3952.18505859375,-9733.041015625,0.0,-14326.572265625,-1652.24072265625,0.0,-6675.72021484375,0.0,5092.62109375,-0.0,-5864.30224609375
-4077.752685546875,-4621.34716796875,12012.322265625,-7818.53955078125,6954.669921875,2905.52783203125,3624.757080078125,-5564.689453125,0.0,-4932.08544921875,-2449.353515625,-12727.578125,0.0,0.0,0.0,-3341.0390625,2933.34326171875,11982.123046875,-0.0,-465.7109680175781,6013.71142578125,9739.3994140625,7266.20361328125,3178.11962890625,2616.24658203125,-7597.60546875,-5799.134765625,7342.49755859375,-1300.176025390625,-2276.102783203125,10229.7470703125,-6230.67236328125,9160.8359375,7749.39892578125,5729.1982421875,8233.3876953125,2918.243408203125,-1172.224609375,5420.04931640625,-0.0,4783.4716796875,-14913.876953125,2737.04541015625,13008.1171875,2738.634765625,-6856.91845703125,4293.12353515625,5216.5986328125,6808.43994140625,4370.21240234375,3200.3720703125,-4212.0615234375,-11265.2783203125,-5533.6953125,1991.58984375,-3716.15087890625,0.0,-5911.19140625,0.0,-6693.20458984375,-11185.8056640625,3948.211669921875,-9740.98828125,0.0,-14336.109375,-1638.7303466796875,0.0,-6703.53564453125,0.0,5081.49462890625,-0.0,-5872.24951171875
-4076.957763671875,-4634.857421875,12008.349609375,-7821.71923828125,6957.05419921875,2903.938232421875,3626.3466796875,-5565.484375,0.0,-4925.72802734375,-2452.532470703125,-12734.73046875,0.0,0.0,0.0,-3339.44970703125,2926.985595703125,11978.1494140625,-0.0,-460.9425964355469,6010.5322265625,9733.8359375,7266.998046875,3176.530029296875,2617.041259765625,-7600.7841796875,-5794.3662109375,7343.2919921875,-1300.970703125,-2265.771240234375,10226.5673828125,-6239.4140625,9155.2734375,7745.4248046875,5727.609375,8232.59375,2920.627685546875,-1173.814208984375,5410.51220703125,-0.0,4782.6767578125,-14916.2607421875,2739.429443359375,13007.3232421875,2741.813720703125,-6856.12353515625,4312.197265625,5213.41943359375,6810.029296875,4367.828125,3200.3720703125,-4210.47216796875,-11273.224609375,-5584.55810546875,1992.3846435546875,-3737.608642578125,0.0,-5904.83349609375,0.0,-6690.8203125,-11187.39453125,3945.827392578125,-9740.193359375,0.0,-14351.208984375,-1633.9620361328125,0.0,-6673.3359375,0.0,5098.18408203125,-0.0,-5840.46044921875
-4103.18359375,-4653.9306640625,11984.5078125,-7835.22900390625,6953.875,2886.454345703125,3624.757080078125,-5577.4052734375,0.0,-4932.08544921875,-2474.784912109375,-12750.6259765625,0.0,0.0,0.0,-3364.880859375,2910.296142578125,11967.0224609375,-0.0,-468.09515380859375,5996.22705078125,9720.3251953125,7259.05078125,3166.19873046875,2602.736328125,-7615.08935546875,-5795.16064453125,7323.423828125,-1316.070556640625,-2249.876708984375,10213.0576171875,-6251.3349609375,9136.994140625,7732.70947265625,5715.68798828125,8217.494140625,2918.243408203125,-1186.52978515625,5385.87548828125,-0.0,4766.7822265625,-14928.9765625,2737.04541015625,12991.4287109375,2738.634765625,-6864.07080078125,4303.45556640625,5202.29345703125,6808.43994140625,4347.16552734375,3198.78271484375,-4227.9560546875,-11281.1728515625,-5617.1416015625,1976.489990234375,-3773.371337890625,0.0,-5933.443359375,0.0,-6702.7412109375,-11201.69921875,3935.495849609375,-9748.1416015625,0.0,-14340.0830078125,-1665.7510986328125,0.0,-6701.1513671875,0.0,5091.826171875,-0.0,-5835.69189453125
-4116.69384765625,-4669.8251953125,11978.943359375,-7852.71337890625,6942.7490234375,2870.5595703125,3622.372802734375,-5588.53125,0.0,-4934.4697265625,-2473.1953125,-12762.546875,0.0,0.0,0.0,-3372.033447265625,2899.964599609375,11957.486328125,-0.0,-470.4793395996094,5985.8955078125,9707.6103515625,7248.7197265625,3154.27783203125,2610.683349609375,-7642.1103515625,-5810.2607421875,7305.93994140625,-1306.5338134765625,-2282.46044921875,10201.13671875,-6264.05078125,9129.841796875,7719.99365234375,5705.3564453125,8204.77734375,2913.47509765625,-1194.47705078125,5393.0283203125,-0.0,4758.8349609375,-14947.2548828125,2728.30322265625,12977.91796875,2735.455810546875,-6872.81298828125,4293.91845703125,5183.2197265625,6798.1083984375,4328.09228515625,3196.3984375,-4238.28759765625,-11277.9931640625,-5594.0947265625,1986.0267333984375,-3739.992919921875,0.0,-5942.98046875,0.0,-6705.919921875,-11227.92578125,3924.369873046875,-9753.7041015625,0.0,-14327.3671875,-1704.69287109375,0.0,-6732.9404296875,0.0,5098.18408203125,-0.0,-5831.71826171875
-4142.919921875,-4673.00390625,11991.66015625,-7858.2763671875,6949.10693359375,2872.149169921875,3623.167724609375,-5582.96826171875,0.0,-4928.11181640625,-2457.30078125,-12760.162109375,0.0,0.0,0.0,-3358.523193359375,2904.73291015625,11959.8701171875,-0.0,-466.50567626953125,5993.84326171875,9709.994140625,7251.8984375,3157.45654296875,2625.783203125,-7646.083984375,-5808.67138671875,7311.5029296875,-1290.6392822265625,-2299.944580078125,10204.3154296875,-6256.8984375,9138.583984375,7723.1728515625,5708.53564453125,8207.95703125,2915.064453125,-1190.50341796875,5417.6650390625,-0.0,4766.7822265625,-14951.2294921875,2729.892822265625,12981.8916015625,2737.04541015625,-6867.25,4299.48193359375,5177.65673828125,6806.0556640625,4328.09228515625,3197.98779296875,-4231.134765625,-11275.609375,-5600.45263671875,2001.1265869140625,-3724.09814453125,0.0,-5928.67529296875,0.0,-6696.3828125,-11233.4892578125,3927.548828125,-9749.73046875,0.0,-14335.314453125,-1706.2822265625,0.0,-6711.48291015625,0.0,5114.87353515625,-0.0,-5811.0556640625
-4174.70947265625,-4712.740234375,11988.48046875,-7852.71337890625,6951.49072265625,2868.97021484375,3625.552001953125,-5584.55810546875,0.0,-4931.291015625,-2462.864013671875,-12753.8046875,0.0,0.0,0.0,-3362.49658203125,2903.938232421875,11956.69140625,-0.0,-468.09515380859375,5990.6640625,9706.814453125,7251.10400390625,3154.27783203125,2625.783203125,-7655.62060546875,-5803.9033203125,7311.5029296875,-1290.6392822265625,-2335.70751953125,10201.9306640625,-6260.0771484375,9134.6103515625,7723.1728515625,5707.74072265625,8203.1884765625,2913.47509765625,-1192.8876953125,5410.51220703125,-0.0,4766.7822265625,-14952.8193359375,2729.892822265625,12979.5078125,2737.83984375,-6870.4287109375,4288.35546875,5176.8623046875,6808.43994140625,4324.1181640625,3198.78271484375,-4233.51904296875,-11291.50390625,-5604.42578125,2001.1265869140625,-3720.91943359375,0.0,-5931.8544921875,0.0,-6699.56201171875,-11258.919921875,3925.164794921875,-9755.2939453125,0.0,-14347.2353515625,-1684.0299072265625,0.0,-6693.20458984375,0.0,5108.51513671875,-0.0,-5805.4921875
-4156.4306640625,-4725.4560546875,11991.66015625,-7841.5869140625,6951.49072265625,2873.738525390625,3624.757080078125,-5582.96826171875,0.0,-4932.88037109375,-2451.737548828125,-12746.6513671875,0.0,0.0,0.0,-3360.9072265625,2909.501220703125,11959.8701171875,-0.0,-468.8898620605469,5993.04833984375,9713.1728515625,7251.8984375,3156.662109375,2626.578125,-7648.4677734375,-5805.4921875,7312.2978515625,-1289.844482421875,-2347.62841796875,10206.69921875,-6253.71923828125,9140.173828125,7728.7353515625,5708.53564453125,8206.3671875,2913.47509765625,-1192.8876953125,5409.7177734375,-0.0,4769.9609375,-14943.2822265625,2730.6875,12984.275390625,2738.634765625,-6869.63427734375,4296.302734375,5200.7041015625,6806.0556640625,4330.47607421875,3200.3720703125,-4232.724609375,-11282.76171875,-5617.9365234375,2004.3055419921875,-3707.408935546875,0.0,-5928.67529296875,0.0,-6697.97265625,-11289.1201171875,3926.75390625,-9752.9091796875,0.0,-14325.7783203125,-1680.0562744140625,0.0,-6697.177734375,0.0,5093.41552734375,-0.0,-5817.4130859375
-4137.357421875,-4721.48291015625,11989.2763671875,-7842.38134765625,6949.10693359375,2869.76513671875,3623.167724609375,-5583.76318359375,0.0,-4928.90673828125,-2450.94287109375,-12746.6513671875,0.0,0.0,0.0,-3364.086181640625,2906.322509765625,11955.8974609375,-0.0,-467.3004150390625,5989.86962890625,9709.19921875,7250.30908203125,3155.072509765625,2628.962158203125,-7653.236328125,-5807.87646484375,7309.91357421875,-1286.66552734375,-2324.5810546875,10204.3154296875,-6252.1298828125,9137.7900390625,7727.14599609375,5706.1513671875,8203.9833984375,2914.269775390625,-1196.861328125,5397.796875,-0.0,4768.37158203125,-14948.05078125,2729.09814453125,12981.8916015625,2737.83984375,-6871.2236328125,4293.91845703125,5186.39892578125,6802.876953125,4328.88671875,3197.98779296875,-4233.51904296875,-11282.76171875,-5636.21533203125,2006.6898193359375,-3742.376953125,0.0,-5927.880859375,0.0,-6698.76708984375,-11298.65625,3924.369873046875,-9751.3203125,0.0,-14314.6513671875,-1681.645751953125,0.0,-6697.97265625,0.0,5106.92578125,-0.0,-5811.0556640625
-4127.8203125,-4707.97216796875,11984.5078125,-7851.91845703125,6945.92822265625,2866.5859375,3621.578125,-5588.53125,0.0,-4926.52294921875,-2460.479736328125,-12737.115234375,0.0,0.0,0.0,-3368.059814453125,2903.1435546875,11952.7177734375,-0.0,-466.50567626953125,5984.30615234375,9705.2255859375,7245.54052734375,3150.30419921875,2627.372802734375,-7648.4677734375,-5810.2607421875,7306.734375,-1289.0498046875,-2334.91259765625,10198.751953125,-6258.48779296875,9131.431640625,7724.76171875,5702.177734375,8199.21484375,2911.885498046875,-1199.2454833984375,5384.28662109375,-0.0,4762.80810546875,-14955.9970703125,2725.124267578125,12979.5078125,2736.250732421875,-6875.19677734375,4284.3818359375,5192.7568359375,6801.287109375,4325.7080078125,3196.3984375,-4235.9033203125,-11279.5830078125,-5648.13623046875,2000.3319091796875,-3803.571044921875,0.0,-5936.62255859375,0.0,-6699.56201171875,-11266.8671875,3919.6015625,-9754.498046875,0.0,-14315.4462890625,-1665.7510986328125,0.0,-6701.1513671875,0.0,5112.4892578125,-0.0,-5815.82421875
-4143.71484375,-4695.2568359375,11980.533203125,-7857.48193359375,6944.33837890625,2863.4072265625,3621.578125,-5590.12060546875,0.0,-4925.72802734375,-2463.65869140625,-12759.3681640625,0.0,0.0,0.0,-3368.059814453125,2896.78564453125,11950.333984375,-0.0,-468.09515380859375,5980.3330078125,9702.046875,7243.951171875,3145.53564453125,2624.988525390625,-7646.083984375,-5810.2607421875,7301.171875,-1291.4339599609375,-2334.91259765625,10193.1884765625,-6270.40869140625,9125.0732421875,7719.19873046875,5698.9990234375,8193.65234375,2911.0908203125,-1199.2454833984375,5384.28662109375,-0.0,4760.42431640625,-14962.35546875,2722.740234375,12975.533203125,2735.455810546875,-6876.78662109375,4281.20263671875,5201.49853515625,6799.69775390625,4320.14453125,3196.3984375,-4239.08251953125,-11290.7099609375,-5717.27734375,2000.3319091796875,-3805.16064453125,0.0,-5955.6962890625,0.0,-6693.20458984375,-11249.3828125,3915.6279296875,-9757.677734375,0.0,-14322.5986328125,-1689.593017578125,0.0,-6688.43603515625,0.0,5118.05224609375,-0.0,-5820.59228515625
-4148.4833984375,-4676.18310546875,11982.91796875,-7863.044921875,6946.72265625,2866.5859375,3623.167724609375,-5588.53125,0.0,-4927.3173828125,-2454.121826171875,-12772.0830078125,0.0,0.0,0.0,-3359.31787109375,2897.580322265625,11951.12890625,-0.0,-468.8898620605469,5985.10107421875,9702.841796875,7245.54052734375,3148.71484375,2628.16748046875,-7653.236328125,-5805.4921875,7306.734375,-1288.255126953125,-2351.601806640625,10196.3681640625,-6268.8193359375,9128.2529296875,7722.3779296875,5700.58837890625,8195.2412109375,2911.0908203125,-1196.0665283203125,5390.64404296875,-0.0,4764.39794921875,-14967.91796875,2724.32958984375,12980.3017578125,2736.250732421875,-6878.3759765625,4289.9453125,5185.60400390625,6802.876953125,4326.50244140625,3197.193115234375,-4235.9033203125,-11283.556640625,-5721.2509765625,2005.1002197265625,-3757.476806640625,0.0,-5951.72265625,0.0,-6693.9990234375,-11247.7939453125,3918.806640625,-9757.677734375,0.0,-14314.6513671875,-1696.7454833984375,0.0,-6678.1044921875,0.0,5121.23095703125,-0.0,-5807.87646484375
-4159.609375,-4661.0830078125,11989.2763671875,-7854.30224609375,6952.28564453125,2884.070068359375,3624.757080078125,-5576.6103515625,0.0,-4922.548828125,-2450.1484375,-12730.7578125,0.0,0.0,0.0,-3341.833740234375,2907.1171875,11957.486328125,-0.0,-464.9162292480469,5990.6640625,9713.1728515625,7251.10400390625,3159.8408203125,2632.935791015625,-7630.189453125,-5804.69775390625,7327.39794921875,-1282.69189453125,-2321.40234375,10205.9052734375,-6259.28271484375,9136.994140625,7731.91455078125,5706.1513671875,8204.77734375,2912.680419921875,-1188.1192626953125,5397.796875,-0.0,4767.57666015625,-14955.9970703125,2727.508544921875,12996.1962890625,2737.04541015625,-6869.63427734375,4291.5341796875,5193.5517578125,6806.8505859375,4353.5234375,3197.98779296875,-4221.59814453125,-11280.376953125,-5613.16845703125,2007.484375,-3714.5615234375,0.0,-5916.75439453125,0.0,-6687.64111328125,-11255.7412109375,3924.369873046875,-9750.525390625,0.0,-14315.4462890625,-1685.619384765625,0.0,-6684.4619140625,0.0,5120.43603515625,-0.0,-5802.3134765625
-4147.6884765625,-4662.67236328125,11999.607421875,-7847.9453125,6958.6435546875,2895.990966796875,3627.141357421875,-5566.27880859375,0.0,-4916.98583984375,-2442.200927734375,-12722.8095703125,0.0,0.0,0.0,-3323.554931640625,2915.064453125,11965.43359375,-0.0,-465.7109680175781,5999.40625,9722.7099609375,7255.0771484375,3166.993408203125,2639.293701171875,-7609.5263671875,-5802.3134765625,7344.0869140625,-1274.74462890625,-2295.17626953125,10213.0576171875,-6250.5400390625,9143.3525390625,7738.27197265625,5713.30419921875,8213.5205078125,2915.064453125,-1180.9666748046875,5412.896484375,-0.0,4776.31884765625,-14945.666015625,2729.892822265625,13008.1171875,2736.250732421875,-6863.27587890625,4302.66064453125,5180.041015625,6811.61865234375,4370.21240234375,3197.98779296875,-4206.49853515625,-11281.1728515625,-5543.23193359375,2017.021240234375,-3698.666748046875,0.0,-5887.349609375,0.0,-6676.51513671875,-11246.2041015625,3929.13818359375,-9746.5517578125,0.0,-14305.9091796875,-1648.26708984375,0.0,-6646.31494140625,0.0,5125.20458984375,-0.0,-5809.4658203125
-4150.86767578125,-4661.0830078125,12004.375,-7858.2763671875,6959.4384765625,2887.2490234375,3623.167724609375,-5564.689453125,0.0,-4914.6015625,-2448.558837890625,-12689.431640625,0.0,0.0,0.0,-3315.607666015625,2911.885498046875,11961.4599609375,-0.0,-467.3004150390625,5998.611328125,9714.7626953125,7254.28271484375,3165.404052734375,2640.08837890625,-7635.75244140625,-5801.51904296875,7341.703125,-1272.3604736328125,-2260.2080078125,10209.083984375,-6254.51416015625,9143.3525390625,7733.50390625,5712.50927734375,8210.341796875,2913.47509765625,-1181.7613525390625,5400.9755859375,-0.0,4780.29248046875,-14955.203125,2728.30322265625,13005.7333984375,2735.455810546875,-6860.09716796875,4305.04443359375,5164.94140625,6811.61865234375,4358.29150390625,3196.3984375,-4204.1142578125,-11296.2724609375,-5552.7685546875,2017.8157958984375,-3711.382568359375,0.0,-5877.01806640625,0.0,-6668.56787109375,-11243.8203125,3928.34326171875,-9748.935546875,0.0,-14303.525390625,-1622.8358154296875,0.0,-6606.57861328125,0.0,5130.767578125,-0.0,-5811.85009765625
-4158.81494140625,-4657.904296875,12014.70703125,-7847.14990234375,6965.00146484375,2900.759521484375,3623.96240234375,-5549.58984375,0.0,-4903.47509765625,-2452.532470703125,-12669.5634765625,0.0,0.0,0.0,-3296.5341796875,2922.217041015625,11971.791015625,-0.0,-463.3267822265625,6007.353515625,9726.68359375,7263.02490234375,3179.709228515625,2648.03564453125,-7615.88427734375,-5798.33984375,7357.59716796875,-1266.002685546875,-2212.5244140625,10217.0302734375,-6244.9775390625,9154.4794921875,7747.80908203125,5720.45654296875,8224.646484375,2915.859130859375,-1170.63525390625,5408.12841796875,-0.0,4789.0341796875,-14939.30859375,2729.892822265625,13020.8330078125,2736.250732421875,-6845.79248046875,4319.349609375,5169.70947265625,6817.9765625,4375.77587890625,3196.3984375,-4190.603515625,-11299.451171875,-5567.07373046875,2024.1737060546875,-3671.64599609375,0.0,-5854.765625,0.0,-6651.08349609375,-11242.23046875,3938.6748046875,-9739.3994140625,0.0,-14309.8828125,-1605.351806640625,0.0,-6574.78955078125,0.0,5160.1728515625,-0.0,-5810.2607421875
-4149.2783203125,-4650.75146484375,12015.501953125,-7836.0244140625,6962.6171875,2915.859130859375,3625.552001953125,-5536.87451171875,0.0,-4894.7333984375,-2449.353515625,-12646.515625,0.0,0.0,0.0,-3278.25537109375,2927.7802734375,11978.1494140625,-0.0,-457.763671875,6009.7373046875,9735.4248046875,7266.998046875,3189.245849609375,2644.06201171875,-7592.04248046875,-5800.72412109375,7375.8759765625,-1268.3868408203125,-2210.14013671875,10223.388671875,-6241.00341796875,9156.86328125,7757.345703125,5721.2509765625,8234.9775390625,2919.0380859375,-1160.3037109375,5416.8701171875,-0.0,4785.06103515625,-14921.029296875,2729.892822265625,13032.75390625,2737.83984375,-6837.8447265625,4324.1181640625,5183.2197265625,6815.59228515625,4395.6435546875,3198.78271484375,-4177.09375,-11286.7353515625,-5567.07373046875,2020.2000732421875,-3652.57275390625,0.0,-5833.3076171875,0.0,-6641.546875,-11223.1572265625,3944.23828125,-9729.8623046875,0.0,-14302.73046875,-1582.3045654296875,0.0,-6531.07958984375,0.0,5187.193359375,-0.0,-5791.1875
-4153.25146484375,-4661.0830078125,12008.349609375,-7836.81884765625,6957.84912109375,2914.269775390625,3625.552001953125,-5536.07958984375,0.0,-4891.55419921875,-2462.864013671875,-12648.900390625,0.0,0.0,0.0,-3271.10302734375,2921.42236328125,11973.380859375,-0.0,-455.3794860839844,6003.3798828125,9732.24609375,7263.8193359375,3187.656494140625,2636.909423828125,-7596.81103515625,-5804.69775390625,7378.26025390625,-1275.5394287109375,-2239.545166015625,10221.0048828125,-6248.951171875,9152.0947265625,7751.78271484375,5717.27734375,8233.3876953125,2917.44873046875,-1160.3037109375,5420.84375,-0.0,4777.908203125,-14921.82421875,2728.30322265625,13032.75390625,2737.83984375,-6836.25537109375,4312.197265625,5190.37255859375,6810.029296875,4394.05419921875,3198.78271484375,-4174.70947265625,-11293.8876953125,-5571.84228515625,2013.84228515625,-3670.8515625,0.0,-5826.1552734375,0.0,-6635.98388671875,-11224.7470703125,3942.6484375,-9729.0673828125,0.0,-14301.140625,-1572.767822265625,0.0,-6504.853515625,0.0,5185.60400390625,-0.0,-5797.544921875
-4158.81494140625,-4697.64111328125,12004.375,-7839.203125,6957.05419921875,2907.1171875,3624.757080078125,-5545.6162109375,0.0,-4896.32275390625,-2465.248046875,-12680.689453125,0.0,0.0,0.0,-3283.818603515625,2915.064453125,11966.228515625,-0.0,-456.96893310546875,5997.81640625,9725.888671875,7259.845703125,3181.298583984375,2636.11474609375,-7605.552734375,-5806.287109375,7367.92919921875,-1276.3341064453125,-2257.823974609375,10213.8515625,-6253.71923828125,9146.53125,7747.80908203125,5714.8935546875,8224.646484375,2917.44873046875,-1165.0721435546875,5418.45947265625,-0.0,4774.7294921875,-14928.9765625,2726.7138671875,13024.806640625,2737.83984375,-6841.818359375,4306.63427734375,5197.52490234375,6810.82373046875,4385.3125,3198.78271484375,-4183.451171875,-11290.7099609375,-5581.37890625,2013.0474853515625,-3691.51416015625,0.0,-5842.05029296875,0.0,-6643.93115234375,-11250.97265625,3938.6748046875,-9733.041015625,0.0,-14310.677734375,-1582.3045654296875,0.0,-6523.92724609375,0.0,5169.70947265625,-0.0,-5800.72412109375
-4181.06689453125,-4714.330078125,11996.4287109375,-7854.30224609375,6954.669921875,2889.63330078125,3623.96240234375,-5559.12646484375,0.0,-4902.6806640625,-2452.532470703125,-12739.4990234375,0.0,0.0,0.0,-3309.25,2903.938232421875,11955.1015625,-0.0,-459.3531188964844,5989.86962890625,9709.994140625,7251.8984375,3166.19873046875,2636.909423828125,-7620.65283203125,-5809.4658203125,7344.88134765625,-1276.3341064453125,-2296.765625,10201.13671875,-6268.0244140625,9134.6103515625,7734.298828125,5706.1513671875,8210.341796875,2914.269775390625,-1176.1983642578125,5394.61767578125,-0.0,4773.93505859375,-14945.666015625,2724.32958984375,13008.1171875,2738.634765625,-6852.94482421875,4297.89208984375,5172.88818359375,6806.0556640625,4360.67578125,3197.193115234375,-4200.935546875,-11308.193359375,-5612.37353515625,2013.0474853515625,-3769.397705078125,0.0,-5884.96533203125,0.0,-6655.85205078125,-11277.19921875,3927.548828125,-9740.193359375,0.0,-14343.26171875,-1587.86767578125,0.0,-6576.37939453125,0.0,5151.4306640625,-0.0,-5791.1875
-4211.26708984375,-4746.119140625,11976.5595703125,-7869.40283203125,6950.6962890625,2875.328125,3623.167724609375,-5568.6630859375,0.0,-4907.44921875,-2477.1689453125,-12811.8203125,0.0,0.0,0.0,-3333.886474609375,2885.659423828125,11943.1806640625,-0.0,-460.1478576660156,5977.94873046875,9694.8935546875,7245.54052734375,3152.688232421875,2620.22021484375,-7630.98388671875,-5803.9033203125,7329.7822265625,-1293.0234375,-2392.927978515625,10186.0361328125,-6289.48193359375,9117.9208984375,7716.814453125,5695.02490234375,8199.21484375,2914.269775390625,-1187.324462890625,5381.90234375,-0.0,4762.013671875,-14960.765625,2723.534912109375,12994.607421875,2737.83984375,-6863.27587890625,4263.71923828125,5153.0205078125,6798.1083984375,4348.7548828125,3196.3984375,-4216.03515625,-11329.650390625,-5666.41455078125,1997.153076171875,-3834.5654296875,0.0,-5915.9599609375,0.0,-6669.3623046875,-11314.5517578125,3916.42236328125,-9745.7568359375,0.0,-14342.4677734375,-1637.140869140625,0.0,-6635.18896484375,0.0,5137.92041015625,-0.0,-5780.85546875
-4243.8505859375,-4758.0400390625,11955.1015625,-7883.7080078125,6931.623046875,2857.04931640625,3619.98876953125,-5587.73681640625,0.0,-4918.5751953125,-2495.44775390625,-12854.7353515625,0.0,0.0,0.0,-3364.880859375,2868.97021484375,11925.697265625,-0.0,-463.3267822265625,5955.6962890625,9678.2041015625,7232.0302734375,3136.7939453125,2598.762451171875,-7650.05712890625,-5803.9033203125,7303.55615234375,-1315.2757568359375,-2405.6435546875,10167.7578125,-6302.9921875,9097.2587890625,7701.71484375,5677.541015625,8180.93603515625,2910.296142578125,-1203.2191162109375,5362.03369140625,-0.0,4731.01953125,-14975.865234375,2717.9716796875,12973.1494140625,2734.6611328125,-6877.5810546875,4246.23486328125,5160.1728515625,6786.98193359375,4321.73388671875,3195.603515625,-4240.671875,-11347.134765625,-5663.236328125,1974.9005126953125,-3827.412841796875,0.0,-5956.4912109375,0.0,-6689.23046875,-11342.3662109375,3901.322509765625,-9756.087890625,0.0,-14344.8515625,-1749.992431640625,0.0,-6697.177734375,0.0,5113.28369140625,-0.0,-5784.03466796875
-4228.75048828125,-4746.119140625,11949.5390625,-7891.65478515625,6913.34375,2832.41259765625,3616.01513671875,-5609.1943359375,0.0,-4928.90673828125,-2478.758544921875,-12819.7666015625,0.0,0.0,0.0,-3401.4384765625,2860.228271484375,11913.7763671875,-0.0,-469.6846008300781,5946.1591796875,9665.4892578125,7218.51953125,3120.1044921875,2614.6572265625,-7669.130859375,-5833.3076171875,7264.6142578125,-1298.5865478515625,-2338.88623046875,10155.8369140625,-6306.96630859375,9090.900390625,7694.5625,5663.236328125,8165.0419921875,2903.1435546875,-1219.9083251953125,5338.98681640625,-0.0,4723.072265625,-14990.1708984375,2703.666748046875,12948.5126953125,2730.6875,-6891.091796875,4251.00341796875,5170.50390625,6772.6767578125,4280.408203125,3191.630126953125,-4266.8974609375,-11339.1875,-5662.44140625,1991.58984375,-3806.75,0.0,-6001.79052734375,0.0,-6702.7412109375,-11339.982421875,3889.401611328125,-9766.4189453125,0.0,-14339.2880859375,-1764.2974853515625,0.0,-6728.96728515625,0.0,5091.826171875,-0.0,-5789.59814453125
-4201.73046875,-4763.60302734375,11932.849609375,-7901.19189453125,6917.31787109375,2833.207275390625,3618.3994140625,-5606.015625,0.0,-4924.93310546875,-2453.3271484375,-12795.130859375,0.0,0.0,0.0,-3403.02783203125,2854.6650390625,11913.7763671875,-0.0,-468.8898620605469,5942.18603515625,9661.515625,7220.109375,3122.48876953125,2621.809814453125,-7696.15185546875,-5830.12890625,7265.4091796875,-1290.6392822265625,-2312.66015625,10152.6572265625,-6313.32421875,9080.5693359375,7690.58837890625,5662.44140625,8165.0419921875,2906.322509765625,-1217.524169921875,5329.4501953125,-0.0,4718.3037109375,-14994.9384765625,2706.845458984375,12950.8974609375,2733.071533203125,-6889.501953125,4228.75048828125,5118.05224609375,6775.06103515625,4287.56103515625,3194.014404296875,-4262.92431640625,-11339.982421875,-5699.79345703125,1998.7423095703125,-3793.239501953125,0.0,-5994.63818359375,0.0,-6699.56201171875,-11344.75,3889.401611328125,-9763.2412109375,0.0,-14324.1884765625,-1776.2183837890625,0.0,-6752.80908203125,0.0,5083.87890625,-0.0,-5798.33984375
-4190.603515625,-4776.31884765625,11960.666015625,-7890.0654296875,6931.623046875,2842.744140625,3619.98876953125,-5595.68408203125,0.0,-4920.16455078125,-2480.347900390625,-12778.44140625,0.0,0.0,0.0,-3391.901611328125,2868.175537109375,11923.3134765625,-0.0,-465.7109680175781,5956.4912109375,9672.6416015625,7229.64599609375,3131.230712890625,2623.39892578125,-7679.46240234375,-5816.61865234375,7277.330078125,-1288.255126953125,-2330.144287109375,10164.578125,-6299.01904296875,9097.2587890625,7704.09912109375,5675.1572265625,8176.16748046875,2908.70654296875,-1208.7822265625,5345.3447265625,-0.0,4741.3505859375,-14981.4287109375,2714.79296875,12961.228515625,2734.6611328125,-6883.14453125,4261.3349609375,5120.43603515625,6786.1875,4300.2763671875,3197.98779296875,-4254.9765625,-11338.3935546875,-5710.919921875,2001.92138671875,-3786.0869140625,0.0,-5974.76953125,0.0,-6701.1513671875,-11336.8037109375,3899.7333984375,-9756.8828125,0.0,-14329.7509765625,-1764.2974853515625,0.0,-6752.80908203125,0.0,5087.8525390625,-0.0,-5787.2138671875
-4209.67724609375,-4773.93505859375,11965.43359375,-7878.939453125,6936.39111328125,2856.254638671875,3622.372802734375,-5586.9423828125,0.0,-4916.98583984375,-2497.037109375,-12761.751953125,0.0,0.0,0.0,-3374.41748046875,2874.533447265625,11929.6708984375,-0.0,-465.7109680175781,5962.0537109375,9683.7685546875,7235.208984375,3140.767333984375,2624.19384765625,-7658.7998046875,-5815.82421875,7293.22412109375,-1288.255126953125,-2381.0068359375,10172.5263671875,-6292.6611328125,9103.6162109375,7712.8408203125,5680.7197265625,8185.7041015625,2910.296142578125,-1200.8348388671875,5346.1396484375,-0.0,4746.119140625,-14965.5341796875,2715.587646484375,12972.3544921875,2734.6611328125,-6873.607421875,4269.28173828125,5142.68896484375,6790.1611328125,4315.37646484375,3198.78271484375,-4243.8505859375,-11337.59765625,-5674.3623046875,2001.92138671875,-3762.2451171875,0.0,-5954.10693359375,0.0,-6692.40966796875,-11319.3193359375,3904.501708984375,-9752.9091796875,0.0,-14336.109375,-1730.9189453125,0.0,-6730.556640625,0.0,5101.36279296875,-0.0,-5784.82958984375
-4211.26708984375,-4772.34521484375,11960.666015625,-7853.5078125,6940.36474609375,2879.3017578125,3624.757080078125,-5567.86865234375,0.0,-4904.27001953125,-2478.758544921875,-12744.267578125,0.0,0.0,0.0,-3348.19140625,2884.070068359375,11943.9765625,-0.0,-456.96893310546875,5969.20654296875,9701.251953125,7244.74560546875,3158.25146484375,2625.783203125,-7628.599609375,-5813.43994140625,7317.86083984375,-1289.0498046875,-2355.57568359375,10185.2421875,-6285.5087890625,9106.794921875,7731.11962890625,5688.66748046875,8204.77734375,2915.064453125,-1184.9403076171875,5346.93408203125,-0.0,4750.0927734375,-14936.923828125,2720.35595703125,12993.8125,2737.04541015625,-6859.302734375,4266.10302734375,5184.0146484375,6794.9296875,4344.78125,3198.78271484375,-4223.982421875,-11323.29296875,-5640.9833984375,2001.1265869140625,-3734.4296875,0.0,-5933.443359375,0.0,-6673.3359375,-11297.06640625,3917.21728515625,-9740.193359375,0.0,-14327.3671875,-1708.66650390625,0.0,-6675.72021484375,0.0,5117.2578125,-0.0,-5780.85546875
-4209.67724609375,-4760.42431640625,11969.4072265625,-7841.5869140625,6945.92822265625,2901.55419921875,3624.757080078125,-5548.79541015625,0.0,-4894.7333984375,-2474.784912109375,-12740.294921875,0.0,0.0,0.0,-3325.14453125,2893.60693359375,11954.3076171875,-0.0,-456.1742248535156,5979.5380859375,9714.7626953125,7253.48828125,3170.967041015625,2621.809814453125,-7591.24755859375,-5809.4658203125,7344.88134765625,-1293.0234375,-2325.375732421875,10196.3681640625,-6280.740234375,9118.7158203125,7741.451171875,5697.4091796875,8221.466796875,2914.269775390625,-1173.814208984375,5370.77587890625,-0.0,4756.45068359375,-14915.466796875,2722.740234375,13014.4755859375,2737.83984375,-6848.17626953125,4273.255859375,5192.7568359375,6798.90283203125,4379.74951171875,3197.98779296875,-4204.1142578125,-11314.5517578125,-5649.7255859375,1997.94775390625,-3690.7197265625,0.0,-5915.1650390625,0.0,-6654.2626953125,-11296.2724609375,3928.34326171875,-9732.24609375,0.0,-14332.9306640625,-1688.0035400390625,0.0,-6630.4208984375,0.0,5132.35693359375,-0.0,-5799.92919921875
-4229.54541015625,-4744.52978515625,11973.380859375,-7845.56103515625,6947.517578125,2905.52783203125,3623.167724609375,-5543.23193359375,0.0,-4893.14404296875,-2470.0166015625,-12770.4931640625,0.0,0.0,0.0,-3310.83935546875,2895.1962890625,11957.486328125,-0.0,-460.9425964355469,5983.51123046875,9715.556640625,7256.66650390625,3177.324951171875,2627.372802734375,-7594.4267578125,-5808.67138671875,7354.41845703125,-1287.4603271484375,-2344.44921875,10198.751953125,-6281.53466796875,9121.89453125,7741.451171875,5702.177734375,8225.44140625,2913.47509765625,-1168.2509765625,5376.3388671875,-0.0,4758.0400390625,-14914.671875,2721.945556640625,13021.6279296875,2737.04541015625,-6842.61328125,4280.408203125,5184.0146484375,6800.49267578125,4386.90185546875,3196.3984375,-4196.9619140625,-11316.140625,-5670.388671875,2003.5107421875,-3686.745849609375,0.0,-5923.1123046875,0.0,-6642.341796875,-11279.5830078125,3934.701416015625,-9733.041015625,0.0,-14331.3408203125,-1639.5250244140625,0.0,-6581.94189453125,0.0,5148.251953125,-0.0,-5822.9765625
-4249.4140625,-4736.58251953125,11978.1494140625,-7851.91845703125,6951.49072265625,2899.169921875,3625.552001953125,-5534.490234375,0.0,-4890.759765625,-2464.453369140625,-12735.5263671875,0.0,0.0,0.0,-3290.17626953125,2899.964599609375,11963.0498046875,-0.0,-459.3531188964844,5987.4853515625,9713.9677734375,7259.845703125,3178.914306640625,2628.16748046875,-7629.39453125,-5803.9033203125,7359.1865234375,-1285.870849609375,-2299.944580078125,10202.7255859375,-6279.9453125,9125.869140625,7743.04052734375,5707.74072265625,8224.646484375,2915.064453125,-1161.8931884765625,5380.3125,-0.0,4762.80810546875,-14925.0029296875,2726.7138671875,13025.6015625,2737.83984375,-6837.0498046875,4285.97119140625,5168.1201171875,6804.46630859375,4377.365234375,3197.98779296875,-4188.2197265625,-11328.0615234375,-5679.92529296875,2005.8948974609375,-3709.79296875,0.0,-5890.5283203125,0.0,-6636.7783203125,-11282.76171875,3938.6748046875,-9729.8623046875,0.0,-14332.9306640625,-1606.146484375,0.0,-6539.82177734375,0.0,5162.55712890625,-0.0,-5802.3134765625
-4262.12939453125,-4758.0400390625,11963.0498046875,-7860.66064453125,6952.28564453125,2893.60693359375,3625.552001953125,-5539.25830078125,0.0,-4893.9384765625,-2500.21630859375,-12731.5517578125,0.0,0.0,0.0,-3290.17626953125,2891.22265625,11954.3076171875,-0.0,-459.3531188964844,5980.3330078125,9706.814453125,7255.8720703125,3173.351318359375,2602.736328125,-7631.77880859375,-5799.134765625,7356.0078125,-1310.5074462890625,-2270.53955078125,10194.7783203125,-6287.892578125,9115.537109375,7735.09375,5702.97265625,8218.2880859375,2914.269775390625,-1168.2509765625,5372.365234375,-0.0,4754.06640625,-14932.9501953125,2725.9189453125,13020.0390625,2738.634765625,-6842.61328125,4257.36083984375,5168.1201171875,6804.46630859375,4367.03369140625,3199.577392578125,-4190.603515625,-11363.029296875,-5702.177734375,1978.07958984375,-3711.382568359375,0.0,-5864.30224609375,0.0,-6642.341796875,-11321.7041015625,3932.317138671875,-9732.24609375,0.0,-14357.56640625,-1637.140869140625,0.0,-6535.84814453125,0.0,5164.146484375,-0.0,-5776.88232421875
-4246.23486328125,-4764.39794921875,11963.8447265625,-7870.99169921875,6943.5439453125,2883.275390625,3621.578125,-5553.5634765625,0.0,-4899.501953125,-2502.600341796875,-12726.7841796875,0.0,0.0,0.0,-3321.1708984375,2884.070068359375,11947.1552734375,-0.0,-462.53204345703125,5974.76953125,9701.251953125,7248.7197265625,3166.19873046875,2611.47802734375,-7630.98388671875,-5811.85009765625,7335.3447265625,-1300.970703125,-2278.487060546875,10188.419921875,-6293.45556640625,9112.3583984375,7731.11962890625,5695.81982421875,8209.5458984375,2912.680419921875,-1177.787841796875,5360.4443359375,-0.0,4753.271484375,-14941.6923828125,2718.766357421875,13004.939453125,2737.04541015625,-6852.94482421875,4254.9765625,5141.89404296875,6798.1083984375,4350.34423828125,3197.193115234375,-4208.087890625,-11367.00390625,-5706.94580078125,1988.410888671875,-3726.482421875,0.0,-5858.7392578125,0.0,-6655.0576171875,-11333.625,3924.369873046875,-9737.0146484375,0.0,-14347.2353515625,-1636.34619140625,0.0,-6537.4375,0.0,5161.76220703125,-0.0,-5785.6240234375
-4220.8037109375,-4761.21923828125,11963.8447265625,-7882.1181640625,6933.21240234375,2875.328125,3621.578125,-5562.3056640625,0.0,-4898.70703125,-2485.1162109375,-12745.857421875,0.0,0.0,0.0,-3329.912841796875,2878.5068359375,11940.001953125,-0.0,-460.1478576660156,5970.0009765625,9694.099609375,7239.9775390625,3159.046142578125,2627.372802734375,-7643.69970703125,-5823.77099609375,7321.03955078125,-1287.4603271484375,-2298.35498046875,10183.65234375,-6298.22412109375,9106.794921875,7725.556640625,5687.87255859375,8203.9833984375,2909.501220703125,-1183.3509521484375,5345.3447265625,-0.0,4748.50341796875,-14950.4345703125,2711.614013671875,12996.1962890625,2736.250732421875,-6856.91845703125,4260.5400390625,5133.15185546875,6788.57177734375,4340.01318359375,3196.3984375,-4218.41943359375,-11355.876953125,-5690.2568359375,2003.5107421875,-3756.68212890625,0.0,-5869.865234375,0.0,-6658.23583984375,-11324.087890625,3918.01220703125,-9740.193359375,0.0,-14332.9306640625,-1644.29345703125,0.0,-6550.94775390625,0.0,5161.76220703125,-0.0,-5778.4716796875
-4207.29296875,-4769.9609375,11948.7451171875,-7901.986328125,6924.47021484375,2857.843994140625,3620.783447265625,-5575.81591796875,0.0,-4905.06494140625,-2497.037109375,-12784.00390625,0.0,0.0,0.0,-3348.19140625,2864.99658203125,11928.0810546875,-0.0,-463.3267822265625,5957.28564453125,9679.0,7234.41455078125,3147.125244140625,2616.24658203125,-7666.74658203125,-5824.56591796875,7301.96630859375,-1299.3812255859375,-2325.375732421875,10170.9365234375,-6315.7080078125,9091.6953125,7708.86767578125,5678.33544921875,8191.26806640625,2908.70654296875,-1193.682373046875,5329.4501953125,-0.0,4734.9931640625,-14967.1240234375,2709.229736328125,12981.8916015625,2734.6611328125,-6866.455078125,4241.46630859375,5120.43603515625,6780.62451171875,4317.76025390625,3196.3984375,-4232.724609375,-11348.724609375,-5708.53564453125,1992.3846435546875,-3796.41845703125,0.0,-5909.6015625,0.0,-6670.95166015625,-11346.33984375,3908.475341796875,-9747.345703125,0.0,-14336.9033203125,-1695.1561279296875,0.0,-6595.45263671875,0.0,5145.07275390625,-0.0,-5773.703125
-4214.44580078125,-4777.11328125,11935.234375,-7917.08642578125,6918.1123046875,2841.949462890625,3619.194091796875,-5589.326171875,0.0,-4915.39599609375,-2502.600341796875,-12795.9248046875,0.0,0.0,0.0,-3372.033447265625,2852.28076171875,11916.955078125,-0.0,-469.6846008300781,5945.3642578125,9666.283203125,7225.67236328125,3134.40966796875,2610.683349609375,-7682.6416015625,-5827.7451171875,7283.6875,-1304.149658203125,-2345.244140625,10158.2216796875,-6325.2451171875,9079.7734375,7694.5625,5667.20947265625,8178.5517578125,2906.322509765625,-1206.39794921875,5313.55517578125,-0.0,4723.86669921875,-14986.197265625,2706.05078125,12967.5869140625,2733.866455078125,-6875.99169921875,4232.724609375,5104.5419921875,6773.4716796875,4297.89208984375,3195.603515625,-4249.4140625,-11354.287109375,-5716.482421875,1986.0267333984375,-3833.770751953125,0.0,-5945.3642578125,0.0,-6686.84619140625,-11348.724609375,3898.9384765625,-9755.2939453125,0.0,-14344.8515625,-1738.8662109375,0.0,-6640.75244140625,0.0,5123.615234375,-0.0,-5779.2666015625
-4240.671875,-4801.75,11928.8759765625,-7922.6494140625,6919.7021484375,2834.796875,3616.809814453125,-5599.65771484375,0.0,-4923.34375,-2509.7529296875,-12799.103515625,0.0,0.0,0.0,-3388.72265625,2847.512451171875,11913.7763671875,-0.0,-474.4529724121094,5942.18603515625,9661.515625,7222.49365234375,3127.257080078125,2605.9150390625,-7690.58837890625,-5824.56591796875,7271.7666015625,-1305.739013671875,-2360.343994140625,10154.2470703125,-6333.98681640625,9075.005859375,7688.2041015625,5663.236328125,8173.783203125,2903.938232421875,-1212.755859375,5310.37646484375,-0.0,4720.68798828125,-14996.5283203125,2705.256103515625,12958.84375,2733.866455078125,-6887.11767578125,4227.16162109375,5102.15771484375,6774.2666015625,4289.9453125,3194.014404296875,-4258.95068359375,-11367.7978515625,-5699.79345703125,1984.437255859375,-3829.797119140625,0.0,-5972.38525390625,0.0,-6698.76708984375,-11349.5185546875,3895.759521484375,-9758.47265625,0.0,-14352.00390625,-1753.1712646484375,0.0,-6686.0517578125,0.0,5095.0048828125,-0.0,-5788.80322265625
-4252.5927734375,-4817.64453125,11935.234375,-7917.08642578125,6922.880859375,2842.744140625,3617.6044921875,-5594.88916015625,0.0,-4923.34375,-2510.547607421875,-12810.23046875,0.0,0.0,0.0,-3378.391357421875,2853.870361328125,11920.134765625,-0.0,-473.6582336425781,5948.54345703125,9667.0791015625,7229.64599609375,3132.820068359375,2607.504638671875,-7691.38330078125,-5820.59228515625,7279.7138671875,-1306.5338134765625,-2369.0859375,10161.3994140625,-6331.6025390625,9081.36328125,7691.38330078125,5668.798828125,8176.962890625,2907.1171875,-1207.1927490234375,5317.529296875,-0.0,4727.84033203125,-14994.9384765625,2706.845458984375,12968.380859375,2734.6611328125,-6884.73388671875,4233.51904296875,5108.51513671875,6777.4453125,4298.68701171875,3193.219482421875,-4251.79833984375,-11368.591796875,-5698.2041015625,1983.642578125,-3795.623779296875,0.0,-5966.822265625,0.0,-6693.20458984375,-11343.1611328125,3899.7333984375,-9754.498046875,0.0,-14355.9775390625,-1736.4820556640625,0.0,-6696.3828125,0.0,5091.03173828125,-0.0,-5795.16064453125
-4237.4931640625,-4784.26611328125,11948.7451171875,-7913.11279296875,6929.23876953125,2850.691650390625,3620.783447265625,-5587.73681640625,0.0,-4920.95947265625,-2501.8056640625,-12812.6142578125,0.0,0.0,0.0,-3367.264892578125,2862.612548828125,11928.0810546875,-0.0,-472.863525390625,5958.875,9676.615234375,7235.208984375,3139.97265625,2617.041259765625,-7688.9990234375,-5815.82421875,7291.63525390625,-1295.4075927734375,-2361.138671875,10170.142578125,-6320.4765625,9092.490234375,7699.33056640625,5679.13037109375,8181.7314453125,2907.912109375,-1200.8348388671875,5328.6552734375,-0.0,4737.376953125,-14997.3232421875,2710.024658203125,12976.3291015625,2734.6611328125,-6880.76025390625,4247.02978515625,5103.7470703125,6782.2138671875,4309.81298828125,3194.80908203125,-4244.6455078125,-11357.466796875,-5712.50927734375,1994.768798828125,-3799.597412109375,0.0,-5953.31201171875,0.0,-6689.23046875,-11334.4189453125,3906.8857421875,-9752.1142578125,0.0,-14344.8515625,-1708.66650390625,0.0,-6673.3359375,0.0,5105.33642578125,-0.0,-5800.72412109375
-4241.46630859375,-4802.544921875,11947.94921875,-7913.11279296875,6927.64892578125,2846.7177734375,3619.98876953125,-5594.0947265625,0.0,-4922.548828125,-2503.39501953125,-12807.845703125,0.0,0.0,0.0,-3377.5966796875,2861.02294921875,11928.0810546875,-0.0,-476.04241943359375,5956.4912109375,9672.6416015625,7232.82470703125,3136.7939453125,2615.451904296875,-7687.40966796875,-5819.00244140625,7285.27685546875,-1298.5865478515625,-2374.64892578125,10166.962890625,-6325.2451171875,9092.490234375,7699.33056640625,5676.74658203125,8179.34716796875,2907.1171875,-1204.0137939453125,5330.24462890625,-0.0,4736.58251953125,-14999.70703125,2710.024658203125,12970.7646484375,2736.250732421875,-6885.5283203125,4241.46630859375,5110.10498046875,6783.80322265625,4305.83935546875,3195.603515625,-4251.79833984375,-11367.00390625,-5758.603515625,1993.1793212890625,-3813.107666015625,0.0,-5964.43798828125,0.0,-6697.177734375,-11358.2607421875,3904.501708984375,-9755.2939453125,0.0,-14353.5927734375,-1724.56103515625,0.0,-6656.646484375,0.0,5119.6416015625,-0.0,-5802.3134765625
-4279.61328125,-4827.97607421875,11951.923828125,-7899.60205078125,6930.828125,2857.843994140625,3621.578125,-5586.9423828125,0.0,-4921.75439453125,-2496.242431640625,-12783.2099609375,0.0,0.0,0.0,-3366.47021484375,2865.791259765625,11932.849609375,-0.0,-474.4529724121094,5961.25927734375,9679.7939453125,7236.00390625,3142.35693359375,2612.27294921875,-7673.10498046875,-5821.38671875,7294.8134765625,-1302.5601806640625,-2359.54931640625,10172.5263671875,-6322.06591796875,9095.6689453125,7708.07275390625,5679.92529296875,8185.7041015625,2907.912109375,-1198.45068359375,5333.423828125,-0.0,4739.76123046875,-14989.3759765625,2713.203369140625,12981.09765625,2735.455810546875,-6881.55517578125,4247.02978515625,5126.79443359375,6786.98193359375,4320.14453125,3195.603515625,-4244.6455078125,-11383.6923828125,-5738.7353515625,1989.20556640625,-3781.318603515625,0.0,-5946.9541015625,0.0,-6689.23046875,-11359.0556640625,3907.680419921875,-9752.1142578125,0.0,-14365.513671875,-1723.766357421875,0.0,-6628.03662109375,0.0,5129.1787109375,-0.0,-5807.87646484375
-4302.66064453125,-4817.64453125,11980.533203125,-7882.1181640625,6944.33837890625,2879.3017578125,3626.3466796875,-5562.3056640625,0.0,-4904.27001953125,-2476.374267578125,-12749.8310546875,0.0,0.0,0.0,-3330.70751953125,2889.63330078125,11950.333984375,-0.0,-465.7109680175781,5981.92236328125,9702.841796875,7251.10400390625,3163.814453125,2624.19384765625,-7647.67333984375,-5811.0556640625,7322.62939453125,-1287.4603271484375,-2352.396728515625,10193.984375,-6291.8662109375,9118.7158203125,7731.91455078125,5698.9990234375,8208.751953125,2914.269775390625,-1177.787841796875,5366.00732421875,-0.0,4758.8349609375,-14964.740234375,2719.561279296875,13004.1435546875,2738.634765625,-6862.4814453125,4276.4345703125,5145.86767578125,6802.876953125,4346.37060546875,3199.577392578125,-4218.41943359375,-11397.998046875,-5693.435546875,2001.92138671875,-3751.118896484375,0.0,-5908.01220703125,0.0,-6661.4150390625,-11363.029296875,3925.164794921875,-9737.8095703125,0.0,-14345.6455078125,-1695.9508056640625,0.0,-6586.71044921875,0.0,5145.07275390625,-0.0,-5803.1083984375
-4286.76611328125,-4804.92919921875,11994.8388671875,-7878.939453125,6953.875,2891.22265625,3627.141357421875,-5550.384765625,0.0,-4893.9384765625,-2489.08984375,-12759.3681640625,0.0,0.0,0.0,-3310.04443359375,2899.964599609375,11960.666015625,-0.0,-464.1214904785156,5991.458984375,9709.994140625,7258.25634765625,3173.351318359375,2631.346435546875,-7642.1103515625,-5805.4921875,7338.52392578125,-1281.1025390625,-2349.2177734375,10202.7255859375,-6277.56103515625,9133.021484375,7739.06689453125,5706.94580078125,8219.0830078125,2916.65380859375,-1168.2509765625,5377.92822265625,-0.0,4768.37158203125,-14955.203125,2721.150634765625,13014.4755859375,2741.01904296875,-6851.35498046875,4260.5400390625,5135.5361328125,6812.41357421875,4357.49658203125,3199.577392578125,-4204.1142578125,-11404.35546875,-5702.177734375,2009.073974609375,-3743.171630859375,0.0,-5887.349609375,0.0,-6647.10986328125,-11398.7919921875,3937.085693359375,-9730.65625,0.0,-14332.134765625,-1678.466796875,0.0,-6553.33203125,0.0,5158.5830078125,-0.0,-5798.33984375
-4269.28173828125,-4789.8291015625,11977.35546875,-7882.91259765625,6949.10693359375,2889.63330078125,3624.757080078125,-5553.5634765625,0.0,-4901.09130859375,-2528.826416015625,-12762.546875,0.0,0.0,0.0,-3311.634033203125,2892.017333984375,11956.69140625,-0.0,-468.8898620605469,5983.51123046875,9705.2255859375,7253.48828125,3171.76171875,2625.783203125,-7637.341796875,-5808.67138671875,7337.72900390625,-1289.844482421875,-2332.5283203125,10198.751953125,-6287.09814453125,9121.89453125,7733.50390625,5702.177734375,8215.109375,2913.47509765625,-1169.8404541015625,5361.23876953125,-0.0,4761.21923828125,-14955.203125,2717.9716796875,13014.4755859375,2737.83984375,-6856.91845703125,4247.02978515625,5127.5888671875,6804.46630859375,4359.880859375,3198.78271484375,-4207.29296875,-11376.5400390625,-5714.0986328125,2001.92138671875,-3751.118896484375,0.0,-5887.349609375,0.0,-6651.08349609375,-11394.818359375,3933.111572265625,-9733.8359375,0.0,-14341.671875,-1687.208740234375,0.0,-6529.490234375,0.0,5155.40478515625,-0.0,-5800.72412109375
-4257.36083984375,-4805.7236328125,11954.3076171875,-7882.91259765625,6939.56982421875,2888.043701171875,3622.372802734375,-5554.35791015625,0.0,-4899.501953125,-2512.13720703125,-12755.3935546875,0.0,0.0,0.0,-3313.2236328125,2882.480712890625,11951.923828125,-0.0,-468.09515380859375,5973.974609375,9700.4580078125,7248.7197265625,3166.993408203125,2617.041259765625,-7628.599609375,-5813.43994140625,7336.9345703125,-1299.3812255859375,-2355.57568359375,10191.599609375,-6300.6083984375,9107.58984375,7727.94091796875,5695.02490234375,8211.9306640625,2912.680419921875,-1172.224609375,5342.96044921875,-0.0,4751.68212890625,-14953.61328125,2713.203369140625,13013.6806640625,2737.04541015625,-6858.5078125,4249.4140625,5134.7412109375,6796.51904296875,4360.67578125,3197.193115234375,-4208.8828125,-11351.9033203125,-5704.5615234375,1993.9739990234375,-3768.60302734375,0.0,-5886.5546875,0.0,-6651.87841796875,-11361.439453125,3925.959228515625,-9734.630859375,0.0,-14349.6201171875,-1687.208740234375,0.0,-6535.05322265625,0.0,5152.2255859375,-0.0,-5792.7763671875
-4241.46630859375,-4834.333984375,11946.3603515625,-7882.1181640625,6937.98046875,2888.043701171875,3621.578125,-5559.92138671875,0.0,-4906.654296875,-2493.8583984375,-12753.8046875,0.0,0.0,0.0,-3324.349609375,2878.5068359375,11950.333984375,-0.0,-472.863525390625,5970.7958984375,9699.662109375,7247.1298828125,3163.814453125,2615.451904296875,-7623.03662109375,-5814.234375,7333.75537109375,-1300.176025390625,-2332.5283203125,10186.8310546875,-6310.14501953125,9101.2314453125,7726.35107421875,5692.640625,8212.7255859375,2911.885498046875,-1174.60888671875,5332.62890625,-0.0,4745.32470703125,-14952.0234375,2713.203369140625,13010.501953125,2738.634765625,-6863.27587890625,4242.26123046875,5139.509765625,6794.134765625,4359.880859375,3196.3984375,-4215.240234375,-11346.33984375,-5698.9990234375,1991.58984375,-3722.5087890625,0.0,-5890.5283203125,0.0,-6662.2099609375,-11328.8564453125,3925.164794921875,-9737.0146484375,0.0,-14349.6201171875,-1659.393310546875,0.0,-6585.12109375,0.0,5139.509765625,-0.0,-5799.92919921875
-4246.23486328125,-4821.61865234375,11939.2080078125,-7901.19189453125,6934.00732421875,2866.5859375,3621.578125,-5578.99462890625,0.0,-4919.3701171875,-2501.010986328125,-12777.646484375,0.0,0.0,0.0,-3356.93359375,2864.99658203125,11936.0283203125,-0.0,-478.4266052246094,5961.25927734375,9684.5625,7241.56689453125,3149.509521484375,2612.27294921875,-7654.03125,-5812.64501953125,7305.93994140625,-1302.5601806640625,-2342.85986328125,10174.91015625,-6325.2451171875,9090.900390625,7710.45703125,5684.69384765625,8196.8310546875,2909.501220703125,-1189.708740234375,5317.529296875,-0.0,4738.171875,-14972.6865234375,2709.229736328125,12989.8388671875,2736.250732421875,-6875.19677734375,4234.31396484375,5119.6416015625,6790.9560546875,4331.2705078125,3196.3984375,-4237.4931640625,-11360.6455078125,-5741.119140625,1988.410888671875,-3743.96630859375,0.0,-5931.8544921875,0.0,-6680.48876953125,-11338.3935546875,3915.6279296875,-9746.5517578125,0.0,-14358.361328125,-1704.69287109375,0.0,-6625.65234375,0.0,5122.8203125,-0.0,-5799.134765625
-4265.30859375,-4809.69775390625,11931.259765625,-7920.26513671875,6926.0595703125,2845.923095703125,3622.372802734375,-5589.326171875,0.0,-4919.3701171875,-2507.368896484375,-12799.103515625,0.0,0.0,0.0,-3369.649169921875,2851.486328125,11924.9033203125,-0.0,-479.2213439941406,5950.927734375,9668.66796875,7232.82470703125,3139.177978515625,2608.29931640625,-7685.8203125,-5817.4130859375,7285.27685546875,-1305.739013671875,-2377.033203125,10163.7841796875,-6339.5498046875,9080.5693359375,7695.35693359375,5675.1572265625,8183.31982421875,2908.70654296875,-1199.2454833984375,5305.6083984375,-0.0,4731.81396484375,-14992.5546875,2705.256103515625,12973.1494140625,2733.866455078125,-6882.349609375,4231.134765625,5105.33642578125,6784.59765625,4304.25,3194.80908203125,-4251.79833984375,-11376.5400390625,-5748.27197265625,1986.0267333984375,-3830.591796875,0.0,-5954.10693359375,0.0,-6686.0517578125,-11360.6455078125,3906.091064453125,-9752.9091796875,0.0,-14366.3095703125,-1744.42919921875,0.0,-6634.39404296875,0.0,5113.28369140625,-0.0,-5789.59814453125
-4281.99755859375,-4816.85009765625,11928.8759765625,-7923.44384765625,6922.880859375,2841.15478515625,3619.98876953125,-5594.0947265625,0.0,-4924.138671875,-2512.931884765625,-12827.7138671875,0.0,0.0,0.0,-3377.5966796875,2847.512451171875,11921.7236328125,-0.0,-480.0160827636719,5946.9541015625,9664.6943359375,7229.64599609375,3134.40966796875,2604.325439453125,-7692.97265625,-5819.79736328125,7278.12451171875,-1310.5074462890625,-2402.464599609375,10159.015625,-6346.70263671875,9075.80078125,7691.38330078125,5670.388671875,8178.5517578125,2905.52783203125,-1202.4244384765625,5301.63427734375,-0.0,4726.2509765625,-14997.3232421875,2705.256103515625,12966.7919921875,2733.071533203125,-6886.3232421875,4227.9560546875,5097.38916015625,6779.03515625,4297.09765625,3194.014404296875,-4258.15576171875,-11386.87109375,-5736.35107421875,1981.2584228515625,-3843.3076171875,0.0,-5963.6435546875,0.0,-6689.23046875,-11386.0771484375,3902.912109375,-9755.2939453125,0.0,-14378.23046875,-1746.018798828125,0.0,-6665.388671875,0.0,5079.11083984375,-0.0,-5795.95556640625
-4281.99755859375,-4839.89697265625,11928.8759765625,-7922.6494140625,6922.08642578125,2837.975830078125,3619.194091796875,-5594.0947265625,0.0,-4923.34375,-2508.9580078125,-12844.4033203125,0.0,0.0,0.0,-3380.775390625,2847.512451171875,11918.544921875,-0.0,-480.0160827636719,5946.1591796875,9663.8994140625,7228.056640625,3132.820068359375,2608.29931640625,-7696.15185546875,-5820.59228515625,7274.94580078125,-1308.91796875,-2403.25927734375,10155.8369140625,-6345.11328125,9075.80078125,7691.38330078125,5668.798828125,8177.75732421875,2906.322509765625,-1203.2191162109375,5305.6083984375,-0.0,4727.04541015625,-14996.5283203125,2703.666748046875,12963.6123046875,2735.455810546875,-6885.5283203125,4229.54541015625,5108.51513671875,6779.03515625,4292.3291015625,3193.219482421875,-4260.5400390625,-11374.15625,-5757.013671875,1984.437255859375,-3826.6181640625,0.0,-5966.822265625,0.0,-6689.23046875,-11401.1767578125,3900.52783203125,-9755.2939453125,0.0,-14375.05078125,-1748.4029541015625,0.0,-6676.51513671875,0.0,5093.41552734375,-0.0,-5795.16064453125
-4290.73974609375,-4871.6865234375,11922.5185546875,-7913.9072265625,6916.52294921875,2843.5390625,3619.98876953125,-5588.53125,0.0,-4918.5751953125,-2517.7001953125,-12826.125,0.0,0.0,0.0,-3372.033447265625,2848.307373046875,11916.955078125,-0.0,-478.4266052246094,5942.18603515625,9664.6943359375,7227.26220703125,3135.204345703125,2602.736328125,-7684.23095703125,-5823.77099609375,7282.892578125,-1311.30224609375,-2388.9541015625,10152.6572265625,-6345.11328125,9071.8271484375,7696.15185546875,5666.41455078125,8179.34716796875,2907.1171875,-1202.4244384765625,5300.044921875,-0.0,4722.27734375,-14986.197265625,2703.666748046875,12968.380859375,2735.455810546875,-6882.349609375,4213.6513671875,5124.41015625,6776.65087890625,4298.68701171875,3194.014404296875,-4253.3876953125,-11394.0234375,-5772.11376953125,1978.874267578125,-3803.571044921875,0.0,-5951.72265625,0.0,-6684.4619140625,-11403.560546875,3901.322509765625,-9752.9091796875,0.0,-14379.0244140625,-1729.3294677734375,0.0,-6661.4150390625,0.0,5113.28369140625,-0.0,-5787.2138671875
-4309.0185546875,-4869.30224609375,11932.0556640625,-7912.318359375,6922.08642578125,2845.923095703125,3619.194091796875,-5590.12060546875,0.0,-4922.548828125,-2497.037109375,-12826.125,0.0,0.0,0.0,-3374.41748046875,2850.691650390625,11918.544921875,-0.0,-483.1949768066406,5946.1591796875,9665.4892578125,7228.056640625,3135.9990234375,2609.093994140625,-7681.0517578125,-5822.181640625,7282.892578125,-1303.3548583984375,-2377.033203125,10156.6318359375,-6341.93408203125,9075.80078125,7700.919921875,5668.00439453125,8180.93603515625,2905.52783203125,-1201.629638671875,5311.1708984375,-0.0,4728.63525390625,-14982.2236328125,2703.666748046875,12969.970703125,2736.250732421875,-6884.73388671875,4228.75048828125,5099.7734375,6780.62451171875,4302.66064453125,3194.80908203125,-4254.9765625,-11382.1025390625,-5794.3662109375,1986.0267333984375,-3802.7763671875,0.0,-5950.927734375,0.0,-6690.025390625,-11390.845703125,3901.322509765625,-9755.2939453125,0.0,-14362.3349609375,-1753.1712646484375,0.0,-6686.0517578125,0.0,5105.33642578125,-0.0,-5798.33984375
-4349.5498046875,-4851.0234375,11922.5185546875,-7917.880859375,6915.72802734375,2841.15478515625,3619.98876953125,-5591.71044921875,0.0,-4920.95947265625,-2528.826416015625,-12820.5615234375,0.0,0.0,0.0,-3374.41748046875,2843.5390625,11915.3662109375,-0.0,-480.810791015625,5940.59619140625,9662.310546875,7223.2880859375,3133.61474609375,2602.736328125,-7683.43603515625,-5825.36083984375,7279.7138671875,-1312.096923828125,-2373.0595703125,10152.6572265625,-6349.8818359375,9071.8271484375,7694.5625,5663.236328125,8178.5517578125,2905.52783203125,-1203.2191162109375,5318.32373046875,-0.0,4720.68798828125,-14983.017578125,2699.69287109375,12967.5869140625,2735.455810546875,-6883.14453125,4214.44580078125,5090.23681640625,6773.4716796875,4301.8662109375,3194.80908203125,-4257.36083984375,-11392.4345703125,-5784.82958984375,1978.874267578125,-3794.8291015625,0.0,-5955.6962890625,0.0,-6688.43603515625,-11432.96484375,3899.7333984375,-9754.498046875,0.0,-14357.56640625,-1754.7607421875,0.0,-6651.87841796875,0.0,5113.28369140625,-0.0,-5778.4716796875
-4333.65478515625,-4883.607421875,11934.439453125,-7908.34423828125,6923.67578125,2852.28076171875,3621.578125,-5577.4052734375,0.0,-4911.4228515625,-2527.23681640625,-12783.2099609375,0.0,0.0,0.0,-3358.523193359375,2855.4599609375,11926.4921875,-0.0,-476.04241943359375,5950.1328125,9672.6416015625,7232.82470703125,3143.9462890625,2608.29931640625,-7669.130859375,-5818.2080078125,7293.22412109375,-1308.123291015625,-2385.775390625,10162.1943359375,-6337.9609375,9082.158203125,7704.09912109375,5674.3623046875,8190.47265625,2910.296142578125,-1191.298095703125,5321.5029296875,-0.0,4730.224609375,-14968.712890625,2705.256103515625,12981.09765625,2737.04541015625,-6871.2236328125,4226.36669921875,5098.978515625,6781.41943359375,4316.17138671875,3197.193115234375,-4245.43994140625,-11390.845703125,-5764.16650390625,1984.437255859375,-3770.9873046875,0.0,-5941.39111328125,0.0,-6674.130859375,-11427.40234375,3911.654052734375,-9744.9619140625,0.0,-14362.3349609375,-1715.8189697265625,0.0,-6605.7841796875,0.0,5127.5888671875,-0.0,-5780.85546875
-4293.91845703125,-4882.8125,11942.38671875,-7891.65478515625,6933.21240234375,2872.149169921875,3623.96240234375,-5563.89453125,0.0,-4907.44921875,-2526.4423828125,-12750.6259765625,0.0,0.0,0.0,-3344.218017578125,2866.5859375,11938.4130859375,-0.0,-476.04241943359375,5957.28564453125,9686.947265625,7242.361328125,3157.45654296875,2615.451904296875,-7639.72607421875,-5808.67138671875,7314.68212890625,-1298.5865478515625,-2377.033203125,10173.3203125,-6325.2451171875,9090.1064453125,7717.609375,5684.69384765625,8203.1884765625,2911.0908203125,-1179.377197265625,5312.7607421875,-0.0,4740.55615234375,-14947.2548828125,2710.8193359375,12997.7861328125,2737.83984375,-6862.4814453125,4230.34033203125,5119.6416015625,6791.75048828125,4343.986328125,3197.193115234375,-4229.54541015625,-11382.1025390625,-5764.16650390625,1993.1793212890625,-3768.60302734375,0.0,-5914.3701171875,0.0,-6663.00439453125,-11397.2021484375,3921.190673828125,-9739.3994140625,0.0,-14379.0244140625,-1665.7510986328125,0.0,-6589.8896484375,0.0,5133.15185546875,-0.0,-5796.75048828125
-4268.4873046875,-4847.0498046875,11938.4130859375,-7878.14404296875,6937.98046875,2895.1962890625,3626.3466796875,-5547.20556640625,0.0,-4898.70703125,-2498.626708984375,-12764.9306640625,0.0,0.0,0.0,-3319.581298828125,2869.76513671875,11945.5654296875,-0.0,-473.6582336425781,5962.0537109375,9698.8681640625,7249.51416015625,3170.967041015625,2624.988525390625,-7599.19482421875,-5804.69775390625,7343.2919921875,-1289.0498046875,-2366.701904296875,10182.0634765625,-6326.03955078125,9090.1064453125,7724.76171875,5688.66748046875,8216.6982421875,2913.47509765625,-1165.0721435546875,5313.55517578125,-0.0,4738.96630859375,-14926.5927734375,2713.203369140625,13020.8330078125,2740.22412109375,-6850.560546875,4220.8037109375,5136.3310546875,6798.1083984375,4377.365234375,3197.98779296875,-4210.47216796875,-11375.7451171875,-5759.39794921875,2001.92138671875,-3751.913818359375,0.0,-5877.01806640625,0.0,-6647.10986328125,-11393.2294921875,3928.34326171875,-9732.24609375,0.0,-14385.3828125,-1670.51953125,0.0,-6577.96875,0.0,5141.099609375,-0.0,-5804.69775390625
-4270.07666015625,-4804.92919921875,11951.12890625,-7874.9658203125,6939.56982421875,2896.78564453125,3626.3466796875,-5540.84765625,0.0,-4890.759765625,-2491.47412109375,-12764.13671875,0.0,0.0,0.0,-3301.302734375,2875.328125,11949.5390625,-0.0,-468.09515380859375,5969.20654296875,9702.046875,7251.10400390625,3174.94091796875,2627.372802734375,-7600.7841796875,-5808.67138671875,7348.060546875,-1289.0498046875,-2330.93896484375,10188.419921875,-6318.09228515625,9097.2587890625,7731.11962890625,5693.435546875,8222.2626953125,2913.47509765625,-1160.3037109375,5321.5029296875,-0.0,4746.119140625,-14926.5927734375,2713.203369140625,13024.0126953125,2738.634765625,-6843.408203125,4242.26123046875,5153.81494140625,6799.69775390625,4372.5966796875,3197.98779296875,-4201.73046875,-11393.2294921875,-5782.4453125,2001.92138671875,-3751.118896484375,0.0,-5861.91796875,0.0,-6637.5732421875,-11391.6396484375,3935.495849609375,-9725.888671875,0.0,-14363.1298828125,-1634.7567138671875,0.0,-6559.68994140625,0.0,5156.19921875,-0.0,-5783.23974609375
-4284.3818359375,-4793.802734375,11959.076171875,-7892.44921875,6936.39111328125,2876.91748046875,3624.757080078125,-5550.384765625,0.0,-4891.55419921875,-2508.9580078125,-12728.373046875,0.0,0.0,0.0,-3307.660400390625,2869.76513671875,11942.38671875,-0.0,-470.4793395996094,5966.02783203125,9690.125,7247.1298828125,3165.404052734375,2624.988525390625,-7645.2890625,-5815.029296875,7328.1923828125,-1289.844482421875,-2316.634033203125,10180.4736328125,-6323.65576171875,9095.6689453125,7721.5830078125,5690.2568359375,8211.1357421875,2909.501220703125,-1169.0457763671875,5319.11865234375,-0.0,4747.708984375,-14948.8447265625,2710.024658203125,13009.70703125,2737.04541015625,-6848.970703125,4254.9765625,5143.4833984375,6792.54541015625,4344.78125,3197.193115234375,-4211.26708984375,-11400.3818359375,-5765.75634765625,2001.1265869140625,-3750.32421875,0.0,-5880.197265625,0.0,-6639.95751953125,-11382.8974609375,3929.13818359375,-9729.8623046875,0.0,-14343.26171875,-1611.7095947265625,0.0,-6528.69580078125,0.0,5160.1728515625,-0.0,-5779.2666015625
-4289.9453125,-4813.6708984375,11943.1806640625,-7899.60205078125,6935.5966796875,2870.5595703125,3623.167724609375,-5561.5107421875,0.0,-4903.47509765625,-2512.13720703125,-12761.751953125,0.0,0.0,0.0,-3329.117919921875,2861.02294921875,11933.64453125,-0.0,-476.837158203125,5954.9013671875,9682.1787109375,7243.15625,3159.046142578125,2617.041259765625,-7646.083984375,-5811.85009765625,7317.06640625,-1298.5865478515625,-2345.244140625,10169.3466796875,-6332.3974609375,9086.1318359375,7712.04638671875,5681.5146484375,8203.9833984375,2907.1171875,-1176.1983642578125,5304.0185546875,-0.0,4738.96630859375,-14954.4072265625,2708.43505859375,13001.759765625,2735.455810546875,-6860.8916015625,4235.10888671875,5137.92041015625,6792.54541015625,4340.8076171875,3195.603515625,-4224.77734375,-11393.2294921875,-5770.5244140625,1993.1793212890625,-3777.344970703125,0.0,-5903.244140625,0.0,-6659.03076171875,-11379.71875,3921.985595703125,-9736.220703125,0.0,-14348.82421875,-1654.625,0.0,-6535.84814453125,0.0,5140.3046875,-0.0,-5780.85546875
-4305.04443359375,-4845.46044921875,11929.6708984375,-7894.0390625,6926.0595703125,2871.354248046875,3619.98876953125,-5565.484375,0.0,-4906.654296875,-2526.4423828125,-12822.1513671875,0.0,0.0,0.0,-3333.091796875,2855.4599609375,11930.4658203125,-0.0,-478.4266052246094,5946.9541015625,9679.0,7238.38818359375,3156.662109375,2604.325439453125,-7625.4208984375,-5819.79736328125,7317.06640625,-1311.30224609375,-2351.601806640625,10166.16796875,-6338.75537109375,9078.185546875,7712.04638671875,5674.3623046875,8201.599609375,2907.1171875,-1179.377197265625,5297.66064453125,-0.0,4729.4296875,-14948.05078125,2702.8720703125,13000.96484375,2734.6611328125,-6864.86572265625,4220.8037109375,5148.251953125,6786.1875,4345.57568359375,3195.603515625,-4229.54541015625,-11404.35546875,-5808.67138671875,1982.847900390625,-3783.702880859375,0.0,-5916.75439453125,0.0,-6663.00439453125,-11400.3818359375,3916.42236328125,-9740.193359375,0.0,-14363.9248046875,-1664.16162109375,0.0,-6566.0478515625,0.0,5114.07861328125,-0.0,-5777.67724609375
-4304.25,-4874.865234375,11929.6708984375,-7899.60205078125,6918.1123046875,2864.99658203125,3617.6044921875,-5572.63720703125,0.0,-4913.01220703125,-2524.852783203125,-12879.3720703125,0.0,0.0,0.0,-3346.602294921875,2850.691650390625,11923.3134765625,-0.0,-483.9897155761719,5942.98046875,9674.2314453125,7230.4404296875,3150.30419921875,2613.067626953125,-7656.41552734375,-5834.1025390625,7309.11865234375,-1302.5601806640625,-2349.2177734375,10160.60546875,-6342.72900390625,9073.4169921875,7707.27783203125,5670.388671875,8193.65234375,2903.938232421875,-1185.735107421875,5300.044921875,-0.0,4726.2509765625,-14958.3818359375,2696.51416015625,12994.607421875,2732.27685546875,-6871.2236328125,4225.572265625,5137.12548828125,6781.41943359375,4341.6025390625,3194.014404296875,-4237.4931640625,-11397.2021484375,-5778.4716796875,1991.58984375,-3792.44482421875,0.0,-5944.56982421875,0.0,-6666.978515625,-11409.9189453125,3910.064697265625,-9745.7568359375,0.0,-14359.15625,-1689.593017578125,0.0,-6627.24169921875,0.0,5086.26318359375,-0.0,-5803.9033203125
-4322.52880859375,-4877.2490234375,11926.4921875,-7923.44384765625,6920.49658203125,2845.12841796875,3617.6044921875,-5588.53125,0.0,-4926.52294921875,-2521.673828125,-12861.8876953125,0.0,0.0,0.0,-3375.21240234375,2839.565185546875,11912.982421875,-0.0,-490.3475646972656,5937.41748046875,9659.130859375,7223.2880859375,3134.40966796875,2612.27294921875,-7679.46240234375,-5830.92333984375,7285.27685546875,-1301.765380859375,-2362.72802734375,10146.30078125,-6357.82861328125,9066.263671875,7690.58837890625,5661.646484375,8176.16748046875,2900.759521484375,-1199.2454833984375,5295.27685546875,-0.0,4725.4560546875,-14982.2236328125,2696.51416015625,12976.3291015625,2731.482177734375,-6889.501953125,4221.59814453125,5113.28369140625,6779.82958984375,4321.73388671875,3193.219482421875,-4259.7451171875,-11409.123046875,-5769.7294921875,1989.20556640625,-3799.597412109375,0.0,-5975.564453125,0.0,-6696.3828125,-11417.0712890625,3898.143798828125,-9754.498046875,0.0,-14381.408203125,-1707.871826171875,0.0,-6643.93115234375,0.0,5093.41552734375,-0.0,-5795.95556640625
-4350.34423828125,-4882.017578125,11914.5712890625,-7915.4970703125,6911.75439453125,2847.512451171875,3616.809814453125,-5588.53125,0.0,-4932.88037109375,-2538.36328125,-12839.634765625,0.0,0.0,0.0,-3381.570068359375,2836.386474609375,11909.0078125,-0.0,-494.3211669921875,5930.26513671875,9657.5419921875,7220.90380859375,3130.43603515625,2597.173095703125,-7647.67333984375,-5830.92333984375,7282.892578125,-1315.2757568359375,-2374.64892578125,10143.916015625,-6357.0341796875,9058.31640625,7692.17822265625,5656.08349609375,8175.373046875,2901.55419921875,-1202.4244384765625,5287.3291015625,-0.0,4714.330078125,-14979.8388671875,2694.924560546875,12975.533203125,2732.27685546875,-6896.65478515625,4203.3193359375,5122.02587890625,6770.29296875,4321.73388671875,3193.219482421875,-4266.8974609375,-11432.1708984375,-5750.65625,1974.1058349609375,-3813.902587890625,0.0,-5974.76953125,0.0,-6709.0986328125,-11435.349609375,3894.170166015625,-9759.2666015625,0.0,-14379.8193359375,-1707.871826171875,0.0,-6599.42626953125,0.0,5119.6416015625,-0.0,-5791.98193359375
-4339.21826171875,-4883.607421875,11926.4921875,-7905.16552734375,6917.31787109375,2864.99658203125,3619.98876953125,-5572.63720703125,0.0,-4920.16455078125,-2530.415771484375,-12795.9248046875,0.0,0.0,0.0,-3345.807373046875,2851.486328125,11921.7236328125,-0.0,-486.3739013671875,5942.98046875,9670.2578125,7231.2353515625,3143.9462890625,2608.29931640625,-7640.5205078125,-5825.36083984375,7307.529296875,-1306.5338134765625,-2446.96923828125,10159.015625,-6345.11328125,9073.4169921875,7704.8935546875,5668.00439453125,8188.8837890625,2905.52783203125,-1187.324462890625,5305.6083984375,-0.0,4720.68798828125,-14973.4814453125,2699.69287109375,12993.8125,2735.455810546875,-6878.3759765625,4211.26708984375,5118.8466796875,6776.65087890625,4338.42333984375,3195.603515625,-4242.26123046875,-11428.9921875,-5734.76171875,1983.642578125,-3820.26025390625,0.0,-5946.9541015625,0.0,-6684.4619140625,-11451.244140625,3906.8857421875,-9748.1416015625,0.0,-14359.951171875,-1697.540283203125,0.0,-6551.74267578125,0.0,5137.92041015625,-0.0,-5802.3134765625
-4315.37646484375,-4847.0498046875,11953.5126953125,-7894.83349609375,6939.56982421875,2877.712158203125,3623.167724609375,-5549.58984375,0.0,-4895.5283203125,-2504.189697265625,-12710.888671875,0.0,0.0,0.0,-3298.91845703125,2872.149169921875,11941.591796875,-0.0,-471.2740478515625,5966.02783203125,9686.947265625,7249.51416015625,3163.814453125,2632.935791015625,-7664.3623046875,-5813.43994140625,7336.1396484375,-1279.5130615234375,-2381.801513671875,10178.0888671875,-6323.65576171875,9097.2587890625,7719.99365234375,5686.283203125,8206.3671875,2911.885498046875,-1163.482666015625,5326.27099609375,-0.0,4743.73486328125,-14971.892578125,2708.43505859375,13016.064453125,2738.634765625,-6852.94482421875,4236.6982421875,5138.71533203125,6797.3134765625,4347.16552734375,3198.78271484375,-4208.087890625,-11406.7392578125,-5712.50927734375,2009.86865234375,-3767.013671875,0.0,-5892.1181640625,0.0,-6646.31494140625,-11418.66015625,3925.959228515625,-9727.478515625,0.0,-14341.671875,-1667.340576171875,0.0,-6477.0380859375,0.0,5174.47802734375,-0.0,-5784.82958984375
-4324.1181640625,-4850.22900390625,11947.1552734375,-7893.24462890625,6937.98046875,2882.480712890625,3625.552001953125,-5543.23193359375,0.0,-4889.96484375,-2513.7265625,-12718.8369140625,0.0,0.0,0.0,-3286.20263671875,2868.97021484375,11942.38671875,-0.0,-470.4793395996094,5962.8486328125,9687.7412109375,7250.30908203125,3168.5830078125,2626.578125,-7650.05712890625,-5818.2080078125,7347.265625,-1283.4866943359375,-2381.801513671875,10178.0888671875,-6328.423828125,9093.2841796875,7719.19873046875,5685.48828125,8207.95703125,2911.885498046875,-1160.3037109375,5317.529296875,-0.0,4741.3505859375,-14965.5341796875,2706.845458984375,13022.4228515625,2739.429443359375,-6848.970703125,4230.34033203125,5167.32568359375,6795.724609375,4351.93408203125,3197.193115234375,-4197.75634765625,-11411.5078125,-5756.21923828125,2006.6898193359375,-3717.740234375,0.0,-5854.765625,0.0,-6635.98388671875,-11412.302734375,3927.548828125,-9724.2998046875,0.0,-14348.82421875,-1665.7510986328125,0.0,-6450.017578125,0.0,5184.80908203125,-0.0,-5771.31884765625
-4344.78125,-4886.7861328125,11934.439453125,-7913.11279296875,6926.0595703125,2864.201904296875,3623.167724609375,-5563.89453125,0.0,-4899.501953125,-2529.62109375,-12764.9306640625,0.0,0.0,0.0,-3323.554931640625,2853.07568359375,11928.0810546875,-0.0,-475.2477111816406,5946.9541015625,9671.84765625,7238.38818359375,3153.483154296875,2607.504638671875,-7662.77294921875,-5824.56591796875,7317.86083984375,-1304.149658203125,-2388.159423828125,10161.3994140625,-6345.90771484375,9078.185546875,7700.125,5672.77294921875,8192.8564453125,2910.296142578125,-1175.403564453125,5306.40283203125,-0.0,4730.224609375,-14981.4287109375,2702.0771484375,13000.96484375,2737.83984375,-6864.07080078125,4223.982421875,5129.1787109375,6785.392578125,4331.2705078125,3195.603515625,-4223.982421875,-11422.6337890625,-5866.6865234375,1988.410888671875,-3747.93994140625,0.0,-5875.4287109375,0.0,-6657.44140625,-11452.833984375,3913.24365234375,-9735.4248046875,0.0,-14373.4619140625,-1678.466796875,0.0,-6496.90625,0.0,5163.3515625,-0.0,-5764.16650390625
-4346.37060546875,-4881.22314453125,11932.0556640625,-7914.70263671875,6926.0595703125,2853.870361328125,3620.783447265625,-5576.6103515625,0.0,-4908.24365234375,-2532.800048828125,-12771.2890625,0.0,0.0,0.0,-3350.57568359375,2852.28076171875,11922.5185546875,-0.0,-480.810791015625,5945.3642578125,9667.0791015625,7232.0302734375,3144.740966796875,2609.888671875,-7676.283203125,-5824.56591796875,7297.19775390625,-1303.3548583984375,-2358.75439453125,10155.8369140625,-6347.49755859375,9077.3896484375,7698.5361328125,5669.59375,8186.49951171875,2907.1171875,-1183.3509521484375,5304.0185546875,-0.0,4729.4296875,-14987.7861328125,2699.69287109375,12988.25,2735.455810546875,-6874.40234375,4216.82958984375,5109.31005859375,6786.98193359375,4318.55517578125,3194.80908203125,-4242.26123046875,-11419.455078125,-5815.029296875,1989.20556640625,-3804.365966796875,0.0,-5902.44921875,0.0,-6672.541015625,-11438.529296875,3908.475341796875,-9743.373046875,0.0,-14382.203125,-1688.0035400390625,0.0,-6558.89501953125,0.0,5129.97314453125,-0.0,-5760.98779296875
-4342.39697265625,-4868.50732421875,11920.134765625,-7915.4970703125,6919.7021484375,2845.923095703125,3617.6044921875,-5584.55810546875,0.0,-4917.7802734375,-2532.800048828125,-12811.8203125,0.0,0.0,0.0,-3368.8544921875,2847.512451171875,11918.544921875,-0.0,-487.9633483886719,5939.0068359375,9663.8994140625,7228.8515625,3139.97265625,2610.683349609375,-7679.46240234375,-5828.53955078125,7285.27685546875,-1301.765380859375,-2341.2705078125,10154.2470703125,-6353.06005859375,9070.2373046875,7696.94677734375,5665.6201171875,8181.7314453125,2904.73291015625,-1188.9139404296875,5295.27685546875,-0.0,4719.0986328125,-14989.3759765625,2696.51416015625,12982.6865234375,2733.866455078125,-6882.349609375,4202.52490234375,5113.28369140625,6779.03515625,4309.0185546875,3194.014404296875,-4253.3876953125,-11413.8916015625,-5819.00244140625,1987.6163330078125,-3821.05517578125,0.0,-5935.82763671875,0.0,-6682.87255859375,-11425.8125,3903.706787109375,-9748.1416015625,0.0,-14360.7451171875,-1704.69287109375,0.0,-6602.60546875,0.0,5110.10498046875,-0.0,-5777.67724609375
-4318.55517578125,-4843.87060546875,11929.6708984375,-7910.728515625,6923.67578125,2853.870361328125,3618.3994140625,-5578.19970703125,0.0,-4911.4228515625,-2518.494873046875,-12817.3828125,0.0,0.0,0.0,-3363.29150390625,2853.870361328125,11924.107421875,-0.0,-482.4002685546875,5945.3642578125,9671.0517578125,7234.41455078125,3146.33056640625,2612.27294921875,-7667.54150390625,-5824.56591796875,7294.01904296875,-1300.176025390625,-2322.197021484375,10159.015625,-6343.5234375,9077.3896484375,7704.8935546875,5669.59375,8188.08837890625,2907.912109375,-1182.55615234375,5302.42919921875,-0.0,4727.04541015625,-14980.6337890625,2700.48779296875,12989.8388671875,2735.455810546875,-6877.5810546875,4226.36669921875,5107.720703125,6783.0087890625,4320.939453125,3194.014404296875,-4247.02978515625,-11397.998046875,-5809.4658203125,1989.20556640625,-3778.139892578125,0.0,-5929.47021484375,0.0,-6682.87255859375,-11416.2763671875,3909.269775390625,-9743.373046875,0.0,-14354.388671875,-1703.1033935546875,0.0,-6589.0947265625,0.0,5134.7412109375,-0.0,-5768.9345703125
-4316.9658203125,-4845.46044921875,11935.234375,-7907.5498046875,6931.623046875,2864.201904296875,3620.783447265625,-5569.4580078125,0.0,-4908.24365234375,-2517.7001953125,-12784.798828125,0.0,0.0,0.0,-3348.19140625,2859.433349609375,11929.6708984375,-0.0,-483.1949768066406,5953.31201171875,9677.41015625,7239.9775390625,3154.27783203125,2613.8623046875,-7665.9521484375,-5819.79736328125,7307.529296875,-1297.7918701171875,-2345.244140625,10166.962890625,-6330.80810546875,9084.5419921875,7710.45703125,5675.95166015625,8195.2412109375,2907.1171875,-1174.60888671875,5307.19775390625,-0.0,4733.40380859375,-14975.0712890625,2702.0771484375,13000.1708984375,2736.250732421875,-6871.2236328125,4230.34033203125,5103.7470703125,6790.1611328125,4336.833984375,3194.014404296875,-4236.6982421875,-11390.0498046875,-5748.27197265625,1992.3846435546875,-3731.250732421875,0.0,-5912.78076171875,0.0,-6674.130859375,-11417.8662109375,3914.8330078125,-9739.3994140625,0.0,-14347.2353515625,-1667.340576171875,0.0,-6560.484375,0.0,5141.89404296875,-0.0,-5776.08740234375
-4337.62890625,-4862.9443359375,11932.0556640625,-7918.67529296875,6937.98046875,2865.791259765625,3621.578125,-5566.27880859375,0.0,-4906.654296875,-2536.773681640625,-12778.44140625,0.0,0.0,0.0,-3337.0654296875,2856.254638671875,11930.4658203125,-0.0,-485.57916259765625,5954.10693359375,9674.2314453125,7243.15625,3156.662109375,2611.47802734375,-7671.51513671875,-5817.4130859375,7313.88720703125,-1300.176025390625,-2383.39111328125,10166.16796875,-6336.37109375,9081.36328125,7706.4833984375,5679.13037109375,8195.2412109375,2909.501220703125,-1173.814208984375,5298.45556640625,-0.0,4738.96630859375,-14979.8388671875,2702.0771484375,13002.5546875,2735.455810546875,-6866.455078125,4215.240234375,5098.18408203125,6798.1083984375,4340.01318359375,3194.014404296875,-4231.9296875,-11403.560546875,-5718.072265625,1990.00048828125,-3710.587646484375,0.0,-5906.4228515625,0.0,-6663.79931640625,-11432.96484375,3917.21728515625,-9739.3994140625,0.0,-14355.1826171875,-1660.9827880859375,0.0,-6542.2060546875,0.0,5144.27783203125,-0.0,-5795.95556640625
-4333.65478515625,-4866.123046875,11932.0556640625,-7907.5498046875,6922.08642578125,2872.94384765625,3620.783447265625,-5560.71630859375,0.0,-4901.09130859375,-2526.4423828125,-12784.798828125,0.0,0.0,0.0,-3329.117919921875,2855.4599609375,11928.0810546875,-0.0,-480.0160827636719,5948.54345703125,9678.2041015625,7241.56689453125,3159.046142578125,2617.041259765625,-7644.49462890625,-5822.9765625,7320.2451171875,-1296.2022705078125,-2372.264892578125,10164.578125,-6342.72900390625,9078.185546875,7710.45703125,5674.3623046875,8198.4208984375,2910.296142578125,-1170.63525390625,5294.48193359375,-0.0,4724.6611328125,-14967.1240234375,2699.69287109375,13008.1171875,2736.250732421875,-6861.6865234375,4214.44580078125,5136.3310546875,6783.0087890625,4347.16552734375,3194.80908203125,-4225.572265625,-11409.9189453125,-5718.072265625,1995.5634765625,-3752.70849609375,0.0,-5905.62841796875,0.0,-6658.23583984375,-11433.7607421875,3915.6279296875,-9737.0146484375,0.0,-14363.9248046875,-1672.1090087890625,0.0,-6528.69580078125,0.0,5150.63623046875,-0.0,-5788.00830078125
-4328.88671875,-4894.7333984375,11924.107421875,-7906.75439453125,6910.16552734375,2868.97021484375,3623.167724609375,-5563.89453125,0.0,-4900.296875,-2520.879150390625,-12801.48828125,0.0,0.0,0.0,-3331.502197265625,2850.691650390625,11923.3134765625,-0.0,-474.4529724121094,5941.39111328125,9675.0263671875,7239.18310546875,3155.867431640625,2618.630615234375,-7643.69970703125,-5822.9765625,7314.68212890625,-1294.6129150390625,-2357.1650390625,10157.42578125,-6354.64990234375,9069.4423828125,7707.27783203125,5669.59375,8193.65234375,2910.296142578125,-1172.224609375,5283.35546875,-0.0,4719.0986328125,-14968.712890625,2699.69287109375,13004.1435546875,2737.04541015625,-6864.86572265625,4209.67724609375,5124.41015625,6767.90869140625,4343.986328125,3197.193115234375,-4227.9560546875,-11420.25,-5753.8349609375,1996.358154296875,-3819.465576171875,0.0,-5910.396484375,0.0,-6663.79931640625,-11433.7607421875,3911.654052734375,-9733.8359375,0.0,-14367.103515625,-1670.51953125,0.0,-6531.07958984375,0.0,5146.662109375,-0.0,-5761.7822265625
-4336.0390625,-4897.11767578125,11912.1865234375,-7919.470703125,6920.49658203125,2860.228271484375,3624.757080078125,-5571.84228515625,0.0,-4905.859375,-2543.131591796875,-12791.951171875,0.0,0.0,0.0,-3349.781005859375,2842.744140625,11920.134765625,-0.0,-475.2477111816406,5938.2119140625,9667.873046875,7239.9775390625,3150.30419921875,2601.94140625,-7658.7998046875,-5808.67138671875,7303.55615234375,-1312.096923828125,-2342.065185546875,10154.2470703125,-6362.59716796875,9059.90625,7700.919921875,5668.798828125,8188.8837890625,2913.47509765625,-1176.9930419921875,5264.2822265625,-0.0,4719.0986328125,-14979.044921875,2705.256103515625,12998.5810546875,2738.634765625,-6872.0185546875,4192.98779296875,5083.87890625,6780.62451171875,4335.24462890625,3197.193115234375,-4237.4931640625,-11436.14453125,-5783.23974609375,1978.07958984375,-3805.955078125,0.0,-5928.67529296875,0.0,-6674.130859375,-11410.712890625,3910.064697265625,-9737.8095703125,0.0,-14374.255859375,-1688.79833984375,0.0,-6566.8427734375,0.0,5129.1787109375,-0.0,-5764.16650390625
-4351.93408203125,-4874.07080078125,11914.5712890625,-7932.18603515625,6920.49658203125,2849.896728515625,3619.194091796875,-5580.583984375,0.0,-4913.01220703125,-2553.462890625,-12770.4931640625,0.0,0.0,0.0,-3364.086181640625,2836.386474609375,11911.392578125,-0.0,-485.57916259765625,5933.443359375,9658.3369140625,7231.2353515625,3139.177978515625,2595.583740234375,-7674.69384765625,-5815.029296875,7290.84033203125,-1318.4547119140625,-2353.986083984375,10147.0947265625,-6372.1337890625,9061.49609375,7691.38330078125,5660.85205078125,8177.75732421875,2907.1171875,-1184.9403076171875,5279.38232421875,-0.0,4717.5087890625,-14990.1708984375,2696.51416015625,12985.865234375,2735.455810546875,-6879.96533203125,4194.57763671875,5068.77880859375,6785.392578125,4322.52880859375,3194.80908203125,-4249.4140625,-11442.501953125,-5773.703125,1972.516357421875,-3780.52392578125,0.0,-5938.2119140625,0.0,-6686.0517578125,-11425.0185546875,3900.52783203125,-9747.345703125,0.0,-14379.0244140625,-1721.382080078125,0.0,-6589.8896484375,0.0,5114.87353515625,-0.0,-5774.498046875
-4372.5966796875,-4856.58642578125,11920.134765625,-7944.10693359375,6908.57568359375,2842.744140625,3616.809814453125,-5584.55810546875,0.0,-4915.39599609375,-2541.5419921875,-12780.8251953125,0.0,0.0,0.0,-3364.880859375,2834.796875,11905.0341796875,-0.0,-489.55279541015625,5928.67529296875,9651.18359375,7217.72509765625,3132.820068359375,2612.27294921875,-7683.43603515625,-5840.46044921875,7286.86669921875,-1301.765380859375,-2368.291259765625,10140.736328125,-6369.74951171875,9061.49609375,7685.02587890625,5652.10986328125,8170.6044921875,2900.759521484375,-1192.8876953125,5294.48193359375,-0.0,4713.53515625,-14998.9130859375,2686.1826171875,12977.91796875,2729.892822265625,-6884.73388671875,4211.26708984375,5067.189453125,6773.4716796875,4314.58154296875,3192.4248046875,-4254.18212890625,-11439.3232421875,-5770.5244140625,1990.00048828125,-3781.318603515625,0.0,-5939.8017578125,0.0,-6686.0517578125,-11448.0654296875,3893.37548828125,-9752.9091796875,0.0,-14364.7197265625,-1732.50830078125,0.0,-6584.326171875,0.0,5116.462890625,-0.0,-5781.650390625
-4374.18603515625,-4862.14990234375,11924.9033203125,-7940.13330078125,6913.34375,2849.10205078125,3619.98876953125,-5576.6103515625,0.0,-4909.03857421875,-2546.310546875,-12787.978515625,0.0,0.0,0.0,-3354.54931640625,2837.18115234375,11909.0078125,-0.0,-483.1949768066406,5932.64892578125,9655.158203125,7223.2880859375,3139.177978515625,2609.093994140625,-7676.283203125,-5832.51318359375,7294.8134765625,-1302.5601806640625,-2366.701904296875,10145.5048828125,-6363.39208984375,9064.6748046875,7688.2041015625,5656.8779296875,8178.5517578125,2904.73291015625,-1187.324462890625,5293.6875,-0.0,4714.330078125,-14993.349609375,2691.745849609375,12985.865234375,2733.866455078125,-6879.1708984375,4223.982421875,5078.31591796875,6777.4453125,4319.349609375,3194.80908203125,-4246.23486328125,-11444.8857421875,-5760.98779296875,1986.8214111328125,-3785.29248046875,0.0,-5931.8544921875,0.0,-6676.51513671875,-11463.9599609375,3899.7333984375,-9744.9619140625,0.0,-14363.9248046875,-1716.61376953125,0.0,-6562.07421875,0.0,5132.35693359375,-0.0,-5771.31884765625
-4343.986328125,-4881.22314453125,11936.82421875,-7924.2392578125,6923.67578125,2861.817626953125,3622.372802734375,-5562.3056640625,0.0,-4901.8857421875,-2524.852783203125,-12796.7197265625,0.0,0.0,0.0,-3339.44970703125,2849.896728515625,11918.544921875,-0.0,-478.4266052246094,5943.775390625,9667.873046875,7236.00390625,3152.688232421875,2621.809814453125,-7661.18359375,-5819.79736328125,7309.91357421875,-1289.0498046875,-2353.986083984375,10155.8369140625,-6351.470703125,9073.4169921875,7701.71484375,5668.798828125,8190.47265625,2908.70654296875,-1175.403564453125,5292.892578125,-0.0,4725.4560546875,-14976.6611328125,2698.103759765625,13000.96484375,2736.250732421875,-6868.04443359375,4231.9296875,5095.7998046875,6787.77685546875,4335.24462890625,3194.80908203125,-4232.724609375,-11431.3759765625,-5757.80859375,1999.5372314453125,-3781.318603515625,0.0,-5911.19140625,0.0,-6665.388671875,-11455.21875,3910.064697265625,-9736.220703125,0.0,-14363.1298828125,-1695.1561279296875,0.0,-6573.2001953125,0.0,5123.615234375,-0.0,-5769.7294921875
-4316.17138671875,-4886.7861328125,11953.5126953125,-7897.2177734375,6940.36474609375,2884.070068359375,3624.757080078125,-5543.23193359375,0.0,-4892.34912109375,-2498.626708984375,-12784.00390625,0.0,0.0,0.0,-3314.81298828125,2869.76513671875,11934.439453125,-0.0,-475.2477111816406,5961.25927734375,9688.537109375,7249.51416015625,3169.377685546875,2645.651611328125,-7637.341796875,-5807.87646484375,7332.96044921875,-1265.2078857421875,-2347.62841796875,10174.115234375,-6330.80810546875,9091.6953125,7723.1728515625,5683.10400390625,8208.751953125,2912.680419921875,-1159.509033203125,5308.787109375,-0.0,4743.73486328125,-14952.8193359375,2704.46142578125,13021.6279296875,2738.634765625,-6854.5341796875,4245.43994140625,5119.6416015625,6805.26123046875,4361.470703125,3195.603515625,-4213.6513671875,-11397.998046875,-5770.5244140625,2024.1737060546875,-3751.913818359375,0.0,-5885.759765625,0.0,-6647.90478515625,-11437.7333984375,3925.164794921875,-9728.2724609375,0.0,-14344.8515625,-1668.9300537109375,0.0,-6554.126953125,0.0,5125.20458984375,-0.0,-5778.4716796875
-4353.5234375,-4918.5751953125,11946.3603515625,-7901.19189453125,6930.828125,2872.149169921875,3620.783447265625,-5553.5634765625,0.0,-4897.91259765625,-2508.16357421875,-12803.078125,0.0,0.0,0.0,-3327.52880859375,2861.817626953125,11926.4921875,-0.0,-479.2213439941406,5950.1328125,9679.0,7239.9775390625,3158.25146484375,2629.7568359375,-7644.49462890625,-5816.61865234375,7318.6552734375,-1282.69189453125,-2363.522705078125,10163.7841796875,-6338.75537109375,9082.158203125,7716.814453125,5673.5673828125,8200.8046875,2910.296142578125,-1169.0457763671875,5304.8134765625,-0.0,4734.1982421875,-14959.9716796875,2699.69287109375,13009.70703125,2737.83984375,-6863.27587890625,4231.134765625,5124.41015625,6795.724609375,4351.13916015625,3194.80908203125,-4224.77734375,-11411.5078125,-5820.59228515625,2007.484375,-3744.76123046875,0.0,-5905.62841796875,0.0,-6656.646484375,-11440.1181640625,3915.6279296875,-9733.8359375,0.0,-14355.9775390625,-1685.619384765625,0.0,-6533.4638671875,0.0,5129.1787109375,-0.0,-5774.498046875
-4380.5439453125,-4892.34912109375,11947.1552734375,-7902.78125,6928.44384765625,2871.354248046875,3622.372802734375,-5556.7421875,0.0,-4895.5283203125,-2501.010986328125,-12804.6669921875,0.0,0.0,0.0,-3329.117919921875,2861.817626953125,11924.9033203125,-0.0,-476.837158203125,5950.1328125,9677.41015625,7239.18310546875,3156.662109375,2619.425537109375,-7635.75244140625,-5819.79736328125,7317.86083984375,-1293.818115234375,-2388.159423828125,10161.3994140625,-6336.37109375,9082.158203125,7718.404296875,5672.77294921875,8199.21484375,2910.296142578125,-1171.429931640625,5312.7607421875,-0.0,4734.9931640625,-14957.5869140625,2699.69287109375,13008.1171875,2737.04541015625,-6863.27587890625,4225.572265625,5131.5625,6794.134765625,4349.5498046875,3195.603515625,-4227.9560546875,-11419.455078125,-5824.56591796875,1997.153076171875,-3747.1455078125,0.0,-5909.6015625,0.0,-6659.03076171875,-11427.40234375,3916.42236328125,-9733.8359375,0.0,-14361.541015625,-1688.0035400390625,0.0,-6528.69580078125,0.0,5127.5888671875,-0.0,-5770.5244140625
-4369.41748046875,-4866.91796875,11934.439453125,-7902.78125,6925.2646484375,2873.738525390625,3619.98876953125,-5556.7421875,0.0,-4898.70703125,-2489.08984375,-12776.8515625,0.0,0.0,0.0,-3330.70751953125,2859.433349609375,11923.3134765625,-0.0,-480.810791015625,5945.3642578125,9679.0,7238.38818359375,3157.45654296875,2622.6044921875,-7630.189453125,-5822.181640625,7319.4501953125,-1289.844482421875,-2355.57568359375,10159.015625,-6341.13916015625,9078.185546875,7718.404296875,5668.798828125,8198.4208984375,2907.912109375,-1172.224609375,5315.14501953125,-0.0,4727.04541015625,-14952.8193359375,2697.308837890625,13008.1171875,2733.071533203125,-6864.86572265625,4204.90869140625,5131.5625,6790.9560546875,4355.11279296875,3193.219482421875,-4226.36669921875,-11422.6337890625,-5787.2138671875,2002.716064453125,-3743.96630859375,0.0,-5904.0390625,0.0,-6661.4150390625,-11425.8125,3913.24365234375,-9737.0146484375,0.0,-14352.798828125,-1683.235107421875,0.0,-6529.490234375,0.0,5133.94677734375,-0.0,-5776.08740234375
-4336.833984375,-4858.970703125,11926.4921875,-7910.728515625,6923.67578125,2870.5595703125,3619.194091796875,-5559.12646484375,0.0,-4904.27001953125,-2512.13720703125,-12776.8515625,0.0,0.0,0.0,-3332.297119140625,2852.28076171875,11920.9287109375,-0.0,-485.57916259765625,5942.18603515625,9675.0263671875,7235.208984375,3152.688232421875,2621.809814453125,-7633.3681640625,-5821.38671875,7315.47705078125,-1290.6392822265625,-2326.170654296875,10156.6318359375,-6345.90771484375,9072.62109375,7712.8408203125,5665.6201171875,8195.2412109375,2906.322509765625,-1174.60888671875,5293.6875,-0.0,4724.6611328125,-14957.5869140625,2696.51416015625,13007.3232421875,2733.071533203125,-6868.04443359375,4204.1142578125,5116.462890625,6788.57177734375,4351.13916015625,3192.4248046875,-4229.54541015625,-11419.455078125,-5769.7294921875,2001.92138671875,-3748.734619140625,0.0,-5899.2705078125,0.0,-6668.56787109375,-11423.4287109375,3909.269775390625,-9740.193359375,0.0,-14353.5927734375,-1688.79833984375,0.0,-6559.68994140625,0.0,5135.5361328125,-0.0,-5779.2666015625
-4301.8662109375,-4839.10205078125,11936.0283203125,-7911.52294921875,6922.880859375,2872.94384765625,3619.194091796875,-5555.15283203125,0.0,-4899.501953125,-2536.773681640625,-12774.4677734375,0.0,0.0,0.0,-3320.376220703125,2854.6650390625,11924.107421875,-0.0,-485.57916259765625,5946.9541015625,9677.41015625,7236.798828125,3157.45654296875,2621.014892578125,-7627.01025390625,-5819.00244140625,7320.2451171875,-1293.0234375,-2310.276123046875,10156.6318359375,-6342.72900390625,9076.595703125,7712.04638671875,5668.798828125,8198.4208984375,2908.70654296875,-1170.63525390625,5286.53466796875,-0.0,4733.40380859375,-14955.203125,2697.308837890625,13009.70703125,2734.6611328125,-6864.07080078125,4223.18798828125,5109.31005859375,6788.57177734375,4353.5234375,3194.014404296875,-4224.77734375,-11409.9189453125,-5760.98779296875,1997.94775390625,-3743.96630859375,0.0,-5888.14404296875,0.0,-6659.03076171875,-11430.5810546875,3911.654052734375,-9738.6044921875,0.0,-14358.361328125,-1680.8509521484375,0.0,-6543.00048828125,0.0,5129.1787109375,-0.0,-5773.703125
-4292.3291015625,-4854.2021484375,11920.9287109375,-7921.0595703125,6918.9072265625,2868.175537109375,3619.194091796875,-5555.15283203125,0.0,-4897.11767578125,-2517.7001953125,-12771.2890625,0.0,0.0,0.0,-3316.40234375,2845.923095703125,11920.9287109375,-0.0,-483.9897155761719,5939.0068359375,9671.84765625,7233.61962890625,3155.072509765625,2618.630615234375,-7638.93115234375,-5816.61865234375,7317.86083984375,-1293.818115234375,-2319.812744140625,10151.86328125,-6351.470703125,9066.263671875,7704.09912109375,5664.03076171875,8192.8564453125,2907.1171875,-1172.224609375,5282.56103515625,-0.0,4720.68798828125,-14963.150390625,2695.719482421875,13007.3232421875,2732.27685546875,-6864.86572265625,4216.03515625,5102.15771484375,6782.2138671875,4344.78125,3194.014404296875,-4223.982421875,-11397.998046875,-5764.96142578125,1995.5634765625,-3755.88720703125,0.0,-5885.759765625,0.0,-6651.87841796875,-11441.7080078125,3910.064697265625,-9737.0146484375,0.0,-14353.5927734375,-1664.16162109375,0.0,-6494.52197265625,0.0,5134.7412109375,-0.0,-5781.650390625
-4289.150390625,-4876.45458984375,11919.3388671875,-7916.291015625,6922.08642578125,2873.738525390625,3621.578125,-5549.58984375,0.0,-4889.96484375,-2510.547607421875,-12768.109375,0.0,0.0,0.0,-3305.276123046875,2847.512451171875,11923.3134765625,-0.0,-478.4266052246094,5940.59619140625,9675.8203125,7237.59326171875,3159.046142578125,2621.809814453125,-7642.1103515625,-5815.029296875,7325.013671875,-1290.6392822265625,-2334.91259765625,10157.42578125,-6349.8818359375,9066.263671875,7710.45703125,5665.6201171875,8196.8310546875,2908.70654296875,-1166.66162109375,5286.53466796875,-0.0,4721.48291015625,-14963.9443359375,2698.8984375,13012.091796875,2736.250732421875,-6857.71337890625,4217.62451171875,5102.95263671875,6783.80322265625,4350.34423828125,3194.014404296875,-4216.82958984375,-11386.87109375,-5740.32470703125,1998.7423095703125,-3786.881591796875,0.0,-5874.6337890625,0.0,-6647.10986328125,-11431.3759765625,3915.6279296875,-9731.4521484375,0.0,-14346.4404296875,-1633.167236328125,0.0,-6463.52783203125,0.0,5163.3515625,-0.0,-5767.34521484375
-4305.04443359375,-4905.859375,11909.0078125,-7929.8017578125,6922.880859375,2859.433349609375,3621.578125,-5563.10009765625,0.0,-4896.32275390625,-2532.00537109375,-12799.103515625,0.0,0.0,0.0,-3316.40234375,2834.796875,11912.1865234375,-0.0,-483.1949768066406,5931.0595703125,9663.10546875,7232.0302734375,3147.919921875,2610.683349609375,-7651.64697265625,-5812.64501953125,7311.5029296875,-1302.5601806640625,-2391.33837890625,10144.7109375,-6367.365234375,9055.1376953125,7694.5625,5659.26220703125,8183.31982421875,2907.912109375,-1176.9930419921875,5276.203125,-0.0,4715.91943359375,-14980.6337890625,2698.103759765625,13000.96484375,2736.250732421875,-6868.83935546875,4203.3193359375,5092.62109375,6786.98193359375,4336.0390625,3194.80908203125,-4227.16162109375,-11394.818359375,-5756.21923828125,1988.410888671875,-3823.439453125,0.0,-5888.14404296875,0.0,-6659.03076171875,-11431.3759765625,3905.29638671875,-9738.6044921875,0.0,-14360.7451171875,-1659.393310546875,0.0,-6488.16455078125,0.0,5145.07275390625,-0.0,-5760.19287109375
-4339.21826171875,-4916.19091796875,11888.3447265625,-7954.43798828125,6904.60205078125,2835.591552734375,3615.22021484375,-5581.37890625,0.0,-4906.654296875,-2556.641845703125,-12826.919921875,0.0,0.0,0.0,-3338.65478515625,2810.955078125,11890.728515625,-0.0,-488.7580871582031,5908.01220703125,9637.673828125,7214.54638671875,3126.462158203125,2586.046875,-7679.46240234375,-5823.77099609375,7288.4560546875,-1326.402099609375,-2409.6171875,10121.6630859375,-6393.59130859375,9031.2958984375,7667.54150390625,5639.39404296875,8160.2734375,2902.348876953125,-1192.0928955078125,5250.77197265625,-0.0,4694.4619140625,-15009.244140625,2688.56689453125,12980.3017578125,2732.27685546875,-6884.73388671875,4162.78857421875,5070.3681640625,6771.88232421875,4312.197265625,3191.630126953125,-4247.02978515625,-11425.8125,-5798.33984375,1964.569091796875,-3840.92333984375,0.0,-5923.90673828125,0.0,-6673.3359375,-11457.6025390625,3886.222900390625,-9752.1142578125,0.0,-14389.35546875,-1707.871826171875,0.0,-6512.80078125,0.0,5124.41015625,-0.0,-5764.16650390625
-4352.728515625,-4905.859375,11893.908203125,-7963.1806640625,6889.501953125,2838.7705078125,3614.42578125,-5580.583984375,0.0,-4901.8857421875,-2541.5419921875,-12855.529296875,0.0,0.0,0.0,-3343.423095703125,2810.160400390625,11885.9609375,-0.0,-483.1949768066406,5906.4228515625,9636.0849609375,7208.98291015625,3126.462158203125,2603.53076171875,-7692.97265625,-5842.05029296875,7296.4033203125,-1308.123291015625,-2412.7958984375,10120.07421875,-6394.38623046875,9031.2958984375,7664.3623046875,5633.8310546875,8158.68359375,2900.759521484375,-1193.682373046875,5255.54052734375,-0.0,4691.28271484375,-15016.396484375,2680.619384765625,12981.8916015625,2733.071533203125,-6884.73388671875,4156.4306640625,5057.65283203125,6757.57763671875,4325.7080078125,3189.245849609375,-4244.6455078125,-11423.4287109375,-5834.8974609375,1982.0531005859375,-3810.7236328125,0.0,-5924.70166015625,0.0,-6675.72021484375,-11464.7548828125,3884.63330078125,-9749.73046875,0.0,-14380.6142578125,-1746.018798828125,0.0,-6519.15869140625,0.0,5144.27783203125,-0.0,-5752.24560546875
-4351.13916015625,-4901.8857421875,11909.802734375,-7957.61767578125,6901.4228515625,2837.975830078125,3618.3994140625,-5580.583984375,0.0,-4901.09130859375,-2537.568359375,-12842.01953125,0.0,0.0,0.0,-3351.37060546875,2820.49169921875,11895.4970703125,-0.0,-479.2213439941406,5917.54931640625,9643.2373046875,7216.93017578125,3129.641357421875,2616.24658203125,-7699.33056640625,-5830.92333984375,7290.84033203125,-1296.9970703125,-2435.84326171875,10129.611328125,-6385.64453125,9044.806640625,7671.51513671875,5642.57275390625,8164.24658203125,2903.938232421875,-1190.50341796875,5275.408203125,-0.0,4703.99853515625,-15016.396484375,2686.977294921875,12982.6865234375,2733.866455078125,-6882.349609375,4206.49853515625,5063.2158203125,6768.70361328125,4318.55517578125,3190.835205078125,-4247.02978515625,-11417.0712890625,-5849.20263671875,1992.3846435546875,-3810.7236328125,0.0,-5936.62255859375,0.0,-6677.3095703125,-11458.396484375,3889.401611328125,-9744.9619140625,0.0,-14373.4619140625,-1749.1976318359375,0.0,-6545.384765625,0.0,5151.4306640625,-0.0,-5745.8876953125
-4355.11279296875,-4914.6015625,11908.2138671875,-7951.259765625,6903.0126953125,2828.43896484375,3618.3994140625,-5591.71044921875,0.0,-4910.6279296875,-2518.494873046875,-12834.072265625,0.0,0.0,0.0,-3371.23876953125,2822.081298828125,11894.703125,-0.0,-484.7844543457031,5917.54931640625,9641.6474609375,7215.34130859375,3124.078125,2619.425537109375,-7698.5361328125,-5825.36083984375,7266.998046875,-1292.228759765625,-2418.359130859375,10128.021484375,-6380.8759765625,9047.1904296875,7674.69384765625,5643.36767578125,8161.06787109375,2904.73291015625,-1194.47705078125,5281.7666015625,-0.0,4705.587890625,-15018.7802734375,2688.56689453125,12969.970703125,2732.27685546875,-6892.68115234375,4212.0615234375,5078.31591796875,6771.88232421875,4295.5078125,3191.630126953125,-4263.71923828125,-11420.25,-5849.20263671875,1994.768798828125,-3810.7236328125,0.0,-5972.38525390625,0.0,-6689.23046875,-11470.3173828125,3887.017578125,-9750.525390625,0.0,-14359.15625,-1731.713623046875,0.0,-6575.58447265625,0.0,5131.5625,-0.0,-5760.98779296875
-4353.5234375,-4912.2177734375,11915.3662109375,-7942.51708984375,6910.9599609375,2837.18115234375,3618.3994140625,-5585.3525390625,0.0,-4909.83349609375,-2509.7529296875,-12828.509765625,0.0,0.0,0.0,-3365.67578125,2831.6181640625,11900.265625,-0.0,-486.3739013671875,5923.90673828125,9648.7998046875,7221.69873046875,3130.43603515625,2625.783203125,-7682.6416015625,-5822.9765625,7277.330078125,-1285.076171875,-2387.36474609375,10135.173828125,-6368.955078125,9055.1376953125,7685.02587890625,5649.7255859375,8169.01513671875,2905.52783203125,-1190.50341796875,5289.71337890625,-0.0,4711.94580078125,-15006.859375,2690.951171875,12977.91796875,2732.27685546875,-6887.91259765625,4213.6513671875,5075.931640625,6777.4453125,4308.2236328125,3192.4248046875,-4257.36083984375,-11406.7392578125,-5829.33447265625,2004.3055419921875,-3807.544677734375,0.0,-5963.6435546875,0.0,-6689.23046875,-11456.8076171875,3892.580810546875,-9748.1416015625,0.0,-14337.69921875,-1724.56103515625,0.0,-6575.58447265625,0.0,5126.79443359375,-0.0,-5767.34521484375
-4336.0390625,-4900.296875,11916.955078125,-7936.95458984375,6916.52294921875,2847.512451171875,3619.98876953125,-5575.81591796875,0.0,-4905.859375,-2509.7529296875,-12793.541015625,0.0,0.0,0.0,-3348.19140625,2837.975830078125,11907.41796875,-0.0,-486.3739013671875,5928.67529296875,9655.9521484375,7228.056640625,3138.383056640625,2627.372802734375,-7677.078125,-5819.79736328125,7294.01904296875,-1285.870849609375,-2374.64892578125,10140.736328125,-6358.62353515625,9059.111328125,7694.5625,5655.28857421875,8178.5517578125,2907.1171875,-1181.7613525390625,5284.94482421875,-0.0,4715.91943359375,-14998.9130859375,2694.1298828125,12989.8388671875,2731.482177734375,-6879.96533203125,4213.6513671875,5077.52099609375,6782.2138671875,4323.32373046875,3194.014404296875,-4246.23486328125,-11397.998046875,-5811.85009765625,2004.3055419921875,-3791.650146484375,0.0,-5935.82763671875,0.0,-6679.69384765625,-11452.0390625,3898.9384765625,-9744.1669921875,0.0,-14336.109375,-1698.3350830078125,0.0,-6549.3583984375,0.0,5130.767578125,-0.0,-5778.4716796875
-4317.76025390625,-4879.63330078125,11916.955078125,-7923.44384765625,6918.1123046875,2861.817626953125,3621.578125,-5566.27880859375,0.0,-4906.654296875,-2515.31591796875,-12785.59375,0.0,0.0,0.0,-3332.297119140625,2845.12841796875,11913.7763671875,-0.0,-489.55279541015625,5931.8544921875,9667.0791015625,7232.82470703125,3148.71484375,2625.783203125,-7659.59423828125,-5816.61865234375,7309.11865234375,-1287.4603271484375,-2375.443603515625,10147.888671875,-6353.06005859375,9062.2900390625,7704.09912109375,5659.26220703125,8188.8837890625,2907.912109375,-1175.403564453125,5283.35546875,-0.0,4719.0986328125,-14982.2236328125,2694.924560546875,13000.96484375,2733.866455078125,-6875.99169921875,4212.8564453125,5098.18408203125,6784.59765625,4340.8076171875,3194.80908203125,-4232.724609375,-11393.2294921875,-5826.9501953125,2001.92138671875,-3771.781982421875,0.0,-5908.80712890625,0.0,-6672.541015625,-11453.62890625,3906.8857421875,-9741.783203125,0.0,-14335.314453125,-1677.6719970703125,0.0,-6520.748046875,0.0,5131.5625,-0.0,-5795.95556640625
