-5416.0751953125,-5730.78759765625,11858.1455078125,-8010.8642578125,6932.41748046875,2707.640380859375,3636.677978515625,-5721.2509765625,0.0,-4661.0830078125,-2191.066650390625,-13659.0,0.0,0.0,0.0,-3414.94873046875,2710.8193359375,11882.7822265625,-0.0,-414.84832763671875,6057.42138671875,9582.8369140625,7222.49365234375,3006.458251953125,2770.423828125,-7192.29345703125,-5868.27587890625,7138.25244140625,-1331.965087890625,-3142.35693359375,10039.01171875,-6646.31494140625,9089.310546875,7642.1103515625,5778.4716796875,7918.67529296875,2934.9326171875,-1231.03466796875,5272.2294921875,-0.0,4809.69775390625,-15012.423828125,2946.853515625,12865.861328125,2770.423828125,-6883.939453125,4200.935546875,4937.64892578125,6901.4228515625,4227.16162109375,3223.419189453125,-4324.1181640625,-11458.396484375,-6309.3505859375,2124.3095703125,-3485.6796875,0.0,-5955.6962890625,0.0,-6673.3359375,-11790.5927734375,3817.08154296875,-9797.4140625,0.0,-14377.4345703125,-1846.94921875,0.0,-7015.0693359375,0.0,4988.51171875,-0.0,-5888.93896484375
-5397.001953125,-5734.76171875,11851.787109375,-8010.8642578125,6930.828125,2708.43505859375,3639.062255859375,-5719.66162109375,0.0,-4659.494140625,-2204.5771484375,-13666.1533203125,0.0,0.0,0.0,-3411.769775390625,2706.05078125,11883.576171875,-0.0,-410.0799560546875,6055.83203125,9579.658203125,7224.0830078125,3008.842529296875,2768.83447265625,-7197.85693359375,-5868.27587890625,7139.841796875,-1335.9388427734375,-3150.30419921875,10037.421875,-6652.67333984375,9086.1318359375,7638.93115234375,5778.4716796875,7913.9072265625,2936.522216796875,-1227.855712890625,5257.1298828125,-0.0,4804.13427734375,-15020.3701171875,2947.648193359375,12867.451171875,2772.013427734375,-6882.349609375,4196.1669921875,4936.0595703125,6898.244140625,4227.16162109375,3225.803466796875,-4322.52880859375,-11457.6025390625,-6319.681640625,2121.130615234375,-3497.6005859375,0.0,-5957.28564453125,0.0,-6671.74658203125,-11782.646484375,3816.286865234375,-9796.619140625,0.0,-14377.4345703125,-1851.7176513671875,0.0,-7009.50634765625,0.0,4993.27978515625,-0.0,-5884.17041015625
-5377.1337890625,-5736.35107421875,11850.9931640625,-8014.04296875,6932.41748046875,2707.640380859375,3639.062255859375,-5718.86669921875,0.0,-4657.904296875,-2206.16650390625,-13666.947265625,0.0,0.0,0.0,-3411.769775390625,2706.05078125,11882.7822265625,-0.0,-407.6957702636719,6055.83203125,9578.8642578125,7224.8779296875,3011.2265625,2767.2451171875,-7199.4462890625,-5867.4814453125,7142.2255859375,-1337.5281982421875,-3145.53564453125,10038.216796875,-6651.08349609375,9085.337890625,7638.13623046875,5778.4716796875,7913.9072265625,2938.111572265625,-1227.855712890625,5256.3349609375,-0.0,4805.7236328125,-15024.3447265625,2948.443115234375,12869.0400390625,2772.80810546875,-6883.14453125,4192.98779296875,4933.67529296875,6898.244140625,4227.9560546875,3226.59814453125,-4320.14453125,-11463.9599609375,-6322.86083984375,2118.74658203125,-3492.832275390625,0.0,-5958.875,0.0,-6672.541015625,-11787.4140625,3817.08154296875,-9795.029296875,0.0,-14371.8720703125,-1855.6912841796875,0.0,-7011.890625,0.0,4994.869140625,-0.0,-5883.37548828125
-5374.74951171875,-5737.9404296875,11846.224609375,-8017.22216796875,6933.21240234375,2706.05078125,3639.85693359375,-5720.45654296875,0.0,-4658.69921875,-2199.013916015625,-13667.7431640625,0.0,0.0,0.0,-3414.154052734375,2704.46142578125,11882.7822265625,-0.0,-406.9010314941406,6052.65283203125,9578.068359375,7222.49365234375,3009.63720703125,2770.423828125,-7201.0361328125,-5867.4814453125,7141.43115234375,-1339.11767578125,-3149.509521484375,10039.806640625,-6648.69921875,9082.953125,7635.75244140625,5776.88232421875,7914.70263671875,2938.906494140625,-1227.855712890625,5256.3349609375,-0.0,4804.13427734375,-15027.5234375,2948.443115234375,12867.451171875,2772.013427734375,-6884.73388671875,4187.42529296875,4933.67529296875,6901.4228515625,4230.34033203125,3228.1875,-4320.939453125,-11471.1123046875,-6331.6025390625,2119.541259765625,-3488.063720703125,0.0,-5961.25927734375,0.0,-6674.130859375,-11785.8251953125,3815.491943359375,-9795.029296875,0.0,-14370.2822265625,-1852.5123291015625,0.0,-7016.65869140625,0.0,4994.07421875,-0.0,-5885.759765625
-5382.69677734375,-5742.70849609375,11843.044921875,-8019.6064453125,6930.033203125,2702.0771484375,3636.677978515625,-5722.8408203125,0.0,-4658.69921875,-2197.424560546875,-13667.7431640625,0.0,0.0,0.0,-3415.74365234375,2701.282470703125,11878.8076171875,-0.0,-409.28521728515625,6050.2685546875,9574.890625,7219.314453125,3006.458251953125,2765.655517578125,-7203.419921875,-5869.0703125,7137.45751953125,-1343.09130859375,-3149.509521484375,10032.654296875,-6655.0576171875,9082.158203125,7629.39453125,5772.90869140625,7909.93408203125,2935.727294921875,-1230.2398681640625,5257.1298828125,-0.0,4800.955078125,-15030.701171875,2946.853515625,12863.4765625,2769.629150390625,-6886.3232421875,4186.63037109375,4930.49609375,6897.44970703125,4227.16162109375,3225.803466796875,-4324.1181640625,-11481.4443359375,-6332.3974609375,2115.5673828125,-3492.832275390625,0.0,-5963.6435546875,0.0,-6674.130859375,-11792.1826171875,3812.31298828125,-9798.208984375,0.0,-14375.05078125,-1850.9229736328125,0.0,-7018.248046875,0.0,4992.48486328125,-0.0,-5888.93896484375
-5405.744140625,-5745.8876953125,11839.8662109375,-8025.16943359375,6924.47021484375,2698.103759765625,3636.677978515625,-5726.814453125,0.0,-4660.28857421875,-2197.424560546875,-13670.9208984375,0.0,0.0,0.0,-3418.92236328125,2695.719482421875,11874.0400390625,-0.0,-412.4641418457031,6045.50048828125,9568.5322265625,7215.34130859375,3000.895263671875,2763.271240234375,-7210.57275390625,-5870.66015625,7134.27880859375,-1343.885986328125,-3151.098876953125,10027.8857421875,-6661.4150390625,9075.80078125,7625.4208984375,5767.34521484375,7903.57568359375,2934.137939453125,-1233.4188232421875,5258.71875,-0.0,4796.18701171875,-15037.8544921875,2943.6748046875,12860.2978515625,2768.039794921875,-6891.091796875,4178.6826171875,4926.52294921875,6892.68115234375,4220.8037109375,3225.803466796875,-4328.09228515625,-11482.23828125,-6333.98681640625,2114.772705078125,-3496.805908203125,0.0,-5966.822265625,0.0,-6676.51513671875,-11798.541015625,3808.33935546875,-9802.1826171875,0.0,-14379.0244140625,-1855.6912841796875,0.0,-7021.42724609375,0.0,4990.8955078125,-0.0,-5888.93896484375
-5432.7646484375,-5754.62939453125,11827.1513671875,-8033.91162109375,6918.1123046875,2692.54052734375,3634.293701171875,-5729.1982421875,0.0,-4662.67236328125,-2204.5771484375,-13684.431640625,0.0,0.0,0.0,-3421.306640625,2686.1826171875,11866.88671875,-0.0,-413.2588806152344,6035.96337890625,9561.3798828125,7209.77783203125,2996.126953125,2755.32421875,-7222.49365234375,-5873.04443359375,7130.3046875,-1350.243896484375,-3161.430419921875,10020.732421875,-6668.56787109375,9064.6748046875,7616.6787109375,5760.19287109375,7896.42333984375,2933.34326171875,-1237.3924560546875,5239.6455078125,-0.0,4785.85595703125,-15045.8017578125,2941.29052734375,12854.7353515625,2768.83447265625,-6893.47607421875,4164.3779296875,4916.19091796875,6887.91259765625,4213.6513671875,3222.62451171875,-4331.2705078125,-11483.828125,-6345.90771484375,2106.82568359375,-3503.16357421875,0.0,-5970.0009765625,0.0,-6678.8994140625,-11810.4619140625,3804.365966796875,-9805.361328125,0.0,-14385.3828125,-1867.6121826171875,0.0,-7017.45361328125,0.0,4993.27978515625,-0.0,-5886.5546875
-5439.12255859375,-5763.3720703125,11819.203125,-8037.884765625,6914.93359375,2690.951171875,3635.088623046875,-5729.9931640625,0.0,-4662.67236328125,-2207.756103515625,-13688.4052734375,0.0,0.0,0.0,-3421.306640625,2683.003662109375,11863.708984375,-0.0,-414.0535888671875,6031.990234375,9558.201171875,7208.98291015625,2994.537353515625,2752.14501953125,-7224.0830078125,-5873.04443359375,7128.71533203125,-1354.217529296875,-3162.22509765625,10015.96484375,-6672.541015625,9060.7001953125,7613.5,5757.80859375,7895.62890625,2933.34326171875,-1238.1871337890625,5225.34033203125,-0.0,4783.4716796875,-15047.390625,2941.29052734375,12853.1455078125,2768.039794921875,-6893.47607421875,4161.19921875,4913.01220703125,6884.73388671875,4212.0615234375,3224.2138671875,-4330.47607421875,-11498.927734375,-6347.49755859375,2103.646484375,-3502.368896484375,0.0,-5970.7958984375,0.0,-6679.69384765625,-11834.3037109375,3801.186767578125,-9804.56640625,0.0,-14390.9453125,-1874.7647705078125,0.0,-7015.0693359375,0.0,4995.6640625,-0.0,-5885.759765625
-5422.43359375,-5767.34521484375,11818.4091796875,-8041.064453125,6914.138671875,2687.77197265625,3635.088623046875,-5733.171875,0.0,-4664.26220703125,-2206.96142578125,-13686.0205078125,0.0,0.0,0.0,-3419.717041015625,2679.0302734375,11861.32421875,-0.0,-411.6694030761719,6028.81103515625,9555.0224609375,7206.5986328125,2990.563720703125,2752.93994140625,-7231.2353515625,-5872.24951171875,7127.1259765625,-1351.8333740234375,-3174.14599609375,10015.169921875,-6675.72021484375,9056.7275390625,7609.5263671875,5756.21923828125,7893.24462890625,2933.34326171875,-1241.3660888671875,5219.77734375,-0.0,4782.6767578125,-15052.955078125,2940.495849609375,12849.171875,2768.83447265625,-6895.0654296875,4161.99365234375,4909.83349609375,6883.14453125,4208.8828125,3224.2138671875,-4333.65478515625,-11489.3916015625,-6350.67626953125,2106.82568359375,-3503.95849609375,0.0,-5972.38525390625,0.0,-6680.48876953125,-11843.044921875,3798.008056640625,-9806.15625,0.0,-14396.5078125,-1875.5594482421875,0.0,-7018.248046875,0.0,4994.07421875,-0.0,-5884.96533203125
-5420.04931640625,-5768.9345703125,11816.8193359375,-8044.24267578125,6912.54931640625,2684.59326171875,3631.90966796875,-5737.14599609375,0.0,-4665.8515625,-2203.7822265625,-13686.0205078125,0.0,0.0,0.0,-3421.306640625,2675.85107421875,11856.5556640625,-0.0,-412.4641418457031,6025.63232421875,9551.8427734375,7204.21435546875,2986.590087890625,2756.11865234375,-7233.61962890625,-5873.04443359375,7123.947265625,-1347.8597412109375,-3174.94091796875,10010.4013671875,-6680.48876953125,9053.5478515625,7606.34765625,5754.62939453125,7889.27099609375,2930.958984375,-1243.750244140625,5216.5986328125,-0.0,4780.29248046875,-15056.927734375,2938.111572265625,12848.376953125,2768.039794921875,-6899.83349609375,4159.609375,4909.03857421875,6879.96533203125,4206.49853515625,3221.82958984375,-4336.833984375,-11475.0859375,-6353.06005859375,2110.799072265625,-3519.852783203125,0.0,-5975.564453125,0.0,-6680.48876953125,-11827.1513671875,3794.8291015625,-9808.5400390625,0.0,-14402.072265625,-1875.5594482421875,0.0,-7024.6064453125,0.0,4991.68994140625,-0.0,-5884.96533203125
-5426.40673828125,-5768.9345703125,11812.845703125,-8045.037109375,6910.9599609375,2680.619384765625,3631.90966796875,-5740.32470703125,0.0,-4669.8251953125,-2210.14013671875,-13683.63671875,0.0,0.0,0.0,-3426.86962890625,2672.67236328125,11854.9658203125,-0.0,-413.2588806152344,6023.248046875,9551.0478515625,7203.419921875,2983.4111328125,2752.14501953125,-7236.798828125,-5876.22314453125,7121.56298828125,-1353.4227294921875,-3172.556640625,10008.8115234375,-6687.64111328125,9051.1640625,7601.5791015625,5751.451171875,7886.09228515625,2930.958984375,-1246.92919921875,5218.18798828125,-0.0,4777.11328125,-15064.8759765625,2937.31689453125,12846.787109375,2767.2451171875,-6902.2177734375,4154.04638671875,4912.2177734375,6878.3759765625,4203.3193359375,3221.034912109375,-4338.42333984375,-11472.7021484375,-6356.2392578125,2106.03076171875,-3542.900146484375,0.0,-5980.3330078125,0.0,-6684.4619140625,-11805.693359375,3794.0341796875,-9809.3349609375,0.0,-14411.6083984375,-1872.380615234375,0.0,-7030.1689453125,0.0,4986.921875,-0.0,-5886.5546875
-5435.14892578125,-5782.4453125,11810.4619140625,-8048.216796875,6906.19140625,2676.64599609375,3631.114990234375,-5743.50341796875,0.0,-4673.00390625,-2225.239990234375,-13687.6103515625,0.0,0.0,0.0,-3431.637939453125,2670.2880859375,11850.9931640625,-0.0,-414.0535888671875,6020.86376953125,9546.2802734375,7201.83056640625,2981.02685546875,2743.403076171875,-7236.798828125,-5878.607421875,7118.3837890625,-1361.3701171875,-3174.14599609375,10006.427734375,-6690.8203125,9048.779296875,7599.19482421875,5747.47705078125,7882.91259765625,2930.958984375,-1246.92919921875,5218.18798828125,-0.0,4773.93505859375,-15072.822265625,2936.522216796875,12843.6083984375,2764.86083984375,-6905.39697265625,4153.25146484375,4916.98583984375,6873.607421875,4201.73046875,3221.82958984375,-4341.6025390625,-11482.23828125,-6364.98095703125,2098.878173828125,-3532.568603515625,0.0,-5982.716796875,0.0,-6690.8203125,-11808.078125,3791.650146484375,-9810.9248046875,0.0,-14414.787109375,-1873.17529296875,0.0,-7034.9375,0.0,4982.9482421875,-0.0,-5896.09130859375
-5441.5068359375,-5788.80322265625,11815.23046875,-8046.626953125,6906.986328125,2676.64599609375,3631.90966796875,-5743.50341796875,0.0,-4673.00390625,-2226.82958984375,-13689.9951171875,0.0,0.0,0.0,-3429.25390625,2670.2880859375,11853.376953125,-0.0,-414.84832763671875,6020.86376953125,9545.4853515625,7199.4462890625,2980.232177734375,2742.6083984375,-7236.798828125,-5880.197265625,7115.99951171875,-1364.549072265625,-3172.556640625,10005.6337890625,-6689.23046875,9049.5751953125,7600.7841796875,5746.6826171875,7882.1181640625,2930.958984375,-1250.108154296875,5222.16162109375,-0.0,4773.93505859375,-15072.822265625,2934.9326171875,12842.814453125,2765.655517578125,-6908.57568359375,4158.81494140625,4917.7802734375,6874.40234375,4201.73046875,3223.419189453125,-4342.39697265625,-11492.5703125,-6366.57080078125,2096.493896484375,-3523.031982421875,0.0,-5984.30615234375,0.0,-6689.23046875,-11816.8193359375,3790.060791015625,-9810.9248046875,0.0,-14402.072265625,-1881.12255859375,0.0,-7034.9375,0.0,4985.33251953125,-0.0,-5899.2705078125
-5435.943359375,-5783.23974609375,11822.3828125,-8045.037109375,6910.16552734375,2679.0302734375,3634.293701171875,-5739.5302734375,0.0,-4669.8251953125,-2227.624267578125,-13682.841796875,0.0,0.0,0.0,-3425.2802734375,2675.056396484375,11857.3505859375,-0.0,-411.6694030761719,6024.83740234375,9548.6640625,7201.0361328125,2983.4111328125,2746.58203125,-7239.9775390625,-5875.4287109375,7121.56298828125,-1358.191162109375,-3167.788330078125,10009.6064453125,-6685.2568359375,9055.1376953125,7603.96337890625,5749.861328125,7884.50244140625,2932.548583984375,-1246.92919921875,5227.724609375,-0.0,4780.29248046875,-15070.4384765625,2938.906494140625,12845.1982421875,2767.2451171875,-6904.60205078125,4174.70947265625,4913.01220703125,6879.96533203125,4203.3193359375,3222.62451171875,-4338.42333984375,-11496.5439453125,-6360.212890625,2100.4677734375,-3505.5478515625,0.0,-5978.7431640625,0.0,-6683.66748046875,-11818.4091796875,3794.0341796875,-9808.5400390625,0.0,-14388.5615234375,-1872.380615234375,0.0,-7030.9638671875,0.0,4990.8955078125,-0.0,-5896.88623046875
-5432.7646484375,-5780.85546875,11816.0244140625,-8046.626953125,6904.60205078125,2679.0302734375,3634.293701171875,-5741.9140625,0.0,-4669.8251953125,-2230.00830078125,-13684.431640625,0.0,0.0,0.0,-3427.66455078125,2671.877685546875,11852.58203125,-0.0,-411.6694030761719,6021.658203125,9546.2802734375,7198.65185546875,2980.232177734375,2744.992431640625,-7240.7724609375,-5877.01806640625,7119.9736328125,-1359.7806396484375,-3166.993408203125,10005.6337890625,-6686.84619140625,9050.369140625,7600.7841796875,5747.47705078125,7880.5283203125,2931.75390625,-1246.92919921875,5222.9560546875,-0.0,4775.52392578125,-15073.6171875,2937.31689453125,12845.1982421875,2767.2451171875,-6906.986328125,4164.3779296875,4909.83349609375,6875.19677734375,4204.1142578125,3223.419189453125,-4337.62890625,-11501.3125,-6362.59716796875,2097.288818359375,-3504.753173828125,0.0,-5980.3330078125,0.0,-6684.4619140625,-11823.177734375,3791.650146484375,-9809.3349609375,0.0,-14393.330078125,-1871.5858154296875,0.0,-7030.1689453125,0.0,4990.10107421875,-0.0,-5895.29638671875
-5427.20166015625,-5772.11376953125,11816.0244140625,-8041.064453125,6905.39697265625,2682.208984375,3633.4990234375,-5738.7353515625,0.0,-4668.23583984375,-2216.498046875,-13678.8681640625,0.0,0.0,0.0,-3424.4853515625,2673.467041015625,11853.376953125,-0.0,-409.28521728515625,6024.04248046875,9548.6640625,7199.4462890625,2982.616455078125,2745.787353515625,-7233.61962890625,-5877.81298828125,7121.56298828125,-1360.5753173828125,-3162.22509765625,10006.427734375,-6684.4619140625,9051.958984375,7602.37353515625,5749.06689453125,7884.50244140625,2932.548583984375,-1243.750244140625,5223.7509765625,-0.0,4772.34521484375,-15070.4384765625,2938.111572265625,12846.787109375,2768.83447265625,-6906.986328125,4153.25146484375,4916.98583984375,6875.99169921875,4208.087890625,3224.2138671875,-4336.833984375,-11502.90234375,-6360.212890625,2098.878173828125,-3499.190185546875,0.0,-5975.564453125,0.0,-6683.66748046875,-11823.177734375,3791.650146484375,-9807.74609375,0.0,-14395.7138671875,-1865.22802734375,0.0,-7027.78466796875,0.0,4993.27978515625,-0.0,-5890.5283203125
-5436.73828125,-5771.31884765625,11819.203125,-8041.85888671875,6906.986328125,2682.208984375,3633.4990234375,-5740.32470703125,0.0,-4667.44091796875,-2215.703369140625,-13676.484375,0.0,0.0,0.0,-3421.306640625,2674.26171875,11854.9658203125,-0.0,-409.28521728515625,6023.248046875,9547.8701171875,7198.65185546875,2983.4111328125,2748.171630859375,-7233.61962890625,-5877.81298828125,7124.7421875,-1358.191162109375,-3166.19873046875,10004.837890625,-6686.84619140625,9052.75390625,7603.96337890625,5750.65625,7885.296875,2930.958984375,-1243.750244140625,5219.77734375,-0.0,4773.14013671875,-15069.6435546875,2938.111572265625,12846.787109375,2768.039794921875,-6905.39697265625,4157.22509765625,4915.39599609375,6878.3759765625,4208.087890625,3223.419189453125,-4337.62890625,-11518.001953125,-6363.39208984375,2102.851806640625,-3499.190185546875,0.0,-5973.18017578125,0.0,-6681.28369140625,-11820.79296875,3790.85546875,-9808.5400390625,0.0,-14406.83984375,-1863.6385498046875,0.0,-7017.45361328125,0.0,5004.40576171875,-0.0,-5880.99169921875
-5444.685546875,-5768.9345703125,11816.0244140625,-8044.24267578125,6906.986328125,2679.0302734375,3634.293701171875,-5741.9140625,0.0,-4670.6201171875,-2229.213623046875,-13679.6640625,0.0,0.0,0.0,-3425.2802734375,2670.2880859375,11854.171875,-0.0,-411.6694030761719,6021.658203125,9545.4853515625,7198.65185546875,2981.82177734375,2748.96630859375,-7232.82470703125,-5878.607421875,7122.35791015625,-1358.98583984375,-3167.788330078125,10004.837890625,-6687.64111328125,9050.369140625,7602.37353515625,5748.27197265625,7883.7080078125,2930.164306640625,-1246.1343994140625,5216.5986328125,-0.0,4772.34521484375,-15069.6435546875,2937.31689453125,12845.1982421875,2768.039794921875,-6907.78125,4155.6357421875,4913.80712890625,6876.78662109375,4204.1142578125,3222.62451171875,-4339.21826171875,-11517.20703125,-6371.33935546875,2099.673095703125,-3502.368896484375,0.0,-5977.15380859375,0.0,-6684.4619140625,-11817.6142578125,3790.060791015625,-9809.3349609375,0.0,-14408.4287109375,-1870.7911376953125,0.0,-7020.63232421875,0.0,5000.4326171875,-0.0,-5887.349609375
-5442.30126953125,-5760.98779296875,11817.6142578125,-8039.474609375,6908.57568359375,2683.798583984375,3633.4990234375,-5738.7353515625,0.0,-4667.44091796875,-2218.88232421875,-13675.689453125,0.0,0.0,0.0,-3418.92236328125,2673.467041015625,11854.9658203125,-0.0,-408.4905090332031,6024.83740234375,9547.8701171875,7200.2412109375,2985.795166015625,2751.350341796875,-7230.4404296875,-5877.01806640625,7125.53662109375,-1354.217529296875,-3166.19873046875,10008.017578125,-6682.87255859375,9052.75390625,7605.552734375,5748.27197265625,7886.88671875,2931.75390625,-1243.750244140625,5222.9560546875,-0.0,4775.52392578125,-15062.4912109375,2938.111572265625,12848.376953125,2767.2451171875,-6903.0126953125,4158.02001953125,4916.19091796875,6879.1708984375,4209.67724609375,3221.82958984375,-4333.65478515625,-11494.16015625,-6368.955078125,2104.44140625,-3502.368896484375,0.0,-5972.38525390625,0.0,-6679.69384765625,-11820.79296875,3792.44482421875,-9808.5400390625,0.0,-14394.9189453125,-1870.7911376953125,0.0,-7008.71142578125,0.0,5006.7900390625,-0.0,-5879.40234375
-5441.5068359375,-5754.62939453125,11815.23046875,-8032.32177734375,6908.57568359375,2690.15625,3632.70458984375,-5733.966796875,0.0,-4668.23583984375,-2214.90869140625,-13662.974609375,0.0,0.0,0.0,-3418.92236328125,2680.619384765625,11857.3505859375,-0.0,-409.28521728515625,6026.4267578125,9555.0224609375,7203.419921875,2987.384765625,2750.5556640625,-7220.109375,-5878.607421875,7128.71533203125,-1354.217529296875,-3155.867431640625,10011.990234375,-6675.72021484375,9055.931640625,7613.5,5751.451171875,7891.65478515625,2931.75390625,-1241.3660888671875,5240.4404296875,-0.0,4775.52392578125,-15052.955078125,2937.31689453125,12852.3515625,2766.4501953125,-6900.62841796875,4154.8408203125,4922.548828125,6877.5810546875,4214.44580078125,3223.419189453125,-4330.47607421875,-11492.5703125,-6352.265625,2103.646484375,-3496.010986328125,0.0,-5968.412109375,0.0,-6679.69384765625,-11830.330078125,3795.623779296875,-9807.74609375,0.0,-14394.1240234375,-1859.6649169921875,0.0,-7015.86376953125,0.0,4996.45849609375,-0.0,-5888.14404296875
-5441.5068359375,-5757.013671875,11821.587890625,-8024.375,6910.9599609375,2696.51416015625,3634.293701171875,-5729.9931640625,0.0,-4666.646484375,-2212.5244140625,-13657.41015625,0.0,0.0,0.0,-3417.3330078125,2686.977294921875,11860.5302734375,-0.0,-410.87469482421875,6029.60595703125,9561.3798828125,7205.00927734375,2994.537353515625,2752.14501953125,-7208.98291015625,-5877.01806640625,7133.48388671875,-1353.4227294921875,-3151.098876953125,10015.96484375,-6665.388671875,9062.2900390625,7622.2421875,5755.42431640625,7899.60205078125,2931.75390625,-1238.9818115234375,5244.4140625,-0.0,4779.49755859375,-15037.8544921875,2940.495849609375,12856.32421875,2768.039794921875,-6896.65478515625,4160.404296875,4930.49609375,6879.96533203125,4218.41943359375,3225.0087890625,-4328.88671875,-11492.5703125,-6337.9609375,2105.236083984375,-3489.6533203125,0.0,-5961.25927734375,0.0,-6677.3095703125,-11829.53515625,3798.802734375,-9806.15625,0.0,-14402.072265625,-1849.3333740234375,0.0,-7016.65869140625,0.0,4990.10107421875,-0.0,-5896.88623046875
-5453.427734375,-5763.3720703125,11823.177734375,-8021.99072265625,6910.9599609375,2694.924560546875,3635.088623046875,-5727.609375,0.0,-4665.056640625,-2210.934814453125,-13659.0,0.0,0.0,0.0,-3416.538330078125,2685.387939453125,11861.32421875,-0.0,-412.4641418457031,6028.0166015625,9559.791015625,7203.419921875,2994.537353515625,2749.760986328125,-7205.80419921875,-5877.01806640625,7131.099609375,-1355.0123291015625,-3150.30419921875,10015.169921875,-6670.15673828125,9062.2900390625,7622.2421875,5754.62939453125,7900.3974609375,2931.75390625,-1238.9818115234375,5236.466796875,-0.0,4781.08740234375,-15029.9072265625,2939.701171875,12856.32421875,2768.039794921875,-6895.0654296875,4165.17236328125,4931.291015625,6878.3759765625,4219.2138671875,3223.419189453125,-4329.681640625,-11510.0546875,-6330.01318359375,2102.05712890625,-3489.6533203125,0.0,-5958.875,0.0,-6675.72021484375,-11812.845703125,3798.008056640625,-9806.15625,0.0,-14399.6875,-1850.128173828125,0.0,-7016.65869140625,0.0,4987.716796875,-0.0,-5896.09130859375
-5452.6328125,-5760.98779296875,11818.4091796875,-8023.57958984375,6910.9599609375,2695.719482421875,3634.293701171875,-5725.22509765625,0.0,-4662.67236328125,-2214.114013671875,-13660.58984375,0.0,0.0,0.0,-3413.359375,2682.208984375,11859.734375,-0.0,-409.28521728515625,6027.2216796875,9558.201171875,7202.62548828125,2993.74267578125,2747.376708984375,-7202.62548828125,-5881.7861328125,7131.89453125,-1355.8070068359375,-3148.71484375,10015.96484375,-6676.51513671875,9059.111328125,7619.85791015625,5753.04052734375,7898.8076171875,2930.958984375,-1239.776611328125,5237.26123046875,-0.0,4779.49755859375,-15025.138671875,2937.31689453125,12857.119140625,2768.039794921875,-6893.47607421875,4164.3779296875,4927.3173828125,6877.5810546875,4218.41943359375,3223.419189453125,-4328.88671875,-11521.1796875,-6326.03955078125,2098.878173828125,-3491.24267578125,0.0,-5957.28564453125,0.0,-6671.74658203125,-11808.8720703125,3798.802734375,-9806.15625,0.0,-14408.4287109375,-1854.101806640625,0.0,-7014.2744140625,0.0,4991.68994140625,-0.0,-5892.1181640625
-5426.40673828125,-5754.62939453125,11822.3828125,-8019.6064453125,6914.138671875,2698.8984375,3636.677978515625,-5722.0458984375,0.0,-4660.28857421875,-2217.292724609375,-13648.6689453125,0.0,0.0,0.0,-3410.180419921875,2683.798583984375,11862.9140625,-0.0,-406.9010314941406,6028.81103515625,9561.3798828125,7203.419921875,2996.126953125,2748.171630859375,-7194.677734375,-5882.5810546875,7135.8681640625,-1355.0123291015625,-3143.9462890625,10015.169921875,-6670.95166015625,9061.49609375,7625.4208984375,5754.62939453125,7904.3701171875,2931.75390625,-1236.59765625,5233.28759765625,-0.0,4782.6767578125,-15017.986328125,2938.906494140625,12861.0927734375,2770.423828125,-6890.296875,4164.3779296875,4935.2646484375,6881.55517578125,4223.18798828125,3224.2138671875,-4328.09228515625,-11488.5966796875,-6317.29736328125,2100.4677734375,-3484.090087890625,0.0,-5949.33837890625,0.0,-6670.15673828125,-11812.05078125,3801.186767578125,-9804.56640625,0.0,-14423.529296875,-1841.38623046875,0.0,-7007.9169921875,0.0,4992.48486328125,-0.0,-5882.5810546875
-5404.94921875,-5746.6826171875,11824.767578125,-8018.0166015625,6912.54931640625,2699.69287109375,3635.088623046875,-5720.45654296875,0.0,-4654.7255859375,-2222.855712890625,-13651.84765625,0.0,0.0,0.0,-3404.6171875,2686.1826171875,11865.2978515625,-0.0,-405.31158447265625,6030.40087890625,9562.1748046875,7205.80419921875,2998.510986328125,2747.376708984375,-7193.88330078125,-5883.37548828125,7138.25244140625,-1360.5753173828125,-3147.919921875,10015.96484375,-6670.15673828125,9063.0849609375,7625.4208984375,5755.42431640625,7906.75439453125,2932.548583984375,-1234.2135009765625,5229.314453125,-0.0,4785.06103515625,-15011.6279296875,2939.701171875,12863.4765625,2771.218505859375,-6885.5283203125,4166.76171875,4935.2646484375,6880.76025390625,4225.572265625,3224.2138671875,-4322.52880859375,-11473.49609375,-6321.271484375,2100.4677734375,-3483.29541015625,0.0,-5944.56982421875,0.0,-6663.79931640625,-11803.3095703125,3801.981689453125,-9802.9775390625,0.0,-14410.8134765625,-1835.822998046875,0.0,-7003.94287109375,0.0,5001.22705078125,-0.0,-5872.24951171875
-5401.77001953125,-5747.47705078125,11819.203125,-8022.78515625,6910.9599609375,2695.719482421875,3633.4990234375,-5722.0458984375,0.0,-4655.52001953125,-2220.4716796875,-13660.58984375,0.0,0.0,0.0,-3409.3857421875,2680.619384765625,11859.734375,-0.0,-408.4905090332031,6027.2216796875,9558.9951171875,7203.419921875,2994.537353515625,2745.787353515625,-7198.65185546875,-5881.7861328125,7131.89453125,-1361.3701171875,-3152.688232421875,10011.1962890625,-6676.51513671875,9056.7275390625,7619.85791015625,5752.24560546875,7901.19189453125,2931.75390625,-1238.1871337890625,5223.7509765625,-0.0,4781.08740234375,-15014.8076171875,2939.701171875,12857.9140625,2769.629150390625,-6888.70751953125,4167.556640625,4928.90673828125,6878.3759765625,4221.59814453125,3221.82958984375,-4327.29736328125,-11477.470703125,-6323.65576171875,2098.878173828125,-3492.03759765625,0.0,-5952.51708984375,0.0,-6668.56787109375,-11801.7197265625,3799.597412109375,-9807.74609375,0.0,-14393.330078125,-1846.94921875,0.0,-7019.04296875,0.0,4996.45849609375,-0.0,-5876.22314453125
-5407.33349609375,-5747.47705078125,11817.6142578125,-8024.375,6911.75439453125,2694.924560546875,3632.70458984375,-5726.01953125,0.0,-4657.904296875,-2213.319091796875,-13659.794921875,0.0,0.0,0.0,-3410.180419921875,2678.2353515625,11857.3505859375,-0.0,-408.4905090332031,6024.83740234375,9558.201171875,7201.0361328125,2992.153076171875,2746.58203125,-7198.65185546875,-5880.99169921875,7131.89453125,-1359.7806396484375,-3151.098876953125,10009.6064453125,-6678.8994140625,9054.3427734375,7616.6787109375,5749.861328125,7895.62890625,2930.958984375,-1240.5714111328125,5222.9560546875,-0.0,4778.703125,-15021.1650390625,2938.906494140625,12856.32421875,2769.629150390625,-6889.501953125,4167.556640625,4930.49609375,6879.1708984375,4221.59814453125,3221.82958984375,-4329.681640625,-11475.880859375,-6322.06591796875,2098.08349609375,-3492.832275390625,0.0,-5957.28564453125,0.0,-6668.56787109375,-11802.513671875,3796.41845703125,-9809.3349609375,0.0,-14394.1240234375,-1848.5386962890625,0.0,-7021.42724609375,0.0,4995.6640625,-0.0,-5875.4287109375
-5434.3544921875,-5746.6826171875,11814.4345703125,-8025.9638671875,6909.37060546875,2693.335205078125,3631.90966796875,-5729.1982421875,0.0,-4661.8779296875,-2222.855712890625,-13657.41015625,0.0,0.0,0.0,-3414.154052734375,2679.0302734375,11857.3505859375,-0.0,-411.6694030761719,6022.453125,9555.81640625,7200.2412109375,2991.3583984375,2747.376708984375,-7201.83056640625,-5880.99169921875,7131.099609375,-1359.7806396484375,-3146.33056640625,10011.1962890625,-6678.1044921875,9055.1376953125,7617.4736328125,5748.27197265625,7894.83349609375,2929.36962890625,-1240.5714111328125,5229.314453125,-0.0,4775.52392578125,-15025.138671875,2936.522216796875,12856.32421875,2768.039794921875,-6890.296875,4155.6357421875,4931.291015625,6877.5810546875,4219.2138671875,3221.82958984375,-4331.2705078125,-11493.365234375,-6325.2451171875,2099.673095703125,-3493.626953125,0.0,-5959.66943359375,0.0,-6671.74658203125,-11808.078125,3795.623779296875,-9810.1298828125,0.0,-14401.2763671875,-1847.7440185546875,0.0,-7011.095703125,0.0,4998.04833984375,-0.0,-5877.81298828125
-5436.73828125,-5744.29833984375,11812.05078125,-8023.57958984375,6908.57568359375,2693.335205078125,3634.293701171875,-5723.63525390625,0.0,-4655.52001953125,-2226.034912109375,-13651.84765625,0.0,0.0,0.0,-3408.591064453125,2681.414306640625,11858.9404296875,-0.0,-408.4905090332031,6023.248046875,9557.40625,7201.83056640625,2993.74267578125,2741.813720703125,-7198.65185546875,-5882.5810546875,7135.8681640625,-1366.138427734375,-3139.97265625,10012.7861328125,-6676.51513671875,9054.3427734375,7620.65283203125,5749.861328125,7898.8076171875,2930.164306640625,-1237.3924560546875,5222.9560546875,-0.0,4775.52392578125,-15022.7548828125,2936.522216796875,12859.50390625,2768.83447265625,-6886.3232421875,4150.86767578125,4932.08544921875,6875.99169921875,4222.39306640625,3224.2138671875,-4327.29736328125,-11501.3125,-6325.2451171875,2093.315185546875,-3488.8583984375,0.0,-5954.10693359375,0.0,-6665.388671875,-11807.2822265625,3796.41845703125,-9807.74609375,0.0,-14406.044921875,-1844.5650634765625,0.0,-6992.81689453125,0.0,5012.353515625,-0.0,-5862.712890625
-5427.99609375,-5749.06689453125,11816.0244140625,-8023.57958984375,6910.16552734375,2695.719482421875,3634.293701171875,-5723.63525390625,0.0,-4652.34130859375,-2221.2666015625,-13647.8740234375,0.0,0.0,0.0,-3406.206787109375,2682.208984375,11860.5302734375,-0.0,-407.6957702636719,6027.2216796875,9560.5849609375,7202.62548828125,2994.537353515625,2744.19775390625,-7200.2412109375,-5882.5810546875,7138.25244140625,-1362.164794921875,-3139.177978515625,10015.96484375,-6674.130859375,9059.90625,7621.447265625,5753.8349609375,7901.19189453125,2930.958984375,-1235.00830078125,5229.314453125,-0.0,4777.11328125,-15022.7548828125,2938.111572265625,12861.0927734375,2769.629150390625,-6885.5283203125,4159.609375,4929.701171875,6876.78662109375,4224.77734375,3223.419189453125,-4324.1181640625,-11502.1064453125,-6325.2451171875,2097.288818359375,-3483.29541015625,0.0,-5949.33837890625,0.0,-6664.59423828125,-11812.05078125,3795.623779296875,-9806.15625,0.0,-14402.072265625,-1841.38623046875,0.0,-6992.02197265625,0.0,5013.14794921875,-0.0,-5860.32861328125
-5429.5859375,-5750.65625,11826.35546875,-8018.81103515625,6914.138671875,2696.51416015625,3632.70458984375,-5727.609375,0.0,-4659.494140625,-2216.498046875,-13644.6953125,0.0,0.0,0.0,-3414.94873046875,2689.361572265625,11864.5029296875,-0.0,-413.2588806152344,6034.3740234375,9564.55859375,7206.5986328125,2996.126953125,2751.350341796875,-7195.47265625,-5881.7861328125,7135.0732421875,-1355.8070068359375,-3134.40966796875,10019.9384765625,-6665.388671875,9067.8525390625,7626.21533203125,5757.80859375,7905.16552734375,2931.75390625,-1235.802978515625,5238.85107421875,-0.0,4784.26611328125,-15019.576171875,2938.111572265625,12859.50390625,2767.2451171875,-6889.501953125,4169.14599609375,4933.67529296875,6881.55517578125,4223.982421875,3223.419189453125,-4328.88671875,-11505.2861328125,-6315.7080078125,2102.05712890625,-3477.732421875,0.0,-5954.10693359375,0.0,-6674.130859375,-11800.1298828125,3798.008056640625,-9809.3349609375,0.0,-14399.6875,-1837.4124755859375,0.0,-7015.0693359375,0.0,4994.869140625,-0.0,-5881.7861328125
-5414.48583984375,-5752.24560546875,11827.1513671875,-8017.22216796875,6913.34375,2697.308837890625,3632.70458984375,-5727.609375,0.0,-4661.0830078125,-2222.855712890625,-13643.10546875,0.0,0.0,0.0,-3414.154052734375,2688.56689453125,11863.708984375,-0.0,-417.2325134277344,6035.1689453125,9565.353515625,7205.00927734375,2996.126953125,2748.171630859375,-7193.08837890625,-5880.197265625,7136.6630859375,-1358.98583984375,-3133.61474609375,10019.9384765625,-6664.59423828125,9065.46875,7626.21533203125,5757.013671875,7902.78125,2930.958984375,-1237.3924560546875,5231.69873046875,-0.0,4784.26611328125,-15019.576171875,2937.31689453125,12859.50390625,2767.2451171875,-6889.501953125,4170.73583984375,4937.64892578125,6879.96533203125,4224.77734375,3221.82958984375,-4328.88671875,-11504.4912109375,-6310.14501953125,2099.673095703125,-3475.34814453125,0.0,-5949.33837890625,0.0,-6674.92529296875,-11794.5673828125,3798.008056640625,-9810.1298828125,0.0,-14407.634765625,-1831.0546875,0.0,-7019.04296875,0.0,4995.6640625,-0.0,-5882.5810546875
-5422.43359375,-5750.65625,11827.1513671875,-8016.42724609375,6913.34375,2697.308837890625,3632.70458984375,-5726.01953125,0.0,-4659.494140625,-2226.034912109375,-13643.900390625,0.0,0.0,0.0,-3410.180419921875,2688.56689453125,11862.9140625,-0.0,-413.2588806152344,6034.3740234375,9565.353515625,7204.21435546875,2996.921630859375,2744.992431640625,-7194.677734375,-5880.197265625,7137.45751953125,-1363.7542724609375,-3133.61474609375,10019.1435546875,-6663.79931640625,9064.6748046875,7627.01025390625,5757.013671875,7901.986328125,2931.75390625,-1236.59765625,5235.671875,-0.0,4783.4716796875,-15023.548828125,2939.701171875,12861.0927734375,2768.039794921875,-6888.70751953125,4173.91455078125,4940.82763671875,6877.5810546875,4223.982421875,3222.62451171875,-4328.09228515625,-11509.2587890625,-6306.17138671875,2095.69921875,-3478.527099609375,0.0,-5949.33837890625,0.0,-6669.3623046875,-11796.1572265625,3800.39208984375,-9809.3349609375,0.0,-14417.171875,-1835.0283203125,0.0,-7002.353515625,0.0,5007.5849609375,-0.0,-5875.4287109375
-5443.89111328125,-5739.5302734375,11838.27734375,-8013.24853515625,6918.9072265625,2698.8984375,3636.677978515625,-5721.2509765625,0.0,-4657.10986328125,-2230.00830078125,-13643.10546875,0.0,0.0,0.0,-3406.206787109375,2694.924560546875,11870.06640625,-0.0,-409.28521728515625,6038.34765625,9570.1220703125,7209.77783203125,2999.3056640625,2744.19775390625,-7190.7041015625,-5875.4287109375,7138.25244140625,-1361.3701171875,-3128.846435546875,10023.9111328125,-6659.03076171875,9073.4169921875,7634.9580078125,5761.7822265625,7906.75439453125,2934.137939453125,-1234.2135009765625,5255.54052734375,-0.0,4791.41845703125,-15019.576171875,2942.085205078125,12862.6826171875,2770.423828125,-6887.91259765625,4186.63037109375,4941.6220703125,6883.939453125,4224.77734375,3227.392822265625,-4325.7080078125,-11505.2861328125,-6304.58203125,2099.673095703125,-3487.26904296875,0.0,-5948.54345703125,0.0,-6666.978515625,-11801.7197265625,3805.16064453125,-9805.361328125,0.0,-14408.4287109375,-1834.233642578125,0.0,-6994.40625,0.0,5003.611328125,-0.0,-5881.7861328125
-5450.24853515625,-5734.76171875,11841.4560546875,-8012.4541015625,6920.49658203125,2699.69287109375,3635.088623046875,-5721.2509765625,0.0,-4658.69921875,-2230.00830078125,-13643.10546875,0.0,0.0,0.0,-3406.206787109375,2694.1298828125,11869.271484375,-0.0,-410.87469482421875,6039.9375,9570.916015625,7208.1884765625,2998.510986328125,2747.376708984375,-7185.93603515625,-5876.22314453125,7138.25244140625,-1355.0123291015625,-3126.462158203125,10025.5009765625,-6659.03076171875,9075.80078125,7634.9580078125,5762.5771484375,7905.16552734375,2934.9326171875,-1235.00830078125,5257.1298828125,-0.0,4792.21337890625,-15016.396484375,2940.495849609375,12863.4765625,2770.423828125,-6888.70751953125,4188.2197265625,4945.59619140625,6886.3232421875,4225.572265625,3227.392822265625,-4325.7080078125,-11506.875,-6307.7607421875,2103.646484375,-3492.03759765625,0.0,-5948.54345703125,0.0,-6667.77294921875,-11806.48828125,3803.571044921875,-9805.361328125,0.0,-14414.787109375,-1831.8494873046875,0.0,-6999.1748046875,0.0,5002.81689453125,-0.0,-5879.40234375
-5450.24853515625,-5741.119140625,11827.1513671875,-8017.22216796875,6917.31787109375,2695.719482421875,3633.4990234375,-5725.22509765625,0.0,-4661.8779296875,-2226.82958984375,-13644.6953125,0.0,0.0,0.0,-3411.769775390625,2686.977294921875,11864.5029296875,-0.0,-411.6694030761719,6034.3740234375,9566.1474609375,7205.80419921875,2994.537353515625,2751.350341796875,-7189.90966796875,-5877.01806640625,7132.68896484375,-1352.6280517578125,-3152.688232421875,10019.9384765625,-6666.978515625,9065.46875,7628.599609375,5757.013671875,7900.3974609375,2931.75390625,-1238.1871337890625,5236.466796875,-0.0,4788.23974609375,-15022.7548828125,2938.906494140625,12859.50390625,2768.83447265625,-6890.296875,4168.3515625,4944.00634765625,6883.939453125,4218.41943359375,3225.0087890625,-4328.88671875,-11509.2587890625,-6316.5029296875,2107.6201171875,-3495.21630859375,0.0,-5954.10693359375,0.0,-6670.95166015625,-11814.4345703125,3799.597412109375,-9807.74609375,0.0,-14421.1455078125,-1839.796630859375,0.0,-7005.53271484375,0.0,5000.4326171875,-0.0,-5873.04443359375
-5437.53271484375,-5748.27197265625,11818.4091796875,-8023.57958984375,6914.93359375,2692.54052734375,3632.70458984375,-5729.9931640625,0.0,-4665.056640625,-2224.4453125,-13653.4375,0.0,0.0,0.0,-3417.3330078125,2683.003662109375,11862.119140625,-0.0,-414.84832763671875,6029.60595703125,9559.791015625,7203.419921875,2992.153076171875,2750.5556640625,-7201.0361328125,-5878.607421875,7127.92041015625,-1356.6016845703125,-3160.6357421875,10015.169921875,-6674.130859375,9059.111328125,7623.8310546875,5754.62939453125,7896.42333984375,2930.958984375,-1239.776611328125,5222.9560546875,-0.0,4783.4716796875,-15027.5234375,2937.31689453125,12855.529296875,2769.629150390625,-6893.47607421875,4152.45654296875,4937.64892578125,6880.76025390625,4214.44580078125,3223.419189453125,-4334.44970703125,-11504.4912109375,-6322.06591796875,2102.851806640625,-3496.010986328125,0.0,-5965.23291015625,0.0,-6677.3095703125,-11818.4091796875,3795.623779296875,-9810.9248046875,0.0,-14418.76171875,-1849.3333740234375,0.0,-7010.30126953125,0.0,4992.48486328125,-0.0,-5877.81298828125
-5415.28076171875,-5748.27197265625,11815.23046875,-8022.78515625,6914.93359375,2693.335205078125,3631.114990234375,-5733.966796875,0.0,-4669.8251953125,-2212.5244140625,-13649.4638671875,0.0,0.0,0.0,-3422.896240234375,2683.003662109375,11863.708984375,-0.0,-418.82196044921875,6030.40087890625,9559.791015625,7203.419921875,2992.94775390625,2752.14501953125,-7205.00927734375,-5878.607421875,7127.1259765625,-1355.0123291015625,-3150.30419921875,10016.7587890625,-6671.74658203125,9059.111328125,7623.8310546875,5756.21923828125,7898.01318359375,2931.75390625,-1239.776611328125,5221.36669921875,-0.0,4783.4716796875,-15026.728515625,2935.727294921875,12854.7353515625,2768.83447265625,-6897.44970703125,4147.6884765625,4939.23828125,6879.96533203125,4216.03515625,3223.419189453125,-4337.62890625,-11498.1337890625,-6319.681640625,2102.05712890625,-3490.447998046875,0.0,-5970.7958984375,0.0,-6683.66748046875,-11815.23046875,3796.41845703125,-9813.30859375,0.0,-14411.6083984375,-1854.896484375,0.0,-7018.248046875,0.0,4978.974609375,-0.0,-5889.73388671875
-5416.0751953125,-5752.24560546875,11814.4345703125,-8027.5537109375,6910.9599609375,2691.745849609375,3632.70458984375,-5733.171875,0.0,-4666.646484375,-2207.756103515625,-13651.84765625,0.0,0.0,0.0,-3421.306640625,2680.619384765625,11862.119140625,-0.0,-416.4377746582031,6028.0166015625,9559.791015625,7202.62548828125,2992.94775390625,2745.787353515625,-7206.5986328125,-5880.99169921875,7127.1259765625,-1360.5753173828125,-3149.509521484375,10016.7587890625,-6672.541015625,9054.3427734375,7622.2421875,5754.62939453125,7896.42333984375,2933.34326171875,-1238.1871337890625,5215.00927734375,-0.0,4781.08740234375,-15033.0859375,2934.9326171875,12853.9404296875,2768.83447265625,-6896.65478515625,4149.2783203125,4932.08544921875,6876.78662109375,4215.240234375,3222.62451171875,-4336.833984375,-11515.6171875,-6323.65576171875,2098.08349609375,-3493.626953125,0.0,-5967.6171875,0.0,-6678.8994140625,-11809.6669921875,3796.41845703125,-9811.71875,0.0,-14414.787109375,-1858.8701171875,0.0,-7020.63232421875,0.0,4972.61669921875,-0.0,-5888.93896484375
-5434.3544921875,-5759.39794921875,11820.79296875,-8033.1162109375,6911.75439453125,2690.951171875,3631.90966796875,-5729.9931640625,0.0,-4661.8779296875,-2228.4189453125,-13653.4375,0.0,0.0,0.0,-3413.359375,2682.208984375,11862.119140625,-0.0,-412.4641418457031,6028.81103515625,9559.791015625,7204.21435546875,2992.94775390625,2742.6083984375,-7209.77783203125,-5878.607421875,7129.51025390625,-1363.7542724609375,-3147.125244140625,10016.7587890625,-6678.8994140625,9056.7275390625,7619.06298828125,5756.21923828125,7894.83349609375,2933.34326171875,-1238.1871337890625,5218.98291015625,-0.0,4781.08740234375,-15037.0595703125,2937.31689453125,12857.9140625,2768.039794921875,-6895.0654296875,4151.662109375,4927.3173828125,6879.1708984375,4218.41943359375,3222.62451171875,-4330.47607421875,-11523.564453125,-6327.62890625,2095.69921875,-3495.21630859375,0.0,-5963.6435546875,0.0,-6669.3623046875,-11823.9716796875,3796.41845703125,-9806.9501953125,0.0,-14420.349609375,-1857.28076171875,0.0,-7015.86376953125,0.0,4982.9482421875,-0.0,-5893.70703125
-5437.53271484375,-5769.7294921875,11816.8193359375,-8035.50048828125,6909.37060546875,2689.361572265625,3631.90966796875,-5733.171875,0.0,-4665.8515625,-2251.466064453125,-13655.0263671875,0.0,0.0,0.0,-3416.538330078125,2680.619384765625,11861.32421875,-0.0,-414.84832763671875,6027.2216796875,9558.201171875,7203.419921875,2991.3583984375,2739.429443359375,-7216.93017578125,-5877.01806640625,7127.92041015625,-1366.138427734375,-3147.919921875,10016.7587890625,-6681.28369140625,9055.1376953125,7617.4736328125,5753.04052734375,7892.44921875,2930.958984375,-1239.776611328125,5217.3935546875,-0.0,4777.908203125,-15044.2119140625,2936.522216796875,12854.7353515625,2766.4501953125,-6898.244140625,4146.89404296875,4924.93310546875,6877.5810546875,4214.44580078125,3221.82958984375,-4333.65478515625,-11523.564453125,-6330.80810546875,2091.7255859375,-3499.98486328125,0.0,-5964.43798828125,0.0,-6678.1044921875,-11825.5615234375,3794.8291015625,-9809.3349609375,0.0,-14413.197265625,-1858.075439453125,0.0,-7011.095703125,0.0,5002.81689453125,-0.0,-5890.5283203125
-5435.14892578125,-5761.7822265625,11816.0244140625,-8032.32177734375,6910.9599609375,2690.15625,3631.90966796875,-5734.76171875,0.0,-4672.20947265625,-2252.260986328125,-13645.4892578125,0.0,0.0,0.0,-3423.69091796875,2685.387939453125,11863.708984375,-0.0,-416.4377746582031,6028.81103515625,9559.791015625,7205.00927734375,2992.94775390625,2741.01904296875,-7218.51953125,-5876.22314453125,7127.92041015625,-1365.34375,-3140.767333984375,10019.9384765625,-6675.72021484375,9059.90625,7618.2685546875,5756.21923828125,7894.0390625,2930.958984375,-1239.776611328125,5227.724609375,-0.0,4777.908203125,-15048.1865234375,2938.111572265625,12856.32421875,2768.039794921875,-6902.2177734375,4146.89404296875,4925.72802734375,6879.1708984375,4212.0615234375,3223.419189453125,-4337.62890625,-11519.591796875,-6322.86083984375,2092.5205078125,-3493.626953125,0.0,-5964.43798828125,0.0,-6688.43603515625,-11813.640625,3796.41845703125,-9811.71875,0.0,-14396.5078125,-1849.3333740234375,0.0,-7019.04296875,0.0,5001.22705078125,-0.0,-5888.93896484375
-5435.943359375,-5753.04052734375,11814.4345703125,-8029.9375,6914.138671875,2694.1298828125,3631.90966796875,-5733.171875,0.0,-4672.20947265625,-2238.75048828125,-13639.1328125,0.0,0.0,0.0,-3418.92236328125,2686.977294921875,11864.5029296875,-0.0,-414.84832763671875,6031.1953125,9560.5849609375,7207.3935546875,2993.74267578125,2744.19775390625,-7216.1357421875,-5876.22314453125,7131.89453125,-1362.164794921875,-3135.9990234375,10020.732421875,-6670.15673828125,9059.90625,7619.06298828125,5757.80859375,7897.2177734375,2932.548583984375,-1236.59765625,5235.671875,-0.0,4777.908203125,-15052.1591796875,2938.111572265625,12857.9140625,2768.83447265625,-6901.4228515625,4147.6884765625,4931.291015625,6881.55517578125,4216.03515625,3222.62451171875,-4333.65478515625,-11507.669921875,-6318.88720703125,2096.493896484375,-3487.26904296875,0.0,-5962.0537109375,0.0,-6686.0517578125,-11817.6142578125,3800.39208984375,-9810.1298828125,0.0,-14395.7138671875,-1840.5914306640625,0.0,-7024.6064453125,0.0,4998.04833984375,-0.0,-5888.93896484375
-5427.99609375,-5751.451171875,11811.2568359375,-8029.9375,6914.138671875,2694.1298828125,3631.90966796875,-5733.966796875,0.0,-4674.59326171875,-2230.00830078125,-13645.4892578125,0.0,0.0,0.0,-3419.717041015625,2683.798583984375,11865.2978515625,-0.0,-416.4377746582031,6029.60595703125,9559.791015625,7206.5986328125,2992.153076171875,2747.376708984375,-7219.314453125,-5877.81298828125,7131.89453125,-1357.396484375,-3139.97265625,10018.3486328125,-6672.541015625,9056.7275390625,7617.4736328125,5757.013671875,7892.44921875,2931.75390625,-1237.3924560546875,5228.51953125,-0.0,4777.11328125,-15056.1328125,2935.727294921875,12856.32421875,2768.039794921875,-6904.60205078125,4150.86767578125,4932.08544921875,6880.76025390625,4216.03515625,3221.034912109375,-4336.0390625,-11496.5439453125,-6320.4765625,2099.673095703125,-3487.26904296875,0.0,-5965.23291015625,0.0,-6687.64111328125,-11824.767578125,3798.008056640625,-9810.1298828125,0.0,-14397.3037109375,-1846.154541015625,0.0,-7029.37451171875,0.0,4993.27978515625,-0.0,-5896.09130859375
-5427.20166015625,-5753.8349609375,11808.8720703125,-8028.34814453125,6915.72802734375,2695.719482421875,3632.70458984375,-5732.37744140625,0.0,-4670.6201171875,-2223.650634765625,-13646.28515625,0.0,0.0,0.0,-3415.74365234375,2684.59326171875,11866.88671875,-0.0,-413.2588806152344,6030.40087890625,9563.763671875,7206.5986328125,2994.537353515625,2747.376708984375,-7215.34130859375,-5877.01806640625,7135.0732421875,-1358.191162109375,-3132.025390625,10019.9384765625,-6674.92529296875,9055.931640625,7619.85791015625,5760.19287109375,7896.42333984375,2933.34326171875,-1234.2135009765625,5216.5986328125,-0.0,4778.703125,-15053.7490234375,2938.111572265625,12861.0927734375,2768.039794921875,-6901.4228515625,4147.6884765625,4934.4697265625,6883.14453125,4220.8037109375,3223.419189453125,-4331.2705078125,-11497.337890625,-6318.09228515625,2098.878173828125,-3484.090087890625,0.0,-5962.8486328125,0.0,-6684.4619140625,-11817.6142578125,3800.39208984375,-9805.361328125,0.0,-14402.072265625,-1847.7440185546875,0.0,-7027.78466796875,0.0,4997.25341796875,-0.0,-5891.3232421875
-5445.48046875,-5768.9345703125,11806.48828125,-8038.68017578125,6908.57568359375,2686.1826171875,3633.4990234375,-5737.9404296875,0.0,-4673.798828125,-2225.239990234375,-13653.4375,0.0,0.0,0.0,-3423.69091796875,2676.64599609375,11858.9404296875,-0.0,-414.84832763671875,6023.248046875,9555.0224609375,7201.83056640625,2990.563720703125,2739.429443359375,-7222.49365234375,-5879.40234375,7125.53662109375,-1367.7279052734375,-3147.919921875,10013.580078125,-6686.0517578125,9050.369140625,7610.3212890625,5753.04052734375,7890.8603515625,2930.164306640625,-1240.5714111328125,5216.5986328125,-0.0,4775.52392578125,-15060.9013671875,2935.727294921875,12853.1455078125,2766.4501953125,-6904.60205078125,4148.4833984375,4921.75439453125,6875.99169921875,4209.67724609375,3220.240234375,-4337.62890625,-11512.4384765625,-6333.98681640625,2089.34130859375,-3498.395263671875,0.0,-5971.59033203125,0.0,-6690.8203125,-11816.8193359375,3794.8291015625,-9810.9248046875,0.0,-14414.787109375,-1858.075439453125,0.0,-7031.7587890625,0.0,4991.68994140625,-0.0,-5896.88623046875
-5460.58056640625,-5776.88232421875,11802.513671875,-8043.4482421875,6906.986328125,2682.208984375,3632.70458984375,-5740.32470703125,0.0,-4677.7724609375,-2231.597900390625,-13661.384765625,0.0,0.0,0.0,-3430.84326171875,2671.877685546875,11855.76171875,-0.0,-418.0272521972656,6018.47998046875,9550.25390625,7198.65185546875,2986.590087890625,2740.22412109375,-7228.056640625,-5880.197265625,7119.1787109375,-1368.522705078125,-3160.6357421875,10008.8115234375,-6690.8203125,9046.3955078125,7607.14208984375,5749.06689453125,7889.27099609375,2928.57470703125,-1244.544921875,5215.8037109375,-0.0,4769.9609375,-15062.4912109375,2934.137939453125,12847.5830078125,2765.655517578125,-6906.986328125,4143.71484375,4916.98583984375,6873.607421875,4202.52490234375,3220.240234375,-4342.39697265625,-11519.591796875,-6343.5234375,2090.13623046875,-3510.316162109375,0.0,-5978.7431640625,0.0,-6692.40966796875,-11815.23046875,3791.650146484375,-9812.5146484375,0.0,-14416.376953125,-1867.6121826171875,0.0,-7033.34814453125,0.0,4984.53759765625,-0.0,-5902.44921875
-5455.81201171875,-5771.31884765625,11802.513671875,-8037.884765625,6910.16552734375,2684.59326171875,3631.90966796875,-5737.14599609375,0.0,-4678.5673828125,-2230.80322265625,-13659.794921875,0.0,0.0,0.0,-3429.25390625,2674.26171875,11857.3505859375,-0.0,-418.82196044921875,6020.0693359375,9552.6376953125,7201.0361328125,2988.974365234375,2749.760986328125,-7222.49365234375,-5879.40234375,7119.1787109375,-1357.396484375,-3155.072509765625,10011.1962890625,-6688.43603515625,9047.1904296875,7611.11572265625,5749.861328125,7891.65478515625,2929.36962890625,-1242.95556640625,5217.3935546875,-0.0,4770.755859375,-15053.7490234375,2935.727294921875,12849.171875,2765.655517578125,-6905.39697265625,4138.9462890625,4920.95947265625,6875.99169921875,4204.90869140625,3221.034912109375,-4342.39697265625,-11518.7958984375,-6341.13916015625,2100.4677734375,-3504.753173828125,0.0,-5975.564453125,0.0,-6691.61474609375,-11814.4345703125,3794.0341796875,-9810.9248046875,0.0,-14405.2509765625,-1862.049072265625,0.0,-7030.9638671875,0.0,4982.9482421875,-0.0,-5903.244140625
-5430.38037109375,-5759.39794921875,11808.078125,-8029.1435546875,6911.75439453125,2690.951171875,3632.70458984375,-5731.58251953125,0.0,-4673.00390625,-2225.239990234375,-13651.0537109375,0.0,0.0,0.0,-3424.4853515625,2679.0302734375,11862.119140625,-0.0,-414.84832763671875,6026.4267578125,9556.611328125,7206.5986328125,2994.537353515625,2752.93994140625,-7213.75146484375,-5876.22314453125,7127.1259765625,-1351.8333740234375,-3145.53564453125,10015.169921875,-6682.078125,9051.1640625,7619.06298828125,5754.62939453125,7898.01318359375,2931.75390625,-1237.3924560546875,5222.9560546875,-0.0,4776.31884765625,-15040.23828125,2938.111572265625,12853.1455078125,2768.039794921875,-6901.4228515625,4141.33056640625,4929.701171875,6879.96533203125,4210.47216796875,3222.62451171875,-4336.833984375,-11512.4384765625,-6328.423828125,2104.44140625,-3496.010986328125,0.0,-5968.412109375,0.0,-6686.0517578125,-11812.845703125,3798.802734375,-9806.9501953125,0.0,-14406.044921875,-1852.5123291015625,0.0,-7019.837890625,0.0,4990.8955078125,-0.0,-5893.70703125
-5422.43359375,-5755.42431640625,11808.8720703125,-8030.73193359375,6911.75439453125,2690.15625,3633.4990234375,-5731.58251953125,0.0,-4668.23583984375,-2225.239990234375,-13651.0537109375,0.0,0.0,0.0,-3421.306640625,2677.440673828125,11862.119140625,-0.0,-411.6694030761719,6028.0166015625,9555.81640625,7205.80419921875,2995.33203125,2750.5556640625,-7212.162109375,-5877.01806640625,7129.51025390625,-1354.217529296875,-3147.125244140625,10013.580078125,-6682.87255859375,9051.958984375,7617.4736328125,5753.8349609375,7898.01318359375,2930.958984375,-1236.59765625,5219.77734375,-0.0,4777.908203125,-15039.4443359375,2938.111572265625,12854.7353515625,2767.2451171875,-6897.44970703125,4144.509765625,4924.93310546875,6877.5810546875,4212.0615234375,3223.419189453125,-4336.0390625,-11513.2333984375,-6322.86083984375,2104.44140625,-3498.395263671875,0.0,-5964.43798828125,0.0,-6682.078125,-11819.203125,3797.21337890625,-9806.9501953125,0.0,-14413.9931640625,-1853.30712890625,0.0,-7016.65869140625,0.0,4995.6640625,-0.0,-5888.93896484375
-5435.14892578125,-5757.80859375,11811.2568359375,-8030.73193359375,6913.34375,2691.745849609375,3631.114990234375,-5732.37744140625,0.0,-4670.6201171875,-2226.034912109375,-13648.6689453125,0.0,0.0,0.0,-3421.306640625,2676.64599609375,11861.32421875,-0.0,-414.0535888671875,6027.2216796875,9557.40625,7205.80419921875,2993.74267578125,2752.14501953125,-7208.98291015625,-5875.4287109375,7129.51025390625,-1352.6280517578125,-3147.125244140625,10013.580078125,-6682.87255859375,9053.5478515625,7615.08935546875,5753.8349609375,7898.8076171875,2931.75390625,-1235.802978515625,5223.7509765625,-0.0,4777.908203125,-15037.8544921875,2938.906494140625,12855.529296875,2767.2451171875,-6898.244140625,4151.662109375,4928.90673828125,6877.5810546875,4212.0615234375,3223.419189453125,-4336.0390625,-11508.46484375,-6325.2451171875,2104.44140625,-3501.57421875,0.0,-5965.23291015625,0.0,-6683.66748046875,-11819.203125,3797.21337890625,-9806.9501953125,0.0,-14419.5556640625,-1852.5123291015625,0.0,-7019.837890625,0.0,4992.48486328125,-0.0,-5891.3232421875
-5467.73291015625,-5764.16650390625,11808.078125,-8032.32177734375,6911.75439453125,2692.54052734375,3633.4990234375,-5729.1982421875,0.0,-4665.056640625,-2236.3662109375,-13659.0,0.0,0.0,0.0,-3418.127685546875,2675.85107421875,11863.708984375,-0.0,-409.28521728515625,6027.2216796875,9555.81640625,7204.21435546875,2994.537353515625,2741.813720703125,-7209.77783203125,-5877.01806640625,7130.3046875,-1363.7542724609375,-3154.27783203125,10013.580078125,-6686.84619140625,9049.5751953125,7615.08935546875,5754.62939453125,7899.60205078125,2934.137939453125,-1234.2135009765625,5215.8037109375,-0.0,4775.52392578125,-15035.4697265625,2938.111572265625,12857.9140625,2768.039794921875,-6893.47607421875,4146.09912109375,4927.3173828125,6876.78662109375,4213.6513671875,3224.2138671875,-4332.0654296875,-11514.8232421875,-6349.8818359375,2095.69921875,-3503.16357421875,0.0,-5963.6435546875,0.0,-6677.3095703125,-11817.6142578125,3801.981689453125,-9801.3876953125,0.0,-14432.271484375,-1856.4859619140625,0.0,-7014.2744140625,0.0,4999.6376953125,-0.0,-5884.96533203125
-5484.42236328125,-5771.31884765625,11802.513671875,-8032.32177734375,6909.37060546875,2693.335205078125,3635.88330078125,-5726.814453125,0.0,-4662.67236328125,-2246.69775390625,-13661.384765625,0.0,0.0,0.0,-3420.511962890625,2675.056396484375,11866.88671875,-0.0,-405.31158447265625,6023.248046875,9557.40625,7206.5986328125,2996.921630859375,2729.09814453125,-7209.77783203125,-5880.197265625,7131.099609375,-1376.469970703125,-3152.688232421875,10015.169921875,-6690.025390625,9046.3955078125,7615.88427734375,5756.21923828125,7901.986328125,2934.9326171875,-1233.4188232421875,5211.830078125,-0.0,4772.34521484375,-15034.67578125,2939.701171875,12858.7080078125,2769.629150390625,-6890.296875,4138.9462890625,4924.138671875,6876.78662109375,4214.44580078125,3225.0087890625,-4330.47607421875,-11532.306640625,-6353.85498046875,2080.599609375,-3499.98486328125,0.0,-5964.43798828125,0.0,-6677.3095703125,-11829.53515625,3803.571044921875,-9802.1826171875,0.0,-14441.013671875,-1862.049072265625,0.0,-7020.63232421875,0.0,4992.48486328125,-0.0,-5889.73388671875
-5477.26953125,-5782.4453125,11807.2822265625,-8029.1435546875,6911.75439453125,2698.103759765625,3635.088623046875,-5724.43017578125,0.0,-4663.46728515625,-2245.1083984375,-13662.1787109375,0.0,0.0,0.0,-3417.3330078125,2678.2353515625,11870.861328125,-0.0,-407.6957702636719,6026.4267578125,9561.3798828125,7208.98291015625,3000.895263671875,2732.27685546875,-7207.3935546875,-5878.607421875,7135.0732421875,-1374.0858154296875,-3154.27783203125,10020.732421875,-6689.23046875,9052.75390625,7618.2685546875,5758.603515625,7905.16552734375,2934.9326171875,-1230.2398681640625,5212.625,-0.0,4776.31884765625,-15031.4970703125,2937.31689453125,12861.8876953125,2766.4501953125,-6887.91259765625,4146.09912109375,4924.93310546875,6879.96533203125,4218.41943359375,3223.419189453125,-4328.88671875,-11548.201171875,-6349.0869140625,2082.983642578125,-3497.6005859375,0.0,-5961.25927734375,0.0,-6675.72021484375,-11846.224609375,3804.365966796875,-9802.1826171875,0.0,-14437.8349609375,-1858.075439453125,0.0,-7016.65869140625,0.0,4993.27978515625,-0.0,-5890.5283203125
-5458.99072265625,-5780.85546875,11813.640625,-8029.1435546875,6913.34375,2698.8984375,3633.4990234375,-5726.01953125,0.0,-4665.056640625,-2246.69775390625,-13664.5634765625,0.0,0.0,0.0,-3415.74365234375,2680.619384765625,11869.271484375,-0.0,-412.4641418457031,6029.60595703125,9561.3798828125,7208.1884765625,3000.895263671875,2737.04541015625,-7208.1884765625,-5877.01806640625,7135.0732421875,-1370.112060546875,-3153.483154296875,10020.732421875,-6686.0517578125,9056.7275390625,7618.2685546875,5757.80859375,7903.57568359375,2932.548583984375,-1229.445068359375,5209.44580078125,-0.0,4778.703125,-15032.291015625,2938.111572265625,12861.0927734375,2767.2451171875,-6890.296875,4147.6884765625,4924.138671875,6879.96533203125,4219.2138671875,3221.82958984375,-4328.88671875,-11553.7646484375,-6337.9609375,2090.13623046875,-3499.190185546875,0.0,-5959.66943359375,0.0,-6675.72021484375,-11857.3505859375,3803.571044921875,-9803.771484375,0.0,-14432.271484375,-1862.049072265625,0.0,-7010.30126953125,0.0,4999.6376953125,-0.0,-5888.14404296875
-5450.24853515625,-5768.14013671875,11809.6669921875,-8029.9375,6910.9599609375,2699.69287109375,3634.293701171875,-5722.0458984375,0.0,-4655.52001953125,-2250.67138671875,-13666.1533203125,0.0,0.0,0.0,-3407.00146484375,2679.82470703125,11866.88671875,-0.0,-404.516845703125,6028.81103515625,9559.791015625,7206.5986328125,3000.895263671875,2730.6875,-7209.77783203125,-5880.99169921875,7138.25244140625,-1376.469970703125,-3152.688232421875,10019.1435546875,-6685.2568359375,9052.75390625,7619.06298828125,5756.21923828125,7902.78125,2931.75390625,-1227.855712890625,5206.26708984375,-0.0,4776.31884765625,-15034.67578125,2938.906494140625,12862.6826171875,2768.83447265625,-6887.91259765625,4140.53564453125,4924.138671875,6875.99169921875,4221.59814453125,3221.82958984375,-4323.32373046875,-11558.533203125,-6329.21826171875,2082.983642578125,-3496.805908203125,0.0,-5954.9013671875,0.0,-6663.79931640625,-11836.6884765625,3803.571044921875,-9798.208984375,0.0,-14433.8603515625,-1862.8438720703125,0.0,-6992.81689453125,0.0,5020.30029296875,-0.0,-5863.5078125
-5435.943359375,-5755.42431640625,11806.48828125,-8026.75927734375,6910.9599609375,2702.0771484375,3632.70458984375,-5718.072265625,0.0,-4650.75146484375,-2235.571533203125,-13655.822265625,0.0,0.0,0.0,-3399.848876953125,2680.619384765625,11865.2978515625,-0.0,-401.33795166015625,6028.0166015625,9563.763671875,7208.1884765625,3002.484619140625,2736.250732421875,-7205.00927734375,-5880.197265625,7142.2255859375,-1370.9068603515625,-3147.125244140625,10020.732421875,-6682.87255859375,9051.958984375,7622.2421875,5758.603515625,7903.57568359375,2932.548583984375,-1227.0609130859375,5211.830078125,-0.0,4778.703125,-15033.880859375,2938.111572265625,12865.06640625,2767.2451171875,-6883.939453125,4142.919921875,4929.701171875,6875.99169921875,4223.18798828125,3223.419189453125,-4318.55517578125,-11537.869140625,-6318.88720703125,2088.546875,-3490.447998046875,0.0,-5950.927734375,0.0,-6659.82568359375,-11812.845703125,3804.365966796875,-9796.619140625,0.0,-14420.349609375,-1854.896484375,0.0,-6984.86962890625,0.0,5034.60546875,-0.0,-5852.38134765625
-5427.99609375,-5746.6826171875,11808.078125,-8027.5537109375,6913.34375,2698.103759765625,3631.90966796875,-5726.814453125,0.0,-4666.646484375,-2226.82958984375,-13647.0791015625,0.0,0.0,0.0,-3414.94873046875,2680.619384765625,11864.5029296875,-0.0,-411.6694030761719,6028.81103515625,9563.763671875,7206.5986328125,2997.71630859375,2746.58203125,-7205.00927734375,-5876.22314453125,7135.8681640625,-1358.98583984375,-3139.177978515625,10019.1435546875,-6683.66748046875,9053.5478515625,7620.65283203125,5756.21923828125,7901.986328125,2930.958984375,-1232.6240234375,5212.625,-0.0,4778.703125,-15037.0595703125,2938.111572265625,12860.2978515625,2766.4501953125,-6895.0654296875,4146.89404296875,4932.88037109375,6877.5810546875,4220.0087890625,3221.82958984375,-4326.50244140625,-11513.2333984375,-6311.73486328125,2098.878173828125,-3489.6533203125,0.0,-5959.66943359375,0.0,-6675.72021484375,-11805.693359375,3798.802734375,-9804.56640625,0.0,-14407.634765625,-1850.9229736328125,0.0,-7011.890625,0.0,5000.4326171875,-0.0,-5888.14404296875
-5420.04931640625,-5740.32470703125,11814.4345703125,-8024.375,6916.52294921875,2700.48779296875,3631.90966796875,-5725.22509765625,0.0,-4669.8251953125,-2218.08740234375,-13637.54296875,0.0,0.0,0.0,-3414.94873046875,2683.798583984375,11867.6826171875,-0.0,-414.84832763671875,6033.57958984375,9564.55859375,7208.1884765625,2997.71630859375,2754.529296875,-7201.83056640625,-5874.6337890625,7137.45751953125,-1350.243896484375,-3131.230712890625,10023.1171875,-6678.8994140625,9058.31640625,7623.03662109375,5757.80859375,7904.3701171875,2930.958984375,-1233.4188232421875,5218.18798828125,-0.0,4781.8818359375,-15033.880859375,2939.701171875,12861.8876953125,2767.2451171875,-6895.0654296875,4152.45654296875,4938.44384765625,6883.14453125,4222.39306640625,3222.62451171875,-4327.29736328125,-11498.1337890625,-6304.58203125,2107.6201171875,-3485.6796875,0.0,-5956.4912109375,0.0,-6678.1044921875,-11805.693359375,3801.981689453125,-9805.361328125,0.0,-14398.09765625,-1842.9755859375,0.0,-7014.2744140625,0.0,4990.8955078125,-0.0,-5898.4755859375
-5424.8173828125,-5747.47705078125,11812.05078125,-8027.5537109375,6914.138671875,2698.8984375,3631.90966796875,-5726.01953125,0.0,-4667.44091796875,-2220.4716796875,-13640.7216796875,0.0,0.0,0.0,-3412.564453125,2682.208984375,11866.88671875,-0.0,-412.4641418457031,6030.40087890625,9562.96875,7205.00927734375,2996.921630859375,2745.787353515625,-7202.62548828125,-5874.6337890625,7137.45751953125,-1358.98583984375,-3133.61474609375,10019.9384765625,-6683.66748046875,9055.1376953125,7621.447265625,5756.21923828125,7902.78125,2930.164306640625,-1233.4188232421875,5218.98291015625,-0.0,4780.29248046875,-15033.880859375,2938.906494140625,12864.2724609375,2767.2451171875,-6893.47607421875,4152.45654296875,4934.4697265625,6879.96533203125,4220.8037109375,3224.2138671875,-4327.29736328125,-11501.3125,-6310.14501953125,2100.4677734375,-3488.063720703125,0.0,-5956.4912109375,0.0,-6675.72021484375,-11813.640625,3800.39208984375,-9806.15625,0.0,-14400.482421875,-1846.154541015625,0.0,-7008.71142578125,0.0,4998.04833984375,-0.0,-5888.93896484375
-5435.943359375,-5759.39794921875,11808.8720703125,-8033.1162109375,6910.9599609375,2698.8984375,3635.088623046875,-5726.814453125,0.0,-4663.46728515625,-2227.624267578125,-13647.8740234375,0.0,0.0,0.0,-3409.3857421875,2679.0302734375,11865.2978515625,-0.0,-410.0799560546875,6026.4267578125,9560.5849609375,7203.419921875,2996.126953125,2736.250732421875,-7206.5986328125,-5877.81298828125,7138.25244140625,-1369.3173828125,-3142.35693359375,10018.3486328125,-6688.43603515625,9051.1640625,7615.88427734375,5752.24560546875,7900.3974609375,2930.958984375,-1231.03466796875,5215.00927734375,-0.0,4774.7294921875,-15038.6494140625,2936.522216796875,12862.6826171875,2768.039794921875,-6891.091796875,4145.30419921875,4928.90673828125,6875.99169921875,4220.0087890625,3225.0087890625,-4326.50244140625,-11506.875,-6322.86083984375,2089.34130859375,-3491.24267578125,0.0,-5958.080078125,0.0,-6671.74658203125,-11824.767578125,3798.802734375,-9805.361328125,0.0,-14413.197265625,-1854.896484375,0.0,-6999.1748046875,0.0,5007.5849609375,-0.0,-5880.197265625
-5441.5068359375,-5760.98779296875,11808.078125,-8030.73193359375,6910.16552734375,2699.69287109375,3635.088623046875,-5723.63525390625,0.0,-4657.904296875,-2218.08740234375,-13651.84765625,0.0,0.0,0.0,-3405.411865234375,2677.440673828125,11865.2978515625,-0.0,-407.6957702636719,6026.4267578125,9561.3798828125,7205.80419921875,2997.71630859375,2736.250732421875,-7205.80419921875,-5877.01806640625,7140.63623046875,-1370.9068603515625,-3142.35693359375,10018.3486328125,-6687.64111328125,9051.1640625,7615.08935546875,5753.8349609375,7900.3974609375,2930.958984375,-1230.2398681640625,5218.18798828125,-0.0,4776.31884765625,-15037.0595703125,2936.522216796875,12864.2724609375,2768.039794921875,-6890.296875,4147.6884765625,4928.11181640625,6875.19677734375,4223.18798828125,3222.62451171875,-4324.1181640625,-11504.4912109375,-6326.03955078125,2087.752197265625,-3489.6533203125,0.0,-5954.10693359375,0.0,-6666.978515625,-11827.9453125,3801.186767578125,-9803.771484375,0.0,-14417.9658203125,-1854.896484375,0.0,-7003.1484375,0.0,5013.94287109375,-0.0,-5872.24951171875
-5450.24853515625,-5763.3720703125,11813.640625,-8030.73193359375,6913.34375,2698.103759765625,3634.293701171875,-5724.43017578125,0.0,-4661.8779296875,-2206.16650390625,-13657.41015625,0.0,0.0,0.0,-3407.796142578125,2678.2353515625,11866.88671875,-0.0,-410.87469482421875,6029.60595703125,9561.3798828125,7206.5986328125,2997.71630859375,2741.813720703125,-7205.80419921875,-5875.4287109375,7138.25244140625,-1369.3173828125,-3143.9462890625,10017.5546875,-6686.84619140625,9054.3427734375,7616.6787109375,5755.42431640625,7902.78125,2931.75390625,-1232.6240234375,5218.98291015625,-0.0,4779.49755859375,-15035.4697265625,2938.111572265625,12865.06640625,2767.2451171875,-6891.091796875,4155.6357421875,4929.701171875,6879.1708984375,4223.18798828125,3221.82958984375,-4325.7080078125,-11498.927734375,-6330.80810546875,2090.930908203125,-3492.03759765625,0.0,-5954.9013671875,0.0,-6670.15673828125,-11827.1513671875,3800.39208984375,-9805.361328125,0.0,-14415.58203125,-1856.4859619140625,0.0,-7025.40087890625,0.0,4998.04833984375,-0.0,-5880.99169921875
-5458.99072265625,-5764.96142578125,11813.640625,-8029.9375,6912.54931640625,2698.8984375,3634.293701171875,-5726.01953125,0.0,-4662.67236328125,-2226.82958984375,-13663.7685546875,0.0,0.0,0.0,-3409.3857421875,2678.2353515625,11865.2978515625,-0.0,-411.6694030761719,6028.81103515625,9559.791015625,7205.00927734375,2997.71630859375,2740.22412109375,-7205.00927734375,-5877.01806640625,7137.45751953125,-1367.7279052734375,-3146.33056640625,10018.3486328125,-6688.43603515625,9053.5478515625,7615.08935546875,5753.8349609375,7901.986328125,2931.75390625,-1235.00830078125,5217.3935546875,-0.0,4778.703125,-15032.291015625,2938.111572265625,12861.8876953125,2768.039794921875,-6889.501953125,4153.25146484375,4929.701171875,6878.3759765625,4219.2138671875,3224.2138671875,-4326.50244140625,-11502.90234375,-6337.9609375,2091.7255859375,-3495.21630859375,0.0,-5953.31201171875,0.0,-6668.56787109375,-11827.1513671875,3799.597412109375,-9804.56640625,0.0,-14412.4033203125,-1861.25439453125,0.0,-7016.65869140625,0.0,4989.30615234375,-0.0,-5888.14404296875
-5448.6591796875,-5757.80859375,11819.9990234375,-8023.57958984375,6918.9072265625,2704.46142578125,3634.293701171875,-5722.0458984375,0.0,-4658.69921875,-2232.392578125,-13659.0,0.0,0.0,0.0,-3408.591064453125,2685.387939453125,11867.6826171875,-0.0,-408.4905090332031,6034.3740234375,9565.353515625,7207.3935546875,3001.68994140625,2750.5556640625,-7197.85693359375,-5873.8388671875,7139.841796875,-1356.6016845703125,-3138.383056640625,10022.322265625,-6680.48876953125,9061.49609375,7621.447265625,5759.39794921875,7905.9599609375,2931.75390625,-1227.855712890625,5226.13525390625,-0.0,4783.4716796875,-15026.728515625,2940.495849609375,12867.451171875,2769.629150390625,-6886.3232421875,4160.404296875,4937.64892578125,6883.14453125,4225.572265625,3225.803466796875,-4323.32373046875,-11498.927734375,-6330.80810546875,2102.05712890625,-3489.6533203125,0.0,-5950.1328125,0.0,-6666.978515625,-11823.9716796875,3803.571044921875,-9802.1826171875,0.0,-14396.5078125,-1854.101806640625,0.0,-7003.94287109375,0.0,4998.04833984375,-0.0,-5885.759765625
-5444.685546875,-5763.3720703125,11818.4091796875,-8027.5537109375,6918.1123046875,2702.8720703125,3633.4990234375,-5724.43017578125,0.0,-4659.494140625,-2228.4189453125,-13661.384765625,0.0,0.0,0.0,-3410.180419921875,2681.414306640625,11868.4765625,-0.0,-408.4905090332031,6032.78515625,9562.1748046875,7207.3935546875,2999.3056640625,2752.14501953125,-7202.62548828125,-5873.8388671875,7139.04736328125,-1354.217529296875,-3139.177978515625,10020.732421875,-6682.078125,9059.111328125,7618.2685546875,5757.013671875,7904.3701171875,2930.958984375,-1229.445068359375,5225.34033203125,-0.0,4783.4716796875,-15031.4970703125,2939.701171875,12865.861328125,2768.039794921875,-6887.91259765625,4159.609375,4934.4697265625,6884.73388671875,4223.18798828125,3224.2138671875,-4324.1181640625,-11499.72265625,-6332.3974609375,2105.236083984375,-3491.24267578125,0.0,-5953.31201171875,0.0,-6671.74658203125,-11825.5615234375,3801.186767578125,-9802.9775390625,0.0,-14394.1240234375,-1853.30712890625,0.0,-7007.9169921875,0.0,5002.02197265625,-0.0,-5884.17041015625
-5438.32763671875,-5771.31884765625,11814.4345703125,-8037.09033203125,6916.52294921875,2694.924560546875,3632.70458984375,-5729.1982421875,0.0,-4666.646484375,-2219.677001953125,-13665.3583984375,0.0,0.0,0.0,-3414.154052734375,2676.64599609375,11862.9140625,-0.0,-410.87469482421875,6027.2216796875,9557.40625,7203.419921875,2995.33203125,2751.350341796875,-7213.75146484375,-5874.6337890625,7134.27880859375,-1355.8070068359375,-3155.072509765625,10015.96484375,-6686.84619140625,9053.5478515625,7611.91015625,5753.04052734375,7896.42333984375,2931.75390625,-1235.00830078125,5229.314453125,-0.0,4781.08740234375,-15045.8017578125,2939.701171875,12859.50390625,2768.83447265625,-6892.68115234375,4159.609375,4923.34375,6883.939453125,4216.82958984375,3225.0087890625,-4327.29736328125,-11499.72265625,-6340.3447265625,2102.851806640625,-3500.779296875,0.0,-5958.080078125,0.0,-6676.51513671875,-11828.740234375,3798.008056640625,-9807.74609375,0.0,-14390.9453125,-1857.28076171875,0.0,-7019.04296875,0.0,4992.48486328125,-0.0,-5892.1181640625
-5443.89111328125,-5780.06103515625,11808.078125,-8046.626953125,6911.75439453125,2689.361572265625,3631.114990234375,-5733.171875,0.0,-4667.44091796875,-2223.650634765625,-13673.3056640625,0.0,0.0,0.0,-3416.538330078125,2670.2880859375,11854.9658203125,-0.0,-408.4905090332031,6020.0693359375,9548.6640625,7200.2412109375,2990.563720703125,2742.6083984375,-7220.90380859375,-5879.40234375,7130.3046875,-1366.138427734375,-3161.430419921875,10008.8115234375,-6694.7939453125,9046.3955078125,7602.37353515625,5747.47705078125,7888.4765625,2930.958984375,-1238.9818115234375,5217.3935546875,-0.0,4773.14013671875,-15056.1328125,2936.522216796875,12853.9404296875,2768.039794921875,-6895.8603515625,4148.4833984375,4914.6015625,6876.78662109375,4211.26708984375,3223.419189453125,-4332.0654296875,-11515.6171875,-6347.49755859375,2093.315185546875,-3514.289794921875,0.0,-5962.0537109375,0.0,-6677.3095703125,-11839.072265625,3794.0341796875,-9809.3349609375,0.0,-14413.197265625,-1860.459716796875,0.0,-7018.248046875,0.0,4994.869140625,-0.0,-5888.93896484375
-5452.6328125,-5774.498046875,11808.078125,-8049.8056640625,6910.16552734375,2686.1826171875,3629.525390625,-5737.14599609375,0.0,-4669.03076171875,-2222.06103515625,-13673.3056640625,0.0,0.0,0.0,-3419.717041015625,2669.493408203125,11854.171875,-0.0,-410.0799560546875,6018.47998046875,9545.4853515625,7197.85693359375,2986.590087890625,2744.992431640625,-7224.8779296875,-5878.607421875,7129.51025390625,-1361.3701171875,-3162.22509765625,10007.22265625,-6694.7939453125,9046.3955078125,7597.60546875,5746.6826171875,7885.296875,2930.164306640625,-1241.3660888671875,5213.41943359375,-0.0,4773.93505859375,-15062.4912109375,2935.727294921875,12850.76171875,2767.2451171875,-6900.62841796875,4152.45654296875,4912.2177734375,6875.99169921875,4210.47216796875,3221.034912109375,-4335.24462890625,-11546.611328125,-6346.70263671875,2097.288818359375,-3515.87939453125,0.0,-5966.02783203125,0.0,-6681.28369140625,-11838.27734375,3790.060791015625,-9812.5146484375,0.0,-14421.939453125,-1859.6649169921875,0.0,-7016.65869140625,0.0,4997.25341796875,-0.0,-5889.73388671875
-5442.30126953125,-5772.90869140625,11816.8193359375,-8047.42138671875,6914.93359375,2689.361572265625,3628.730712890625,-5737.14599609375,0.0,-4671.4150390625,-2211.729736328125,-13674.8955078125,0.0,0.0,0.0,-3419.717041015625,2672.67236328125,11857.3505859375,-0.0,-412.4641418457031,6024.83740234375,9549.458984375,7197.85693359375,2989.76904296875,2754.529296875,-7226.46728515625,-5877.01806640625,7132.68896484375,-1350.243896484375,-3162.22509765625,10009.6064453125,-6689.23046875,9051.1640625,7602.37353515625,5749.06689453125,7886.88671875,2930.958984375,-1240.5714111328125,5229.314453125,-0.0,4780.29248046875,-15065.669921875,2935.727294921875,12850.76171875,2766.4501953125,-6902.2177734375,4167.556640625,4913.01220703125,6882.349609375,4211.26708984375,3219.445556640625,-4334.44970703125,-11514.8232421875,-6349.8818359375,2105.236083984375,-3505.5478515625,0.0,-5968.412109375,0.0,-6682.87255859375,-11836.6884765625,3793.239501953125,-9812.5146484375,0.0,-14393.330078125,-1858.075439453125,0.0,-7017.45361328125,0.0,4998.04833984375,-0.0,-5893.70703125
-5426.40673828125,-5772.90869140625,11819.203125,-8044.24267578125,6915.72802734375,2689.361572265625,3631.114990234375,-5738.7353515625,0.0,-4674.59326171875,-2206.16650390625,-13668.537109375,0.0,0.0,0.0,-3421.306640625,2675.056396484375,11857.3505859375,-0.0,-412.4641418457031,6025.63232421875,9551.8427734375,7199.4462890625,2989.76904296875,2758.5029296875,-7224.0830078125,-5876.22314453125,7131.099609375,-1347.8597412109375,-3157.45654296875,10011.990234375,-6687.64111328125,9054.3427734375,7604.7578125,5749.06689453125,7887.68115234375,2928.57470703125,-1242.1607666015625,5234.08251953125,-0.0,4784.26611328125,-15064.080078125,2937.31689453125,12853.1455078125,2764.86083984375,-6903.80712890625,4174.70947265625,4917.7802734375,6883.939453125,4211.26708984375,3221.82958984375,-4335.24462890625,-11474.2919921875,-6349.8818359375,2108.414794921875,-3502.368896484375,0.0,-5970.0009765625,0.0,-6685.2568359375,-11835.892578125,3794.0341796875,-9812.5146484375,0.0,-14366.3095703125,-1858.8701171875,0.0,-7030.1689453125,0.0,4992.48486328125,-0.0,-5898.4755859375
-5422.43359375,-5772.90869140625,11816.8193359375,-8045.037109375,6915.72802734375,2689.361572265625,3633.4990234375,-5735.55615234375,0.0,-4671.4150390625,-2203.7822265625,-13666.1533203125,0.0,0.0,0.0,-3420.511962890625,2671.082763671875,11855.76171875,-0.0,-410.87469482421875,6023.248046875,9551.0478515625,7198.65185546875,2988.974365234375,2757.708251953125,-7224.0830078125,-5876.22314453125,7131.099609375,-1348.6544189453125,-3156.662109375,10011.1962890625,-6687.64111328125,9051.1640625,7603.16845703125,5747.47705078125,7888.4765625,2930.164306640625,-1240.5714111328125,5228.51953125,-0.0,4781.08740234375,-15064.080078125,2938.906494140625,12853.9404296875,2766.4501953125,-6902.2177734375,4169.94091796875,4918.5751953125,6883.14453125,4212.8564453125,3223.419189453125,-4333.65478515625,-11471.1123046875,-6350.67626953125,2108.414794921875,-3499.98486328125,0.0,-5968.412109375,0.0,-6681.28369140625,-11829.53515625,3794.8291015625,-9810.1298828125,0.0,-14364.7197265625,-1858.8701171875,0.0,-7024.6064453125,0.0,4998.04833984375,-0.0,-5890.5283203125
-5455.81201171875,-5780.85546875,11810.4619140625,-8047.42138671875,6914.138671875,2689.361572265625,3634.293701171875,-5733.966796875,0.0,-4669.03076171875,-2208.55078125,-13671.7158203125,0.0,0.0,0.0,-3418.127685546875,2668.698486328125,11857.3505859375,-0.0,-409.28521728515625,6020.86376953125,9548.6640625,7197.85693359375,2987.384765625,2756.11865234375,-7226.46728515625,-5875.4287109375,7131.89453125,-1351.03857421875,-3163.814453125,10008.8115234375,-6693.9990234375,9047.1904296875,7599.19482421875,5747.47705078125,7888.4765625,2929.36962890625,-1239.776611328125,5217.3935546875,-0.0,4777.908203125,-15064.080078125,2936.522216796875,12853.9404296875,2768.83447265625,-6900.62841796875,4156.4306640625,4914.6015625,6882.349609375,4214.44580078125,3223.419189453125,-4332.0654296875,-11487.0068359375,-6360.212890625,2107.6201171875,-3501.57421875,0.0,-5968.412109375,0.0,-6680.48876953125,-11830.330078125,3793.239501953125,-9810.9248046875,0.0,-14377.4345703125,-1856.4859619140625,0.0,-7019.837890625,0.0,5001.22705078125,-0.0,-5888.93896484375
-5493.1640625,-5784.82958984375,11816.0244140625,-8045.037109375,6916.52294921875,2690.15625,3633.4990234375,-5733.171875,0.0,-4670.6201171875,-2210.14013671875,-13678.07421875,0.0,0.0,0.0,-3416.538330078125,2671.082763671875,11861.32421875,-0.0,-410.0799560546875,6025.63232421875,9549.458984375,7201.0361328125,2992.153076171875,2757.708251953125,-7224.8779296875,-5873.04443359375,7132.68896484375,-1351.03857421875,-3164.609130859375,10013.580078125,-6696.3828125,9051.958984375,7600.7841796875,5750.65625,7892.44921875,2930.164306640625,-1238.1871337890625,5228.51953125,-0.0,4781.8818359375,-15057.72265625,2936.522216796875,12854.7353515625,2768.039794921875,-6898.244140625,4159.609375,4913.80712890625,6883.939453125,4213.6513671875,3222.62451171875,-4332.0654296875,-11496.5439453125,-6367.365234375,2109.209716796875,-3502.368896484375,0.0,-5967.6171875,0.0,-6678.1044921875,-11847.8134765625,3795.623779296875,-9807.74609375,0.0,-14389.35546875,-1862.8438720703125,0.0,-7018.248046875,0.0,4994.869140625,-0.0,-5900.06494140625
-5489.98486328125,-5787.2138671875,11823.177734375,-8041.85888671875,6921.29150390625,2691.745849609375,3633.4990234375,-5733.171875,0.0,-4673.00390625,-2206.16650390625,-13679.6640625,0.0,0.0,0.0,-3419.717041015625,2676.64599609375,11862.9140625,-0.0,-410.87469482421875,6029.60595703125,9554.2265625,7203.419921875,2993.74267578125,2760.092529296875,-7221.69873046875,-5870.66015625,7132.68896484375,-1348.6544189453125,-3163.019775390625,10014.375,-6691.61474609375,9056.7275390625,7605.552734375,5753.04052734375,7895.62890625,2932.548583984375,-1237.3924560546875,5232.4931640625,-0.0,4786.650390625,-15053.7490234375,2939.701171875,12854.7353515625,2768.039794921875,-6899.03857421875,4167.556640625,4913.01220703125,6886.3232421875,4212.8564453125,3224.2138671875,-4335.24462890625,-11493.365234375,-6367.365234375,2111.593994140625,-3501.57421875,0.0,-5966.822265625,0.0,-6683.66748046875,-11851.787109375,3801.981689453125,-9808.5400390625,0.0,-14392.53515625,-1863.6385498046875,0.0,-7023.8115234375,0.0,4984.53759765625,-0.0,-5907.21728515625
-5460.58056640625,-5792.7763671875,11817.6142578125,-8039.474609375,6916.52294921875,2692.54052734375,3632.70458984375,-5729.1982421875,0.0,-4667.44091796875,-2208.55078125,-13678.07421875,0.0,0.0,0.0,-3415.74365234375,2675.85107421875,11862.9140625,-0.0,-406.9010314941406,6026.4267578125,9554.2265625,7202.62548828125,2994.537353515625,2754.529296875,-7216.1357421875,-5873.04443359375,7132.68896484375,-1351.8333740234375,-3162.22509765625,10013.580078125,-6693.20458984375,9052.75390625,7605.552734375,5750.65625,7897.2177734375,2932.548583984375,-1235.00830078125,5225.34033203125,-0.0,4782.6767578125,-15048.98046875,2938.906494140625,12856.32421875,2768.83447265625,-6895.8603515625,4164.3779296875,4914.6015625,6881.55517578125,4214.44580078125,3224.2138671875,-4332.0654296875,-11492.5703125,-6364.1865234375,2106.03076171875,-3501.57421875,0.0,-5959.66943359375,0.0,-6679.69384765625,-11848.609375,3801.186767578125,-9805.361328125,0.0,-14387.7666015625,-1857.28076171875,0.0,-7011.095703125,0.0,4997.25341796875,-0.0,-5889.73388671875
-5433.5595703125,-5794.3662109375,11813.640625,-8040.26904296875,6912.54931640625,2691.745849609375,3631.90966796875,-5729.1982421875,0.0,-4664.26220703125,-2212.5244140625,-13677.279296875,0.0,0.0,0.0,-3415.74365234375,2673.467041015625,11862.119140625,-0.0,-407.6957702636719,6024.04248046875,9552.6376953125,7200.2412109375,2993.74267578125,2750.5556640625,-7216.1357421875,-5877.01806640625,7132.68896484375,-1357.396484375,-3166.993408203125,10013.580078125,-6694.7939453125,9050.369140625,7604.7578125,5749.06689453125,7897.2177734375,2930.958984375,-1235.802978515625,5221.36669921875,-0.0,4777.11328125,-15042.623046875,2938.111572265625,12855.529296875,2768.039794921875,-6894.2705078125,4165.17236328125,4914.6015625,6878.3759765625,4212.8564453125,3224.2138671875,-4330.47607421875,-11490.9814453125,-6363.39208984375,2101.262451171875,-3504.753173828125,0.0,-5958.080078125,0.0,-6675.72021484375,-11847.8134765625,3798.802734375,-9806.15625,0.0,-14384.5869140625,-1858.8701171875,0.0,-7009.50634765625,0.0,5001.22705078125,-0.0,-5887.349609375
-5422.43359375,-5791.1875,11810.4619140625,-8044.24267578125,6910.16552734375,2686.1826171875,3631.114990234375,-5736.35107421875,0.0,-4670.6201171875,-2214.90869140625,-13682.841796875,0.0,0.0,0.0,-3422.896240234375,2670.2880859375,11857.3505859375,-0.0,-412.4641418457031,6020.86376953125,9549.458984375,7196.267578125,2988.179443359375,2748.96630859375,-7221.69873046875,-5878.607421875,7126.33154296875,-1358.98583984375,-3171.76171875,10008.8115234375,-6698.76708984375,9047.9853515625,7602.37353515625,5745.8876953125,7890.8603515625,2929.36962890625,-1242.1607666015625,5222.16162109375,-0.0,4774.7294921875,-15047.390625,2937.31689453125,12848.376953125,2766.4501953125,-6898.244140625,4156.4306640625,4909.03857421875,6878.3759765625,4206.49853515625,3221.034912109375,-4336.833984375,-11496.5439453125,-6363.39208984375,2101.262451171875,-3511.90576171875,0.0,-5964.43798828125,0.0,-6683.66748046875,-11845.4296875,3794.0341796875,-9810.1298828125,0.0,-14383.79296875,-1866.8175048828125,0.0,-7018.248046875,0.0,4990.8955078125,-0.0,-5898.4755859375
-5436.73828125,-5786.4189453125,11808.8720703125,-8045.83251953125,6911.75439453125,2685.387939453125,3631.114990234375,-5737.14599609375,0.0,-4670.6201171875,-2217.292724609375,-13687.6103515625,0.0,0.0,0.0,-3424.4853515625,2668.698486328125,11856.5556640625,-0.0,-412.4641418457031,6020.0693359375,9547.8701171875,7195.47265625,2989.76904296875,2748.96630859375,-7223.2880859375,-5877.01806640625,7123.947265625,-1357.396484375,-3178.914306640625,10007.22265625,-6698.76708984375,9046.3955078125,7603.16845703125,5745.8876953125,7889.27099609375,2928.57470703125,-1241.3660888671875,5216.5986328125,-0.0,4774.7294921875,-15047.390625,2935.727294921875,12848.376953125,2767.2451171875,-6898.244140625,4148.4833984375,4907.44921875,6877.5810546875,4204.1142578125,3221.82958984375,-4337.62890625,-11508.46484375,-6364.98095703125,2100.4677734375,-3512.700439453125,0.0,-5966.822265625,0.0,-6683.66748046875,-11848.609375,3792.44482421875,-9807.74609375,0.0,-14384.5869140625,-1869.9964599609375,0.0,-7020.63232421875,0.0,4990.10107421875,-0.0,-5899.2705078125
-5451.04345703125,-5782.4453125,11810.4619140625,-8038.68017578125,6913.34375,2689.361572265625,3631.90966796875,-5729.9931640625,0.0,-4663.46728515625,-2213.319091796875,-13682.0478515625,0.0,0.0,0.0,-3416.538330078125,2669.493408203125,11860.5302734375,-0.0,-406.9010314941406,6022.453125,9551.8427734375,7199.4462890625,2993.74267578125,2751.350341796875,-7216.93017578125,-5876.22314453125,7127.92041015625,-1353.4227294921875,-3169.377685546875,10010.4013671875,-6699.56201171875,9046.3955078125,7604.7578125,5748.27197265625,7894.0390625,2930.958984375,-1236.59765625,5211.03515625,-0.0,4777.11328125,-15040.23828125,2938.111572265625,12853.1455078125,2765.655517578125,-6894.2705078125,4150.07275390625,4913.80712890625,6879.96533203125,4208.8828125,3221.82958984375,-4334.44970703125,-11504.4912109375,-6361.802734375,2102.851806640625,-3507.931884765625,0.0,-5962.0537109375,0.0,-6676.51513671875,-11847.01953125,3796.41845703125,-9806.15625,0.0,-14387.7666015625,-1862.8438720703125,0.0,-7015.0693359375,0.0,4998.04833984375,-0.0,-5888.93896484375
-5455.81201171875,-5785.6240234375,11814.4345703125,-8036.2958984375,6914.93359375,2692.54052734375,3631.114990234375,-5726.01953125,0.0,-4659.494140625,-2211.729736328125,-13675.689453125,0.0,0.0,0.0,-3413.359375,2671.082763671875,11862.119140625,-0.0,-402.1326599121094,6024.83740234375,9555.0224609375,7201.83056640625,2995.33203125,2753.734619140625,-7214.54638671875,-5876.22314453125,7133.48388671875,-1353.4227294921875,-3163.019775390625,10011.990234375,-6697.97265625,9048.779296875,7607.93701171875,5749.06689453125,7897.2177734375,2931.75390625,-1234.2135009765625,5214.21435546875,-0.0,4778.703125,-15037.8544921875,2939.701171875,12855.529296875,2768.83447265625,-6888.70751953125,4154.8408203125,4920.95947265625,6879.96533203125,4213.6513671875,3222.62451171875,-4330.47607421875,-11494.9541015625,-6373.7236328125,2106.03076171875,-3507.13720703125,0.0,-5958.080078125,0.0,-6671.74658203125,-11839.072265625,3800.39208984375,-9803.771484375,0.0,-14393.330078125,-1857.28076171875,0.0,-7011.890625,0.0,5002.81689453125,-0.0,-5884.96533203125
-5446.275390625,-5780.85546875,11816.8193359375,-8036.2958984375,6918.9072265625,2698.103759765625,3632.70458984375,-5724.43017578125,0.0,-4658.69921875,-2207.756103515625,-13675.689453125,0.0,0.0,0.0,-3410.180419921875,2676.64599609375,11866.0927734375,-0.0,-401.33795166015625,6028.0166015625,9558.201171875,7204.21435546875,2997.71630859375,2756.11865234375,-7212.95703125,-5873.04443359375,7137.45751953125,-1351.03857421875,-3159.046142578125,10017.5546875,-6692.40966796875,9054.3427734375,7610.3212890625,5752.24560546875,7901.19189453125,2932.548583984375,-1231.829345703125,5223.7509765625,-0.0,4781.8818359375,-15038.6494140625,2939.701171875,12858.7080078125,2767.2451171875,-6887.11767578125,4157.22509765625,4921.75439453125,6881.55517578125,4216.03515625,3224.2138671875,-4327.29736328125,-11486.212890625,-6370.54443359375,2107.6201171875,-3505.5478515625,0.0,-5956.4912109375,0.0,-6670.95166015625,-11831.1240234375,3802.7763671875,-9802.9775390625,0.0,-14392.53515625,-1859.6649169921875,0.0,-7005.53271484375,0.0,5005.9951171875,-0.0,-5880.197265625
-5440.7119140625,-5777.67724609375,11816.8193359375,-8037.09033203125,6920.49658203125,2700.48779296875,3635.088623046875,-5722.8408203125,0.0,-4658.69921875,-2206.96142578125,-13672.5107421875,0.0,0.0,0.0,-3409.3857421875,2677.440673828125,11867.6826171875,-0.0,-402.1326599121094,6029.60595703125,9560.5849609375,7205.00927734375,2997.71630859375,2755.32421875,-7211.3671875,-5870.66015625,7138.25244140625,-1349.44921875,-3157.45654296875,10018.3486328125,-6687.64111328125,9056.7275390625,7610.3212890625,5756.21923828125,7901.986328125,2932.548583984375,-1229.445068359375,5228.51953125,-0.0,4784.26611328125,-15040.23828125,2941.29052734375,12860.2978515625,2768.039794921875,-6888.70751953125,4159.609375,4919.3701171875,6886.3232421875,4218.41943359375,3224.2138671875,-4325.7080078125,-11482.23828125,-6357.0341796875,2107.6201171875,-3500.779296875,0.0,-5955.6962890625,0.0,-6670.95166015625,-11833.5087890625,3802.7763671875,-9801.3876953125,0.0,-14385.3828125,-1855.6912841796875,0.0,-7003.94287109375,0.0,5007.5849609375,-0.0,-5877.81298828125
-5452.6328125,-5780.06103515625,11817.6142578125,-8038.68017578125,6919.7021484375,2698.103759765625,3635.088623046875,-5726.01953125,0.0,-4659.494140625,-2206.96142578125,-13675.689453125,0.0,0.0,0.0,-3414.154052734375,2678.2353515625,11866.0927734375,-0.0,-401.33795166015625,6029.60595703125,9558.9951171875,7205.80419921875,2997.71630859375,2753.734619140625,-7215.34130859375,-5873.8388671875,7136.6630859375,-1353.4227294921875,-3160.6357421875,10019.1435546875,-6689.23046875,9057.521484375,7611.11572265625,5756.21923828125,7900.3974609375,2934.9326171875,-1231.03466796875,5227.724609375,-0.0,4785.06103515625,-15047.390625,2940.495849609375,12859.50390625,2768.83447265625,-6891.091796875,4161.99365234375,4918.5751953125,6885.5283203125,4217.62451171875,3225.0087890625,-4326.50244140625,-11495.7490234375,-6353.06005859375,2105.236083984375,-3500.779296875,0.0,-5958.080078125,0.0,-6674.130859375,-11838.27734375,3802.7763671875,-9801.3876953125,0.0,-14377.4345703125,-1861.25439453125,0.0,-7010.30126953125,0.0,5004.40576171875,-0.0,-5882.5810546875
-5448.6591796875,-5771.31884765625,11818.4091796875,-8035.50048828125,6922.880859375,2702.0771484375,3635.88330078125,-5725.22509765625,0.0,-4658.69921875,-2205.371826171875,-13669.33203125,0.0,0.0,0.0,-3411.769775390625,2682.208984375,11870.06640625,-0.0,-397.3642883300781,6031.1953125,9562.96875,7208.1884765625,3001.68994140625,2756.11865234375,-7211.3671875,-5875.4287109375,7139.04736328125,-1352.6280517578125,-3155.867431640625,10023.9111328125,-6685.2568359375,9058.31640625,7612.705078125,5758.603515625,7903.57568359375,2934.9326171875,-1227.855712890625,5230.10888671875,-0.0,4785.85595703125,-15045.0068359375,2942.085205078125,12861.0927734375,2769.629150390625,-6889.501953125,4163.58349609375,4926.52294921875,6884.73388671875,4221.59814453125,3225.803466796875,-4324.9130859375,-11498.927734375,-6346.70263671875,2108.414794921875,-3496.805908203125,0.0,-5956.4912109375,0.0,-6673.3359375,-11837.482421875,3805.16064453125,-9799.00390625,0.0,-14378.23046875,-1861.25439453125,0.0,-7007.9169921875,0.0,5007.5849609375,-0.0,-5882.5810546875
-5448.6591796875,-5772.90869140625,11819.203125,-8037.884765625,6921.29150390625,2698.8984375,3633.4990234375,-5726.01953125,0.0,-4661.8779296875,-2206.16650390625,-13671.7158203125,0.0,0.0,0.0,-3413.359375,2681.414306640625,11870.06640625,-0.0,-398.9537658691406,6032.78515625,9561.3798828125,7207.3935546875,2999.3056640625,2757.708251953125,-7216.93017578125,-5874.6337890625,7137.45751953125,-1351.03857421875,-3159.046142578125,10022.322265625,-6682.87255859375,9058.31640625,7609.5263671875,5757.80859375,7901.986328125,2934.137939453125,-1227.855712890625,5227.724609375,-0.0,4785.85595703125,-15050.5703125,2941.29052734375,12860.2978515625,2769.629150390625,-6891.091796875,4163.58349609375,4923.34375,6886.3232421875,4220.0087890625,3225.0087890625,-4325.7080078125,-11498.1337890625,-6353.06005859375,2110.00439453125,-3500.779296875,0.0,-5962.0537109375,0.0,-6674.92529296875,-11850.9931640625,3802.7763671875,-9800.59375,0.0,-14379.8193359375,-1862.8438720703125,0.0,-7012.68505859375,0.0,5004.40576171875,-0.0,-5887.349609375
-5436.73828125,-5787.2138671875,11816.8193359375,-8041.064453125,6919.7021484375,2696.51416015625,3633.4990234375,-5728.40380859375,0.0,-4666.646484375,-2203.7822265625,-13675.689453125,0.0,0.0,0.0,-3414.94873046875,2679.0302734375,11867.6826171875,-0.0,-402.1326599121094,6031.1953125,9560.5849609375,7205.00927734375,2997.71630859375,2756.913330078125,-7220.109375,-5874.6337890625,7135.0732421875,-1349.44921875,-3163.019775390625,10017.5546875,-6685.2568359375,9055.931640625,7607.14208984375,5753.8349609375,7898.8076171875,2932.548583984375,-1232.6240234375,5218.98291015625,-0.0,4786.650390625,-15054.5439453125,2939.701171875,12857.9140625,2769.629150390625,-6893.47607421875,4163.58349609375,4916.98583984375,6887.91259765625,4216.82958984375,3223.419189453125,-4327.29736328125,-11491.775390625,-6359.41845703125,2109.209716796875,-3503.95849609375,0.0,-5964.43798828125,0.0,-6676.51513671875,-11861.32421875,3800.39208984375,-9805.361328125,0.0,-14383.79296875,-1863.6385498046875,0.0,-7018.248046875,0.0,5001.22705078125,-0.0,-5892.91259765625
-5430.38037109375,-5792.7763671875,11817.6142578125,-8037.09033203125,6923.67578125,2698.8984375,3637.472900390625,-5723.63525390625,0.0,-4661.8779296875,-2202.98779296875,-13673.3056640625,0.0,0.0,0.0,-3409.3857421875,2680.619384765625,11870.861328125,-0.0,-398.9537658691406,6031.1953125,9563.763671875,7208.1884765625,3000.100341796875,2759.297607421875,-7215.34130859375,-5874.6337890625,7140.63623046875,-1347.06494140625,-3158.25146484375,10020.732421875,-6686.84619140625,9059.111328125,7610.3212890625,5757.80859375,7902.78125,2934.9326171875,-1229.445068359375,5220.57177734375,-0.0,4789.0341796875,-15051.365234375,2942.8798828125,12861.8876953125,2772.80810546875,-6891.091796875,4164.3779296875,4921.75439453125,6892.68115234375,4221.59814453125,3227.392822265625,-4324.1181640625,-11491.775390625,-6355.4443359375,2110.799072265625,-3499.98486328125,0.0,-5960.46435546875,0.0,-6673.3359375,-11850.1982421875,3805.16064453125,-9801.3876953125,0.0,-14386.1767578125,-1861.25439453125,0.0,-7011.095703125,0.0,5009.17431640625,-0.0,-5884.96533203125
-5425.61181640625,-5780.06103515625,11820.79296875,-8033.91162109375,6926.0595703125,2702.0771484375,3636.677978515625,-5721.2509765625,0.0,-4659.494140625,-2209.345458984375,-13671.7158203125,0.0,0.0,0.0,-3407.796142578125,2683.003662109375,11874.0400390625,-0.0,-398.9537658691406,6034.3740234375,9567.7373046875,7208.98291015625,3003.279541015625,2760.88720703125,-7208.1884765625,-5871.45458984375,7143.8154296875,-1347.06494140625,-3156.662109375,10025.5009765625,-6684.4619140625,9061.49609375,7615.88427734375,5760.19287109375,7906.75439453125,2936.522216796875,-1225.471435546875,5229.314453125,-0.0,4792.21337890625,-15045.0068359375,2941.29052734375,12863.4765625,2772.80810546875,-6887.91259765625,4172.3251953125,4923.34375,6893.47607421875,4221.59814453125,3226.59814453125,-4322.52880859375,-11483.033203125,-6349.0869140625,2111.593994140625,-3498.395263671875,0.0,-5958.080078125,0.0,-6670.95166015625,-11839.072265625,3807.544677734375,-9799.7978515625,0.0,-14382.203125,-1860.459716796875,0.0,-7007.1220703125,0.0,5009.17431640625,-0.0,-5885.759765625
-5427.20166015625,-5779.2666015625,11816.8193359375,-8035.50048828125,6920.49658203125,2700.48779296875,3635.88330078125,-5724.43017578125,0.0,-4661.0830078125,-2228.4189453125,-13674.8955078125,0.0,0.0,0.0,-3411.769775390625,2679.0302734375,11871.6552734375,-0.0,-401.33795166015625,6031.990234375,9564.55859375,7206.5986328125,3000.100341796875,2756.913330078125,-7211.3671875,-5874.6337890625,7139.841796875,-1348.6544189453125,-3158.25146484375,10023.1171875,-6687.64111328125,9059.111328125,7613.5,5757.80859375,7902.78125,2934.137939453125,-1227.855712890625,5226.93017578125,-0.0,4786.650390625,-15045.0068359375,2939.701171875,12862.6826171875,2768.83447265625,-6890.296875,4173.1201171875,4923.34375,6887.11767578125,4220.0087890625,3225.0087890625,-4323.32373046875,-11487.0068359375,-6351.470703125,2110.00439453125,-3502.368896484375,0.0,-5958.875,0.0,-6673.3359375,-11831.1240234375,3803.571044921875,-9802.1826171875,0.0,-14382.998046875,-1862.049072265625,0.0,-7014.2744140625,0.0,5004.40576171875,-0.0,-5888.14404296875
-5429.5859375,-5776.88232421875,11815.23046875,-8035.50048828125,6917.31787109375,2699.69287109375,3635.88330078125,-5726.01953125,0.0,-4660.28857421875,-2221.2666015625,-13677.279296875,0.0,0.0,0.0,-3414.154052734375,2675.056396484375,11869.271484375,-0.0,-400.543212890625,6028.0166015625,9560.5849609375,7203.419921875,2998.510986328125,2756.11865234375,-7212.95703125,-5873.8388671875,7137.45751953125,-1348.6544189453125,-3156.662109375,10019.9384765625,-6690.8203125,9055.931640625,7611.11572265625,5756.21923828125,7901.19189453125,2933.34326171875,-1231.03466796875,5220.57177734375,-0.0,4783.4716796875,-15045.8017578125,2939.701171875,12862.6826171875,2768.83447265625,-6891.88623046875,4162.78857421875,4924.138671875,6883.939453125,4219.2138671875,3223.419189453125,-4324.9130859375,-11494.16015625,-6357.0341796875,2107.6201171875,-3503.95849609375,0.0,-5961.25927734375,0.0,-6673.3359375,-11823.177734375,3802.7763671875,-9803.771484375,0.0,-14390.9453125,-1861.25439453125,0.0,-7017.45361328125,0.0,5005.20068359375,-0.0,-5886.5546875
-5432.7646484375,-5776.08740234375,11816.0244140625,-8032.32177734375,6915.72802734375,2702.0771484375,3635.088623046875,-5726.01953125,0.0,-4659.494140625,-2215.703369140625,-13670.9208984375,0.0,0.0,0.0,-3414.154052734375,2678.2353515625,11868.4765625,-0.0,-401.33795166015625,6028.81103515625,9562.1748046875,7202.62548828125,2999.3056640625,2748.171630859375,-7207.3935546875,-5874.6337890625,7138.25244140625,-1358.98583984375,-3154.27783203125,10020.732421875,-6691.61474609375,9054.3427734375,7612.705078125,5754.62939453125,7901.986328125,2932.548583984375,-1234.2135009765625,5219.77734375,-0.0,4781.8818359375,-15043.41796875,2939.701171875,12863.4765625,2768.83447265625,-6891.091796875,4161.19921875,4932.08544921875,6881.55517578125,4222.39306640625,3225.0087890625,-4327.29736328125,-11493.365234375,-6354.64990234375,2099.673095703125,-3496.010986328125,0.0,-5955.6962890625,0.0,-6674.92529296875,-11827.1513671875,3802.7763671875,-9804.56640625,0.0,-14396.5078125,-1854.101806640625,0.0,-7035.732421875,0.0,5000.4326171875,-0.0,-5887.349609375
-5439.12255859375,-5782.4453125,11820.79296875,-8029.9375,6913.34375,2702.8720703125,3635.88330078125,-5724.43017578125,0.0,-4661.0830078125,-2226.034912109375,-13670.126953125,0.0,0.0,0.0,-3410.180419921875,2681.414306640625,11870.06640625,-0.0,-400.543212890625,6029.60595703125,9562.96875,7202.62548828125,2999.3056640625,2740.22412109375,-7207.3935546875,-5877.01806640625,7142.2255859375,-1368.522705078125,-3156.662109375,10020.732421875,-6687.64111328125,9056.7275390625,7615.88427734375,5755.42431640625,7901.986328125,2932.548583984375,-1233.4188232421875,5225.34033203125,-0.0,4782.6767578125,-15044.2119140625,2940.495849609375,12862.6826171875,2769.629150390625,-6891.88623046875,4176.298828125,4933.67529296875,6879.96533203125,4225.572265625,3225.803466796875,-4325.7080078125,-11494.9541015625,-6349.8818359375,2091.7255859375,-3494.421630859375,0.0,-5953.31201171875,0.0,-6674.130859375,-11835.0986328125,3803.571044921875,-9803.771484375,0.0,-14395.7138671875,-1857.28076171875,0.0,-7031.7587890625,0.0,4994.869140625,-0.0,-5887.349609375
-5459.78564453125,-5797.544921875,11819.203125,-8037.09033203125,6912.54931640625,2694.924560546875,3633.4990234375,-5728.40380859375,0.0,-4664.26220703125,-2230.80322265625,-13680.4580078125,0.0,0.0,0.0,-3410.180419921875,2675.85107421875,11865.2978515625,-0.0,-404.516845703125,6025.63232421875,9557.40625,7198.65185546875,2995.33203125,2746.58203125,-7222.49365234375,-5878.607421875,7137.45751953125,-1360.5753173828125,-3166.19873046875,10017.5546875,-6692.40966796875,9056.7275390625,7607.14208984375,5749.861328125,7897.2177734375,2930.958984375,-1235.00830078125,5221.36669921875,-0.0,4781.8818359375,-15054.5439453125,2937.31689453125,12857.9140625,2767.2451171875,-6895.0654296875,4170.73583984375,4920.16455078125,6878.3759765625,4216.82958984375,3224.2138671875,-4326.50244140625,-11502.90234375,-6362.59716796875,2098.878173828125,-3508.726806640625,0.0,-5962.0537109375,0.0,-6670.15673828125,-11845.4296875,3798.802734375,-9806.9501953125,0.0,-14402.072265625,-1877.14892578125,0.0,-7019.837890625,0.0,4982.1533203125,-0.0,-5896.09130859375
-5480.4482421875,-5801.51904296875,11808.8720703125,-8046.626953125,6906.19140625,2686.977294921875,3629.525390625,-5733.966796875,0.0,-4666.646484375,-2234.77685546875,-13690.7890625,0.0,0.0,0.0,-3416.538330078125,2667.90380859375,11858.1455078125,-0.0,-405.31158447265625,6018.47998046875,9549.458984375,7193.88330078125,2988.179443359375,2740.22412109375,-7231.2353515625,-5884.17041015625,7130.3046875,-1365.34375,-3170.967041015625,10009.6064453125,-6699.56201171875,9048.779296875,7598.39990234375,5742.70849609375,7890.0654296875,2929.36962890625,-1241.3660888671875,5212.625,-0.0,4772.34521484375,-15064.8759765625,2934.137939453125,12851.5556640625,2765.655517578125,-6899.83349609375,4149.2783203125,4911.4228515625,6872.0185546875,4208.087890625,3223.419189453125,-4334.44970703125,-11526.744140625,-6378.49169921875,2092.5205078125,-3515.08447265625,0.0,-5970.7958984375,0.0,-6675.72021484375,-11866.0927734375,3792.44482421875,-9810.9248046875,0.0,-14410.8134765625,-1887.4803466796875,0.0,-7021.42724609375,0.0,4986.12744140625,-0.0,-5887.349609375
-5468.52734375,-5788.00830078125,11808.8720703125,-8045.83251953125,6906.986328125,2686.977294921875,3631.114990234375,-5738.7353515625,0.0,-4675.38818359375,-2222.06103515625,-13692.37890625,0.0,0.0,0.0,-3426.074951171875,2670.2880859375,11856.5556640625,-0.0,-410.87469482421875,6020.0693359375,9550.25390625,7193.08837890625,2985.00048828125,2746.58203125,-7228.8515625,-5879.40234375,7125.53662109375,-1360.5753173828125,-3163.814453125,10009.6064453125,-6694.7939453125,9048.779296875,7599.19482421875,5745.0927734375,7886.88671875,2928.57470703125,-1245.3397216796875,5221.36669921875,-0.0,4774.7294921875,-15064.080078125,2934.9326171875,12847.5830078125,2766.4501953125,-6906.19140625,4146.89404296875,4913.01220703125,6875.19677734375,4205.70361328125,3221.82958984375,-4342.39697265625,-11534.6904296875,-6383.26025390625,2098.08349609375,-3514.289794921875,0.0,-5977.94873046875,0.0,-6690.025390625,-11868.4765625,3791.650146484375,-9815.693359375,0.0,-14406.044921875,-1886.6856689453125,0.0,-7029.37451171875,0.0,4992.48486328125,-0.0,-5896.09130859375
-5459.78564453125,-5775.29296875,11812.845703125,-8041.064453125,6910.9599609375,2693.335205078125,3634.293701171875,-5737.14599609375,0.0,-4673.00390625,-2210.934814453125,-13684.431640625,0.0,0.0,0.0,-3424.4853515625,2675.85107421875,11859.734375,-0.0,-406.1063232421875,6023.248046875,9555.81640625,7197.06201171875,2989.76904296875,2747.376708984375,-7223.2880859375,-5875.4287109375,7131.099609375,-1358.98583984375,-3154.27783203125,10015.169921875,-6691.61474609375,9052.75390625,7603.96337890625,5748.27197265625,7890.0654296875,2930.164306640625,-1239.776611328125,5226.93017578125,-0.0,4777.11328125,-15060.107421875,2937.31689453125,12853.1455078125,2769.629150390625,-6903.80712890625,4151.662109375,4919.3701171875,6879.1708984375,4211.26708984375,3223.419189453125,-4337.62890625,-11535.4853515625,-6368.955078125,2101.262451171875,-3505.5478515625,0.0,-5973.18017578125,0.0,-6687.64111328125,-11844.634765625,3794.8291015625,-9811.71875,0.0,-14413.197265625,-1877.943603515625,0.0,-7024.6064453125,0.0,5002.02197265625,-0.0,-5894.501953125
-5464.5537109375,-5773.703125,11812.05078125,-8041.064453125,6912.54931640625,2693.335205078125,3634.293701171875,-5734.76171875,0.0,-4671.4150390625,-2215.703369140625,-13675.689453125,0.0,0.0,0.0,-3420.511962890625,2675.85107421875,11862.9140625,-0.0,-405.31158447265625,6024.04248046875,9556.611328125,7200.2412109375,2992.153076171875,2745.787353515625,-7222.49365234375,-5877.01806640625,7133.48388671875,-1358.98583984375,-3159.046142578125,10016.7587890625,-6693.20458984375,9053.5478515625,7605.552734375,5751.451171875,7892.44921875,2930.958984375,-1236.59765625,5226.13525390625,-0.0,4777.11328125,-15061.6962890625,2939.701171875,12857.119140625,2768.83447265625,-6899.83349609375,4153.25146484375,4920.95947265625,6879.1708984375,4215.240234375,3222.62451171875,-4332.0654296875,-11529.1279296875,-6361.0078125,2098.878173828125,-3502.368896484375,0.0,-5970.0009765625,0.0,-6683.66748046875,-11843.044921875,3795.623779296875,-9808.5400390625,0.0,-14417.9658203125,-1866.8175048828125,0.0,-7020.63232421875,0.0,5004.40576171875,-0.0,-5894.501953125
-5458.99072265625,-5777.67724609375,11813.640625,-8037.09033203125,6913.34375,2697.308837890625,3631.90966796875,-5733.171875,0.0,-4672.20947265625,-2211.729736328125,-13670.9208984375,0.0,0.0,0.0,-3420.511962890625,2681.414306640625,11866.0927734375,-0.0,-405.31158447265625,6027.2216796875,9560.5849609375,7202.62548828125,2994.537353515625,2750.5556640625,-7220.109375,-5876.22314453125,7136.6630859375,-1355.0123291015625,-3155.867431640625,10020.732421875,-6686.84619140625,9058.31640625,7609.5263671875,5753.8349609375,7896.42333984375,2932.548583984375,-1235.00830078125,5232.4931640625,-0.0,4778.703125,-15060.9013671875,2939.701171875,12859.50390625,2767.2451171875,-6900.62841796875,4157.22509765625,4925.72802734375,6881.55517578125,4221.59814453125,3222.62451171875,-4328.88671875,-11504.4912109375,-6356.2392578125,2102.05712890625,-3498.395263671875,0.0,-5967.6171875,0.0,-6684.4619140625,-11855.76171875,3798.802734375,-9808.5400390625,0.0,-14404.4560546875,-1862.049072265625,0.0,-7024.6064453125,0.0,4999.6376953125,-0.0,-5899.2705078125
-5440.7119140625,-5780.06103515625,11815.23046875,-8036.2958984375,6917.31787109375,2700.48779296875,3635.088623046875,-5728.40380859375,0.0,-4664.26220703125,-2199.013916015625,-13666.1533203125,0.0,0.0,0.0,-3416.538330078125,2683.798583984375,11870.06640625,-0.0,-399.74847412109375,6030.40087890625,9563.763671875,7205.00927734375,2997.71630859375,2749.760986328125,-7217.72509765625,-5875.4287109375,7141.43115234375,-1356.6016845703125,-3151.8935546875,10024.70703125,-6682.87255859375,9060.7001953125,7611.91015625,5756.21923828125,7899.60205078125,2934.9326171875,-1231.829345703125,5228.51953125,-0.0,4781.8818359375,-15060.107421875,2940.495849609375,12861.8876953125,2768.83447265625,-6898.244140625,4161.99365234375,4927.3173828125,6883.14453125,4223.982421875,3225.0087890625,-4324.9130859375,-11481.4443359375,-6357.0341796875,2101.262451171875,-3497.6005859375,0.0,-5965.23291015625,0.0,-6678.1044921875,-11856.5556640625,3803.571044921875,-9804.56640625,0.0,-14393.330078125,-1858.8701171875,0.0,-7025.40087890625,0.0,5004.40576171875,-0.0,-5887.349609375
-5429.5859375,-5780.85546875,11812.05078125,-8037.09033203125,6916.52294921875,2698.8984375,3635.88330078125,-5730.78759765625,0.0,-4667.44091796875,-2209.345458984375,-13670.126953125,0.0,0.0,0.0,-3418.92236328125,2680.619384765625,11870.06640625,-0.0,-399.74847412109375,6028.0166015625,9562.96875,7204.21435546875,2996.921630859375,2751.350341796875,-7216.93017578125,-5877.01806640625,7138.25244140625,-1356.6016845703125,-3153.483154296875,10021.52734375,-6686.0517578125,9055.931640625,7611.11572265625,5756.21923828125,7896.42333984375,2935.727294921875,-1231.03466796875,5223.7509765625,-0.0,4781.8818359375,-15058.517578125,2939.701171875,12861.0927734375,2770.423828125,-6899.83349609375,4157.22509765625,4925.72802734375,6883.14453125,4220.8037109375,3224.2138671875,-4328.88671875,-11482.23828125,-6355.4443359375,2103.646484375,-3499.190185546875,0.0,-5969.20654296875,0.0,-6684.4619140625,-11839.072265625,3801.981689453125,-9803.771484375,0.0,-14391.740234375,-1861.25439453125,0.0,-7029.37451171875,0.0,4993.27978515625,-0.0,-5890.5283203125
-5434.3544921875,-5776.08740234375,11804.8984375,-8034.7060546875,6914.138671875,2698.103759765625,3635.088623046875,-5733.171875,0.0,-4675.38818359375,-2226.034912109375,-13677.279296875,0.0,0.0,0.0,-3422.101318359375,2679.0302734375,11867.6826171875,-0.0,-405.31158447265625,6024.83740234375,9560.5849609375,7202.62548828125,2995.33203125,2748.96630859375,-7217.72509765625,-5876.22314453125,7134.27880859375,-1358.98583984375,-3159.8408203125,10019.1435546875,-6692.40966796875,9051.958984375,7608.73193359375,5754.62939453125,7898.8076171875,2933.34326171875,-1233.4188232421875,5215.8037109375,-0.0,4777.908203125,-15055.3388671875,2937.31689453125,12857.9140625,2770.423828125,-6903.80712890625,4143.71484375,4926.52294921875,6883.14453125,4220.0087890625,3223.419189453125,-4332.8603515625,-11509.2587890625,-6351.470703125,2102.05712890625,-3501.57421875,0.0,-5970.0009765625,0.0,-6691.61474609375,-11823.9716796875,3801.186767578125,-9806.15625,0.0,-14398.892578125,-1871.5858154296875,0.0,-7030.1689453125,0.0,4986.12744140625,-0.0,-5902.44921875
-5443.89111328125,-5772.90869140625,11807.2822265625,-8037.09033203125,6914.93359375,2697.308837890625,3634.293701171875,-5733.171875,0.0,-4675.38818359375,-2210.14013671875,-13679.6640625,0.0,0.0,0.0,-3418.127685546875,2678.2353515625,11865.2978515625,-0.0,-407.6957702636719,6024.83740234375,9558.201171875,7201.83056640625,2995.33203125,2749.760986328125,-7217.72509765625,-5873.04443359375,7135.0732421875,-1356.6016845703125,-3174.94091796875,10018.3486328125,-6691.61474609375,9051.1640625,7607.14208984375,5749.861328125,7898.01318359375,2931.75390625,-1235.802978515625,5219.77734375,-0.0,4779.49755859375,-15053.7490234375,2938.111572265625,12856.32421875,2768.039794921875,-6903.80712890625,4148.4833984375,4924.138671875,6881.55517578125,4216.82958984375,3225.0087890625,-4332.0654296875,-11526.744140625,-6347.49755859375,2101.262451171875,-3506.342529296875,0.0,-5967.6171875,0.0,-6686.84619140625,-11827.1513671875,3798.802734375,-9808.5400390625,0.0,-14397.3037109375,-1873.17529296875,0.0,-7028.57958984375,0.0,4994.07421875,-0.0,-5900.85986328125
-5458.1962890625,-5768.14013671875,11812.05078125,-8033.1162109375,6914.93359375,2701.282470703125,3636.677978515625,-5726.814453125,0.0,-4668.23583984375,-2202.98779296875,-13670.9208984375,0.0,0.0,0.0,-3408.591064453125,2681.414306640625,11866.88671875,-0.0,-404.516845703125,6028.81103515625,9564.55859375,7202.62548828125,2997.71630859375,2745.787353515625,-7207.3935546875,-5875.4287109375,7139.841796875,-1360.5753173828125,-3171.76171875,10020.732421875,-6687.64111328125,9054.3427734375,7613.5,5752.24560546875,7901.986328125,2932.548583984375,-1231.829345703125,5222.9560546875,-0.0,4781.8818359375,-15043.41796875,2938.906494140625,12861.0927734375,2768.83447265625,-6898.244140625,4153.25146484375,4928.90673828125,6880.76025390625,4220.0087890625,3225.0087890625,-4325.7080078125,-11520.3857421875,-6338.75537109375,2100.4677734375,-3506.342529296875,0.0,-5958.080078125,0.0,-6678.1044921875,-11828.740234375,3801.981689453125,-9805.361328125,0.0,-14396.5078125,-1863.6385498046875,0.0,-7024.6064453125,0.0,4998.8427734375,-0.0,-5892.1181640625
-5455.01708984375,-5764.96142578125,11813.640625,-8029.1435546875,6916.52294921875,2703.666748046875,3635.88330078125,-5721.2509765625,0.0,-4662.67236328125,-2208.55078125,-13668.537109375,0.0,0.0,0.0,-3407.796142578125,2683.003662109375,11870.06640625,-0.0,-402.1326599121094,6031.1953125,9566.1474609375,7205.80419921875,3000.895263671875,2747.376708984375,-7201.83056640625,-5875.4287109375,7142.2255859375,-1359.7806396484375,-3156.662109375,10023.9111328125,-6684.4619140625,9056.7275390625,7619.06298828125,5755.42431640625,7906.75439453125,2934.9326171875,-1227.0609130859375,5225.34033203125,-0.0,4782.6767578125,-15034.67578125,2940.495849609375,12863.4765625,2768.83447265625,-6891.091796875,4154.8408203125,4929.701171875,6883.14453125,4223.18798828125,3225.0087890625,-4321.73388671875,-11516.412109375,-6341.13916015625,2099.673095703125,-3507.931884765625,0.0,-5952.51708984375,0.0,-6673.3359375,-11823.177734375,3807.544677734375,-9802.9775390625,0.0,-14393.330078125,-1856.4859619140625,0.0,-7011.095703125,0.0,5008.37939453125,-0.0,-5886.5546875
-5443.89111328125,-5757.80859375,11814.4345703125,-8027.5537109375,6917.31787109375,2704.46142578125,3635.088623046875,-5718.86669921875,0.0,-4661.0830078125,-2214.90869140625,-13670.126953125,0.0,0.0,0.0,-3408.591064453125,2686.1826171875,11871.6552734375,-0.0,-402.9273986816406,6031.990234375,9569.3271484375,7205.80419921875,3004.07421875,2749.760986328125,-7204.21435546875,-5875.4287109375,7142.2255859375,-1358.191162109375,-3145.53564453125,10024.70703125,-6680.48876953125,9058.31640625,7623.8310546875,5757.80859375,7909.138671875,2935.727294921875,-1227.0609130859375,5231.69873046875,-0.0,4782.6767578125,-15029.11328125,2940.495849609375,12865.06640625,2768.039794921875,-6888.70751953125,4154.04638671875,4929.701171875,6883.939453125,4223.982421875,3225.0087890625,-4322.52880859375,-11529.1279296875,-6337.9609375,2101.262451171875,-3499.98486328125,0.0,-5949.33837890625,0.0,-6670.95166015625,-11818.4091796875,3809.928955078125,-9802.1826171875,0.0,-14394.1240234375,-1854.896484375,0.0,-7005.53271484375,0.0,5006.7900390625,-0.0,-5889.73388671875
-5450.24853515625,-5753.8349609375,11816.8193359375,-8026.75927734375,6918.9072265625,2706.05078125,3635.88330078125,-5717.27734375,0.0,-4660.28857421875,-2218.88232421875,-13665.3583984375,0.0,0.0,0.0,-3406.206787109375,2686.977294921875,11872.451171875,-0.0,-401.33795166015625,6033.57958984375,9568.5322265625,7205.80419921875,3004.86865234375,2750.5556640625,-7196.267578125,-5873.04443359375,7143.8154296875,-1356.6016845703125,-3138.383056640625,10026.2958984375,-6680.48876953125,9057.521484375,7622.2421875,5757.013671875,7912.318359375,2936.522216796875,-1227.0609130859375,5227.724609375,-0.0,4783.4716796875,-15021.9599609375,2941.29052734375,12865.861328125,2770.423828125,-6886.3232421875,4154.8408203125,4931.291015625,6884.73388671875,4225.572265625,3225.0087890625,-4320.939453125,-11519.591796875,-6329.21826171875,2101.262451171875,-3491.24267578125,0.0,-5946.9541015625,0.0,-6669.3623046875,-11824.767578125,3809.13427734375,-9802.1826171875,0.0,-14394.9189453125,-1853.30712890625,0.0,-7003.1484375,0.0,5005.9951171875,-0.0,-5888.14404296875
-5451.837890625,-5757.80859375,11810.4619140625,-8029.9375,6917.31787109375,2706.05078125,3635.088623046875,-5716.482421875,0.0,-4656.31494140625,-2221.2666015625,-13665.3583984375,0.0,0.0,0.0,-3403.02783203125,2683.003662109375,11870.06640625,-0.0,-398.9537658691406,6028.81103515625,9565.353515625,7205.00927734375,3001.68994140625,2746.58203125,-7193.08837890625,-5877.01806640625,7143.8154296875,-1362.164794921875,-3141.562255859375,10023.9111328125,-6682.078125,9054.3427734375,7617.4736328125,5753.8349609375,7910.728515625,2935.727294921875,-1226.2662353515625,5222.9560546875,-0.0,4780.29248046875,-15021.9599609375,2940.495849609375,12865.06640625,2768.83447265625,-6885.5283203125,4149.2783203125,4928.11181640625,6882.349609375,4227.16162109375,3225.0087890625,-4320.14453125,-11496.5439453125,-6332.3974609375,2097.288818359375,-3492.03759765625,0.0,-5944.56982421875,0.0,-6665.388671875,-11841.4560546875,3806.75,-9800.59375,0.0,-14400.482421875,-1854.101806640625,0.0,-6997.58544921875,0.0,5015.5322265625,-0.0,-5877.01806640625
-5443.89111328125,-5763.3720703125,11802.513671875,-8033.91162109375,6914.138671875,2699.69287109375,3634.293701171875,-5722.8408203125,0.0,-4660.28857421875,-2222.855712890625,-13670.9208984375,0.0,0.0,0.0,-3410.180419921875,2675.056396484375,11865.2978515625,-0.0,-401.33795166015625,6023.248046875,9558.9951171875,7201.83056640625,2997.71630859375,2745.787353515625,-7200.2412109375,-5877.81298828125,7138.25244140625,-1365.34375,-3153.483154296875,10017.5546875,-6686.84619140625,9047.9853515625,7612.705078125,5749.861328125,7904.3701171875,2932.548583984375,-1231.03466796875,5215.00927734375,-0.0,4776.31884765625,-15030.701171875,2938.906494140625,12860.2978515625,2768.039794921875,-6890.296875,4148.4833984375,4920.95947265625,6879.96533203125,4220.8037109375,3223.419189453125,-4326.50244140625,-11490.185546875,-6339.5498046875,2095.69921875,-3499.98486328125,0.0,-5953.31201171875,0.0,-6670.95166015625,-11845.4296875,3803.571044921875,-9805.361328125,0.0,-14416.376953125,-1857.28076171875,0.0,-7007.1220703125,0.0,5008.37939453125,-0.0,-5880.197265625
-5455.81201171875,-5766.55078125,11802.513671875,-8035.50048828125,6912.54931640625,2698.103759765625,3632.70458984375,-5724.43017578125,0.0,-4661.0830078125,-2224.4453125,-13671.7158203125,0.0,0.0,0.0,-3411.769775390625,2673.467041015625,11862.119140625,-0.0,-402.1326599121094,6022.453125,9558.201171875,7201.83056640625,2997.71630859375,2742.6083984375,-7201.83056640625,-5875.4287109375,7137.45751953125,-1366.9332275390625,-3152.688232421875,10015.169921875,-6690.8203125,9046.3955078125,7608.73193359375,5749.06689453125,7903.57568359375,2933.34326171875,-1231.829345703125,5210.24072265625,-0.0,4774.7294921875,-15034.67578125,2938.906494140625,12858.7080078125,2769.629150390625,-6891.88623046875,4142.919921875,4921.75439453125,6879.96533203125,4220.0087890625,3225.0087890625,-4325.7080078125,-11490.9814453125,-6343.5234375,2091.7255859375,-3499.98486328125,0.0,-5956.4912109375,0.0,-6674.92529296875,-11841.4560546875,3801.981689453125,-9806.15625,0.0,-14429.88671875,-1861.25439453125,0.0,-7019.04296875,0.0,5003.611328125,-0.0,-5884.17041015625
-5477.26953125,-5772.11376953125,11799.3359375,-8038.68017578125,6909.37060546875,2694.924560546875,3633.4990234375,-5729.1982421875,0.0,-4662.67236328125,-2224.4453125,-13674.099609375,0.0,0.0,0.0,-3412.564453125,2670.2880859375,11860.5302734375,-0.0,-403.7221374511719,6019.2744140625,9555.0224609375,7198.65185546875,2995.33203125,2737.83984375,-7208.1884765625,-5877.81298828125,7135.8681640625,-1368.522705078125,-3159.046142578125,10011.990234375,-6698.76708984375,9042.421875,7603.16845703125,5746.6826171875,7898.8076171875,2933.34326171875,-1233.4188232421875,5207.8564453125,-0.0,4772.34521484375,-15041.828125,2938.111572265625,12854.7353515625,2770.423828125,-6895.8603515625,4136.5625,4919.3701171875,6878.3759765625,4216.82958984375,3225.803466796875,-4326.50244140625,-11501.3125,-6351.470703125,2091.7255859375,-3499.190185546875,0.0,-5958.875,0.0,-6678.8994140625,-11838.27734375,3798.008056640625,-9808.5400390625,0.0,-14413.9931640625,-1864.433349609375,0.0,-7022.22216796875,0.0,5002.81689453125,-0.0,-5886.5546875
-5468.52734375,-5769.7294921875,11804.103515625,-8036.2958984375,6911.75439453125,2697.308837890625,3634.293701171875,-5728.40380859375,0.0,-4665.8515625,-2222.06103515625,-13672.5107421875,0.0,0.0,0.0,-3412.564453125,2674.26171875,11862.9140625,-0.0,-404.516845703125,6022.453125,9557.40625,7198.65185546875,2995.33203125,2743.403076171875,-7208.98291015625,-5877.81298828125,7138.25244140625,-1362.95947265625,-3159.8408203125,10014.375,-6693.20458984375,9047.9853515625,7608.73193359375,5749.06689453125,7898.8076171875,2931.75390625,-1232.6240234375,5215.00927734375,-0.0,4776.31884765625,-15041.0341796875,2938.906494140625,12856.32421875,2770.423828125,-6895.8603515625,4144.509765625,4924.138671875,6880.76025390625,4219.2138671875,3222.62451171875,-4327.29736328125,-11506.0810546875,-6354.64990234375,2096.493896484375,-3498.395263671875,0.0,-5957.28564453125,0.0,-6678.8994140625,-11831.1240234375,3798.008056640625,-9808.5400390625,0.0,-14395.7138671875,-1860.459716796875,0.0,-7019.04296875,0.0,5000.4326171875,-0.0,-5894.501953125
-5451.04345703125,-5768.9345703125,11804.8984375,-8031.52734375,6913.34375,2699.69287109375,3633.4990234375,-5726.814453125,0.0,-4662.67236328125,-2224.4453125,-13665.3583984375,0.0,0.0,0.0,-3410.97509765625,2678.2353515625,11863.708984375,-0.0,-402.9273986816406,6024.04248046875,9558.201171875,7200.2412109375,2995.33203125,2744.992431640625,-7205.80419921875,-5876.22314453125,7139.04736328125,-1361.3701171875,-3157.45654296875,10015.96484375,-6690.8203125,9048.779296875,7610.3212890625,5751.451171875,7901.19189453125,2933.34326171875,-1232.6240234375,5218.18798828125,-0.0,4776.31884765625,-15037.0595703125,2939.701171875,12859.50390625,2769.629150390625,-6892.68115234375,4147.6884765625,4926.52294921875,6880.76025390625,4220.0087890625,3222.62451171875,-4327.29736328125,-11513.2333984375,-6353.06005859375,2097.288818359375,-3498.395263671875,0.0,-5957.28564453125,0.0,-6677.3095703125,-11832.7138671875,3800.39208984375,-9806.15625,0.0,-14399.6875,-1855.6912841796875,0.0,-7009.50634765625,0.0,5004.40576171875,-0.0,-5892.91259765625
