-8683.205078125,-7758.140625,11241.435546875,-8099.0791015625,6668.56787109375,2413.590576171875,3464.221923828125,-5939.8017578125,0.0,-4421.86962890625,-1885.8909912109375,-14368.693359375,0.0,0.0,0.0,-3721.714111328125,1721.382080078125,11346.33984375,-0.0,-233.65020751953125,5803.1083984375,9436.607421875,6921.29150390625,2932.548583984375,3257.592529296875,-5335.0126953125,-6104.310546875,6462.73291015625,-1378.8541259765625,-3467.40087890625,9378.5927734375,-5074.34228515625,8648.236328125,6495.31689453125,5441.5068359375,7260.640625,2872.94384765625,-830.4913940429688,4655.52001953125,-0.0,4618.962890625,-14735.8583984375,3073.215576171875,12396.9716796875,2633.730712890625,-6824.33447265625,4276.4345703125,4697.64111328125,6620.0888671875,3834.5654296875,3116.925537109375,-4525.1845703125,-12863.4765625,-7461.70654296875,2653.598876953125,-2463.65869140625,0.0,-6233.056640625,0.0,-6719.4306640625,-12011.5283203125,3563.56298828125,-9371.439453125,0.0,-15729.2685546875,-2765.655517578125,0.0,-7224.0830078125,0.0,4713.53515625,-0.0,-6086.826171875
-8685.5888671875,-7761.31982421875,11243.025390625,-8098.28466796875,6670.95166015625,2415.974853515625,3464.221923828125,-5939.0068359375,0.0,-4421.0751953125,-1888.275146484375,-14370.2822265625,0.0,0.0,0.0,-3720.91943359375,1723.766357421875,11348.724609375,-0.0,-233.65020751953125,5804.69775390625,9440.5810546875,6922.08642578125,2933.34326171875,3259.181884765625,-5333.423828125,-6102.720703125,6465.1171875,-1375.6751708984375,-3477.732421875,9380.181640625,-5070.3681640625,8651.416015625,6497.701171875,5443.09619140625,7261.43505859375,2874.533447265625,-831.2861328125,4660.28857421875,-0.0,4621.34716796875,-14735.8583984375,3074.01025390625,12396.9716796875,2635.320068359375,-6823.53955078125,4278.81884765625,4697.64111328125,6622.47314453125,3836.155029296875,3116.130859375,-4523.59521484375,-12850.76171875,-7462.50146484375,2657.572509765625,-2469.221923828125,0.0,-6233.85107421875,0.0,-6717.8408203125,-12016.296875,3562.768310546875,-9370.64453125,0.0,-15730.0625,-2767.2451171875,0.0,-7222.49365234375,0.0,4715.91943359375,-0.0,-6087.62109375
-8693.5361328125,-7773.24072265625,11243.8203125,-8103.05322265625,6666.978515625,2412.7958984375,3463.42724609375,-5939.8017578125,0.0,-4421.86962890625,-1885.09619140625,-14374.255859375,0.0,0.0,0.0,-3721.714111328125,1720.58740234375,11345.5458984375,-0.0,-233.65020751953125,5802.3134765625,9435.8125,6918.9072265625,2931.75390625,3259.181884765625,-5339.78125,-6104.310546875,6461.9384765625,-1375.6751708984375,-3467.40087890625,9377.796875,-5074.34228515625,8650.6201171875,6492.1376953125,5442.30126953125,7259.05078125,2872.94384765625,-832.080810546875,4663.46728515625,-0.0,4617.373046875,-14741.4208984375,3072.4208984375,12393.7919921875,2634.525390625,-6826.71875,4278.81884765625,4688.8984375,6617.705078125,3829.797119140625,3116.130859375,-4526.77392578125,-12854.7353515625,-7468.859375,2655.98291015625,-2479.55322265625,0.0,-6234.64599609375,0.0,-6718.6357421875,-12028.2177734375,3563.56298828125,-9370.64453125,0.0,-15726.884765625,-2770.423828125,0.0,-7224.0830078125,0.0,4715.91943359375,-0.0,-6084.4423828125
-8704.662109375,-7778.80322265625,11242.23046875,-8105.4375,6665.388671875,2410.411865234375,3465.0166015625,-5941.39111328125,0.0,-4423.45947265625,-1881.12255859375,-14371.0771484375,0.0,0.0,0.0,-3722.5087890625,1716.61376953125,11343.1611328125,-0.0,-232.0607452392578,5799.92919921875,9431.8388671875,6917.31787109375,2930.164306640625,3257.592529296875,-5342.16552734375,-6105.89990234375,6461.1435546875,-1378.059326171875,-3449.1220703125,9374.6181640625,-5084.67333984375,8645.0576171875,6487.36962890625,5440.7119140625,7257.46142578125,2872.94384765625,-833.6702880859375,4656.31494140625,-0.0,4613.3994140625,-14743.8046875,3072.4208984375,12392.998046875,2632.14111328125,-6829.8974609375,4274.05029296875,4686.51416015625,6613.7314453125,3826.6181640625,3116.925537109375,-4526.77392578125,-12868.2451171875,-7466.47509765625,2655.188232421875,-2482.732177734375,0.0,-6236.2353515625,0.0,-6719.4306640625,-12033.7802734375,3561.178955078125,-9371.439453125,0.0,-15721.3212890625,-2770.423828125,0.0,-7224.8779296875,0.0,4716.71435546875,-0.0,-6086.03125
-8687.97265625,-7774.830078125,11241.435546875,-8103.84765625,6667.77294921875,2410.411865234375,3465.0166015625,-5939.8017578125,0.0,-4422.66455078125,-1874.7647705078125,-14364.7197265625,0.0,0.0,0.0,-3720.12451171875,1717.4085693359375,11345.5458984375,-0.0,-230.47129821777344,5802.3134765625,9433.4287109375,6918.1123046875,2930.164306640625,3256.7978515625,-5338.98681640625,-6105.10498046875,6461.9384765625,-1378.059326171875,-3443.558837890625,9374.6181640625,-5082.2890625,8645.0576171875,6489.75390625,5439.9169921875,7259.845703125,2872.94384765625,-832.080810546875,4655.52001953125,-0.0,4615.78369140625,-14742.21484375,3073.215576171875,12394.587890625,2632.935791015625,-6827.51318359375,4273.255859375,4688.10400390625,6616.11572265625,3830.591796875,3116.925537109375,-4525.1845703125,-12880.166015625,-7463.29638671875,2655.188232421875,-2474.784912109375,0.0,-6234.64599609375,0.0,-6719.4306640625,-12030.6015625,3561.9736328125,-9369.0556640625,0.0,-15717.34765625,-2768.83447265625,0.0,-7222.49365234375,0.0,4717.5087890625,-0.0,-6086.826171875
-8684.7939453125,-7769.2666015625,11239.8466796875,-8100.6689453125,6668.56787109375,2414.385498046875,3465.8115234375,-5939.0068359375,0.0,-4423.45947265625,-1873.17529296875,-14360.7451171875,0.0,0.0,0.0,-3718.53515625,1719.792724609375,11347.9296875,-0.0,-231.26602172851562,5803.1083984375,9436.607421875,6920.49658203125,2933.34326171875,3257.592529296875,-5335.0126953125,-6105.10498046875,6465.912109375,-1377.2646484375,-3442.76416015625,9377.796875,-5079.9052734375,8646.6474609375,6492.1376953125,5442.30126953125,7261.43505859375,2872.94384765625,-828.9019165039062,4656.31494140625,-0.0,4616.57861328125,-14741.4208984375,3074.01025390625,12398.560546875,2634.525390625,-6827.51318359375,4271.666015625,4692.87255859375,6618.5,3833.770751953125,3116.925537109375,-4524.3896484375,-12880.166015625,-7458.52783203125,2657.572509765625,-2468.427001953125,0.0,-6233.056640625,0.0,-6719.4306640625,-12025.8330078125,3564.357666015625,-9369.0556640625,0.0,-15718.9365234375,-2764.86083984375,0.0,-7220.90380859375,0.0,4715.12451171875,-0.0,-6090.00537109375
-8694.3310546875,-7773.24072265625,11239.0517578125,-8100.6689453125,6666.978515625,2412.7958984375,3465.8115234375,-5941.39111328125,0.0,-4426.63818359375,-1874.7647705078125,-14365.513671875,0.0,0.0,0.0,-3720.91943359375,1718.2032470703125,11346.33984375,-0.0,-232.0607452392578,5802.3134765625,9435.017578125,6920.49658203125,2933.34326171875,3259.9765625,-5335.0126953125,-6105.10498046875,6463.52783203125,-1374.8804931640625,-3450.71142578125,9377.796875,-5081.49462890625,8645.8525390625,6490.548828125,5441.5068359375,7259.845703125,2872.94384765625,-831.2861328125,4646.7783203125,-0.0,4615.78369140625,-14741.4208984375,3074.804931640625,12396.9716796875,2635.320068359375,-6826.71875,4270.07666015625,4692.07763671875,6616.91064453125,3832.18115234375,3117.720458984375,-4525.1845703125,-12867.451171875,-7459.322265625,2659.161865234375,-2471.60595703125,0.0,-6234.64599609375,0.0,-6719.4306640625,-12015.501953125,3564.357666015625,-9369.0556640625,0.0,-15718.1416015625,-2771.218505859375,0.0,-7220.109375,0.0,4712.740234375,-0.0,-6090.7998046875
-8695.1259765625,-7778.0087890625,11241.435546875,-8103.84765625,6666.978515625,2409.6171875,3465.8115234375,-5942.18603515625,0.0,-4426.63818359375,-1879.533203125,-14369.4873046875,0.0,0.0,0.0,-3722.5087890625,1718.2032470703125,11344.75,-0.0,-231.26602172851562,5801.51904296875,9434.2236328125,6918.9072265625,2932.548583984375,3263.15576171875,-5336.6025390625,-6105.10498046875,6461.1435546875,-1372.4962158203125,-3453.890625,9376.2080078125,-5082.2890625,8645.8525390625,6490.548828125,5442.30126953125,7258.25634765625,2871.354248046875,-832.8755493164062,4652.34130859375,-0.0,4617.373046875,-14739.8310546875,3073.215576171875,12395.3818359375,2633.730712890625,-6826.71875,4277.2294921875,4688.8984375,6617.705078125,3829.00244140625,3117.720458984375,-4528.36376953125,-12859.50390625,-7462.50146484375,2660.75146484375,-2481.142822265625,0.0,-6235.44091796875,0.0,-6720.22509765625,-12038.548828125,3562.768310546875,-9371.439453125,0.0,-15714.1689453125,-2775.1923828125,0.0,-7221.69873046875,0.0,4713.53515625,-0.0,-6089.21044921875
-8690.357421875,-7778.0087890625,11240.6416015625,-8106.2314453125,6666.18359375,2408.822265625,3465.0166015625,-5943.775390625,0.0,-4428.22802734375,-1881.9173583984375,-14372.666015625,0.0,0.0,0.0,-3724.09814453125,1715.8189697265625,11343.9560546875,-0.0,-232.0607452392578,5799.92919921875,9431.044921875,6915.72802734375,2930.164306640625,3258.38720703125,-5341.37109375,-6106.69482421875,6457.96435546875,-1375.6751708984375,-3458.658935546875,9373.0283203125,-5083.87890625,8645.0576171875,6487.36962890625,5439.12255859375,7255.8720703125,2870.5595703125,-834.4650268554688,4651.54638671875,-0.0,4616.57861328125,-14741.4208984375,3072.4208984375,12392.203125,2632.935791015625,-6828.30810546875,4274.84521484375,4684.92529296875,6616.11572265625,3826.6181640625,3116.925537109375,-4530.748046875,-12862.6826171875,-7466.47509765625,2657.572509765625,-2484.321533203125,0.0,-6237.82470703125,0.0,-6721.01953125,-12060.005859375,3559.58935546875,-9374.6181640625,0.0,-15719.732421875,-2776.78173828125,0.0,-7224.0830078125,0.0,4711.94580078125,-0.0,-6088.41552734375
-8690.357421875,-7774.03515625,11242.23046875,-8103.84765625,6667.77294921875,2410.411865234375,3465.8115234375,-5940.59619140625,0.0,-4427.43310546875,-1874.7647705078125,-14364.7197265625,0.0,0.0,0.0,-3721.714111328125,1719.792724609375,11347.134765625,-0.0,-233.65020751953125,5802.3134765625,9434.2236328125,6918.1123046875,2931.75390625,3260.771484375,-5335.0126953125,-6105.10498046875,6462.73291015625,-1374.8804931640625,-3453.890625,9375.4130859375,-5079.9052734375,8648.236328125,6491.34326171875,5440.7119140625,7257.46142578125,2871.354248046875,-834.4650268554688,4653.9306640625,-0.0,4618.962890625,-14736.65234375,3074.804931640625,12395.3818359375,2633.730712890625,-6826.71875,4274.84521484375,4694.4619140625,6618.5,3830.591796875,3118.51513671875,-4527.56884765625,-12876.193359375,-7472.0380859375,2657.572509765625,-2477.1689453125,0.0,-6233.85107421875,0.0,-6722.60888671875,-12034.5751953125,3560.384033203125,-9372.234375,0.0,-15718.1416015625,-2764.86083984375,0.0,-7226.46728515625,0.0,4706.3828125,-0.0,-6092.3896484375
-8691.1513671875,-7785.9560546875,11239.8466796875,-8100.6689453125,6670.15673828125,2413.590576171875,3464.221923828125,-5939.8017578125,0.0,-4425.048828125,-1871.5858154296875,-14363.1298828125,0.0,0.0,0.0,-3721.714111328125,1718.2032470703125,11347.134765625,-0.0,-232.0607452392578,5803.1083984375,9434.2236328125,6920.49658203125,2934.137939453125,3264.7451171875,-5328.6552734375,-6105.10498046875,6463.52783203125,-1372.4962158203125,-3452.301025390625,9376.2080078125,-5082.2890625,8643.4677734375,6492.1376953125,5442.30126953125,7261.43505859375,2871.354248046875,-833.6702880859375,4653.1357421875,-0.0,4618.16796875,-14731.8837890625,3074.804931640625,12396.1767578125,2636.11474609375,-6827.51318359375,4270.87158203125,4693.6669921875,6620.8837890625,3832.97607421875,3118.51513671875,-4525.9794921875,-12873.013671875,-7473.62744140625,2663.135498046875,-2481.9375,0.0,-6230.67236328125,0.0,-6721.01953125,-12016.296875,3564.357666015625,-9372.234375,0.0,-15717.34765625,-2760.88720703125,0.0,-7222.49365234375,0.0,4708.76708984375,-0.0,-6092.3896484375
-8689.5625,-7798.671875,11246.9990234375,-8100.6689453125,6674.130859375,2415.18017578125,3464.221923828125,-5938.2119140625,0.0,-4424.25390625,-1868.4068603515625,-14369.4873046875,0.0,0.0,0.0,-3720.12451171875,1718.9979248046875,11348.724609375,-0.0,-231.26602172851562,5806.287109375,9435.8125,6922.08642578125,2934.9326171875,3267.924072265625,-5331.03955078125,-6105.10498046875,6461.9384765625,-1367.7279052734375,-3457.864013671875,9378.5927734375,-5078.31591796875,8650.6201171875,6492.9326171875,5443.89111328125,7262.22998046875,2872.149169921875,-832.080810546875,4646.7783203125,-0.0,4621.34716796875,-14728.705078125,3076.394287109375,12396.1767578125,2634.525390625,-6825.923828125,4275.64013671875,4689.693359375,6626.447265625,3832.18115234375,3118.51513671875,-4526.77392578125,-12855.529296875,-7476.806640625,2667.109130859375,-2475.57958984375,0.0,-6230.67236328125,0.0,-6719.4306640625,-12031.3955078125,3565.947265625,-9372.234375,0.0,-15713.373046875,-2764.86083984375,0.0,-7223.2880859375,0.0,4713.53515625,-0.0,-6087.62109375
-8687.1787109375,-7793.9033203125,11245.41015625,-8101.46337890625,6674.130859375,2411.20654296875,3465.0166015625,-5939.8017578125,0.0,-4425.048828125,-1870.7911376953125,-14373.4619140625,0.0,0.0,0.0,-3723.303466796875,1719.792724609375,11348.724609375,-0.0,-233.65020751953125,5806.287109375,9435.017578125,6920.49658203125,2933.34326171875,3267.129150390625,-5332.62890625,-6105.10498046875,6459.55419921875,-1370.112060546875,-3461.837890625,9377.0029296875,-5075.13671875,8651.416015625,6494.52197265625,5445.48046875,7263.02490234375,2872.94384765625,-833.6702880859375,4652.34130859375,-0.0,4622.1416015625,-14726.3212890625,3075.599609375,12392.998046875,2634.525390625,-6824.33447265625,4279.61328125,4687.30908203125,6628.03662109375,3829.797119140625,3119.3095703125,-4529.158203125,-12853.1455078125,-7471.2431640625,2663.93017578125,-2473.1953125,0.0,-6231.466796875,0.0,-6721.01953125,-12034.5751953125,3566.741943359375,-9371.439453125,0.0,-15714.9638671875,-2765.655517578125,0.0,-7224.0830078125,0.0,4711.1513671875,-0.0,-6089.21044921875
-8684.7939453125,-7784.36669921875,11243.8203125,-8101.46337890625,6673.3359375,2409.6171875,3463.42724609375,-5939.8017578125,0.0,-4426.63818359375,-1877.943603515625,-14375.845703125,0.0,0.0,0.0,-3726.482421875,1719.792724609375,11346.33984375,-0.0,-236.82911682128906,5804.69775390625,9435.8125,6920.49658203125,2932.548583984375,3264.7451171875,-5331.83447265625,-6104.310546875,6457.169921875,-1371.7015380859375,-3463.42724609375,9377.0029296875,-5076.7265625,8648.236328125,6496.111328125,5443.09619140625,7263.8193359375,2872.149169921875,-834.4650268554688,4667.44091796875,-0.0,4621.34716796875,-14725.525390625,3074.01025390625,12392.203125,2635.320068359375,-6826.71875,4279.61328125,4685.7197265625,6627.24169921875,3825.823486328125,3118.51513671875,-4531.54248046875,-12863.4765625,-7468.06494140625,2662.3408203125,-2475.57958984375,0.0,-6233.056640625,0.0,-6721.814453125,-12025.0390625,3565.15234375,-9372.234375,0.0,-15718.9365234375,-2773.602783203125,0.0,-7225.67236328125,0.0,4706.3828125,-0.0,-6093.18408203125
-8703.8681640625,-7780.39306640625,11239.8466796875,-8103.05322265625,6668.56787109375,2408.822265625,3463.42724609375,-5943.775390625,0.0,-4426.63818359375,-1877.943603515625,-14376.640625,0.0,0.0,0.0,-3725.687744140625,1717.4085693359375,11343.1611328125,-0.0,-237.6238555908203,5799.92919921875,9432.6337890625,6918.9072265625,2933.34326171875,3260.771484375,-5334.21826171875,-6104.310546875,6456.375,-1376.469970703125,-3463.42724609375,9375.4130859375,-5076.7265625,8642.673828125,6494.52197265625,5439.9169921875,7261.43505859375,2872.149169921875,-836.0545043945312,4657.10986328125,-0.0,4615.78369140625,-14726.3212890625,3074.01025390625,12390.61328125,2635.320068359375,-6825.923828125,4276.4345703125,4685.7197265625,6620.0888671875,3825.028564453125,3117.720458984375,-4530.748046875,-12881.755859375,-7463.29638671875,2657.572509765625,-2475.57958984375,0.0,-6233.056640625,0.0,-6722.60888671875,-12032.9853515625,3563.56298828125,-9375.4130859375,0.0,-15725.2939453125,-2775.98681640625,0.0,-7224.8779296875,0.0,4705.587890625,-0.0,-6093.18408203125
-8710.2255859375,-7781.982421875,11238.2578125,-8103.84765625,6665.388671875,2408.822265625,3462.63232421875,-5942.98046875,0.0,-4425.048828125,-1881.12255859375,-14375.845703125,0.0,0.0,0.0,-3723.303466796875,1716.61376953125,11343.9560546875,-0.0,-235.2396697998047,5799.134765625,9433.4287109375,6916.52294921875,2934.137939453125,3256.003173828125,-5329.4501953125,-6107.4892578125,6457.96435546875,-1380.443603515625,-3462.63232421875,9373.82421875,-5078.31591796875,8642.673828125,6493.72705078125,5439.12255859375,7262.22998046875,2872.149169921875,-834.4650268554688,4652.34130859375,-0.0,4614.98876953125,-14723.1416015625,3072.4208984375,12390.61328125,2634.525390625,-6823.53955078125,4278.0244140625,4687.30908203125,6616.91064453125,3825.823486328125,3118.51513671875,-4530.748046875,-12884.1396484375,-7458.52783203125,2652.80419921875,-2493.063720703125,0.0,-6234.64599609375,0.0,-6721.01953125,-12035.3701171875,3561.9736328125,-9375.4130859375,0.0,-15726.08984375,-2771.218505859375,0.0,-7225.67236328125,0.0,4706.3828125,-0.0,-6092.3896484375
-8714.9931640625,-7790.72412109375,11242.23046875,-8103.84765625,6666.18359375,2409.6171875,3461.837890625,-5943.775390625,0.0,-4422.66455078125,-1882.7120361328125,-14376.640625,0.0,0.0,0.0,-3723.303466796875,1715.8189697265625,11342.3662109375,-0.0,-235.2396697998047,5799.92919921875,9434.2236328125,6914.93359375,2931.75390625,3255.208251953125,-5329.4501953125,-6109.0791015625,6457.169921875,-1380.443603515625,-3464.221923828125,9373.0283203125,-5084.67333984375,8645.0576171875,6491.34326171875,5438.32763671875,7261.43505859375,2870.5595703125,-836.0545043945312,4654.7255859375,-0.0,4615.78369140625,-14721.552734375,3071.6259765625,12391.408203125,2632.14111328125,-6823.53955078125,4281.99755859375,4688.8984375,6616.91064453125,3825.823486328125,3116.130859375,-4530.748046875,-12874.603515625,-7460.912109375,2653.598876953125,-2491.47412109375,0.0,-6233.85107421875,0.0,-6717.04638671875,-12025.8330078125,3561.178955078125,-9373.82421875,0.0,-15724.5009765625,-2769.629150390625,0.0,-7228.056640625,0.0,4700.8193359375,-0.0,-6095.568359375
-8714.9931640625,-7789.134765625,11243.025390625,-8102.2578125,6670.15673828125,2412.7958984375,3463.42724609375,-5941.39111328125,0.0,-4422.66455078125,-1879.533203125,-14372.666015625,0.0,0.0,0.0,-3722.5087890625,1718.9979248046875,11343.9560546875,-0.0,-238.4185791015625,5800.72412109375,9434.2236328125,6916.52294921875,2931.75390625,3262.36083984375,-5327.8603515625,-6106.69482421875,6457.96435546875,-1373.291015625,-3461.043212890625,9375.4130859375,-5082.2890625,8647.44140625,6492.1376953125,5440.7119140625,7261.43505859375,2868.97021484375,-836.0545043945312,4653.9306640625,-0.0,4618.962890625,-14720.7578125,3071.6259765625,12391.408203125,2632.935791015625,-6822.74462890625,4280.408203125,4690.48828125,6620.8837890625,3827.412841796875,3114.541259765625,-4526.77392578125,-12865.861328125,-7461.70654296875,2660.75146484375,-2473.1953125,0.0,-6232.26171875,0.0,-6713.072265625,-12011.5283203125,3562.768310546875,-9373.0283203125,0.0,-15717.34765625,-2768.039794921875,0.0,-7225.67236328125,0.0,4702.4091796875,-0.0,-6101.92626953125
-8698.3037109375,-7778.0087890625,11243.8203125,-8099.0791015625,6671.74658203125,2414.385498046875,3464.221923828125,-5939.8017578125,0.0,-4423.45947265625,-1872.380615234375,-14372.666015625,0.0,0.0,0.0,-3721.714111328125,1721.382080078125,11347.134765625,-0.0,-234.44493103027344,5802.3134765625,9436.607421875,6919.7021484375,2934.9326171875,3267.924072265625,-5324.681640625,-6103.515625,6460.3486328125,-1369.3173828125,-3463.42724609375,9377.796875,-5076.7265625,8649.03125,6497.701171875,5443.09619140625,7264.6142578125,2872.149169921875,-833.6702880859375,4654.7255859375,-0.0,4618.962890625,-14717.5791015625,3074.01025390625,12392.203125,2633.730712890625,-6821.15576171875,4277.2294921875,4695.2568359375,6622.47314453125,3829.797119140625,3115.336181640625,-4525.1845703125,-12861.0927734375,-7458.52783203125,2663.93017578125,-2467.63232421875,0.0,-6228.2880859375,0.0,-6716.25146484375,-12021.064453125,3565.15234375,-9373.0283203125,0.0,-15710.1953125,-2764.86083984375,0.0,-7218.51953125,0.0,4713.53515625,-0.0,-6082.85302734375
-8688.767578125,-7774.03515625,11243.025390625,-8098.28466796875,6670.95166015625,2412.7958984375,3465.0166015625,-5940.59619140625,0.0,-4422.66455078125,-1866.022705078125,-14376.640625,0.0,0.0,0.0,-3723.303466796875,1720.58740234375,11347.9296875,-0.0,-235.2396697998047,5803.9033203125,9435.8125,6919.7021484375,2933.34326171875,3267.129150390625,-5323.88671875,-6102.720703125,6458.75927734375,-1369.3173828125,-3465.0166015625,9377.0029296875,-5076.7265625,8649.03125,6497.701171875,5443.89111328125,7265.4091796875,2871.354248046875,-834.4650268554688,4651.54638671875,-0.0,4619.75732421875,-14714.400390625,3074.01025390625,12392.203125,2632.935791015625,-6821.9501953125,4278.81884765625,4692.87255859375,6623.26806640625,3829.797119140625,3117.720458984375,-4527.56884765625,-12861.8876953125,-7467.27001953125,2663.135498046875,-2471.60595703125,0.0,-6229.08251953125,0.0,-6718.6357421875,-12028.2177734375,3564.357666015625,-9374.6181640625,0.0,-15713.373046875,-2766.4501953125,0.0,-7216.93017578125,0.0,4712.740234375,-0.0,-6075.7001953125
-8691.1513671875,-7771.65087890625,11243.8203125,-8097.4892578125,6670.15673828125,2412.00146484375,3464.221923828125,-5938.2119140625,0.0,-4422.66455078125,-1869.20166015625,-14368.693359375,0.0,0.0,0.0,-3721.714111328125,1722.9715576171875,11347.134765625,-0.0,-234.44493103027344,5805.4921875,9436.607421875,6918.9072265625,2933.34326171875,3265.539794921875,-5322.29736328125,-6103.515625,6460.3486328125,-1372.4962158203125,-3455.47998046875,9377.0029296875,-5079.11083984375,8649.03125,6499.29052734375,5443.89111328125,7266.20361328125,2872.149169921875,-835.259765625,4647.57275390625,-0.0,4618.962890625,-14708.0419921875,3074.01025390625,12392.203125,2632.935791015625,-6820.36083984375,4279.61328125,4688.10400390625,6621.6787109375,3829.797119140625,3116.925537109375,-4529.158203125,-12862.6826171875,-7471.2431640625,2661.5458984375,-2473.1953125,0.0,-6226.6982421875,0.0,-6716.25146484375,-12024.2431640625,3564.357666015625,-9374.6181640625,0.0,-15717.34765625,-2762.4765625,0.0,-7214.54638671875,0.0,4712.740234375,-0.0,-6077.28955078125
-8685.5888671875,-7770.8564453125,11243.025390625,-8097.4892578125,6671.74658203125,2413.590576171875,3463.42724609375,-5938.2119140625,0.0,-4421.0751953125,-1869.9964599609375,-14366.3095703125,0.0,0.0,0.0,-3720.91943359375,1722.1768798828125,11347.134765625,-0.0,-236.03439331054688,5805.4921875,9439.7861328125,6919.7021484375,2934.137939453125,3265.539794921875,-5321.5029296875,-6104.310546875,6460.3486328125,-1373.291015625,-3452.301025390625,9377.0029296875,-5076.7265625,8649.03125,6500.8798828125,5443.09619140625,7266.998046875,2872.94384765625,-834.4650268554688,4648.3671875,-0.0,4618.16796875,-14704.86328125,3072.4208984375,12393.7919921875,2633.730712890625,-6819.56640625,4278.0244140625,4688.8984375,6622.47314453125,3829.797119140625,3116.925537109375,-4526.77392578125,-12853.9404296875,-7468.06494140625,2661.5458984375,-2484.321533203125,0.0,-6225.10888671875,0.0,-6713.8671875,-12019.474609375,3564.357666015625,-9376.2080078125,0.0,-15718.9365234375,-2758.5029296875,0.0,-7212.162109375,0.0,4717.5087890625,-0.0,-6075.7001953125
-8687.1787109375,-7774.03515625,11241.435546875,-8100.6689453125,6671.74658203125,2412.7958984375,3463.42724609375,-5940.59619140625,0.0,-4421.86962890625,-1873.17529296875,-14367.8984375,0.0,0.0,0.0,-3721.714111328125,1720.58740234375,11345.5458984375,-0.0,-236.82911682128906,5804.69775390625,9438.9912109375,6920.49658203125,2931.75390625,3264.7451171875,-5322.29736328125,-6104.310546875,6457.96435546875,-1371.7015380859375,-3454.685302734375,9377.0029296875,-5079.11083984375,8647.44140625,6498.49560546875,5442.30126953125,7264.6142578125,2872.94384765625,-835.259765625,4652.34130859375,-0.0,4620.55224609375,-14712.810546875,3070.831298828125,12393.7919921875,2632.935791015625,-6822.74462890625,4276.4345703125,4686.51416015625,6620.8837890625,3828.207763671875,3116.925537109375,-4528.36376953125,-12853.9404296875,-7463.29638671875,2661.5458984375,-2487.50048828125,0.0,-6228.2880859375,0.0,-6714.662109375,-12023.44921875,3563.56298828125,-9376.2080078125,0.0,-15717.34765625,-2763.271240234375,0.0,-7213.75146484375,0.0,4718.3037109375,-0.0,-6076.49462890625
-8705.45703125,-7784.36669921875,11236.66796875,-8105.4375,6669.3623046875,2409.6171875,3464.221923828125,-5943.775390625,0.0,-4425.84375,-1880.327880859375,-14372.666015625,0.0,0.0,0.0,-3725.687744140625,1718.2032470703125,11341.572265625,-0.0,-237.6238555908203,5800.72412109375,9434.2236328125,6917.31787109375,2928.57470703125,3260.771484375,-5331.83447265625,-6104.310546875,6452.40185546875,-1375.6751708984375,-3468.990234375,9373.82421875,-5082.2890625,8644.263671875,6493.72705078125,5440.7119140625,7259.845703125,2868.97021484375,-836.8492431640625,4650.75146484375,-0.0,4618.16796875,-14724.7314453125,3074.01025390625,12390.61328125,2632.935791015625,-6827.51318359375,4270.07666015625,4683.3359375,6619.29443359375,3823.439453125,3115.336181640625,-4533.1318359375,-12868.2451171875,-7475.21728515625,2659.161865234375,-2478.758544921875,0.0,-6234.64599609375,0.0,-6721.01953125,-12031.3955078125,3559.58935546875,-9375.4130859375,0.0,-15722.1162109375,-2760.88720703125,0.0,-7222.49365234375,0.0,4715.12451171875,-0.0,-6078.08447265625
-8707.046875,-7788.34033203125,11240.6416015625,-8107.8212890625,6672.541015625,2408.027587890625,3465.0166015625,-5946.9541015625,0.0,-4430.6123046875,-1877.943603515625,-14376.640625,0.0,0.0,0.0,-3731.250732421875,1718.9979248046875,11344.75,-0.0,-239.2133026123047,5803.1083984375,9431.8388671875,6918.9072265625,2926.985595703125,3261.566162109375,-5338.19189453125,-6103.515625,6453.1962890625,-1374.8804931640625,-3472.169189453125,9374.6181640625,-5083.87890625,8648.236328125,6491.34326171875,5441.5068359375,7256.66650390625,2869.76513671875,-838.4386596679688,4659.494140625,-0.0,4619.75732421875,-14735.0625,3074.01025390625,12389.0234375,2632.935791015625,-6830.6923828125,4276.4345703125,4685.7197265625,6622.47314453125,3824.23388671875,3114.541259765625,-4534.72119140625,-12894.470703125,-7483.958984375,2659.956787109375,-2474.784912109375,0.0,-6241.00341796875,0.0,-6728.17236328125,-12032.9853515625,3559.58935546875,-9377.796875,0.0,-15726.08984375,-2766.4501953125,0.0,-7229.64599609375,0.0,4707.97216796875,-0.0,-6086.826171875
-8709.4306640625,-7785.16162109375,11250.97265625,-8108.61572265625,6674.92529296875,2408.027587890625,3465.0166015625,-5948.54345703125,0.0,-4432.201171875,-1877.14892578125,-14376.640625,0.0,0.0,0.0,-3731.250732421875,1722.1768798828125,11347.9296875,-0.0,-239.2133026123047,5807.87646484375,9434.2236328125,6922.880859375,2929.36962890625,3263.15576171875,-5342.16552734375,-6100.33642578125,6457.169921875,-1370.9068603515625,-3460.248291015625,9377.796875,-5081.49462890625,8652.2099609375,6492.9326171875,5444.685546875,7257.46142578125,2870.5595703125,-838.4386596679688,4668.23583984375,-0.0,4623.73095703125,-14743.0107421875,3074.804931640625,12389.0234375,2634.525390625,-6833.87158203125,4285.1767578125,4689.693359375,6626.447265625,3826.6181640625,3116.925537109375,-4534.72119140625,-12920.697265625,-7476.01171875,2663.135498046875,-2474.784912109375,0.0,-6243.3876953125,0.0,-6730.556640625,-12028.2177734375,3562.768310546875,-9377.796875,0.0,-15718.9365234375,-2779.166015625,0.0,-7233.61962890625,0.0,4705.587890625,-0.0,-6093.97900390625
-8708.63671875,-7781.982421875,11249.3828125,-8106.2314453125,6676.51513671875,2411.20654296875,3465.8115234375,-5950.1328125,0.0,-4431.40673828125,-1882.7120361328125,-14373.4619140625,0.0,0.0,0.0,-3728.86669921875,1722.1768798828125,11349.5185546875,-0.0,-238.4185791015625,5809.4658203125,9435.8125,6922.880859375,2930.958984375,3263.950439453125,-5342.16552734375,-6101.13134765625,6458.75927734375,-1371.7015380859375,-3451.50634765625,9379.38671875,-5079.9052734375,8653.0048828125,6492.1376953125,5446.275390625,7257.46142578125,2872.149169921875,-835.259765625,4659.494140625,-0.0,4622.93603515625,-14748.5732421875,3075.599609375,12392.203125,2634.525390625,-6834.666015625,4284.3818359375,4692.87255859375,6625.65234375,3829.00244140625,3118.51513671875,-4533.1318359375,-12917.5185546875,-7473.62744140625,2664.72509765625,-2478.758544921875,0.0,-6248.15625,0.0,-6732.14599609375,-12029.806640625,3563.56298828125,-9377.0029296875,0.0,-15713.373046875,-2773.602783203125,0.0,-7232.82470703125,0.0,4707.97216796875,-0.0,-6093.97900390625
-8699.8935546875,-7785.9560546875,11247.7939453125,-8104.64208984375,6676.51513671875,2412.7958984375,3466.606201171875,-5950.1328125,0.0,-4434.58544921875,-1874.7647705078125,-14370.2822265625,0.0,0.0,0.0,-3730.4560546875,1722.9715576171875,11348.724609375,-0.0,-240.00804138183594,5808.67138671875,9435.8125,6923.67578125,2931.75390625,3268.71875,-5339.78125,-6101.92626953125,6457.96435546875,-1366.9332275390625,-3449.1220703125,9379.38671875,-5079.9052734375,8653.7998046875,6492.9326171875,5447.86474609375,7257.46142578125,2872.149169921875,-835.259765625,4653.1357421875,-0.0,4622.93603515625,-14750.95703125,3075.599609375,12392.998046875,2634.525390625,-6835.46044921875,4281.20263671875,4691.28271484375,6628.03662109375,3830.591796875,3119.3095703125,-4532.33740234375,-12868.2451171875,-7472.0380859375,2667.90380859375,-2474.784912109375,0.0,-6254.51416015625,0.0,-6733.7353515625,-12036.9599609375,3562.768310546875,-9377.796875,0.0,-15711.7841796875,-2772.013427734375,0.0,-7241.56689453125,0.0,4703.99853515625,-0.0,-6097.9521484375
-8707.046875,-7797.876953125,11243.025390625,-8110.20556640625,6674.92529296875,2410.411865234375,3465.0166015625,-5953.31201171875,0.0,-4437.7646484375,-1871.5858154296875,-14373.4619140625,0.0,0.0,0.0,-3733.635009765625,1719.792724609375,11344.75,-0.0,-240.80276489257812,5804.69775390625,9431.8388671875,6920.49658203125,2926.985595703125,3266.33447265625,-5342.16552734375,-6104.310546875,6457.169921875,-1370.112060546875,-3457.0693359375,9377.0029296875,-5085.46826171875,8649.826171875,6488.958984375,5446.275390625,7254.28271484375,2871.354248046875,-836.8492431640625,4652.34130859375,-0.0,4620.55224609375,-14755.7255859375,3074.01025390625,12391.408203125,2632.14111328125,-6838.6396484375,4279.61328125,4688.10400390625,6627.24169921875,3830.591796875,3118.51513671875,-4534.72119140625,-12845.1982421875,-7483.16455078125,2664.72509765625,-2473.990234375,0.0,-6257.69287109375,0.0,-6736.11962890625,-12052.853515625,3560.384033203125,-9379.38671875,0.0,-15717.34765625,-2775.1923828125,0.0,-7244.74560546875,0.0,4700.02490234375,-0.0,-6101.13134765625
-8701.4833984375,-7804.23486328125,11235.078125,-8113.38427734375,6672.541015625,2409.6171875,3464.221923828125,-5953.31201171875,0.0,-4435.38037109375,-1869.20166015625,-14373.4619140625,0.0,0.0,0.0,-3733.635009765625,1716.61376953125,11344.75,-0.0,-236.82911682128906,5802.3134765625,9428.66015625,6919.7021484375,2926.985595703125,3268.71875,-5342.96044921875,-6103.515625,6457.169921875,-1370.9068603515625,-3462.63232421875,9374.6181640625,-5090.23681640625,8644.263671875,6484.9853515625,5443.89111328125,7251.8984375,2872.149169921875,-836.8492431640625,4649.162109375,-0.0,4618.16796875,-14758.904296875,3074.804931640625,12389.8193359375,2633.730712890625,-6837.8447265625,4273.255859375,4686.51416015625,6624.06298828125,3830.591796875,3118.51513671875,-4533.92626953125,-12851.5556640625,-7493.49609375,2664.72509765625,-2473.1953125,0.0,-6250.5400390625,0.0,-6733.7353515625,-12054.443359375,3560.384033203125,-9377.796875,0.0,-15715.7578125,-2772.013427734375,0.0,-7243.15625,0.0,4705.587890625,-0.0,-6097.15771484375
-8697.509765625,-7799.466796875,11235.873046875,-8115.7685546875,6671.74658203125,2409.6171875,3465.0166015625,-5951.72265625,0.0,-4432.201171875,-1869.20166015625,-14369.4873046875,0.0,0.0,0.0,-3731.250732421875,1715.0242919921875,11344.75,-0.0,-233.65020751953125,5801.51904296875,9429.455078125,6920.49658203125,2928.57470703125,3266.33447265625,-5345.3447265625,-6103.515625,6458.75927734375,-1370.9068603515625,-3468.990234375,9373.0283203125,-5091.826171875,8643.4677734375,6484.1904296875,5443.89111328125,7252.693359375,2873.738525390625,-835.259765625,4649.162109375,-0.0,4617.373046875,-14764.4677734375,3074.01025390625,12392.998046875,2633.730712890625,-6836.25537109375,4267.6923828125,4684.13037109375,6624.06298828125,3829.00244140625,3118.51513671875,-4532.33740234375,-12865.06640625,-7489.5224609375,2663.135498046875,-2473.990234375,0.0,-6247.36181640625,0.0,-6731.3515625,-12040.9326171875,3561.178955078125,-9374.6181640625,0.0,-15715.7578125,-2768.039794921875,0.0,-7237.59326171875,0.0,4711.94580078125,-0.0,-6090.7998046875
-8709.4306640625,-7792.31396484375,11241.435546875,-8114.97412109375,6674.92529296875,2408.027587890625,3465.8115234375,-5951.72265625,0.0,-4432.99609375,-1870.7911376953125,-14364.7197265625,0.0,0.0,0.0,-3730.4560546875,1717.4085693359375,11345.5458984375,-0.0,-235.2396697998047,5805.4921875,9430.2490234375,6922.880859375,2927.7802734375,3263.950439453125,-5343.75537109375,-6102.720703125,6459.55419921875,-1372.4962158203125,-3466.606201171875,9374.6181640625,-5090.23681640625,8648.236328125,6484.9853515625,5444.685546875,7251.10400390625,2873.738525390625,-835.259765625,4657.10986328125,-0.0,4620.55224609375,-14765.2626953125,3074.01025390625,12392.998046875,2632.935791015625,-6839.43408203125,4270.07666015625,4688.10400390625,6626.447265625,3829.797119140625,3117.720458984375,-4533.1318359375,-12872.21875,-7478.39599609375,2661.5458984375,-2473.990234375,0.0,-6246.56689453125,0.0,-6731.3515625,-12040.138671875,3561.9736328125,-9373.82421875,0.0,-15716.552734375,-2767.2451171875,0.0,-7236.798828125,0.0,4711.1513671875,-0.0,-6097.15771484375
-8694.3310546875,-7787.5458984375,11243.8203125,-8116.56298828125,6674.130859375,2405.6435546875,3465.8115234375,-5954.10693359375,0.0,-4436.9697265625,-1871.5858154296875,-14359.951171875,0.0,0.0,0.0,-3731.250732421875,1717.4085693359375,11345.5458984375,-0.0,-237.6238555908203,5806.287109375,9429.455078125,6922.08642578125,2926.190673828125,3263.950439453125,-5350.11279296875,-6103.515625,6457.96435546875,-1374.0858154296875,-3457.864013671875,9373.82421875,-5088.6474609375,8648.236328125,6483.39599609375,5444.685546875,7250.30908203125,2872.94384765625,-836.8492431640625,4647.57275390625,-0.0,4619.75732421875,-14766.056640625,3074.01025390625,12390.61328125,2632.14111328125,-6840.22900390625,4272.4609375,4688.10400390625,6624.857421875,3827.412841796875,3117.720458984375,-4533.92626953125,-12869.8349609375,-7475.21728515625,2659.161865234375,-2477.1689453125,0.0,-6246.56689453125,0.0,-6733.7353515625,-12038.548828125,3559.58935546875,-9377.0029296875,0.0,-15717.34765625,-2766.4501953125,0.0,-7239.18310546875,0.0,4709.56201171875,-0.0,-6102.720703125
-8686.3828125,-7792.31396484375,11242.23046875,-8118.15283203125,6673.3359375,2403.25927734375,3464.221923828125,-5954.9013671875,0.0,-4438.55908203125,-1873.969970703125,-14361.541015625,0.0,0.0,0.0,-3732.84033203125,1716.61376953125,11345.5458984375,-0.0,-240.00804138183594,5804.69775390625,9426.2763671875,6920.49658203125,2926.190673828125,3262.36083984375,-5354.88134765625,-6101.92626953125,6454.78564453125,-1374.8804931640625,-3459.45361328125,9373.0283203125,-5088.6474609375,8648.236328125,6483.39599609375,5442.30126953125,7249.51416015625,2872.94384765625,-836.0545043945312,4649.95703125,-0.0,4621.34716796875,-14767.646484375,3074.01025390625,12388.2294921875,2632.935791015625,-6841.818359375,4274.84521484375,4683.3359375,6623.26806640625,3824.23388671875,3117.720458984375,-4535.51611328125,-12864.2724609375,-7483.958984375,2658.3671875,-2478.758544921875,0.0,-6245.77197265625,0.0,-6734.52978515625,-12040.9326171875,3559.58935546875,-9377.796875,0.0,-15717.34765625,-2767.2451171875,0.0,-7242.361328125,0.0,4704.79345703125,-0.0,-6106.69482421875
-8695.919921875,-7800.26123046875,11236.66796875,-8122.12646484375,6671.74658203125,2400.080322265625,3463.42724609375,-5959.66943359375,0.0,-4442.533203125,-1875.5594482421875,-14371.0771484375,0.0,0.0,0.0,-3737.608642578125,1713.434814453125,11340.77734375,-0.0,-243.18695068359375,5800.72412109375,9421.5078125,6918.9072265625,2923.01171875,3263.15576171875,-5358.85498046875,-6101.92626953125,6450.81201171875,-1374.8804931640625,-3468.195556640625,9369.0556640625,-5094.2099609375,8644.263671875,6477.8330078125,5439.9169921875,7247.1298828125,2870.5595703125,-840.8228759765625,4649.95703125,-0.0,4615.78369140625,-14772.4150390625,3071.6259765625,12384.255859375,2632.935791015625,-6846.5869140625,4270.07666015625,4675.38818359375,6621.6787109375,3818.6708984375,3116.130859375,-4540.28466796875,-12863.4765625,-7491.11181640625,2658.3671875,-2485.1162109375,0.0,-6252.1298828125,0.0,-6737.708984375,-12054.443359375,3555.61572265625,-9382.5654296875,0.0,-15719.732421875,-2772.013427734375,0.0,-7247.1298828125,0.0,4696.05126953125,-0.0,-6113.05224609375
-8713.404296875,-7798.671875,11234.283203125,-8120.53662109375,6670.15673828125,2397.6962890625,3462.63232421875,-5962.0537109375,0.0,-4445.71142578125,-1873.17529296875,-14375.05078125,0.0,0.0,0.0,-3740.78759765625,1712.64013671875,11339.982421875,-0.0,-247.16058349609375,5797.544921875,9422.302734375,6916.52294921875,2919.8330078125,3261.566162109375,-5358.060546875,-6103.515625,6449.22265625,-1375.6751708984375,-3469.784912109375,9369.0556640625,-5093.41552734375,8642.673828125,6479.421875,5439.12255859375,7245.54052734375,2869.76513671875,-844.7965087890625,4646.7783203125,-0.0,4615.78369140625,-14770.8251953125,3069.24169921875,12381.87109375,2632.14111328125,-6847.3818359375,4270.87158203125,4680.95166015625,6620.0888671875,3816.286865234375,3113.74658203125,-4542.6689453125,-12877.7822265625,-7489.5224609375,2659.161865234375,-2486.705810546875,0.0,-6255.30859375,0.0,-6741.6826171875,-12059.2119140625,3552.436767578125,-9384.94921875,0.0,-15720.525390625,-2775.1923828125,0.0,-7250.30908203125,0.0,4691.28271484375,-0.0,-6119.41015625
-8722.94140625,-7792.31396484375,11238.2578125,-8117.3583984375,6670.95166015625,2400.080322265625,3461.837890625,-5956.4912109375,0.0,-4443.32763671875,-1869.9964599609375,-14371.0771484375,0.0,0.0,0.0,-3736.01904296875,1714.2296142578125,11340.77734375,-0.0,-244.77639770507812,5801.51904296875,9423.8916015625,6915.72802734375,2920.627685546875,3261.566162109375,-5353.2919921875,-6101.92626953125,6450.81201171875,-1374.0858154296875,-3465.0166015625,9371.439453125,-5091.03173828125,8645.0576171875,6484.1904296875,5439.9169921875,7250.30908203125,2869.76513671875,-843.20703125,4650.75146484375,-0.0,4618.16796875,-14762.87890625,3070.03662109375,12383.4609375,2632.14111328125,-6845.79248046875,4275.64013671875,4681.74609375,6622.47314453125,3818.6708984375,3115.336181640625,-4540.28466796875,-12884.9345703125,-7483.958984375,2659.956787109375,-2484.321533203125,0.0,-6248.951171875,0.0,-6737.708984375,-12041.7275390625,3554.0263671875,-9381.771484375,0.0,-15715.7578125,-2772.013427734375,0.0,-7243.951171875,0.0,4691.28271484375,-0.0,-6111.462890625
-8712.609375,-7787.5458984375,11244.6142578125,-8112.58984375,6671.74658203125,2402.464599609375,3462.63232421875,-5951.72265625,0.0,-4438.55908203125,-1867.6121826171875,-14366.3095703125,0.0,0.0,0.0,-3731.250732421875,1718.9979248046875,11342.3662109375,-0.0,-240.80276489257812,5803.9033203125,9428.66015625,6918.1123046875,2925.39599609375,3263.950439453125,-5347.728515625,-6102.720703125,6453.1962890625,-1371.7015380859375,-3461.043212890625,9373.0283203125,-5083.87890625,8649.03125,6489.75390625,5443.89111328125,7253.48828125,2869.76513671875,-837.6439208984375,4658.69921875,-0.0,4618.962890625,-14754.931640625,3070.03662109375,12387.4345703125,2632.14111328125,-6841.818359375,4280.408203125,4682.541015625,6620.8837890625,3820.26025390625,3116.130859375,-4537.900390625,-12868.2451171875,-7479.19091796875,2661.5458984375,-2481.142822265625,0.0,-6244.1826171875,0.0,-6732.9404296875,-12038.548828125,3557.205078125,-9378.5927734375,0.0,-15712.580078125,-2768.83447265625,0.0,-7239.18310546875,0.0,4693.6669921875,-0.0,-6103.515625
-8706.251953125,-7788.34033203125,11246.2041015625,-8111.79443359375,6671.74658203125,2403.25927734375,3462.63232421875,-5950.1328125,0.0,-4436.9697265625,-1875.5594482421875,-14367.103515625,0.0,0.0,0.0,-3730.4560546875,1721.382080078125,11346.33984375,-0.0,-240.00804138183594,5804.69775390625,9429.455078125,6919.7021484375,2926.190673828125,3262.36083984375,-5344.5498046875,-6101.92626953125,6453.99072265625,-1373.291015625,-3461.043212890625,9374.6181640625,-5080.69970703125,8650.6201171875,6490.548828125,5443.09619140625,7255.0771484375,2871.354248046875,-836.8492431640625,4656.31494140625,-0.0,4620.55224609375,-14749.3681640625,3072.4208984375,12388.2294921875,2632.935791015625,-6840.22900390625,4278.81884765625,4678.5673828125,6620.8837890625,3821.849853515625,3116.925537109375,-4537.10546875,-12866.65625,-7474.42236328125,2660.75146484375,-2479.55322265625,0.0,-6241.79833984375,0.0,-6732.14599609375,-12052.853515625,3557.999755859375,-9378.5927734375,0.0,-15712.580078125,-2768.83447265625,0.0,-7235.208984375,0.0,4702.4091796875,-0.0,-6101.13134765625
-8706.251953125,-7790.72412109375,11242.23046875,-8116.56298828125,6669.3623046875,2401.669677734375,3464.221923828125,-5953.31201171875,0.0,-4436.9697265625,-1884.301513671875,-14372.666015625,0.0,0.0,0.0,-3733.635009765625,1715.0242919921875,11341.572265625,-0.0,-239.2133026123047,5801.51904296875,9426.2763671875,6918.9072265625,2923.806396484375,3259.181884765625,-5347.728515625,-6104.310546875,6450.81201171875,-1377.2646484375,-3470.579833984375,9371.439453125,-5087.0576171875,8644.263671875,6484.9853515625,5439.12255859375,7251.8984375,2870.5595703125,-839.2333984375,4650.75146484375,-0.0,4618.962890625,-14750.1630859375,3072.4208984375,12386.6396484375,2632.935791015625,-6841.02392578125,4279.61328125,4675.38818359375,6620.8837890625,3819.465576171875,3116.130859375,-4537.900390625,-12869.0400390625,-7479.19091796875,2655.98291015625,-2484.321533203125,0.0,-6244.9775390625,0.0,-6735.32470703125,-12040.9326171875,3557.205078125,-9379.38671875,0.0,-15716.552734375,-2771.218505859375,0.0,-7232.82470703125,0.0,4702.4091796875,-0.0,-6102.720703125
-8707.046875,-7789.134765625,11244.6142578125,-8114.97412109375,6672.541015625,2401.669677734375,3465.0166015625,-5950.1328125,0.0,-4432.99609375,-1878.7384033203125,-14375.845703125,0.0,0.0,0.0,-3733.635009765625,1715.8189697265625,11343.1611328125,-0.0,-239.2133026123047,5803.9033203125,9427.865234375,6920.49658203125,2927.7802734375,3263.950439453125,-5340.576171875,-6104.310546875,6451.60693359375,-1373.291015625,-3472.964111328125,9373.0283203125,-5089.44189453125,8648.236328125,6486.57470703125,5442.30126953125,7255.0771484375,2871.354248046875,-839.2333984375,4656.31494140625,-0.0,4621.34716796875,-14746.189453125,3072.4208984375,12387.4345703125,2632.935791015625,-6838.6396484375,4284.3818359375,4680.95166015625,6624.06298828125,3819.465576171875,3116.130859375,-4536.310546875,-12873.80859375,-7493.49609375,2662.3408203125,-2492.268798828125,0.0,-6244.9775390625,0.0,-6733.7353515625,-12047.291015625,3559.58935546875,-9377.796875,0.0,-15712.580078125,-2764.06591796875,0.0,-7232.82470703125,0.0,4700.02490234375,-0.0,-6102.720703125
-8721.3515625,-7797.08251953125,11245.41015625,-8109.41015625,6674.130859375,2404.053955078125,3465.0166015625,-5950.1328125,0.0,-4434.58544921875,-1877.14892578125,-14386.9716796875,0.0,0.0,0.0,-3735.224365234375,1717.4085693359375,11344.75,-0.0,-240.80276489257812,5804.69775390625,9430.2490234375,6919.7021484375,2928.57470703125,3263.15576171875,-5338.98681640625,-6102.720703125,6451.60693359375,-1374.8804931640625,-3472.169189453125,9373.82421875,-5091.03173828125,8649.03125,6488.958984375,5443.89111328125,7256.66650390625,2871.354248046875,-839.2333984375,4656.31494140625,-0.0,4619.75732421875,-14741.4208984375,3073.215576171875,12387.4345703125,2632.935791015625,-6836.25537109375,4285.1767578125,4686.51416015625,6625.65234375,3818.6708984375,3116.925537109375,-4537.900390625,-12888.1142578125,-7502.23779296875,2659.956787109375,-2507.368896484375,0.0,-6244.1826171875,0.0,-6733.7353515625,-12057.6220703125,3559.58935546875,-9379.38671875,0.0,-15718.9365234375,-2765.655517578125,0.0,-7234.41455078125,0.0,4700.8193359375,-0.0,-6103.515625
-8734.8623046875,-7805.82421875,11242.23046875,-8109.41015625,6671.74658203125,2401.669677734375,3465.0166015625,-5951.72265625,0.0,-4432.99609375,-1880.327880859375,-14385.3828125,0.0,0.0,0.0,-3733.635009765625,1715.0242919921875,11342.3662109375,-0.0,-239.2133026123047,5803.1083984375,9428.66015625,6918.1123046875,2927.7802734375,3257.592529296875,-5346.1396484375,-6102.720703125,6450.81201171875,-1380.443603515625,-3483.29541015625,9373.82421875,-5095.0048828125,8644.263671875,6488.958984375,5443.09619140625,7256.66650390625,2871.354248046875,-837.6439208984375,4654.7255859375,-0.0,4618.962890625,-14740.6259765625,3072.4208984375,12385.8447265625,2633.730712890625,-6835.46044921875,4279.61328125,4684.92529296875,6624.06298828125,3817.876220703125,3116.925537109375,-4537.900390625,-12886.5244140625,-7494.291015625,2653.598876953125,-2501.010986328125,0.0,-6242.59326171875,0.0,-6731.3515625,-12047.291015625,3558.794677734375,-9380.9765625,0.0,-15726.884765625,-2774.397705078125,0.0,-7234.41455078125,0.0,4701.6142578125,-0.0,-6100.33642578125
-8726.1201171875,-7795.49267578125,11245.41015625,-8106.2314453125,6674.92529296875,2404.848876953125,3465.0166015625,-5949.33837890625,0.0,-4429.0224609375,-1874.7647705078125,-14371.0771484375,0.0,0.0,0.0,-3728.86669921875,1720.58740234375,11345.5458984375,-0.0,-236.03439331054688,5806.287109375,9433.4287109375,6921.29150390625,2928.57470703125,3258.38720703125,-5341.37109375,-6103.515625,6454.78564453125,-1379.6488037109375,-3473.7587890625,9377.796875,-5087.8525390625,8647.44140625,6493.72705078125,5444.685546875,7259.05078125,2871.354248046875,-833.6702880859375,4665.8515625,-0.0,4622.93603515625,-14738.2421875,3073.215576171875,12389.8193359375,2635.320068359375,-6833.07666015625,4277.2294921875,4684.92529296875,6625.65234375,3822.64453125,3116.130859375,-4533.92626953125,-12867.451171875,-7477.6015625,2653.598876953125,-2481.9375,0.0,-6237.82470703125,0.0,-6726.5830078125,-12040.138671875,3560.384033203125,-9378.5927734375,0.0,-15718.1416015625,-2772.013427734375,0.0,-7227.26220703125,0.0,4708.76708984375,-0.0,-6093.18408203125
-8703.8681640625,-7785.9560546875,11243.025390625,-8104.64208984375,6675.72021484375,2408.027587890625,3465.8115234375,-5948.54345703125,0.0,-4427.43310546875,-1868.4068603515625,-14370.2822265625,0.0,0.0,0.0,-3728.072021484375,1720.58740234375,11347.134765625,-0.0,-236.03439331054688,5804.69775390625,9434.2236328125,6922.880859375,2928.57470703125,3261.566162109375,-5335.8076171875,-6100.33642578125,6454.78564453125,-1373.291015625,-3465.8115234375,9378.5927734375,-5085.46826171875,8648.236328125,6495.31689453125,5445.48046875,7261.43505859375,2873.738525390625,-832.8755493164062,4653.9306640625,-0.0,4621.34716796875,-14731.8837890625,3074.804931640625,12391.408203125,2633.730712890625,-6829.10302734375,4272.4609375,4687.30908203125,6628.03662109375,3824.23388671875,3116.130859375,-4531.54248046875,-12861.0927734375,-7466.47509765625,2659.161865234375,-2474.784912109375,0.0,-6233.85107421875,0.0,-6722.60888671875,-12029.806640625,3561.9736328125,-9377.796875,0.0,-15710.9892578125,-2772.013427734375,0.0,-7222.49365234375,0.0,4711.1513671875,-0.0,-6088.41552734375
-8692.7412109375,-7781.982421875,11242.23046875,-8104.64208984375,6676.51513671875,2409.6171875,3466.606201171875,-5945.3642578125,0.0,-4425.048828125,-1866.022705078125,-14372.666015625,0.0,0.0,0.0,-3726.482421875,1720.58740234375,11346.33984375,-0.0,-235.2396697998047,5805.4921875,9432.6337890625,6923.67578125,2930.958984375,3265.539794921875,-5334.21826171875,-6098.7470703125,6455.580078125,-1368.522705078125,-3471.37451171875,9377.796875,-5087.0576171875,8649.03125,6495.31689453125,5446.275390625,7263.02490234375,2875.328125,-834.4650268554688,4653.9306640625,-0.0,4622.93603515625,-14724.7314453125,3074.01025390625,12392.203125,2633.730712890625,-6825.12890625,4274.05029296875,4686.51416015625,6628.83154296875,3823.439453125,3116.925537109375,-4530.748046875,-12872.21875,-7464.8857421875,2666.314453125,-2472.400634765625,0.0,-6232.26171875,0.0,-6721.01953125,-12021.064453125,3564.357666015625,-9377.796875,0.0,-15714.1689453125,-2775.1923828125,0.0,-7224.8779296875,0.0,4707.97216796875,-0.0,-6084.4423828125
-8691.947265625,-7786.7509765625,11241.435546875,-8102.2578125,6675.72021484375,2409.6171875,3465.0166015625,-5942.98046875,0.0,-4424.25390625,-1871.5858154296875,-14375.845703125,0.0,0.0,0.0,-3726.482421875,1717.4085693359375,11347.134765625,-0.0,-236.03439331054688,5803.9033203125,9431.044921875,6922.08642578125,2931.75390625,3263.15576171875,-5331.83447265625,-6100.33642578125,6457.169921875,-1370.9068603515625,-3468.195556640625,9377.0029296875,-5088.6474609375,8645.8525390625,6496.90625,5445.48046875,7263.02490234375,2873.738525390625,-832.8755493164062,4646.7783203125,-0.0,4620.55224609375,-14719.962890625,3073.215576171875,12392.203125,2633.730712890625,-6824.33447265625,4279.61328125,4684.13037109375,6627.24169921875,3823.439453125,3116.925537109375,-4530.748046875,-12876.193359375,-7472.8330078125,2663.135498046875,-2469.221923828125,0.0,-6229.08251953125,0.0,-6720.22509765625,-12024.2431640625,3564.357666015625,-9376.2080078125,0.0,-15719.732421875,-2774.397705078125,0.0,-7224.8779296875,0.0,4708.76708984375,-0.0,-6082.85302734375
-8693.5361328125,-7788.34033203125,11240.6416015625,-8099.87353515625,6674.92529296875,2412.7958984375,3464.221923828125,-5937.41748046875,0.0,-4422.66455078125,-1873.969970703125,-14372.666015625,0.0,0.0,0.0,-3721.714111328125,1718.2032470703125,11347.9296875,-0.0,-235.2396697998047,5804.69775390625,9434.2236328125,6921.29150390625,2934.9326171875,3262.36083984375,-5325.47607421875,-6101.92626953125,6461.1435546875,-1374.0858154296875,-3455.47998046875,9378.5927734375,-5088.6474609375,8645.0576171875,6502.4697265625,5447.06982421875,7266.20361328125,2872.149169921875,-830.4913940429688,4647.57275390625,-0.0,4619.75732421875,-14712.810546875,3074.804931640625,12396.9716796875,2632.935791015625,-6820.36083984375,4280.408203125,4686.51416015625,6626.447265625,3828.207763671875,3116.925537109375,-4529.158203125,-12887.318359375,-7471.2431640625,2659.956787109375,-2477.1689453125,0.0,-6224.314453125,0.0,-6717.04638671875,-12017.8857421875,3565.947265625,-9373.82421875,0.0,-15721.3212890625,-2768.83447265625,0.0,-7216.93017578125,0.0,4714.330078125,-0.0,-6076.49462890625
-8710.2255859375,-7795.49267578125,11242.23046875,-8093.51611328125,6674.92529296875,2416.769775390625,3465.8115234375,-5932.64892578125,0.0,-4416.30712890625,-1872.380615234375,-14368.693359375,0.0,0.0,0.0,-3716.945556640625,1722.1768798828125,11350.314453125,-0.0,-230.47129821777344,5806.287109375,9438.197265625,6924.47021484375,2938.111572265625,3262.36083984375,-5319.91357421875,-6101.92626953125,6463.52783203125,-1377.2646484375,-3448.327392578125,9380.9765625,-5089.44189453125,8646.6474609375,6504.853515625,5448.6591796875,7270.17724609375,2873.738525390625,-826.5177612304688,4647.57275390625,-0.0,4622.93603515625,-14707.248046875,3073.215576171875,12400.150390625,2635.320068359375,-6816.38720703125,4281.20263671875,4691.28271484375,6626.447265625,3832.18115234375,3117.720458984375,-4524.3896484375,-12881.755859375,-7461.70654296875,2658.3671875,-2478.758544921875,0.0,-6217.16162109375,0.0,-6710.68798828125,-12032.9853515625,3568.33154296875,-9371.439453125,0.0,-15723.705078125,-2760.092529296875,0.0,-7209.77783203125,0.0,4719.89306640625,-0.0,-6070.93212890625
-8736.451171875,-7789.9296875,11246.2041015625,-8097.4892578125,6677.3095703125,2417.564453125,3465.8115234375,-5931.8544921875,0.0,-4414.71728515625,-1872.380615234375,-14374.255859375,0.0,0.0,0.0,-3716.15087890625,1726.1505126953125,11351.9033203125,-0.0,-227.29237365722656,5808.67138671875,9439.7861328125,6926.8544921875,2938.906494140625,3259.9765625,-5319.91357421875,-6101.92626953125,6465.912109375,-1376.469970703125,-3445.1484375,9383.361328125,-5080.69970703125,8650.6201171875,6504.853515625,5449.45361328125,7270.17724609375,2873.738525390625,-825.7230224609375,4647.57275390625,-0.0,4624.525390625,-14711.220703125,3075.599609375,12400.9443359375,2636.909423828125,-6815.59228515625,4281.99755859375,4688.10400390625,6629.6259765625,3834.5654296875,3118.51513671875,-4522.00537109375,-12871.4248046875,-7465.6806640625,2657.572509765625,-2478.758544921875,0.0,-6221.1357421875,0.0,-6709.0986328125,-12042.5224609375,3569.126220703125,-9369.0556640625,0.0,-15723.705078125,-2764.06591796875,0.0,-7220.109375,0.0,4723.072265625,-0.0,-6070.13720703125
-8738.8349609375,-7797.876953125,11247.7939453125,-8095.10498046875,6679.69384765625,2419.15380859375,3466.606201171875,-5935.033203125,0.0,-4416.30712890625,-1881.12255859375,-14369.4873046875,0.0,0.0,0.0,-3714.5615234375,1729.3294677734375,11353.4931640625,-0.0,-229.6765594482422,5811.85009765625,9440.5810546875,6926.8544921875,2938.906494140625,3261.566162109375,-5321.5029296875,-6101.13134765625,6469.0908203125,-1374.8804931640625,-3445.943115234375,9383.361328125,-5084.67333984375,8654.5947265625,6504.853515625,5451.04345703125,7269.38232421875,2875.328125,-825.7230224609375,4660.28857421875,-0.0,4626.115234375,-14715.9892578125,3076.394287109375,12403.3291015625,2635.320068359375,-6816.38720703125,4278.0244140625,4695.2568359375,6631.21533203125,3839.333740234375,3119.3095703125,-4522.80029296875,-12873.80859375,-7472.0380859375,2659.956787109375,-2477.1689453125,0.0,-6222.72509765625,0.0,-6709.0986328125,-12043.31640625,3569.126220703125,-9368.2607421875,0.0,-15722.91015625,-2763.271240234375,0.0,-7233.61962890625,0.0,4724.6611328125,-0.0,-6071.7265625
-8712.609375,-7803.43994140625,11247.7939453125,-8094.310546875,6680.48876953125,2418.359130859375,3465.8115234375,-5938.2119140625,0.0,-4417.896484375,-1883.5068359375,-14375.05078125,0.0,0.0,0.0,-3715.356201171875,1726.1505126953125,11352.6982421875,-0.0,-231.26602172851562,5811.0556640625,9440.5810546875,6925.2646484375,2936.522216796875,3262.36083984375,-5325.47607421875,-6101.92626953125,6468.2958984375,-1373.291015625,-3449.1220703125,9382.5654296875,-5088.6474609375,8652.2099609375,6504.05859375,5452.6328125,7266.998046875,2874.533447265625,-826.5177612304688,4657.904296875,-0.0,4625.3203125,-14724.7314453125,3076.394287109375,12403.3291015625,2635.320068359375,-6817.9765625,4276.4345703125,4702.4091796875,6629.6259765625,3839.333740234375,3118.51513671875,-4523.59521484375,-12880.166015625,-7465.6806640625,2660.75146484375,-2500.21630859375,0.0,-6226.6982421875,0.0,-6713.072265625,-12031.3955078125,3566.741943359375,-9368.2607421875,0.0,-15726.08984375,-2765.655517578125,0.0,-7231.2353515625,0.0,4722.27734375,-0.0,-6074.9052734375
-8699.099609375,-7805.029296875,11245.41015625,-8104.64208984375,6674.130859375,2412.00146484375,3465.0166015625,-5942.98046875,0.0,-4419.4853515625,-1885.8909912109375,-14382.998046875,0.0,0.0,0.0,-3723.303466796875,1719.792724609375,11347.9296875,-0.0,-232.0607452392578,5806.287109375,9433.4287109375,6922.08642578125,2930.958984375,3257.592529296875,-5338.19189453125,-6105.10498046875,6461.1435546875,-1378.059326171875,-3464.221923828125,9376.2080078125,-5091.826171875,8649.03125,6496.111328125,5445.48046875,7260.640625,2870.5595703125,-828.9019165039062,4651.54638671875,-0.0,4620.55224609375,-14737.447265625,3074.01025390625,12398.560546875,2633.730712890625,-6822.74462890625,4272.4609375,4691.28271484375,6624.857421875,3832.18115234375,3117.720458984375,-4527.56884765625,-12882.5498046875,-7471.2431640625,2656.777587890625,-2494.653076171875,0.0,-6236.2353515625,0.0,-6717.04638671875,-12045.701171875,3562.768310546875,-9372.234375,0.0,-15736.421875,-2774.397705078125,0.0,-7222.49365234375,0.0,4720.68798828125,-0.0,-6081.26318359375
-8695.919921875,-7795.49267578125,11241.435546875,-8111.0,6671.74658203125,2408.027587890625,3465.0166015625,-5946.9541015625,0.0,-4425.048828125,-1881.9173583984375,-14381.408203125,0.0,0.0,0.0,-3727.277099609375,1718.9979248046875,11345.5458984375,-0.0,-234.44493103027344,5802.3134765625,9431.8388671875,6918.9072265625,2929.36962890625,3258.38720703125,-5340.576171875,-6105.10498046875,6458.75927734375,-1378.8541259765625,-3463.42724609375,9376.2080078125,-5092.62109375,8647.44140625,6492.1376953125,5443.09619140625,7255.8720703125,2871.354248046875,-832.080810546875,4647.57275390625,-0.0,4618.16796875,-14740.6259765625,3073.215576171875,12395.3818359375,2632.935791015625,-6826.71875,4271.666015625,4688.10400390625,6624.06298828125,3829.00244140625,3115.336181640625,-4532.33740234375,-12876.193359375,-7472.0380859375,2655.98291015625,-2473.990234375,0.0,-6241.00341796875,0.0,-6721.814453125,-12041.7275390625,3560.384033203125,-9377.0029296875,0.0,-15734.037109375,-2778.37109375,0.0,-7234.41455078125,0.0,4709.56201171875,-0.0,-6089.21044921875
-8696.7158203125,-7797.876953125,11236.66796875,-8109.41015625,6669.3623046875,2408.822265625,3465.8115234375,-5945.3642578125,0.0,-4425.048828125,-1878.7384033203125,-14375.845703125,0.0,0.0,0.0,-3726.482421875,1716.61376953125,11344.75,-0.0,-234.44493103027344,5802.3134765625,9431.044921875,6919.7021484375,2930.164306640625,3256.7978515625,-5337.39697265625,-6104.310546875,6461.9384765625,-1378.059326171875,-3458.658935546875,9375.4130859375,-5095.7998046875,8644.263671875,6492.1376953125,5442.30126953125,7256.66650390625,2872.149169921875,-832.8755493164062,4643.59912109375,-0.0,4618.16796875,-14741.4208984375,3074.01025390625,12394.587890625,2634.525390625,-6827.51318359375,4268.4873046875,4695.2568359375,6622.47314453125,3829.797119140625,3116.925537109375,-4531.54248046875,-12860.2978515625,-7471.2431640625,2654.3935546875,-2466.837646484375,0.0,-6239.4140625,0.0,-6724.9931640625,-12036.9599609375,3559.58935546875,-9376.2080078125,0.0,-15726.884765625,-2771.218505859375,0.0,-7231.2353515625,0.0,4709.56201171875,-0.0,-6086.826171875
-8707.8408203125,-7800.26123046875,11235.873046875,-8111.0,6670.95166015625,2409.6171875,3466.606201171875,-5943.775390625,0.0,-4420.2802734375,-1873.17529296875,-14374.255859375,0.0,0.0,0.0,-3725.687744140625,1717.4085693359375,11346.33984375,-0.0,-232.0607452392578,5804.69775390625,9430.2490234375,6921.29150390625,2930.164306640625,3255.208251953125,-5343.75537109375,-6105.89990234375,6461.9384765625,-1379.6488037109375,-3459.45361328125,9374.6181640625,-5096.59423828125,8642.673828125,6490.548828125,5443.89111328125,7256.66650390625,2872.149169921875,-832.8755493164062,4646.7783203125,-0.0,4618.16796875,-14746.189453125,3073.215576171875,12395.3818359375,2634.525390625,-6826.71875,4270.07666015625,4687.30908203125,6621.6787109375,3828.207763671875,3117.720458984375,-4529.953125,-12860.2978515625,-7479.19091796875,2652.80419921875,-2470.81103515625,0.0,-6237.0302734375,0.0,-6724.19873046875,-12048.880859375,3562.768310546875,-9373.82421875,0.0,-15725.2939453125,-2772.80810546875,0.0,-7222.49365234375,0.0,4715.91943359375,-0.0,-6083.6474609375
-8713.404296875,-7788.34033203125,11244.6142578125,-8107.02587890625,6676.51513671875,2413.590576171875,3466.606201171875,-5940.59619140625,0.0,-4421.0751953125,-1864.433349609375,-14364.7197265625,0.0,0.0,0.0,-3720.91943359375,1724.56103515625,11351.1083984375,-0.0,-232.85548400878906,5811.0556640625,9435.8125,6926.0595703125,2935.727294921875,3261.566162109375,-5342.16552734375,-6102.720703125,6466.70654296875,-1375.6751708984375,-3451.50634765625,9380.181640625,-5090.23681640625,8651.416015625,6496.111328125,5448.6591796875,7261.43505859375,2874.533447265625,-827.3125,4655.52001953125,-0.0,4623.73095703125,-14743.0107421875,3074.804931640625,12401.740234375,2634.525390625,-6824.33447265625,4279.61328125,4686.51416015625,6627.24169921875,3832.97607421875,3118.51513671875,-4523.59521484375,-12861.8876953125,-7472.8330078125,2657.572509765625,-2462.864013671875,0.0,-6232.26171875,0.0,-6720.22509765625,-12058.4169921875,3567.53662109375,-9369.8505859375,0.0,-15722.1162109375,-2767.2451171875,0.0,-7216.93017578125,0.0,4719.89306640625,-0.0,-6084.4423828125
-8703.8681640625,-7782.77734375,11243.8203125,-8105.4375,6678.1044921875,2414.385498046875,3465.8115234375,-5939.8017578125,0.0,-4419.4853515625,-1872.380615234375,-14366.3095703125,0.0,0.0,0.0,-3717.740234375,1723.766357421875,11352.6982421875,-0.0,-230.47129821777344,5810.2607421875,9437.4013671875,6930.033203125,2936.522216796875,3260.771484375,-5338.19189453125,-6101.13134765625,6466.70654296875,-1377.2646484375,-3450.71142578125,9382.5654296875,-5089.44189453125,8650.6201171875,6496.90625,5450.24853515625,7262.22998046875,2875.328125,-827.3125,4649.162109375,-0.0,4622.93603515625,-14745.39453125,3074.804931640625,12403.3291015625,2635.320068359375,-6823.53955078125,4280.408203125,4692.87255859375,6627.24169921875,3835.3603515625,3119.3095703125,-4522.80029296875,-12865.861328125,-7472.8330078125,2657.572509765625,-2465.248046875,0.0,-6229.08251953125,0.0,-6716.25146484375,-12053.6494140625,3569.9208984375,-9369.8505859375,0.0,-15726.08984375,-2762.4765625,0.0,-7212.95703125,0.0,4725.4560546875,-0.0,-6077.28955078125
-8720.5576171875,-7780.39306640625,11247.7939453125,-8100.6689453125,6679.69384765625,2419.15380859375,3466.606201171875,-5935.82763671875,0.0,-4418.69091796875,-1873.969970703125,-14372.666015625,0.0,0.0,0.0,-3713.766845703125,1726.1505126953125,11355.876953125,-0.0,-228.8818359375,5814.234375,9439.7861328125,6930.033203125,2938.906494140625,3266.33447265625,-5334.21826171875,-6098.7470703125,6471.47509765625,-1371.7015380859375,-3448.327392578125,9384.94921875,-5087.0576171875,8653.0048828125,6500.8798828125,5452.6328125,7266.998046875,2873.738525390625,-823.3388061523438,4652.34130859375,-0.0,4626.90966796875,-14744.599609375,3077.189208984375,12408.892578125,2635.320068359375,-6822.74462890625,4285.1767578125,4694.4619140625,6630.4208984375,3839.333740234375,3117.720458984375,-4518.8271484375,-12877.7822265625,-7481.5751953125,2663.93017578125,-2465.248046875,0.0,-6225.90380859375,0.0,-6714.662109375,-12041.7275390625,3570.715576171875,-9368.2607421875,0.0,-15718.9365234375,-2756.913330078125,0.0,-7212.162109375,0.0,4726.2509765625,-0.0,-6077.28955078125
-8747.578125,-7781.1875,11247.7939453125,-8100.6689453125,6680.48876953125,2420.7431640625,3465.8115234375,-5938.2119140625,0.0,-4420.2802734375,-1873.17529296875,-14367.8984375,0.0,0.0,0.0,-3718.53515625,1726.9453125,11358.2607421875,-0.0,-232.0607452392578,5814.234375,9441.3759765625,6929.23876953125,2938.906494140625,3268.71875,-5335.0126953125,-6097.9521484375,6472.26953125,-1370.112060546875,-3449.916748046875,9384.94921875,-5087.0576171875,8654.5947265625,6504.05859375,5452.6328125,7266.998046875,2874.533447265625,-822.5440673828125,4657.904296875,-0.0,4629.2939453125,-14746.189453125,3077.189208984375,12406.5087890625,2635.320068359375,-6825.12890625,4281.99755859375,4696.84619140625,6631.21533203125,3838.5390625,3117.720458984375,-4520.416015625,-12888.908203125,-7496.6748046875,2665.519775390625,-2467.63232421875,0.0,-6231.466796875,0.0,-6717.8408203125,-12037.75390625,3569.9208984375,-9367.4658203125,0.0,-15713.373046875,-2764.06591796875,0.0,-7219.314453125,0.0,4720.68798828125,-0.0,-6082.85302734375
-8716.5830078125,-7776.4189453125,11246.9990234375,-8099.87353515625,6681.28369140625,2420.7431640625,3465.8115234375,-5941.39111328125,0.0,-4427.43310546875,-1870.7911376953125,-14360.7451171875,0.0,0.0,0.0,-3722.5087890625,1726.9453125,11355.876953125,-0.0,-236.82911682128906,5813.43994140625,9442.169921875,6930.828125,2937.31689453125,3268.71875,-5333.423828125,-6096.36328125,6469.0908203125,-1366.9332275390625,-3453.890625,9387.333984375,-5087.0576171875,8656.1845703125,6504.05859375,5452.6328125,7266.998046875,2875.328125,-824.133544921875,4657.10986328125,-0.0,4629.2939453125,-14742.21484375,3075.599609375,12404.1240234375,2636.11474609375,-6829.10302734375,4278.0244140625,4699.22998046875,6632.009765625,3837.744384765625,3117.720458984375,-4525.1845703125,-12874.603515625,-7484.75390625,2667.90380859375,-2470.0166015625,0.0,-6233.056640625,0.0,-6723.40380859375,-12033.7802734375,3569.9208984375,-9369.8505859375,0.0,-15709.400390625,-2768.83447265625,0.0,-7228.8515625,0.0,4708.76708984375,-0.0,-6097.9521484375
-8690.357421875,-7774.03515625,11247.7939453125,-8099.87353515625,6681.28369140625,2419.15380859375,3465.0166015625,-5942.18603515625,0.0,-4432.201171875,-1874.7647705078125,-14360.7451171875,0.0,0.0,0.0,-3723.303466796875,1726.1505126953125,11355.08203125,-0.0,-240.00804138183594,5811.85009765625,9440.5810546875,6929.23876953125,2937.31689453125,3267.924072265625,-5332.62890625,-6097.15771484375,6468.2958984375,-1369.3173828125,-3452.301025390625,9384.94921875,-5090.23681640625,8653.0048828125,6501.6748046875,5452.6328125,7267.79296875,2877.712158203125,-826.5177612304688,4652.34130859375,-0.0,4628.49951171875,-14739.8310546875,3074.804931640625,12402.5341796875,2634.525390625,-6829.8974609375,4281.20263671875,4700.02490234375,6632.8046875,3836.155029296875,3118.51513671875,-4526.77392578125,-12868.2451171875,-7478.39599609375,2665.519775390625,-2473.1953125,0.0,-6233.056640625,0.0,-6727.37744140625,-12030.6015625,3569.9208984375,-9373.82421875,0.0,-15711.7841796875,-2770.423828125,0.0,-7229.64599609375,0.0,4703.20361328125,-0.0,-6108.2841796875
-8699.099609375,-7781.1875,11249.3828125,-8102.2578125,6681.28369140625,2417.564453125,3465.8115234375,-5942.18603515625,0.0,-4432.201171875,-1880.327880859375,-14367.103515625,0.0,0.0,0.0,-3724.892822265625,1725.355712890625,11355.876953125,-0.0,-240.80276489257812,5812.64501953125,9438.197265625,6928.44384765625,2937.31689453125,3266.33447265625,-5333.423828125,-6097.15771484375,6465.912109375,-1370.9068603515625,-3454.685302734375,9384.1552734375,-5091.826171875,8651.416015625,6499.29052734375,5452.6328125,7267.79296875,2875.328125,-826.5177612304688,4656.31494140625,-0.0,4626.115234375,-14738.2421875,3074.01025390625,12401.740234375,2636.11474609375,-6829.10302734375,4282.79248046875,4693.6669921875,6632.009765625,3833.770751953125,3118.51513671875,-4527.56884765625,-12869.8349609375,-7473.62744140625,2665.519775390625,-2475.57958984375,0.0,-6233.85107421875,0.0,-6726.5830078125,-12042.5224609375,3569.126220703125,-9376.2080078125,0.0,-15716.552734375,-2768.039794921875,0.0,-7226.46728515625,0.0,4703.20361328125,-0.0,-6113.05224609375
-8706.251953125,-7785.9560546875,11246.9990234375,-8103.05322265625,6680.48876953125,2415.974853515625,3467.40087890625,-5941.39111328125,0.0,-4431.40673828125,-1879.533203125,-14367.8984375,0.0,0.0,0.0,-3727.277099609375,1724.56103515625,11353.4931640625,-0.0,-238.4185791015625,5812.64501953125,9437.4013671875,6929.23876953125,2936.522216796875,3265.539794921875,-5334.21826171875,-6095.568359375,6463.52783203125,-1370.9068603515625,-3454.685302734375,9382.5654296875,-5090.23681640625,8650.6201171875,6500.08544921875,5451.837890625,7264.6142578125,2874.533447265625,-828.107177734375,4653.9306640625,-0.0,4626.90966796875,-14735.8583984375,3074.804931640625,12400.9443359375,2636.909423828125,-6829.8974609375,4276.4345703125,4687.30908203125,6631.21533203125,3832.97607421875,3119.3095703125,-4528.36376953125,-12876.193359375,-7464.8857421875,2663.135498046875,-2473.990234375,0.0,-6233.056640625,0.0,-6727.37744140625,-12050.4697265625,3569.126220703125,-9374.6181640625,0.0,-15719.732421875,-2770.423828125,0.0,-7225.67236328125,0.0,4698.435546875,-0.0,-6115.4365234375
-8704.662109375,-7793.1083984375,11247.7939453125,-8104.64208984375,6678.8994140625,2415.18017578125,3465.8115234375,-5942.98046875,0.0,-4429.8173828125,-1875.5594482421875,-14370.2822265625,0.0,0.0,0.0,-3726.482421875,1722.1768798828125,11351.1083984375,-0.0,-238.4185791015625,5810.2607421875,9435.017578125,6926.8544921875,2935.727294921875,3263.15576171875,-5332.62890625,-6098.7470703125,6463.52783203125,-1372.4962158203125,-3454.685302734375,9381.771484375,-5087.8525390625,8651.416015625,6500.8798828125,5451.04345703125,7264.6142578125,2873.738525390625,-829.6966552734375,4651.54638671875,-0.0,4626.90966796875,-14734.2685546875,3076.394287109375,12400.150390625,2635.320068359375,-6829.10302734375,4276.4345703125,4683.3359375,6630.4208984375,3832.18115234375,3119.3095703125,-4527.56884765625,-12890.498046875,-7458.52783203125,2659.161865234375,-2475.57958984375,0.0,-6232.26171875,0.0,-6725.7880859375,-12060.005859375,3567.53662109375,-9374.6181640625,0.0,-15722.91015625,-2767.2451171875,0.0,-7225.67236328125,0.0,4700.02490234375,-0.0,-6112.25732421875
-8707.8408203125,-7794.6982421875,11244.6142578125,-8108.61572265625,6676.51513671875,2413.590576171875,3465.8115234375,-5942.18603515625,0.0,-4427.43310546875,-1877.943603515625,-14375.05078125,0.0,0.0,0.0,-3722.5087890625,1719.792724609375,11348.724609375,-0.0,-238.4185791015625,5807.87646484375,9433.4287109375,6924.47021484375,2933.34326171875,3257.592529296875,-5334.21826171875,-6101.92626953125,6464.32275390625,-1378.8541259765625,-3458.658935546875,9379.38671875,-5092.62109375,8648.236328125,6497.701171875,5447.86474609375,7263.8193359375,2873.738525390625,-829.6966552734375,4646.7783203125,-0.0,4622.1416015625,-14738.2421875,3074.01025390625,12397.765625,2633.730712890625,-6825.923828125,4274.84521484375,4680.15673828125,6627.24169921875,3829.00244140625,3118.51513671875,-4528.36376953125,-12892.8828125,-7469.654296875,2654.3935546875,-2479.55322265625,0.0,-6232.26171875,0.0,-6722.60888671875,-12054.443359375,3565.947265625,-9373.82421875,0.0,-15723.705078125,-2766.4501953125,0.0,-7220.90380859375,0.0,4707.177734375,-0.0,-6103.515625
-8708.63671875,-7785.9560546875,11240.6416015625,-8105.4375,6675.72021484375,2414.385498046875,3465.8115234375,-5941.39111328125,0.0,-4426.63818359375,-1877.14892578125,-14372.666015625,0.0,0.0,0.0,-3721.714111328125,1718.2032470703125,11353.4931640625,-0.0,-237.6238555908203,5807.08154296875,9436.607421875,6924.47021484375,2934.137939453125,3259.181884765625,-5331.03955078125,-6101.92626953125,6465.912109375,-1378.059326171875,-3455.47998046875,9380.181640625,-5092.62109375,8645.8525390625,6496.90625,5449.45361328125,7265.4091796875,2874.533447265625,-827.3125,4640.42041015625,-0.0,4622.1416015625,-14735.0625,3073.215576171875,12399.35546875,2634.525390625,-6825.12890625,4272.4609375,4686.51416015625,6626.447265625,3832.18115234375,3117.720458984375,-4526.77392578125,-12878.5771484375,-7472.8330078125,2659.161865234375,-2476.374267578125,0.0,-6229.87744140625,0.0,-6721.814453125,-12031.3955078125,3566.741943359375,-9373.0283203125,0.0,-15725.2939453125,-2763.271240234375,0.0,-7221.69873046875,0.0,4706.3828125,-0.0,-6101.13134765625
-8720.5576171875,-7785.9560546875,11240.6416015625,-8102.2578125,6676.51513671875,2413.590576171875,3467.40087890625,-5940.59619140625,0.0,-4427.43310546875,-1874.7647705078125,-14368.693359375,0.0,0.0,0.0,-3724.892822265625,1717.4085693359375,11352.6982421875,-0.0,-237.6238555908203,5807.08154296875,9437.4013671875,6925.2646484375,2934.9326171875,3263.15576171875,-5327.06591796875,-6099.5419921875,6465.912109375,-1374.0858154296875,-3453.095703125,9380.181640625,-5093.41552734375,8648.236328125,6497.701171875,5447.86474609375,7266.20361328125,2875.328125,-828.107177734375,4644.39404296875,-0.0,4622.1416015625,-14731.08984375,3072.4208984375,12400.9443359375,2634.525390625,-6825.12890625,4272.4609375,4690.48828125,6628.03662109375,3833.770751953125,3117.720458984375,-4525.9794921875,-12872.21875,-7476.01171875,2660.75146484375,-2471.60595703125,0.0,-6228.2880859375,0.0,-6724.9931640625,-12034.5751953125,3565.947265625,-9373.0283203125,0.0,-15723.705078125,-2757.708251953125,0.0,-7236.798828125,0.0,4698.435546875,-0.0,-6103.515625
-8729.298828125,-7788.34033203125,11242.23046875,-8103.84765625,6675.72021484375,2415.974853515625,3466.606201171875,-5936.62255859375,0.0,-4421.86962890625,-1873.969970703125,-14367.103515625,0.0,0.0,0.0,-3721.714111328125,1721.382080078125,11351.9033203125,-0.0,-232.85548400878906,5807.08154296875,9438.197265625,6926.8544921875,2936.522216796875,3263.950439453125,-5327.06591796875,-6101.13134765625,6467.5009765625,-1371.7015380859375,-3458.658935546875,9380.181640625,-5091.03173828125,8650.6201171875,6499.29052734375,5448.6591796875,7265.4091796875,2875.328125,-825.7230224609375,4649.95703125,-0.0,4621.34716796875,-14728.705078125,3075.599609375,12404.9189453125,2635.320068359375,-6821.15576171875,4275.64013671875,4690.48828125,6628.03662109375,3836.94970703125,3120.1044921875,-4522.80029296875,-12873.013671875,-7476.01171875,2661.5458984375,-2470.81103515625,0.0,-6226.6982421875,0.0,-6717.8408203125,-12044.1123046875,3568.33154296875,-9370.64453125,0.0,-15718.9365234375,-2757.708251953125,0.0,-7225.67236328125,0.0,4710.3564453125,-0.0,-6091.5947265625
-8718.9677734375,-7792.31396484375,11249.3828125,-8104.64208984375,6677.3095703125,2415.18017578125,3466.606201171875,-5936.62255859375,0.0,-4418.69091796875,-1870.7911376953125,-14373.4619140625,0.0,0.0,0.0,-3719.329833984375,1722.9715576171875,11351.1083984375,-0.0,-232.0607452392578,5808.67138671875,9438.197265625,6925.2646484375,2938.111572265625,3262.36083984375,-5328.6552734375,-6101.92626953125,6465.912109375,-1372.4962158203125,-3463.42724609375,9380.181640625,-5089.44189453125,8654.5947265625,6498.49560546875,5448.6591796875,7266.20361328125,2873.738525390625,-826.5177612304688,4655.52001953125,-0.0,4624.525390625,-14727.91015625,3075.599609375,12401.740234375,2634.525390625,-6821.9501953125,4281.20263671875,4688.8984375,6627.24169921875,3835.3603515625,3118.51513671875,-4523.59521484375,-12875.3974609375,-7473.62744140625,2662.3408203125,-2476.374267578125,0.0,-6232.26171875,0.0,-6715.45654296875,-12053.6494140625,3569.126220703125,-9370.64453125,0.0,-15717.34765625,-2768.039794921875,0.0,-7210.57275390625,0.0,4715.12451171875,-0.0,-6085.23681640625
-8726.1201171875,-7796.28759765625,11250.97265625,-8101.46337890625,6678.1044921875,2417.564453125,3466.606201171875,-5937.41748046875,0.0,-4418.69091796875,-1873.17529296875,-14371.8720703125,0.0,0.0,0.0,-3720.12451171875,1723.766357421875,11351.9033203125,-0.0,-232.85548400878906,5811.0556640625,9438.197265625,6925.2646484375,2937.31689453125,3260.771484375,-5327.06591796875,-6101.92626953125,6465.1171875,-1374.0858154296875,-3459.45361328125,9380.9765625,-5087.0576171875,8653.7998046875,6498.49560546875,5448.6591796875,7268.58740234375,2872.94384765625,-826.5177612304688,4656.31494140625,-0.0,4626.115234375,-14720.7578125,3074.804931640625,12401.740234375,2635.320068359375,-6821.9501953125,4282.79248046875,4688.8984375,6627.24169921875,3833.770751953125,3118.51513671875,-4523.59521484375,-12884.1396484375,-7472.0380859375,2659.956787109375,-2477.1689453125,0.0,-6232.26171875,0.0,-6715.45654296875,-12061.595703125,3569.126220703125,-9371.439453125,0.0,-15720.525390625,-2770.423828125,0.0,-7210.57275390625,0.0,4713.53515625,-0.0,-6086.03125
-8734.0673828125,-7805.029296875,11250.1787109375,-8099.87353515625,6677.3095703125,2418.359130859375,3466.606201171875,-5935.82763671875,0.0,-4419.4853515625,-1873.969970703125,-14373.4619140625,0.0,0.0,0.0,-3719.329833984375,1725.355712890625,11351.9033203125,-0.0,-232.85548400878906,5811.0556640625,9440.5810546875,6926.0595703125,2939.701171875,3259.9765625,-5327.06591796875,-6103.515625,6465.912109375,-1378.059326171875,-3457.864013671875,9382.5654296875,-5084.67333984375,8656.1845703125,6500.8798828125,5450.24853515625,7270.9716796875,2873.738525390625,-824.9282836914062,4658.69921875,-0.0,4626.115234375,-14715.9892578125,3075.599609375,12402.5341796875,2636.909423828125,-6820.36083984375,4279.61328125,4687.30908203125,6626.447265625,3833.770751953125,3117.720458984375,-4522.80029296875,-12881.755859375,-7472.8330078125,2656.777587890625,-2477.1689453125,0.0,-6229.08251953125,0.0,-6715.45654296875,-12071.1328125,3569.9208984375,-9371.439453125,0.0,-15722.91015625,-2770.423828125,0.0,-7212.162109375,0.0,4712.740234375,-0.0,-6086.03125
-8724.5302734375,-7810.5927734375,11244.6142578125,-8099.0791015625,6673.3359375,2417.564453125,3466.606201171875,-5933.443359375,0.0,-4414.71728515625,-1879.533203125,-14376.640625,0.0,0.0,0.0,-3716.15087890625,1723.766357421875,11351.1083984375,-0.0,-228.0871124267578,5807.08154296875,9438.9912109375,6925.2646484375,2939.701171875,3255.208251953125,-5324.681640625,-6105.10498046875,6465.912109375,-1382.032958984375,-3461.043212890625,9381.771484375,-5087.0576171875,8651.416015625,6500.8798828125,5448.6591796875,7270.17724609375,2873.738525390625,-824.9282836914062,4654.7255859375,-0.0,4624.525390625,-14714.400390625,3075.599609375,12404.1240234375,2636.11474609375,-6817.9765625,4272.4609375,4685.7197265625,6624.857421875,3834.5654296875,3120.1044921875,-4522.80029296875,-12873.013671875,-7479.19091796875,2652.80419921875,-2477.963623046875,0.0,-6224.314453125,0.0,-6712.27783203125,-12064.7744140625,3569.126220703125,-9369.0556640625,0.0,-15731.6533203125,-2772.013427734375,0.0,-7207.3935546875,0.0,4719.89306640625,-0.0,-6075.7001953125
-8713.404296875,-7804.23486328125,11245.41015625,-8093.51611328125,6675.72021484375,2421.5380859375,3467.40087890625,-5929.47021484375,0.0,-4413.1279296875,-1877.943603515625,-14371.8720703125,0.0,0.0,0.0,-3714.5615234375,1724.56103515625,11353.4931640625,-0.0,-228.0871124267578,5811.0556640625,9442.169921875,6929.23876953125,2942.8798828125,3259.181884765625,-5319.11865234375,-6102.720703125,6469.88525390625,-1379.6488037109375,-3457.0693359375,9383.361328125,-5087.8525390625,8652.2099609375,6504.05859375,5451.04345703125,7274.15087890625,2875.328125,-820.9546508789062,4651.54638671875,-0.0,4626.115234375,-14706.4521484375,3075.599609375,12406.5087890625,2636.909423828125,-6814.0029296875,4276.4345703125,4690.48828125,6624.857421875,3837.744384765625,3120.1044921875,-4520.416015625,-12873.80859375,-7474.42236328125,2656.777587890625,-2473.1953125,0.0,-6217.16162109375,0.0,-6709.8935546875,-12033.7802734375,3572.304931640625,-9367.4658203125,0.0,-15726.884765625,-2764.86083984375,0.0,-7202.62548828125,0.0,4723.86669921875,-0.0,-6070.93212890625
-8711.814453125,-7799.466796875,11246.2041015625,-8091.9267578125,6674.92529296875,2421.5380859375,3466.606201171875,-5930.26513671875,0.0,-4413.9228515625,-1876.354248046875,-14374.255859375,0.0,0.0,0.0,-3716.15087890625,1725.355712890625,11352.6982421875,-0.0,-228.8818359375,5810.2607421875,9442.9658203125,6928.44384765625,2940.495849609375,3263.15576171875,-5319.91357421875,-6101.92626953125,6468.2958984375,-1377.2646484375,-3450.71142578125,9382.5654296875,-5085.46826171875,8651.416015625,6505.64794921875,5451.04345703125,7272.5615234375,2875.328125,-822.5440673828125,4649.162109375,-0.0,4626.90966796875,-14708.0419921875,3077.189208984375,12404.9189453125,2636.11474609375,-6817.18212890625,4278.81884765625,4695.2568359375,6626.447265625,3836.94970703125,3118.51513671875,-4522.00537109375,-12874.603515625,-7468.859375,2658.3671875,-2474.784912109375,0.0,-6216.3671875,0.0,-6710.68798828125,-12039.34375,3571.51025390625,-9369.8505859375,0.0,-15724.5009765625,-2760.88720703125,0.0,-7207.3935546875,0.0,4719.89306640625,-0.0,-6074.9052734375
-8711.814453125,-7801.0556640625,11239.8466796875,-8097.4892578125,6671.74658203125,2414.385498046875,3466.606201171875,-5935.82763671875,0.0,-4416.30712890625,-1883.5068359375,-14379.0244140625,0.0,0.0,0.0,-3719.329833984375,1720.58740234375,11348.724609375,-0.0,-232.85548400878906,5806.287109375,9438.9912109375,6924.47021484375,2935.727294921875,3257.592529296875,-5326.27099609375,-6105.89990234375,6464.32275390625,-1380.443603515625,-3455.47998046875,9379.38671875,-5087.8525390625,8647.44140625,6500.08544921875,5446.275390625,7266.998046875,2872.94384765625,-824.9282836914062,4644.39404296875,-0.0,4620.55224609375,-14715.9892578125,3074.804931640625,12400.150390625,2635.320068359375,-6821.9501953125,4276.4345703125,4690.48828125,6624.06298828125,3830.591796875,3118.51513671875,-4525.1845703125,-12869.8349609375,-7472.0380859375,2655.188232421875,-2479.55322265625,0.0,-6223.52001953125,0.0,-6714.662109375,-12075.1064453125,3569.9208984375,-9372.234375,0.0,-15729.2685546875,-2764.86083984375,0.0,-7213.75146484375,0.0,4711.94580078125,-0.0,-6086.03125
-8713.404296875,-7805.82421875,11237.4619140625,-8106.2314453125,6670.95166015625,2409.6171875,3467.40087890625,-5940.59619140625,0.0,-4417.896484375,-1878.7384033203125,-14385.3828125,0.0,0.0,0.0,-3723.303466796875,1714.2296142578125,11344.75,-0.0,-232.0607452392578,5803.9033203125,9433.4287109375,6922.880859375,2934.137939453125,3255.208251953125,-5335.0126953125,-6105.10498046875,6461.1435546875,-1382.032958984375,-3465.0166015625,9374.6181640625,-5097.38916015625,8644.263671875,6492.1376953125,5443.89111328125,7260.640625,2873.738525390625,-827.3125,4638.83056640625,-0.0,4618.16796875,-14727.115234375,3074.01025390625,12396.1767578125,2636.11474609375,-6825.12890625,4275.64013671875,4682.541015625,6620.8837890625,3827.412841796875,3118.51513671875,-4525.9794921875,-12865.06640625,-7476.01171875,2653.598876953125,-2489.884521484375,0.0,-6228.2880859375,0.0,-6717.8408203125,-12066.3642578125,3567.53662109375,-9373.82421875,0.0,-15734.037109375,-2762.4765625,0.0,-7220.109375,0.0,4715.91943359375,-0.0,-6078.87890625
-8709.4306640625,-7811.3876953125,11236.66796875,-8115.7685546875,6670.15673828125,2404.848876953125,3467.40087890625,-5945.3642578125,0.0,-4427.43310546875,-1882.7120361328125,-14389.35546875,0.0,0.0,0.0,-3728.072021484375,1707.871826171875,11342.3662109375,-0.0,-236.82911682128906,5801.51904296875,9427.865234375,6919.7021484375,2929.36962890625,3248.8505859375,-5344.5498046875,-6105.10498046875,6457.96435546875,-1389.185546875,-3478.527099609375,9371.439453125,-5106.130859375,8640.2890625,6484.9853515625,5441.5068359375,7256.66650390625,2874.533447265625,-832.080810546875,4634.0625,-0.0,4616.57861328125,-14738.2421875,3073.215576171875,12392.203125,2636.909423828125,-6829.8974609375,4269.28173828125,4673.00390625,6620.0888671875,3821.849853515625,3119.3095703125,-4531.54248046875,-12880.166015625,-7482.3701171875,2648.830322265625,-2493.063720703125,0.0,-6232.26171875,0.0,-6726.5830078125,-12051.2646484375,3561.9736328125,-9377.0029296875,0.0,-15745.1630859375,-2754.529296875,0.0,-7225.67236328125,0.0,4710.3564453125,-0.0,-6090.00537109375
-8704.662109375,-7811.3876953125,11244.6142578125,-8108.61572265625,6675.72021484375,2409.6171875,3467.40087890625,-5945.3642578125,0.0,-4430.6123046875,-1877.943603515625,-14382.998046875,0.0,0.0,0.0,-3728.072021484375,1714.2296142578125,11347.9296875,-0.0,-239.2133026123047,5805.4921875,9433.4287109375,6922.08642578125,2930.164306640625,3253.618896484375,-5338.98681640625,-6102.720703125,6458.75927734375,-1383.62255859375,-3483.29541015625,9376.2080078125,-5099.7734375,8647.44140625,6492.1376953125,5445.48046875,7260.640625,2875.328125,-831.2861328125,4646.7783203125,-0.0,4622.1416015625,-14736.65234375,3076.394287109375,12395.3818359375,2636.909423828125,-6829.8974609375,4276.4345703125,4684.92529296875,6624.857421875,3826.6181640625,3119.3095703125,-4533.1318359375,-12887.318359375,-7483.16455078125,2651.214599609375,-2476.374267578125,0.0,-6234.64599609375,0.0,-6730.556640625,-12049.6748046875,3563.56298828125,-9377.0029296875,0.0,-15741.1904296875,-2768.039794921875,0.0,-7229.64599609375,0.0,4694.4619140625,-0.0,-6105.89990234375
-8698.3037109375,-7803.43994140625,11250.1787109375,-8102.2578125,6678.1044921875,2413.590576171875,3467.40087890625,-5945.3642578125,0.0,-4431.40673828125,-1889.0699462890625,-14375.845703125,0.0,0.0,0.0,-3727.277099609375,1720.58740234375,11350.314453125,-0.0,-240.00804138183594,5810.2607421875,9437.4013671875,6925.2646484375,2930.958984375,3261.566162109375,-5331.83447265625,-6100.33642578125,6460.3486328125,-1375.6751708984375,-3468.990234375,9379.38671875,-5091.03173828125,8652.2099609375,6496.90625,5446.275390625,7262.22998046875,2874.533447265625,-829.6966552734375,4659.494140625,-0.0,4626.115234375,-14733.4736328125,3076.394287109375,12396.9716796875,2636.11474609375,-6829.8974609375,4285.1767578125,4692.87255859375,6627.24169921875,3831.386474609375,3120.1044921875,-4530.748046875,-12876.9873046875,-7487.13818359375,2659.956787109375,-2470.81103515625,0.0,-6233.85107421875,0.0,-6729.76171875,-12054.443359375,3565.947265625,-9375.4130859375,0.0,-15726.08984375,-2770.423828125,0.0,-7230.4404296875,0.0,4687.30908203125,-0.0,-6113.05224609375
-8699.8935546875,-7801.0556640625,11253.357421875,-8107.02587890625,6680.48876953125,2414.385498046875,3467.40087890625,-5942.98046875,0.0,-4429.0224609375,-1886.6856689453125,-14377.4345703125,0.0,0.0,0.0,-3724.09814453125,1722.9715576171875,11351.9033203125,-0.0,-239.2133026123047,5812.64501953125,9436.607421875,6926.8544921875,2931.75390625,3265.539794921875,-5331.83447265625,-6096.36328125,6462.73291015625,-1371.7015380859375,-3454.685302734375,9380.9765625,-5088.6474609375,8656.1845703125,6496.111328125,5447.86474609375,7263.8193359375,2876.91748046875,-828.107177734375,4662.67236328125,-0.0,4628.49951171875,-14737.447265625,3077.98388671875,12399.35546875,2636.11474609375,-6827.51318359375,4289.9453125,4688.8984375,6632.009765625,3832.97607421875,3120.1044921875,-4527.56884765625,-12869.8349609375,-7486.34326171875,2664.72509765625,-2477.963623046875,0.0,-6233.056640625,0.0,-6724.9931640625,-12060.005859375,3568.33154296875,-9373.82421875,0.0,-15718.9365234375,-2766.4501953125,0.0,-7222.49365234375,0.0,4700.02490234375,-0.0,-6109.87353515625
-8707.8408203125,-7805.029296875,11250.1787109375,-8113.38427734375,6677.3095703125,2410.411865234375,3467.40087890625,-5946.1591796875,0.0,-4430.6123046875,-1878.7384033203125,-14382.203125,0.0,0.0,0.0,-3728.072021484375,1719.792724609375,11348.724609375,-0.0,-237.6238555908203,5808.67138671875,9433.4287109375,6925.2646484375,2928.57470703125,3261.566162109375,-5340.576171875,-6097.9521484375,6461.1435546875,-1374.0858154296875,-3450.71142578125,9377.796875,-5095.7998046875,8651.416015625,6491.34326171875,5445.48046875,7259.05078125,2876.122802734375,-828.9019165039062,4648.3671875,-0.0,4626.115234375,-14745.39453125,3075.599609375,12397.765625,2635.320068359375,-6831.4873046875,4284.3818359375,4681.74609375,6630.4208984375,3829.797119140625,3118.51513671875,-4530.748046875,-12877.7822265625,-7487.9326171875,2660.75146484375,-2479.55322265625,0.0,-6237.82470703125,0.0,-6726.5830078125,-12066.3642578125,3566.741943359375,-9374.6181640625,0.0,-15718.1416015625,-2773.602783203125,0.0,-7226.46728515625,0.0,4704.79345703125,-0.0,-6109.87353515625
-8728.50390625,-7817.7451171875,11239.0517578125,-8122.9208984375,6671.74658203125,2402.464599609375,3465.8115234375,-5953.31201171875,0.0,-4434.58544921875,-1882.7120361328125,-14397.3037109375,0.0,0.0,0.0,-3734.4296875,1709.461181640625,11340.77734375,-0.0,-238.4185791015625,5799.92919921875,9424.6865234375,6918.9072265625,2923.806396484375,3252.029296875,-5349.31787109375,-6101.92626953125,6454.78564453125,-1384.417236328125,-3460.248291015625,9369.0556640625,-5108.51513671875,8640.2890625,6483.39599609375,5437.53271484375,7250.30908203125,2873.738525390625,-835.259765625,4631.67822265625,-0.0,4618.16796875,-14755.7255859375,3072.4208984375,12391.408203125,2633.730712890625,-6836.25537109375,4273.255859375,4672.20947265625,6622.47314453125,3823.439453125,3118.51513671875,-4536.310546875,-12884.9345703125,-7495.08544921875,2650.419921875,-2486.705810546875,0.0,-6244.1826171875,0.0,-6732.9404296875,-12062.390625,3559.58935546875,-9380.181640625,0.0,-15729.2685546875,-2783.934326171875,0.0,-7236.00390625,0.0,4703.99853515625,-0.0,-6109.0791015625
-8745.193359375,-7822.513671875,11231.1044921875,-8125.30517578125,6666.978515625,2401.669677734375,3465.8115234375,-5953.31201171875,0.0,-4432.201171875,-1885.8909912109375,-14392.53515625,0.0,0.0,0.0,-3732.84033203125,1705.487548828125,11337.59765625,-0.0,-238.4185791015625,5796.75048828125,9422.302734375,6916.52294921875,2920.627685546875,3248.8505859375,-5351.7021484375,-6105.10498046875,6453.1962890625,-1389.185546875,-3474.553466796875,9365.8759765625,-5112.4892578125,8634.7265625,6479.421875,5435.14892578125,7247.1298828125,2872.149169921875,-836.8492431640625,4636.4462890625,-0.0,4611.81005859375,-14762.083984375,3072.4208984375,12388.2294921875,2633.730712890625,-6835.46044921875,4266.10302734375,4671.4150390625,6618.5,3821.05517578125,3117.720458984375,-4534.72119140625,-12888.1142578125,-7500.6484375,2647.240966796875,-2492.268798828125,0.0,-6245.77197265625,0.0,-6732.9404296875,-12060.005859375,3555.61572265625,-9380.181640625,0.0,-15736.421875,-2787.907958984375,0.0,-7233.61962890625,0.0,4707.97216796875,-0.0,-6102.720703125
-8752.345703125,-7823.30810546875,11227.130859375,-8124.5107421875,6665.388671875,2401.669677734375,3465.0166015625,-5954.10693359375,0.0,-4432.99609375,-1884.301513671875,-14382.203125,0.0,0.0,0.0,-3731.250732421875,1705.487548828125,11338.3935546875,-0.0,-240.00804138183594,5795.16064453125,9422.302734375,6916.52294921875,2921.42236328125,3250.43994140625,-5353.2919921875,-6105.89990234375,6455.580078125,-1388.390869140625,-3480.11669921875,9366.671875,-5110.8994140625,8633.13671875,6480.216796875,5435.943359375,7244.74560546875,2872.149169921875,-836.8492431640625,4640.42041015625,-0.0,4611.01513671875,-14767.646484375,3072.4208984375,12390.61328125,2633.730712890625,-6837.8447265625,4262.12939453125,4675.38818359375,6616.91064453125,3822.64453125,3117.720458984375,-4534.72119140625,-12890.498046875,-7504.6220703125,2648.03564453125,-2492.268798828125,0.0,-6246.56689453125,0.0,-6734.52978515625,-12066.3642578125,3554.0263671875,-9380.181640625,0.0,-15736.421875,-2786.318603515625,0.0,-7239.9775390625,0.0,4707.97216796875,-0.0,-6105.89990234375
-8753.935546875,-7830.46044921875,11232.693359375,-8122.12646484375,6669.3623046875,2404.848876953125,3468.195556640625,-5950.927734375,0.0,-4432.201171875,-1879.533203125,-14382.203125,0.0,0.0,0.0,-3728.072021484375,1709.461181640625,11340.77734375,-0.0,-238.4185791015625,5798.33984375,9426.2763671875,6919.7021484375,2923.806396484375,3256.003173828125,-5353.2919921875,-6102.720703125,6460.3486328125,-1382.8277587890625,-3468.990234375,9370.64453125,-5106.130859375,8637.9052734375,6484.9853515625,5439.9169921875,7249.51416015625,2873.738525390625,-834.4650268554688,4634.0625,-0.0,4614.1943359375,-14766.056640625,3074.01025390625,12392.998046875,2636.11474609375,-6837.0498046875,4263.71923828125,4680.15673828125,6621.6787109375,3824.23388671875,3119.3095703125,-4533.92626953125,-12899.2392578125,-7504.6220703125,2652.80419921875,-2495.44775390625,0.0,-6243.3876953125,0.0,-6731.3515625,-12073.5166015625,3556.41064453125,-9376.2080078125,0.0,-15730.857421875,-2780.75537109375,0.0,-7237.59326171875,0.0,4707.177734375,-0.0,-6107.4892578125
-8772.2138671875,-7831.255859375,11234.283203125,-8116.56298828125,6670.15673828125,2404.848876953125,3467.40087890625,-5949.33837890625,0.0,-4429.8173828125,-1882.7120361328125,-14381.408203125,0.0,0.0,0.0,-3727.277099609375,1710.2559814453125,11341.572265625,-0.0,-236.03439331054688,5797.544921875,9428.66015625,6919.7021484375,2924.601318359375,3256.003173828125,-5350.11279296875,-6101.92626953125,6457.96435546875,-1380.443603515625,-3460.248291015625,9370.64453125,-5103.7470703125,8639.4951171875,6486.57470703125,5438.32763671875,7252.693359375,2875.328125,-833.6702880859375,4644.39404296875,-0.0,4613.3994140625,-14762.87890625,3074.804931640625,12392.998046875,2637.7041015625,-6835.46044921875,4266.8974609375,4685.7197265625,6621.6787109375,3824.23388671875,3121.69384765625,-4533.1318359375,-12909.5712890625,-7507.00634765625,2654.3935546875,-2519.289794921875,0.0,-6242.59326171875,0.0,-6730.556640625,-12075.9013671875,3559.58935546875,-9375.4130859375,0.0,-15730.0625,-2776.78173828125,0.0,-7231.2353515625,0.0,4708.76708984375,-0.0,-6107.4892578125
-8758.7041015625,-7824.103515625,11230.3095703125,-8118.15283203125,6665.388671875,2402.464599609375,3465.8115234375,-5951.72265625,0.0,-4430.6123046875,-1891.4541015625,-14383.79296875,0.0,0.0,0.0,-3728.072021484375,1706.2822265625,11339.982421875,-0.0,-236.03439331054688,5798.33984375,9425.48046875,6917.31787109375,2923.01171875,3248.8505859375,-5346.93408203125,-6103.515625,6454.78564453125,-1387.59619140625,-3461.043212890625,9366.671875,-5110.8994140625,8637.1103515625,6481.80615234375,5435.943359375,7249.51416015625,2873.738525390625,-834.4650268554688,4636.4462890625,-0.0,4611.01513671875,-14764.4677734375,3073.215576171875,12391.408203125,2637.7041015625,-6837.8447265625,4265.30859375,4680.15673828125,6618.5,3821.05517578125,3119.3095703125,-4533.1318359375,-12900.03515625,-7509.39013671875,2648.03564453125,-2517.7001953125,0.0,-6243.3876953125,0.0,-6732.14599609375,-12071.9267578125,3557.205078125,-9377.0029296875,0.0,-15734.8310546875,-2770.423828125,0.0,-7234.41455078125,0.0,4706.3828125,-0.0,-6107.4892578125
-8733.2724609375,-7818.53955078125,11227.92578125,-8127.689453125,6664.59423828125,2400.875,3465.8115234375,-5950.927734375,0.0,-4429.8173828125,-1893.04345703125,-14384.5869140625,0.0,0.0,0.0,-3726.482421875,1703.1033935546875,11337.59765625,-0.0,-236.82911682128906,5796.75048828125,9420.712890625,6916.52294921875,2921.42236328125,3247.260986328125,-5356.470703125,-6107.4892578125,6457.169921875,-1389.9803466796875,-3461.837890625,9365.08203125,-5115.66796875,8633.13671875,6476.24365234375,5435.14892578125,7248.7197265625,2872.149169921875,-836.8492431640625,4628.49951171875,-0.0,4610.22021484375,-14770.03125,3071.6259765625,12389.8193359375,2635.320068359375,-6837.8447265625,4267.6923828125,4662.67236328125,6615.32080078125,3819.465576171875,3117.720458984375,-4531.54248046875,-12892.8828125,-7510.97998046875,2644.856689453125,-2501.010986328125,0.0,-6244.1826171875,0.0,-6728.96728515625,-12069.54296875,3557.205078125,-9377.0029296875,0.0,-15738.0107421875,-2771.218505859375,0.0,-7236.00390625,0.0,4707.97216796875,-0.0,-6101.13134765625
-8728.50390625,-7817.7451171875,11227.130859375,-8129.279296875,6667.77294921875,2402.464599609375,3465.0166015625,-5949.33837890625,0.0,-4423.45947265625,-1894.6329345703125,-14387.7666015625,0.0,0.0,0.0,-3724.09814453125,1702.30859375,11339.1875,-0.0,-233.65020751953125,5795.16064453125,9418.328125,6918.1123046875,2923.01171875,3248.0556640625,-5356.470703125,-6105.10498046875,6457.96435546875,-1389.185546875,-3465.0166015625,9366.671875,-5114.07861328125,8632.3427734375,6477.8330078125,5435.14892578125,7251.10400390625,2872.94384765625,-835.259765625,4622.93603515625,-0.0,4611.81005859375,-14767.646484375,3071.6259765625,12392.203125,2634.525390625,-6832.28173828125,4260.5400390625,4665.056640625,6617.705078125,3821.849853515625,3118.51513671875,-4530.748046875,-12895.2666015625,-7506.2119140625,2644.856689453125,-2493.063720703125,0.0,-6244.1826171875,0.0,-6721.814453125,-12080.6689453125,3557.205078125,-9373.0283203125,0.0,-15741.1904296875,-2779.166015625,0.0,-7225.67236328125,0.0,4718.3037109375,-0.0,-6092.3896484375
-8722.146484375,-7816.1552734375,11231.1044921875,-8124.5107421875,6670.95166015625,2407.23291015625,3467.40087890625,-5945.3642578125,0.0,-4418.69091796875,-1889.0699462890625,-14386.1767578125,0.0,0.0,0.0,-3720.91943359375,1707.871826171875,11344.75,-0.0,-232.0607452392578,5799.92919921875,9425.48046875,6922.08642578125,2928.57470703125,3250.43994140625,-5350.11279296875,-6101.92626953125,6461.1435546875,-1387.59619140625,-3465.0166015625,9370.64453125,-5110.10498046875,8638.69921875,6484.1904296875,5442.30126953125,7255.0771484375,2873.738525390625,-828.9019165039062,4635.65185546875,-0.0,4617.373046875,-14761.2890625,3074.804931640625,12397.765625,2633.730712890625,-6828.30810546875,4263.71923828125,4669.8251953125,6620.8837890625,3826.6181640625,3118.51513671875,-4525.9794921875,-12896.85546875,-7497.46923828125,2647.240966796875,-2493.063720703125,0.0,-6238.619140625,0.0,-6717.8408203125,-12088.6162109375,3561.178955078125,-9369.8505859375,0.0,-15738.8056640625,-2779.960693359375,0.0,-7220.90380859375,0.0,4723.86669921875,-0.0,-6088.41552734375
-8727.7099609375,-7813.771484375,11235.873046875,-8119.7421875,6674.92529296875,2409.6171875,3468.990234375,-5945.3642578125,0.0,-4424.25390625,-1888.275146484375,-14384.5869140625,0.0,0.0,0.0,-3722.5087890625,1711.845458984375,11349.5185546875,-0.0,-234.44493103027344,5803.1083984375,9428.66015625,6923.67578125,2931.75390625,3256.7978515625,-5345.3447265625,-6099.5419921875,6464.32275390625,-1381.23828125,-3466.606201171875,9373.0283203125,-5102.15771484375,8643.4677734375,6489.75390625,5444.685546875,7258.25634765625,2874.533447265625,-827.3125,4633.26806640625,-0.0,4618.962890625,-14759.7001953125,3074.804931640625,12400.150390625,2635.320068359375,-6829.8974609375,4265.30859375,4676.9775390625,6623.26806640625,3829.00244140625,3118.51513671875,-4525.9794921875,-12902.4189453125,-7499.853515625,2653.598876953125,-2489.08984375,0.0,-6237.82470703125,0.0,-6721.814453125,-12080.6689453125,3565.15234375,-9370.64453125,0.0,-15731.6533203125,-2775.98681640625,0.0,-7222.49365234375,0.0,4710.3564453125,-0.0,-6095.568359375
-8745.193359375,-7820.923828125,11235.873046875,-8116.56298828125,6675.72021484375,2410.411865234375,3468.990234375,-5945.3642578125,0.0,-4430.6123046875,-1894.6329345703125,-14386.9716796875,0.0,0.0,0.0,-3723.303466796875,1712.64013671875,11349.5185546875,-0.0,-235.2396697998047,5803.1083984375,9427.865234375,6924.47021484375,2930.958984375,3256.003173828125,-5345.3447265625,-6100.33642578125,6465.912109375,-1380.443603515625,-3472.169189453125,9373.82421875,-5100.568359375,8643.4677734375,6488.16455078125,5444.685546875,7259.05078125,2876.122802734375,-828.107177734375,4632.47314453125,-0.0,4617.373046875,-14758.904296875,3076.394287109375,12399.35546875,2636.11474609375,-6832.28173828125,4268.4873046875,4679.36181640625,6624.06298828125,3829.00244140625,3120.1044921875,-4527.56884765625,-12911.9560546875,-7504.6220703125,2653.598876953125,-2473.1953125,0.0,-6240.208984375,0.0,-6724.19873046875,-12082.2587890625,3565.15234375,-9373.82421875,0.0,-15732.4462890625,-2775.98681640625,0.0,-7227.26220703125,0.0,4695.2568359375,-0.0,-6109.87353515625
-8745.98828125,-7834.4345703125,11232.693359375,-8121.3310546875,6672.541015625,2408.027587890625,3467.40087890625,-5948.54345703125,0.0,-4432.201171875,-1897.8118896484375,-14390.9453125,0.0,0.0,0.0,-3727.277099609375,1710.2559814453125,11344.75,-0.0,-236.82911682128906,5800.72412109375,9424.6865234375,6921.29150390625,2926.985595703125,3251.23486328125,-5350.90771484375,-6101.92626953125,6459.55419921875,-1385.2119140625,-3475.34814453125,9372.234375,-5106.92578125,8640.2890625,6482.60107421875,5441.5068359375,7255.0771484375,2873.738525390625,-831.2861328125,4632.47314453125,-0.0,4614.1943359375,-14762.083984375,3075.599609375,12396.1767578125,2636.11474609375,-6836.25537109375,4261.3349609375,4674.59326171875,6621.6787109375,3825.823486328125,3120.1044921875,-4532.33740234375,-12907.1875,-7505.4169921875,2647.240966796875,-2473.1953125,0.0,-6245.77197265625,0.0,-6727.37744140625,-12089.412109375,3561.178955078125,-9375.4130859375,0.0,-15741.1904296875,-2779.960693359375,0.0,-7234.41455078125,0.0,4700.02490234375,-0.0,-6111.462890625
-8742.8095703125,-7835.22900390625,11227.130859375,-8126.89501953125,6670.15673828125,2404.053955078125,3466.606201171875,-5950.1328125,0.0,-4429.0224609375,-1891.4541015625,-14394.1240234375,0.0,0.0,0.0,-3730.4560546875,1706.2822265625,11341.572265625,-0.0,-233.65020751953125,5796.75048828125,9423.8916015625,6919.7021484375,2924.601318359375,3249.645263671875,-5354.08642578125,-6104.310546875,6457.169921875,-1389.9803466796875,-3471.37451171875,9367.4658203125,-5114.87353515625,8636.3154296875,6477.8330078125,5439.9169921875,7252.693359375,2874.533447265625,-833.6702880859375,4633.26806640625,-0.0,4611.81005859375,-14765.2626953125,3074.01025390625,12392.203125,2635.320068359375,-6838.6396484375,4253.3876953125,4669.8251953125,6619.29443359375,3822.64453125,3120.1044921875,-4533.1318359375,-12903.2138671875,-7505.4169921875,2645.651611328125,-2481.142822265625,0.0,-6246.56689453125,0.0,-6728.17236328125,-12087.822265625,3559.58935546875,-9373.82421875,0.0,-15749.931640625,-2785.523681640625,0.0,-7228.8515625,0.0,4714.330078125,-0.0,-6097.15771484375
-8740.4248046875,-7829.666015625,11225.541015625,-8126.099609375,6670.95166015625,2403.25927734375,3467.40087890625,-5948.54345703125,0.0,-4428.22802734375,-1886.6856689453125,-14394.1240234375,0.0,0.0,0.0,-3728.072021484375,1702.30859375,11342.3662109375,-0.0,-233.65020751953125,5795.95556640625,9423.8916015625,6919.7021484375,2925.39599609375,3251.23486328125,-5354.08642578125,-6102.720703125,6457.169921875,-1387.59619140625,-3472.964111328125,9367.4658203125,-5118.8466796875,8633.931640625,6479.421875,5439.9169921875,7254.28271484375,2872.94384765625,-833.6702880859375,4626.115234375,-0.0,4611.81005859375,-14761.2890625,3073.215576171875,12391.408203125,2636.909423828125,-6834.666015625,4258.15576171875,4666.646484375,6621.6787109375,3823.439453125,3119.3095703125,-4530.748046875,-12910.3662109375,-7503.82763671875,2645.651611328125,-2482.732177734375,0.0,-6245.77197265625,0.0,-6726.5830078125,-12075.9013671875,3560.384033203125,-9374.6181640625,0.0,-15749.1357421875,-2786.318603515625,0.0,-7224.0830078125,0.0,4719.0986328125,-0.0,-6090.7998046875
-8752.345703125,-7821.71923828125,11227.92578125,-8125.30517578125,6671.74658203125,2404.848876953125,3467.40087890625,-5946.9541015625,0.0,-4425.84375,-1889.8646240234375,-14390.9453125,0.0,0.0,0.0,-3724.09814453125,1704.69287109375,11342.3662109375,-0.0,-232.85548400878906,5796.75048828125,9424.6865234375,6920.49658203125,2926.985595703125,3251.23486328125,-5350.11279296875,-6102.720703125,6459.55419921875,-1386.8013916015625,-3479.32177734375,9367.4658203125,-5118.05224609375,8633.931640625,6482.60107421875,5439.9169921875,7255.8720703125,2874.533447265625,-831.2861328125,4623.73095703125,-0.0,4612.6044921875,-14756.5205078125,3074.01025390625,12393.7919921875,2637.7041015625,-6829.8974609375,4261.3349609375,4669.8251953125,6623.26806640625,3825.028564453125,3118.51513671875,-4528.36376953125,-12903.2138671875,-7509.39013671875,2648.03564453125,-2481.142822265625,0.0,-6239.4140625,0.0,-6721.814453125,-12083.0537109375,3561.9736328125,-9371.439453125,0.0,-15745.1630859375,-2783.934326171875,0.0,-7221.69873046875,0.0,4719.0986328125,-0.0,-6090.00537109375
-8775.3935546875,-7825.6923828125,11227.130859375,-8126.89501953125,6670.15673828125,2404.848876953125,3466.606201171875,-5946.1591796875,0.0,-4424.25390625,-1890.6593017578125,-14390.9453125,0.0,0.0,0.0,-3722.5087890625,1705.487548828125,11342.3662109375,-0.0,-234.44493103027344,5798.33984375,9423.0966796875,6921.29150390625,2928.57470703125,3252.823974609375,-5347.728515625,-6101.92626953125,6461.9384765625,-1387.59619140625,-3478.527099609375,9365.8759765625,-5118.8466796875,8633.13671875,6480.216796875,5440.7119140625,7255.0771484375,2875.328125,-830.4913940429688,4627.70458984375,-0.0,4612.6044921875,-14754.1357421875,3074.804931640625,12395.3818359375,2636.909423828125,-6829.10302734375,4257.36083984375,4665.8515625,6622.47314453125,3824.23388671875,3120.1044921875,-4529.158203125,-12893.6767578125,-7515.74853515625,2648.03564453125,-2486.705810546875,0.0,-6236.2353515625,0.0,-6720.22509765625,-12094.974609375,3563.56298828125,-9371.439453125,0.0,-15742.7783203125,-2782.3447265625,0.0,-7219.314453125,0.0,4717.5087890625,-0.0,-6088.41552734375
-8775.3935546875,-7831.255859375,11224.7470703125,-8128.48388671875,6668.56787109375,2402.464599609375,3468.195556640625,-5946.1591796875,0.0,-4422.66455078125,-1893.04345703125,-14392.53515625,0.0,0.0,0.0,-3722.5087890625,1702.30859375,11341.572265625,-0.0,-231.26602172851562,5795.95556640625,9420.712890625,6918.9072265625,2926.190673828125,3247.260986328125,-5348.5234375,-6103.515625,6460.3486328125,-1392.364501953125,-3475.34814453125,9365.08203125,-5122.8203125,8630.7529296875,6477.8330078125,5438.32763671875,7254.28271484375,2874.533447265625,-832.080810546875,4622.93603515625,-0.0,4609.42578125,-14752.546875,3073.215576171875,12394.587890625,2636.909423828125,-6828.30810546875,4254.18212890625,4662.67236328125,6618.5,3822.64453125,3119.3095703125,-4528.36376953125,-12890.498046875,-7514.95361328125,2644.856689453125,-2494.653076171875,0.0,-6234.64599609375,0.0,-6720.22509765625,-12079.875,3561.9736328125,-9370.64453125,0.0,-15743.57421875,-2779.166015625,0.0,-7219.314453125,0.0,4717.5087890625,-0.0,-6084.4423828125
-8747.578125,-7829.666015625,11224.7470703125,-8124.5107421875,6670.15673828125,2405.6435546875,3468.195556640625,-5944.56982421875,0.0,-4420.2802734375,-1889.8646240234375,-14393.330078125,0.0,0.0,0.0,-3722.5087890625,1702.30859375,11340.77734375,-0.0,-232.0607452392578,5794.3662109375,9422.302734375,6921.29150390625,2928.57470703125,3249.645263671875,-5346.93408203125,-6101.92626953125,6459.55419921875,-1389.9803466796875,-3468.990234375,9366.671875,-5124.41015625,8630.7529296875,6480.216796875,5439.12255859375,7255.8720703125,2873.738525390625,-832.8755493164062,4620.55224609375,-0.0,4610.22021484375,-14749.3681640625,3074.804931640625,12395.3818359375,2636.909423828125,-6825.12890625,4255.771484375,4665.8515625,6620.0888671875,3821.849853515625,3118.51513671875,-4528.36376953125,-12891.29296875,-7508.595703125,2647.240966796875,-2503.39501953125,0.0,-6235.44091796875,0.0,-6717.8408203125,-12076.6953125,3563.56298828125,-9371.439453125,0.0,-15738.0107421875,-2777.576416015625,0.0,-7220.90380859375,0.0,4718.3037109375,-0.0,-6083.6474609375
-8737.24609375,-7828.87158203125,11224.7470703125,-8124.5107421875,6670.15673828125,2405.6435546875,3465.8115234375,-5943.775390625,0.0,-4417.896484375,-1891.4541015625,-14390.9453125,0.0,0.0,0.0,-3719.329833984375,1703.1033935546875,11341.572265625,-0.0,-228.8818359375,5797.544921875,9421.5078125,6922.880859375,2927.7802734375,3250.43994140625,-5347.728515625,-6101.13134765625,6460.3486328125,-1388.390869140625,-3472.169189453125,9365.8759765625,-5119.6416015625,8631.546875,6480.216796875,5439.9169921875,7255.0771484375,2873.738525390625,-830.4913940429688,4627.70458984375,-0.0,4609.42578125,-14750.1630859375,3074.01025390625,12396.1767578125,2635.320068359375,-6822.74462890625,4256.56640625,4662.67236328125,6620.8837890625,3823.439453125,3117.720458984375,-4526.77392578125,-12905.59765625,-7503.82763671875,2647.240966796875,-2496.242431640625,0.0,-6233.85107421875,0.0,-6713.8671875,-12080.6689453125,3562.768310546875,-9369.8505859375,0.0,-15738.8056640625,-2778.37109375,0.0,-7217.72509765625,0.0,4727.04541015625,-0.0,-6068.5478515625
-8743.603515625,-7830.46044921875,11230.3095703125,-8123.71533203125,6673.3359375,2408.027587890625,3466.606201171875,-5941.39111328125,0.0,-4414.71728515625,-1885.09619140625,-14388.5615234375,0.0,0.0,0.0,-3716.15087890625,1707.871826171875,11347.134765625,-0.0,-225.7029266357422,5800.72412109375,9424.6865234375,6925.2646484375,2930.164306640625,3255.208251953125,-5346.1396484375,-6099.5419921875,6464.32275390625,-1384.417236328125,-3469.784912109375,9369.8505859375,-5116.462890625,8635.5205078125,6481.80615234375,5443.89111328125,7257.46142578125,2874.533447265625,-824.9282836914062,4636.4462890625,-0.0,4614.1943359375,-14752.546875,3072.4208984375,12400.150390625,2635.320068359375,-6822.74462890625,4264.513671875,4665.8515625,6624.857421875,3826.6181640625,3117.720458984375,-4522.80029296875,-12905.59765625,-7505.4169921875,2652.00927734375,-2487.50048828125,0.0,-6231.466796875,0.0,-6710.68798828125,-12067.9541015625,3565.947265625,-9367.4658203125,0.0,-15734.037109375,-2775.1923828125,0.0,-7215.34130859375,0.0,4733.40380859375,-0.0,-6059.80517578125
-8749.1669921875,-7831.255859375,11231.8994140625,-8122.9208984375,6672.541015625,2411.20654296875,3467.40087890625,-5942.18603515625,0.0,-4417.1015625,-1879.533203125,-14384.5869140625,0.0,0.0,0.0,-3716.15087890625,1708.66650390625,11347.9296875,-0.0,-226.49765014648438,5800.72412109375,9427.0703125,6926.0595703125,2931.75390625,3254.41357421875,-5345.3447265625,-6100.33642578125,6468.2958984375,-1386.0067138671875,-3467.40087890625,9371.439453125,-5114.07861328125,8638.69921875,6484.1904296875,5443.89111328125,7258.25634765625,2875.328125,-824.133544921875,4638.0361328125,-0.0,4616.57861328125,-14754.1357421875,3077.189208984375,12401.740234375,2636.909423828125,-6822.74462890625,4263.71923828125,4667.44091796875,6626.447265625,3829.797119140625,3120.1044921875,-4522.00537109375,-12897.650390625,-7507.00634765625,2652.00927734375,-2482.732177734375,0.0,-6231.466796875,0.0,-6713.8671875,-12079.080078125,3565.947265625,-9368.2607421875,0.0,-15734.8310546875,-2770.423828125,0.0,-7216.1357421875,0.0,4728.63525390625,-0.0,-6072.52099609375
-8742.0146484375,-7831.255859375,11230.3095703125,-8121.3310546875,6673.3359375,2410.411865234375,3468.195556640625,-5942.18603515625,0.0,-4420.2802734375,-1882.7120361328125,-14378.23046875,0.0,0.0,0.0,-3716.15087890625,1707.871826171875,11348.724609375,-0.0,-229.6765594482422,5801.51904296875,9427.865234375,6927.64892578125,2932.548583984375,3250.43994140625,-5346.1396484375,-6100.33642578125,6467.5009765625,-1386.8013916015625,-3463.42724609375,9374.6181640625,-5115.66796875,8637.1103515625,6484.1904296875,5444.685546875,7259.05078125,2876.122802734375,-825.7230224609375,4630.0888671875,-0.0,4617.373046875,-14754.931640625,3079.573486328125,12401.740234375,2636.909423828125,-6822.74462890625,4258.95068359375,4671.4150390625,6624.857421875,3831.386474609375,3120.899169921875,-4522.80029296875,-12893.6767578125,-7504.6220703125,2648.830322265625,-2481.142822265625,0.0,-6230.67236328125,0.0,-6716.25146484375,-12078.28515625,3566.741943359375,-9368.2607421875,0.0,-15739.599609375,-2772.013427734375,0.0,-7220.109375,0.0,4725.4560546875,-0.0,-6079.673828125
-8737.24609375,-7828.87158203125,11230.3095703125,-8123.71533203125,6675.72021484375,2409.6171875,3467.40087890625,-5947.74853515625,0.0,-4433.79052734375,-1885.8909912109375,-14376.640625,0.0,0.0,0.0,-3727.277099609375,1705.487548828125,11347.134765625,-0.0,-236.03439331054688,5799.92919921875,9424.6865234375,6926.8544921875,2930.958984375,3253.618896484375,-5346.1396484375,-6100.33642578125,6462.73291015625,-1382.8277587890625,-3462.63232421875,9373.82421875,-5119.6416015625,8636.3154296875,6480.216796875,5442.30126953125,7257.46142578125,2876.91748046875,-828.9019165039062,4626.90966796875,-0.0,4618.16796875,-14757.3154296875,3075.599609375,12397.765625,2636.909423828125,-6830.6923828125,4260.5400390625,4672.20947265625,6625.65234375,3828.207763671875,3120.899169921875,-4529.953125,-12896.060546875,-7503.82763671875,2652.00927734375,-2483.52685546875,0.0,-6237.82470703125,0.0,-6731.3515625,-12075.1064453125,3565.947265625,-9373.82421875,0.0,-15735.6259765625,-2772.80810546875,0.0,-7239.9775390625,0.0,4698.435546875,-0.0,-6119.41015625
-8739.630859375,-7825.6923828125,11236.66796875,-8122.12646484375,6678.8994140625,2411.20654296875,3467.40087890625,-5950.1328125,0.0,-4440.14892578125,-1884.301513671875,-14372.666015625,0.0,0.0,0.0,-3729.6611328125,1711.0506591796875,11349.5185546875,-0.0,-242.39222717285156,5806.287109375,9427.865234375,6926.8544921875,2931.75390625,3260.771484375,-5345.3447265625,-6097.9521484375,6464.32275390625,-1377.2646484375,-3459.45361328125,9376.2080078125,-5114.07861328125,8640.2890625,6483.39599609375,5446.275390625,7259.845703125,2874.533447265625,-827.3125,4634.0625,-0.0,4622.1416015625,-14755.7255859375,3075.599609375,12398.560546875,2636.11474609375,-6834.666015625,4268.4873046875,4675.38818359375,6631.21533203125,3829.797119140625,3119.3095703125,-4531.54248046875,-12884.9345703125,-7500.6484375,2659.161865234375,-2481.142822265625,0.0,-6239.4140625,0.0,-6736.9140625,-12072.72265625,3566.741943359375,-9374.6181640625,0.0,-15726.884765625,-2768.83447265625,0.0,-7241.56689453125,0.0,4685.7197265625,-0.0,-6139.2783203125
-8753.140625,-7831.255859375,11237.4619140625,-8123.71533203125,6678.8994140625,2409.6171875,3466.606201171875,-5950.927734375,0.0,-4438.55908203125,-1883.5068359375,-14379.0244140625,0.0,0.0,0.0,-3731.250732421875,1711.845458984375,11350.314453125,-0.0,-244.77639770507812,5805.4921875,9427.865234375,6928.44384765625,2930.958984375,3260.771484375,-5350.11279296875,-6097.9521484375,6463.52783203125,-1377.2646484375,-3464.221923828125,9375.4130859375,-5112.4892578125,8641.083984375,6482.60107421875,5447.86474609375,7259.05078125,2874.533447265625,-829.6966552734375,4635.65185546875,-0.0,4621.34716796875,-14760.494140625,3074.804931640625,12398.560546875,2636.11474609375,-6836.25537109375,4269.28173828125,4673.798828125,6631.21533203125,3830.591796875,3119.3095703125,-4532.33740234375,-12884.1396484375,-7506.2119140625,2658.3671875,-2485.1162109375,0.0,-6241.79833984375,0.0,-6736.9140625,-12088.6162109375,3566.741943359375,-9375.4130859375,0.0,-15727.6787109375,-2770.423828125,0.0,-7238.38818359375,0.0,4688.8984375,-0.0,-6136.09912109375
-8744.3994140625,-7836.81884765625,11234.283203125,-8122.12646484375,6678.1044921875,2410.411865234375,3467.40087890625,-5951.72265625,0.0,-4437.7646484375,-1883.5068359375,-14381.408203125,0.0,0.0,0.0,-3731.250732421875,1711.845458984375,11348.724609375,-0.0,-243.18695068359375,5803.1083984375,9429.455078125,6926.0595703125,2930.164306640625,3258.38720703125,-5348.5234375,-6097.9521484375,6462.73291015625,-1378.8541259765625,-3462.63232421875,9375.4130859375,-5110.10498046875,8641.87890625,6482.60107421875,5447.86474609375,7259.05078125,2874.533447265625,-828.107177734375,4635.65185546875,-0.0,4618.16796875,-14762.083984375,3075.599609375,12398.560546875,2636.11474609375,-6837.0498046875,4266.10302734375,4676.18310546875,6628.83154296875,3829.797119140625,3120.899169921875,-4532.33740234375,-12892.0869140625,-7504.6220703125,2656.777587890625,-2486.705810546875,0.0,-6241.79833984375,0.0,-6736.9140625,-12103.716796875,3565.15234375,-9376.2080078125,0.0,-15731.6533203125,-2769.629150390625,0.0,-7238.38818359375,0.0,4691.28271484375,-0.0,-6133.71533203125
-8741.2197265625,-7836.81884765625,11231.1044921875,-8120.53662109375,6674.130859375,2410.411865234375,3465.8115234375,-5952.51708984375,0.0,-4439.35400390625,-1887.4803466796875,-14380.6142578125,0.0,0.0,0.0,-3730.4560546875,1709.461181640625,11347.134765625,-0.0,-242.39222717285156,5800.72412109375,9427.0703125,6924.47021484375,2929.36962890625,3255.208251953125,-5350.90771484375,-6099.5419921875,6462.73291015625,-1382.032958984375,-3465.0166015625,9373.82421875,-5110.10498046875,8638.69921875,6483.39599609375,5443.89111328125,7255.8720703125,2873.738525390625,-829.6966552734375,4634.857421875,-0.0,4614.98876953125,-14763.6728515625,3074.01025390625,12397.765625,2636.11474609375,-6837.8447265625,4261.3349609375,4676.18310546875,6625.65234375,3828.207763671875,3118.51513671875,-4531.54248046875,-12904.8037109375,-7504.6220703125,2654.3935546875,-2485.1162109375,0.0,-6241.79833984375,0.0,-6736.9140625,-12094.1796875,3561.9736328125,-9377.0029296875,0.0,-15734.037109375,-2769.629150390625,0.0,-7237.59326171875,0.0,4692.07763671875,-0.0,-6132.1259765625
-8741.2197265625,-7833.64013671875,11232.693359375,-8122.12646484375,6674.130859375,2407.23291015625,3466.606201171875,-5954.9013671875,0.0,-4438.55908203125,-1887.4803466796875,-14382.998046875,0.0,0.0,0.0,-3733.635009765625,1707.871826171875,11345.5458984375,-0.0,-240.80276489257812,5801.51904296875,9424.6865234375,6923.67578125,2928.57470703125,3258.38720703125,-5356.470703125,-6097.9521484375,6460.3486328125,-1381.23828125,-3469.784912109375,9373.0283203125,-5113.28369140625,8638.69921875,6481.01171875,5443.89111328125,7255.0771484375,2874.533447265625,-830.4913940429688,4633.26806640625,-0.0,4616.57861328125,-14766.8525390625,3075.599609375,12396.9716796875,2636.11474609375,-6838.6396484375,4262.12939453125,4672.20947265625,6625.65234375,3828.207763671875,3119.3095703125,-4532.33740234375,-12905.59765625,-7514.95361328125,2655.188232421875,-2485.1162109375,0.0,-6246.56689453125,0.0,-6736.9140625,-12078.28515625,3561.178955078125,-9376.2080078125,0.0,-15732.4462890625,-2774.397705078125,0.0,-7239.18310546875,0.0,4692.07763671875,-0.0,-6129.74169921875
-8747.578125,-7836.81884765625,11236.66796875,-8121.3310546875,6676.51513671875,2409.6171875,3467.40087890625,-5951.72265625,0.0,-4434.58544921875,-1883.5068359375,-14383.79296875,0.0,0.0,0.0,-3732.84033203125,1710.2559814453125,11346.33984375,-0.0,-239.2133026123047,5803.9033203125,9425.48046875,6923.67578125,2927.7802734375,3259.9765625,-5350.90771484375,-6096.36328125,6461.1435546875,-1378.8541259765625,-3471.37451171875,9374.6181640625,-5107.720703125,8640.2890625,6481.01171875,5443.89111328125,7256.66650390625,2876.122802734375,-829.6966552734375,4634.857421875,-0.0,4618.16796875,-14762.083984375,3077.189208984375,12396.9716796875,2636.909423828125,-6837.0498046875,4266.10302734375,4674.59326171875,6627.24169921875,3829.00244140625,3120.1044921875,-4531.54248046875,-12900.03515625,-7516.54296875,2656.777587890625,-2483.52685546875,0.0,-6245.77197265625,0.0,-6735.32470703125,-12090.2060546875,3563.56298828125,-9375.4130859375,0.0,-15727.6787109375,-2774.397705078125,0.0,-7239.18310546875,0.0,4693.6669921875,-0.0,-6123.3837890625
-8745.98828125,-7842.38134765625,11231.8994140625,-8121.3310546875,6674.130859375,2408.822265625,3467.40087890625,-5952.51708984375,0.0,-4436.1748046875,-1889.0699462890625,-14384.5869140625,0.0,0.0,0.0,-3732.84033203125,1708.66650390625,11346.33984375,-0.0,-239.2133026123047,5800.72412109375,9424.6865234375,6922.880859375,2928.57470703125,3255.208251953125,-5348.5234375,-6099.5419921875,6460.3486328125,-1383.62255859375,-3472.169189453125,9372.234375,-5111.6943359375,8635.5205078125,6478.62744140625,5441.5068359375,7255.8720703125,2875.328125,-831.2861328125,4626.115234375,-0.0,4613.3994140625,-14760.494140625,3074.804931640625,12396.9716796875,2636.909423828125,-6836.25537109375,4264.513671875,4674.59326171875,6624.06298828125,3826.6181640625,3120.1044921875,-4531.54248046875,-12900.03515625,-7520.51708984375,2653.598876953125,-2485.9111328125,0.0,-6244.9775390625,0.0,-6736.11962890625,-12107.689453125,3562.768310546875,-9374.6181640625,0.0,-15734.037109375,-2775.1923828125,0.0,-7241.56689453125,0.0,4692.87255859375,-0.0,-6121.0
-8735.65625,-7836.81884765625,11235.078125,-8115.7685546875,6679.69384765625,2412.7958984375,3467.40087890625,-5947.74853515625,0.0,-4431.40673828125,-1882.7120361328125,-14377.4345703125,0.0,0.0,0.0,-3725.687744140625,1713.434814453125,11351.1083984375,-0.0,-238.4185791015625,5805.4921875,9429.455078125,6928.44384765625,2934.9326171875,3259.9765625,-5342.16552734375,-6095.568359375,6467.5009765625,-1378.059326171875,-3464.221923828125,9377.796875,-5107.720703125,8641.87890625,6484.9853515625,5447.86474609375,7263.02490234375,2876.122802734375,-826.5177612304688,4633.26806640625,-0.0,4619.75732421875,-14750.95703125,3075.599609375,12402.5341796875,2637.7041015625,-6830.6923828125,4270.07666015625,4682.541015625,6628.83154296875,3832.97607421875,3119.3095703125,-4527.56884765625,-12891.29296875,-7514.95361328125,2659.956787109375,-2482.732177734375,0.0,-6237.82470703125,0.0,-6728.96728515625,-12091.0009765625,3569.126220703125,-9370.64453125,0.0,-15730.0625,-2768.83447265625,0.0,-7233.61962890625,0.0,4701.6142578125,-0.0,-6114.6416015625
