-9914.2392578125,-8515.517578125,11165.9365234375,-8387.5654296875,6692.40966796875,2376.238525390625,3499.190185546875,-6024.04248046875,0.0,-4179.4775390625,-2057.55224609375,-14849.50390625,0.0,0.0,0.0,-3716.15087890625,1555.283935546875,11366.2080078125,-0.0,-186.76121520996094,5866.6865234375,9396.076171875,6928.44384765625,2880.096435546875,3245.671630859375,-5269.05078125,-6158.35205078125,6372.1337890625,-1440.0482177734375,-3817.876220703125,9211.69921875,-5966.02783203125,8653.0048828125,6192.525390625,5322.29736328125,7137.45751953125,2933.34326171875,-671.545654296875,4420.2802734375,-0.0,4704.79345703125,-14849.50390625,3145.53564453125,12340.5458984375,2678.2353515625,-6923.67578125,4286.76611328125,4542.6689453125,6620.8837890625,3732.84033203125,3135.204345703125,-4595.12109375,-13801.2568359375,-8188.08837890625,2592.404541015625,-2470.81103515625,0.0,-6274.38232421875,0.0,-6668.56787109375,-13019.244140625,3571.51025390625,-9236.3359375,0.0,-16020.1396484375,-2867.380859375,0.0,-7332.96044921875,0.0,4723.86669921875,-0.0,-6023.248046875
-9924.5712890625,-8521.080078125,11171.5,-8382.796875,6696.3828125,2381.0068359375,3500.779296875,-6018.47998046875,0.0,-4175.50439453125,-2063.91015625,-14844.7353515625,0.0,0.0,0.0,-3708.20361328125,1560.05224609375,11369.3876953125,-0.0,-181.9928436279297,5873.8388671875,9401.638671875,6931.623046875,2884.86474609375,3249.645263671875,-5261.89794921875,-6156.7626953125,6376.90234375,-1436.8692626953125,-3808.33935546875,9215.6728515625,-5962.0537109375,8657.7734375,6198.08837890625,5326.27099609375,7143.8154296875,2934.137939453125,-666.7772827148438,4418.69091796875,-0.0,4709.56201171875,-14843.9404296875,3147.125244140625,12344.51953125,2680.619384765625,-6917.31787109375,4293.91845703125,4545.05322265625,6624.857421875,3739.197998046875,3136.7939453125,-4588.7626953125,-13792.5146484375,-8191.26806640625,2596.37841796875,-2469.221923828125,0.0,-6268.8193359375,0.0,-6662.2099609375,-13024.806640625,3575.484130859375,-9231.5673828125,0.0,-16014.576171875,-2863.4072265625,0.0,-7326.60302734375,0.0,4714.330078125,-0.0,-6016.095703125
-9901.5234375,-8513.927734375,11180.2412109375,-8366.1083984375,6703.53564453125,2392.927978515625,3500.779296875,-6007.353515625,0.0,-4169.14599609375,-2059.141845703125,-14828.8408203125,0.0,0.0,0.0,-3696.28271484375,1571.97314453125,11380.513671875,-0.0,-179.60865783691406,5882.5810546875,9414.35546875,6939.56982421875,2895.990966796875,3259.181884765625,-5245.208984375,-6154.37841796875,6391.20703125,-1426.537841796875,-3787.676513671875,9226.0048828125,-5946.9541015625,8667.3095703125,6211.5986328125,5333.423828125,7155.736328125,2936.522216796875,-657.2405395507812,4427.43310546875,-0.0,4718.3037109375,-14828.0458984375,3148.71484375,12357.2353515625,2680.619384765625,-6910.9599609375,4305.83935546875,4559.35791015625,6632.8046875,3753.503173828125,3139.177978515625,-4577.63671875,-13774.2353515625,-8172.1943359375,2605.120361328125,-2453.3271484375,0.0,-6255.30859375,0.0,-6648.69921875,-13023.216796875,3584.225830078125,-9224.4150390625,0.0,-16001.859375,-2849.896728515625,0.0,-7313.88720703125,0.0,4720.68798828125,-0.0,-6015.30078125
-9885.62890625,-8511.54296875,11178.65234375,-8358.1611328125,6704.33056640625,2396.9013671875,3499.98486328125,-6004.1748046875,0.0,-4165.96728515625,-2056.757568359375,-14824.8671875,0.0,0.0,0.0,-3697.077392578125,1575.94677734375,11384.4873046875,-0.0,-178.81393432617188,5883.37548828125,9419.1240234375,6940.36474609375,2899.169921875,3260.771484375,-5240.4404296875,-6153.58349609375,6394.38623046875,-1425.7431640625,-3784.49755859375,9229.18359375,-5939.0068359375,8667.3095703125,6215.572265625,5335.8076171875,7158.12060546875,2936.522216796875,-657.2405395507812,4424.25390625,-0.0,4716.71435546875,-14821.6884765625,3147.919921875,12359.619140625,2679.0302734375,-6909.37060546875,4301.0712890625,4570.484375,6632.8046875,3756.68212890625,3138.383056640625,-4577.63671875,-13779.7998046875,-8158.68359375,2606.709716796875,-2446.96923828125,0.0,-6252.92431640625,0.0,-6651.08349609375,-13016.064453125,3586.610107421875,-9223.6201171875,0.0,-16000.2705078125,-2845.923095703125,0.0,-7309.11865234375,0.0,4747.708984375,-0.0,-6011.3271484375
-9870.529296875,-8520.28515625,11173.884765625,-8364.5185546875,6698.76708984375,2390.543701171875,3499.190185546875,-6012.12158203125,0.0,-4171.5302734375,-2056.757568359375,-14828.0458984375,0.0,0.0,0.0,-3705.8193359375,1568.794189453125,11379.71875,-0.0,-180.4033966064453,5878.607421875,9414.35546875,6936.39111328125,2895.990966796875,3252.823974609375,-5245.208984375,-6155.1728515625,6386.43896484375,-1432.8956298828125,-3798.802734375,9225.208984375,-5947.74853515625,8661.7470703125,6210.80419921875,5333.423828125,7150.96826171875,2934.137939453125,-658.8300170898438,4425.048828125,-0.0,4711.94580078125,-14832.01953125,3147.919921875,12354.056640625,2679.0302734375,-6914.138671875,4293.91845703125,4568.89501953125,6629.6259765625,3751.913818359375,3136.7939453125,-4583.2001953125,-13782.978515625,-8151.53125,2600.35205078125,-2449.353515625,0.0,-6261.6669921875,0.0,-6659.03076171875,-13002.5546875,3581.047119140625,-9226.0048828125,0.0,-16009.8076171875,-2852.28076171875,0.0,-7316.271484375,0.0,4751.68212890625,-0.0,-6012.91650390625
-9864.966796875,-8522.669921875,11173.884765625,-8370.8759765625,6699.56201171875,2388.159423828125,3499.190185546875,-6016.89013671875,0.0,-4177.09375,-2061.526123046875,-14831.2255859375,0.0,0.0,0.0,-3707.408935546875,1563.2310791015625,11374.9501953125,-0.0,-183.58230590820312,5877.01806640625,9410.380859375,6936.39111328125,2892.81201171875,3252.823974609375,-5253.15625,-6155.1728515625,6385.64453125,-1434.485107421875,-3803.571044921875,9222.0302734375,-5958.080078125,8657.7734375,6203.6513671875,5332.62890625,7146.19970703125,2935.727294921875,-661.2141723632812,4411.53857421875,-0.0,4711.1513671875,-14840.76171875,3147.125244140625,12352.466796875,2681.414306640625,-6917.31787109375,4294.71337890625,4562.53662109375,6627.24169921875,3748.734619140625,3134.40966796875,-4587.17333984375,-13782.978515625,-8154.7099609375,2597.9677734375,-2454.121826171875,0.0,-6268.8193359375,0.0,-6662.2099609375,-12970.7646484375,3581.841796875,-9227.59375,0.0,-16014.576171875,-2857.843994140625,0.0,-7327.39794921875,0.0,4739.76123046875,-0.0,-6021.658203125
-9911.060546875,-8533.0009765625,11165.1416015625,-8378.029296875,6694.7939453125,2381.801513671875,3499.190185546875,-6019.2744140625,0.0,-4179.4775390625,-2073.447021484375,-14839.171875,0.0,0.0,0.0,-3711.382568359375,1557.6680908203125,11370.9765625,-0.0,-185.96649169921875,5871.45458984375,9402.4345703125,6933.21240234375,2888.043701171875,3248.8505859375,-5261.10302734375,-6155.1728515625,6381.67041015625,-1435.27978515625,-3795.623779296875,9216.4677734375,-5964.43798828125,8652.2099609375,6197.2939453125,5326.27099609375,7142.2255859375,2934.137939453125,-664.3931274414062,4400.412109375,-0.0,4702.4091796875,-14850.298828125,3145.53564453125,12348.4921875,2677.440673828125,-6920.49658203125,4286.76611328125,4552.20556640625,6621.6787109375,3744.76123046875,3135.204345703125,-4587.96826171875,-13821.919921875,-8171.39892578125,2597.173095703125,-2460.479736328125,0.0,-6274.38232421875,0.0,-6665.388671875,-12985.0703125,3575.484130859375,-9230.7734375,0.0,-16017.755859375,-2860.228271484375,0.0,-7329.7822265625,0.0,4734.9931640625,-0.0,-6023.248046875
-9927.75,-8518.6962890625,11165.1416015625,-8382.796875,6693.9990234375,2382.59619140625,3498.395263671875,-6019.2744140625,0.0,-4177.88818359375,-2076.625732421875,-14841.556640625,0.0,0.0,0.0,-3713.766845703125,1559.257568359375,11372.56640625,-0.0,-181.9928436279297,5869.865234375,9402.4345703125,6930.828125,2888.043701171875,3248.8505859375,-5263.4873046875,-6157.55712890625,6382.46533203125,-1435.27978515625,-3792.44482421875,9215.6728515625,-5958.875,8653.7998046875,6197.2939453125,5325.47607421875,7141.43115234375,2934.137939453125,-665.1878662109375,4405.1806640625,-0.0,4703.99853515625,-14851.8876953125,3146.33056640625,12348.4921875,2677.440673828125,-6918.1123046875,4285.1767578125,4548.2314453125,6620.8837890625,3747.93994140625,3135.9990234375,-4585.583984375,-13818.7412109375,-8179.34716796875,2597.9677734375,-2465.248046875,0.0,-6280.740234375,0.0,-6662.2099609375,-13012.8857421875,3577.0732421875,-9229.18359375,0.0,-16019.3447265625,-2853.870361328125,0.0,-7325.013671875,0.0,4736.58251953125,-0.0,-6018.47998046875
-9905.4970703125,-8509.953125,11163.552734375,-8382.796875,6693.20458984375,2387.36474609375,3499.190185546875,-6013.71142578125,0.0,-4172.3251953125,-2071.857421875,-14840.76171875,0.0,0.0,0.0,-3708.99853515625,1560.846923828125,11371.771484375,-0.0,-178.0192108154297,5869.865234375,9404.818359375,6932.41748046875,2890.427734375,3247.260986328125,-5257.92431640625,-6159.94140625,6386.43896484375,-1439.25341796875,-3790.060791015625,9218.8515625,-5957.28564453125,8653.0048828125,6199.677734375,5325.47607421875,7145.40478515625,2934.137939453125,-662.8036499023438,4412.3330078125,-0.0,4703.20361328125,-14845.5302734375,3147.125244140625,12350.08203125,2679.82470703125,-6915.72802734375,4285.97119140625,4548.2314453125,6619.29443359375,3752.70849609375,3137.58837890625,-4581.6103515625,-13787.74609375,-8172.1943359375,2594.788818359375,-2458.095458984375,0.0,-6278.35595703125,0.0,-6656.646484375,-13012.8857421875,3577.0732421875,-9227.59375,0.0,-16019.3447265625,-2858.638671875,0.0,-7316.271484375,0.0,4745.32470703125,-0.0,-6010.5322265625
-9895.1650390625,-8502.80078125,11158.7841796875,-8381.20703125,6690.8203125,2391.33837890625,3502.368896484375,-6007.353515625,0.0,-4164.3779296875,-2074.24169921875,-14835.1982421875,0.0,0.0,0.0,-3698.666748046875,1558.4627685546875,11372.56640625,-0.0,-170.07191467285156,5870.66015625,9406.4072265625,6934.00732421875,2892.81201171875,3240.903076171875,-5249.18212890625,-6163.1201171875,6392.796875,-1444.816650390625,-3786.0869140625,9218.8515625,-5961.25927734375,8649.826171875,6198.08837890625,5326.27099609375,7147.7890625,2936.522216796875,-656.44580078125,4409.94873046875,-0.0,4700.8193359375,-14839.171875,3147.919921875,12355.6455078125,2680.619384765625,-6910.16552734375,4278.0244140625,4552.20556640625,6618.5,3759.06640625,3138.383056640625,-4576.04736328125,-13781.388671875,-8165.83642578125,2588.43115234375,-2450.94287109375,0.0,-6267.2294921875,0.0,-6644.7255859375,-12983.4814453125,3581.047119140625,-9223.6201171875,0.0,-16022.5234375,-2869.76513671875,0.0,-7299.58203125,0.0,4765.1923828125,-0.0,-5998.611328125
-9899.93359375,-8494.0595703125,11158.7841796875,-8378.029296875,6692.40966796875,2393.72265625,3503.16357421875,-6005.76416015625,0.0,-4163.58349609375,-2072.652099609375,-14832.01953125,0.0,0.0,0.0,-3698.666748046875,1561.6417236328125,11377.3349609375,-0.0,-170.07191467285156,5873.8388671875,9409.5869140625,6936.39111328125,2895.1962890625,3243.287353515625,-5246.00341796875,-6160.736328125,6393.59130859375,-1444.0218505859375,-3786.881591796875,9220.4404296875,-5957.28564453125,8653.0048828125,6200.47216796875,5330.24462890625,7151.7626953125,2936.522216796875,-656.44580078125,4409.94873046875,-0.0,4704.79345703125,-14834.404296875,3147.919921875,12358.029296875,2679.82470703125,-6908.57568359375,4280.408203125,4555.38427734375,6621.6787109375,3760.65576171875,3137.58837890625,-4573.6630859375,-13780.59375,-8165.0419921875,2590.0205078125,-2467.63232421875,0.0,-6258.48779296875,0.0,-6646.31494140625,-12984.275390625,3584.225830078125,-9224.4150390625,0.0,-16016.9599609375,-2855.4599609375,0.0,-7305.93994140625,0.0,4759.6298828125,-0.0,-5999.40625
-9898.3447265625,-8492.4697265625,11165.1416015625,-8374.0546875,6697.177734375,2396.106689453125,3499.98486328125,-6006.55908203125,0.0,-4170.73583984375,-2067.089111328125,-14824.0732421875,0.0,0.0,0.0,-3700.25634765625,1567.99951171875,11381.30859375,-0.0,-178.0192108154297,5879.40234375,9412.765625,6939.56982421875,2895.990966796875,3250.43994140625,-5242.82470703125,-6153.58349609375,6393.59130859375,-1436.8692626953125,-3782.908203125,9226.0048828125,-5948.54345703125,8659.36328125,6204.4462890625,5333.423828125,7155.736328125,2936.522216796875,-655.651123046875,4420.2802734375,-0.0,4709.56201171875,-14832.01953125,3147.125244140625,12360.4130859375,2680.619384765625,-6910.9599609375,4288.35546875,4559.35791015625,6626.447265625,3759.06640625,3137.58837890625,-4575.25244140625,-13782.18359375,-8169.01513671875,2595.583740234375,-2458.095458984375,0.0,-6252.92431640625,0.0,-6655.0576171875,-12990.6337890625,3584.225830078125,-9225.208984375,0.0,-16010.6025390625,-2845.12841796875,0.0,-7318.6552734375,0.0,4739.76123046875,-0.0,-6018.47998046875
-9879.271484375,-8495.6484375,11171.5,-8371.6708984375,6701.9462890625,2398.490966796875,3500.779296875,-6004.1748046875,0.0,-4168.3515625,-2060.731201171875,-14821.6884765625,0.0,0.0,0.0,-3695.488037109375,1571.97314453125,11383.6923828125,-0.0,-177.22447204589844,5881.7861328125,9415.1494140625,6943.5439453125,2901.55419921875,3255.208251953125,-5241.2353515625,-6151.994140625,6395.18115234375,-1431.3062744140625,-3784.49755859375,9228.388671875,-5940.59619140625,8664.130859375,6208.419921875,5336.6025390625,7157.32568359375,2937.31689453125,-652.47216796875,4418.69091796875,-0.0,4714.330078125,-14828.8408203125,3147.919921875,12362.7978515625,2682.208984375,-6906.986328125,4293.12353515625,4561.7421875,6631.21533203125,3759.861083984375,3137.58837890625,-4573.6630859375,-13787.74609375,-8170.6044921875,2601.94140625,-2440.611572265625,0.0,-6246.56689453125,0.0,-6649.494140625,-13001.759765625,3588.19970703125,-9225.208984375,0.0,-16005.8349609375,-2845.923095703125,0.0,-7309.91357421875,0.0,4748.50341796875,-0.0,-6011.3271484375
-9896.7548828125,-8497.23828125,11163.552734375,-8375.64453125,6697.97265625,2396.106689453125,3500.779296875,-6004.1748046875,0.0,-4165.17236328125,-2066.29443359375,-14823.27734375,0.0,0.0,0.0,-3693.103759765625,1564.02587890625,11378.9248046875,-0.0,-174.04556274414062,5876.22314453125,9409.5869140625,6938.775390625,2899.169921875,3251.23486328125,-5246.00341796875,-6155.9677734375,6396.7705078125,-1434.485107421875,-3791.650146484375,9221.236328125,-5949.33837890625,8655.388671875,6202.8564453125,5331.83447265625,7154.94140625,2935.727294921875,-653.2669067382812,4409.154296875,-0.0,4710.3564453125,-14831.2255859375,3147.919921875,12361.208984375,2679.82470703125,-6905.39697265625,4291.5341796875,4556.17919921875,6627.24169921875,3759.06640625,3137.58837890625,-4573.6630859375,-13808.41015625,-8169.81005859375,2598.762451171875,-2434.253662109375,0.0,-6247.36181640625,0.0,-6646.31494140625,-13005.7333984375,3585.020751953125,-9225.208984375,0.0,-16011.396484375,-2842.744140625,0.0,-7305.1455078125,0.0,4754.06640625,-0.0,-6000.99560546875
-9903.908203125,-8495.6484375,11156.3994140625,-8378.8232421875,6693.20458984375,2393.72265625,3501.57421875,-6008.94287109375,0.0,-4169.14599609375,-2072.652099609375,-14821.6884765625,0.0,0.0,0.0,-3699.461669921875,1558.4627685546875,11375.7451171875,-0.0,-174.8402862548828,5870.66015625,9406.4072265625,6936.39111328125,2895.1962890625,3247.260986328125,-5249.97705078125,-6158.35205078125,6393.59130859375,-1440.0482177734375,-3792.44482421875,9216.4677734375,-5959.66943359375,8649.826171875,6197.2939453125,5327.8603515625,7152.5576171875,2935.727294921875,-658.0352783203125,4403.59130859375,-0.0,4705.587890625,-14835.994140625,3146.33056640625,12356.4404296875,2681.414306640625,-6909.37060546875,4284.3818359375,4551.41064453125,6620.8837890625,3755.88720703125,3137.58837890625,-4578.431640625,-13809.2041015625,-8164.24658203125,2593.199462890625,-2432.6640625,0.0,-6252.92431640625,0.0,-6652.67333984375,-12982.6865234375,3581.047119140625,-9226.798828125,0.0,-16018.548828125,-2841.15478515625,0.0,-7319.4501953125,0.0,4743.73486328125,-0.0,-6008.94287109375
-9892.78125,-8493.2646484375,11155.60546875,-8378.029296875,6691.61474609375,2395.31201171875,3500.779296875,-6010.5322265625,0.0,-4171.5302734375,-2072.652099609375,-14818.5087890625,0.0,0.0,0.0,-3701.051025390625,1557.6680908203125,11374.9501953125,-0.0,-175.63502502441406,5866.6865234375,9406.4072265625,6934.8017578125,2895.990966796875,3244.082275390625,-5247.5927734375,-6159.14697265625,6394.38623046875,-1445.611328125,-3788.47119140625,9218.8515625,-5955.6962890625,8649.03125,6197.2939453125,5326.27099609375,7151.7626953125,2935.727294921875,-658.0352783203125,4402.79638671875,-0.0,4703.99853515625,-14834.404296875,3147.919921875,12358.8251953125,2683.003662109375,-6910.16552734375,4280.408203125,4553.0,6619.29443359375,3759.06640625,3135.9990234375,-4576.841796875,-13790.9248046875,-8160.2734375,2589.225830078125,-2432.6640625,0.0,-6248.951171875,0.0,-6654.2626953125,-12977.91796875,3582.636474609375,-9226.798828125,0.0,-16020.93359375,-2834.796875,0.0,-7333.75537109375,0.0,4733.40380859375,-0.0,-6011.3271484375
-9899.1396484375,-8502.0068359375,11155.60546875,-8379.6181640625,6693.20458984375,2394.51708984375,3499.190185546875,-6010.5322265625,0.0,-4173.1201171875,-2074.24169921875,-14821.6884765625,0.0,0.0,0.0,-3697.077392578125,1556.07861328125,11374.9501953125,-0.0,-177.22447204589844,5867.4814453125,9406.4072265625,6934.8017578125,2893.60693359375,3240.1083984375,-5247.5927734375,-6158.35205078125,6394.38623046875,-1446.406005859375,-3798.008056640625,9217.2626953125,-5954.10693359375,8648.236328125,6196.4990234375,5324.681640625,7147.7890625,2936.522216796875,-659.624755859375,4403.59130859375,-0.0,4702.4091796875,-14835.994140625,3147.125244140625,12357.2353515625,2680.619384765625,-6913.34375,4274.84521484375,4555.38427734375,6617.705078125,3755.88720703125,3136.7939453125,-4575.25244140625,-13793.3095703125,-8164.24658203125,2587.63623046875,-2440.611572265625,0.0,-6251.3349609375,0.0,-6653.4677734375,-12989.0439453125,3581.047119140625,-9228.388671875,0.0,-16024.1123046875,-2843.5390625,0.0,-7323.423828125,0.0,4742.1455078125,-0.0,-6009.7373046875
-9905.4970703125,-8507.5693359375,11157.9892578125,-8375.64453125,6696.3828125,2396.106689453125,3501.57421875,-6004.96923828125,0.0,-4169.14599609375,-2070.267822265625,-14820.8935546875,0.0,0.0,0.0,-3687.540771484375,1560.05224609375,11377.3349609375,-0.0,-175.63502502441406,5870.66015625,9409.5869140625,6934.8017578125,2895.990966796875,3244.876953125,-5242.82470703125,-6156.7626953125,6396.7705078125,-1442.432373046875,-3800.39208984375,9218.8515625,-5954.9013671875,8648.236328125,6199.677734375,5328.6552734375,7150.17333984375,2937.31689453125,-655.651123046875,4405.9755859375,-0.0,4703.20361328125,-14832.01953125,3145.53564453125,12360.4130859375,2679.82470703125,-6910.16552734375,4278.81884765625,4561.7421875,6620.0888671875,3757.476806640625,3138.383056640625,-4570.484375,-13798.0771484375,-8165.83642578125,2592.404541015625,-2444.585205078125,0.0,-6247.36181640625,0.0,-6645.5205078125,-12984.275390625,3582.636474609375,-9224.4150390625,0.0,-16020.93359375,-2846.7177734375,0.0,-7302.76123046875,0.0,4753.271484375,-0.0,-6009.7373046875
-9908.67578125,-8502.80078125,11163.552734375,-8370.08203125,6697.177734375,2400.080322265625,3503.16357421875,-5999.40625,0.0,-4163.58349609375,-2069.47314453125,-14813.7412109375,0.0,0.0,0.0,-3683.567138671875,1564.8206787109375,11381.30859375,-0.0,-173.25083923339844,5873.8388671875,9414.35546875,6937.98046875,2901.55419921875,3245.671630859375,-5238.05615234375,-6156.7626953125,6402.33349609375,-1441.6376953125,-3784.49755859375,9224.4150390625,-5951.72265625,8653.7998046875,6204.4462890625,5332.62890625,7157.32568359375,2937.31689453125,-650.8826904296875,4417.1015625,-0.0,4706.3828125,-14827.2509765625,3147.125244140625,12364.3876953125,2682.208984375,-6905.39697265625,4285.1767578125,4562.53662109375,6623.26806640625,3763.834716796875,3138.383056640625,-4565.7158203125,-13792.5146484375,-8161.8623046875,2593.994140625,-2439.816650390625,0.0,-6242.59326171875,0.0,-6637.5732421875,-12985.0703125,3585.8154296875,-9220.4404296875,0.0,-16021.728515625,-2836.386474609375,0.0,-7289.2509765625,0.0,4762.80810546875,-0.0,-5999.40625
-9910.265625,-8502.0068359375,11165.1416015625,-8366.90234375,6696.3828125,2400.875,3502.368896484375,-6003.3798828125,0.0,-4166.76171875,-2072.652099609375,-14812.9462890625,0.0,0.0,0.0,-3689.925048828125,1566.4100341796875,11380.513671875,-0.0,-177.22447204589844,5876.22314453125,9413.5595703125,6937.98046875,2898.375244140625,3247.260986328125,-5238.05615234375,-6158.35205078125,6399.15478515625,-1441.6376953125,-3776.55029296875,9225.208984375,-5944.56982421875,8657.7734375,6205.24072265625,5331.83447265625,7155.736328125,2935.727294921875,-653.2669067382812,4423.45947265625,-0.0,4710.3564453125,-14826.45703125,3147.919921875,12363.5927734375,2681.414306640625,-6909.37060546875,4290.73974609375,4563.33154296875,6623.26806640625,3763.834716796875,3139.177978515625,-4568.89501953125,-13786.9521484375,-8159.47802734375,2592.404541015625,-2439.816650390625,0.0,-6247.36181640625,0.0,-6642.341796875,-13002.5546875,3585.020751953125,-9223.6201171875,0.0,-16023.3173828125,-2832.41259765625,0.0,-7296.4033203125,0.0,4758.0400390625,-0.0,-6000.99560546875
-9899.1396484375,-8505.98046875,11162.7578125,-8373.2607421875,6694.7939453125,2395.31201171875,3501.57421875,-6009.7373046875,0.0,-4174.70947265625,-2076.625732421875,-14820.0986328125,0.0,0.0,0.0,-3696.28271484375,1563.2310791015625,11377.3349609375,-0.0,-181.1981201171875,5871.45458984375,9407.9970703125,6933.21240234375,2893.60693359375,3243.287353515625,-5245.208984375,-6159.14697265625,6393.59130859375,-1444.0218505859375,-3784.49755859375,9219.646484375,-5944.56982421875,8654.5947265625,6199.677734375,5327.06591796875,7150.96826171875,2934.9326171875,-659.624755859375,4409.154296875,-0.0,4706.3828125,-14832.814453125,3147.125244140625,12360.4130859375,2680.619384765625,-6915.72802734375,4289.9453125,4560.15234375,6621.6787109375,3758.271484375,3139.97265625,-4576.04736328125,-13786.9521484375,-8165.0419921875,2588.43115234375,-2446.174560546875,0.0,-6254.51416015625,0.0,-6649.494140625,-13030.3701171875,3581.047119140625,-9229.18359375,0.0,-16032.060546875,-2843.5390625,0.0,-7306.734375,0.0,4750.0927734375,-0.0,-6008.1484375
-9890.3974609375,-8505.98046875,11157.9892578125,-8374.0546875,6693.20458984375,2395.31201171875,3502.368896484375,-6010.5322265625,0.0,-4174.70947265625,-2078.21533203125,-14820.8935546875,0.0,0.0,0.0,-3694.693359375,1562.4364013671875,11375.7451171875,-0.0,-178.81393432617188,5869.865234375,9408.7919921875,6933.21240234375,2892.017333984375,3240.903076171875,-5245.208984375,-6157.55712890625,6393.59130859375,-1444.0218505859375,-3788.47119140625,9218.056640625,-5943.775390625,8651.416015625,6198.8828125,5325.47607421875,7149.37841796875,2936.522216796875,-659.624755859375,4412.3330078125,-0.0,4703.99853515625,-14836.7880859375,3147.125244140625,12356.4404296875,2681.414306640625,-6914.93359375,4280.408203125,4560.15234375,6620.8837890625,3758.271484375,3139.177978515625,-4576.841796875,-13784.5673828125,-8165.0419921875,2586.841552734375,-2448.558837890625,0.0,-6254.51416015625,0.0,-6648.69921875,-13021.6279296875,3580.25244140625,-9229.18359375,0.0,-16033.6494140625,-2845.12841796875,0.0,-7307.529296875,0.0,4750.88720703125,-0.0,-6008.94287109375
-9914.2392578125,-8525.8486328125,11150.04296875,-8379.6181640625,6689.23046875,2392.133056640625,3502.368896484375,-6013.71142578125,0.0,-4173.91455078125,-2088.546875,-14824.8671875,0.0,0.0,0.0,-3695.488037109375,1557.6680908203125,11372.56640625,-0.0,-178.81393432617188,5866.6865234375,9404.818359375,6931.623046875,2888.043701171875,3237.724365234375,-5249.18212890625,-6159.14697265625,6391.20703125,-1449.5849609375,-3789.265869140625,9215.6728515625,-5952.51708984375,8646.6474609375,6194.90966796875,5324.681640625,7145.40478515625,2938.111572265625,-662.0089111328125,4409.154296875,-0.0,4698.435546875,-14846.3251953125,3147.919921875,12354.056640625,2681.414306640625,-6918.1123046875,4272.4609375,4556.17919921875,6616.11572265625,3755.092529296875,3138.383056640625,-4579.22607421875,-13809.2041015625,-8193.65234375,2582.867919921875,-2470.0166015625,0.0,-6259.28271484375,0.0,-6651.87841796875,-12995.40234375,3577.0732421875,-9230.7734375,0.0,-16036.033203125,-2849.10205078125,0.0,-7310.70849609375,0.0,4751.68212890625,-0.0,-6007.353515625
-9946.0283203125,-8535.384765625,11150.8369140625,-8384.38671875,6686.0517578125,2386.570068359375,3499.98486328125,-6019.2744140625,0.0,-4178.6826171875,-2089.34130859375,-14828.0458984375,0.0,0.0,0.0,-3701.845947265625,1554.4891357421875,11368.591796875,-0.0,-179.60865783691406,5863.5078125,9400.0498046875,6926.8544921875,2882.480712890625,3233.75048828125,-5256.3349609375,-6164.70947265625,6388.02880859375,-1453.55859375,-3792.44482421875,9212.494140625,-5954.10693359375,8646.6474609375,6189.34619140625,5320.7080078125,7140.63623046875,2934.9326171875,-666.7772827148438,4410.74365234375,-0.0,4695.2568359375,-14855.861328125,3145.53564453125,12351.671875,2680.619384765625,-6923.67578125,4267.6923828125,4556.97412109375,6612.9365234375,3749.529541015625,3138.383056640625,-4583.99462890625,-13827.4833984375,-8211.9306640625,2581.278564453125,-2470.0166015625,0.0,-6264.84521484375,0.0,-6658.23583984375,-13005.7333984375,3571.51025390625,-9233.1572265625,0.0,-16039.212890625,-2847.512451171875,0.0,-7320.2451171875,0.0,4746.9140625,-0.0,-6012.91650390625
-9957.154296875,-8526.642578125,11153.220703125,-8381.20703125,6687.64111328125,2388.159423828125,3501.57421875,-6020.86376953125,0.0,-4180.2724609375,-2084.572998046875,-14824.8671875,0.0,0.0,0.0,-3701.845947265625,1556.07861328125,11369.3876953125,-0.0,-181.1981201171875,5865.09716796875,9400.8447265625,6928.44384765625,2884.070068359375,3234.54541015625,-5253.95068359375,-6163.1201171875,6387.23388671875,-1453.55859375,-3793.239501953125,9214.083984375,-5952.51708984375,8647.44140625,6190.14111328125,5319.91357421875,7141.43115234375,2934.9326171875,-666.7772827148438,4417.896484375,-0.0,4695.2568359375,-14855.861328125,3146.33056640625,12351.671875,2681.414306640625,-6924.47021484375,4270.07666015625,4559.35791015625,6614.5263671875,3749.529541015625,3137.58837890625,-4583.99462890625,-13830.662109375,-8197.625,2582.0732421875,-2458.89013671875,0.0,-6264.05078125,0.0,-6658.23583984375,-13012.8857421875,3573.099853515625,-9232.361328125,0.0,-16040.8017578125,-2845.923095703125,0.0,-7317.86083984375,0.0,4746.119140625,-0.0,-6015.30078125
-9922.9814453125,-8511.54296875,11153.220703125,-8378.029296875,6690.8203125,2390.543701171875,3501.57421875,-6019.2744140625,0.0,-4180.2724609375,-2079.010009765625,-14821.6884765625,0.0,0.0,0.0,-3701.051025390625,1558.4627685546875,11371.771484375,-0.0,-183.58230590820312,5868.27587890625,9402.4345703125,6930.828125,2886.454345703125,3240.1083984375,-5251.56640625,-6159.14697265625,6388.02880859375,-1448.7901611328125,-3792.44482421875,9217.2626953125,-5954.9013671875,8647.44140625,6192.525390625,5323.091796875,7143.0205078125,2934.9326171875,-665.1878662109375,4410.74365234375,-0.0,4699.22998046875,-14850.298828125,3147.125244140625,12352.466796875,2679.82470703125,-6926.0595703125,4276.4345703125,4560.15234375,6617.705078125,3754.2978515625,3135.9990234375,-4580.81591796875,-13811.587890625,-8178.5517578125,2586.046875,-2450.94287109375,0.0,-6262.46142578125,0.0,-6655.85205078125,-13005.7333984375,3575.484130859375,-9230.7734375,0.0,-16032.8544921875,-2845.923095703125,0.0,-7317.06640625,0.0,4745.32470703125,-0.0,-6016.89013671875
-9906.2919921875,-8509.1591796875,11149.2470703125,-8382.796875,6686.84619140625,2384.98046875,3498.395263671875,-6021.658203125,0.0,-4183.451171875,-2082.18896484375,-14827.2509765625,0.0,0.0,0.0,-3705.024658203125,1552.10498046875,11367.7978515625,-0.0,-185.17176818847656,5862.712890625,9400.0498046875,6926.0595703125,2883.275390625,3237.724365234375,-5258.71875,-6161.53076171875,6386.43896484375,-1451.1744384765625,-3796.41845703125,9210.904296875,-5962.0537109375,8641.87890625,6187.7568359375,5321.5029296875,7137.45751953125,2933.34326171875,-669.1614990234375,4402.79638671875,-0.0,4696.84619140625,-14854.271484375,3143.9462890625,12349.2880859375,2677.440673828125,-6928.44384765625,4274.05029296875,4552.20556640625,6614.5263671875,3751.118896484375,3135.204345703125,-4583.99462890625,-13808.41015625,-8176.16748046875,2584.45751953125,-2457.30078125,0.0,-6267.2294921875,0.0,-6659.03076171875,-13016.8603515625,3573.099853515625,-9233.951171875,0.0,-16028.0859375,-2847.512451171875,0.0,-7318.6552734375,0.0,4743.73486328125,-0.0,-6017.68505859375
-9911.060546875,-8513.1328125,11142.0947265625,-8393.923828125,6680.48876953125,2380.212158203125,3496.805908203125,-6027.2216796875,0.0,-4187.42529296875,-2090.930908203125,-14832.01953125,0.0,0.0,0.0,-3708.20361328125,1542.5682373046875,11362.2353515625,-0.0,-186.76121520996094,5856.35498046875,9392.1025390625,6922.880859375,2877.712158203125,3228.982177734375,-5263.4873046875,-6163.9150390625,6380.0810546875,-1458.326904296875,-3800.39208984375,9203.751953125,-5975.564453125,8633.931640625,6178.22021484375,5315.14501953125,7131.89453125,2932.548583984375,-672.3403930664062,4393.259765625,-0.0,4689.693359375,-14863.80859375,3142.35693359375,12342.9296875,2679.0302734375,-6931.623046875,4266.8974609375,4541.8740234375,6609.7578125,3743.96630859375,3135.204345703125,-4589.5576171875,-13813.177734375,-8180.1416015625,2575.71533203125,-2454.916748046875,0.0,-6271.998046875,0.0,-6665.388671875,-13000.1708984375,3566.741943359375,-9237.92578125,0.0,-16034.4443359375,-2853.07568359375,0.0,-7322.62939453125,0.0,4737.376953125,-0.0,-6021.658203125
-9918.212890625,-8515.517578125,11137.326171875,-8398.6923828125,6680.48876953125,2378.622802734375,3499.190185546875,-6027.2216796875,0.0,-4187.42529296875,-2092.5205078125,-14831.2255859375,0.0,0.0,0.0,-3707.408935546875,1540.18408203125,11360.6455078125,-0.0,-185.17176818847656,5853.97119140625,9388.923828125,6922.08642578125,2876.122802734375,3228.982177734375,-5265.87158203125,-6167.09375,6380.0810546875,-1459.1217041015625,-3801.981689453125,9200.5732421875,-5976.35888671875,8631.546875,6175.041015625,5311.9658203125,7128.71533203125,2932.548583984375,-673.9298706054688,4387.69677734375,-0.0,4685.7197265625,-14864.603515625,3143.151611328125,12342.1357421875,2678.2353515625,-6932.41748046875,4258.95068359375,4537.900390625,6608.16796875,3743.171630859375,3135.204345703125,-4588.7626953125,-13806.8203125,-8182.525390625,2576.51025390625,-2446.96923828125,0.0,-6271.998046875,0.0,-6664.59423828125,-12993.0185546875,3566.741943359375,-9236.3359375,0.0,-16037.6220703125,-2854.6650390625,0.0,-7323.423828125,0.0,4732.60888671875,-0.0,-6021.658203125
-9921.3916015625,-8517.1064453125,11141.2998046875,-8394.7177734375,6682.078125,2381.0068359375,3499.190185546875,-6022.453125,0.0,-4183.451171875,-2089.34130859375,-14824.0732421875,0.0,0.0,0.0,-3703.435302734375,1544.952392578125,11363.82421875,-0.0,-181.1981201171875,5857.1494140625,9393.6923828125,6924.47021484375,2879.3017578125,3229.777099609375,-5265.87158203125,-6163.9150390625,6384.849609375,-1457.5322265625,-3796.41845703125,9205.341796875,-5970.0009765625,8637.1103515625,6178.22021484375,5315.14501953125,7133.48388671875,2934.137939453125,-669.9561767578125,4398.02783203125,-0.0,4690.48828125,-14860.6298828125,3144.740966796875,12346.1083984375,2679.82470703125,-6929.23876953125,4263.71923828125,4541.0791015625,6610.55224609375,3747.1455078125,3135.9990234375,-4584.7890625,-13802.0517578125,-8176.962890625,2575.71533203125,-2442.200927734375,0.0,-6267.2294921875,0.0,-6661.4150390625,-13000.1708984375,3569.9208984375,-9234.74609375,0.0,-16040.0068359375,-2846.7177734375,0.0,-7321.83447265625,0.0,4738.171875,-0.0,-6020.0693359375
-9918.212890625,-8514.7216796875,11147.658203125,-8389.9501953125,6686.0517578125,2382.59619140625,3501.57421875,-6018.47998046875,0.0,-4177.09375,-2086.16259765625,-14819.3046875,0.0,0.0,0.0,-3699.461669921875,1548.926025390625,11367.00390625,-0.0,-176.42974853515625,5861.12353515625,9395.2822265625,6926.8544921875,2884.070068359375,3232.9560546875,-5260.30859375,-6161.53076171875,6388.02880859375,-1454.353271484375,-3793.239501953125,9209.3154296875,-5964.43798828125,8641.87890625,6182.19384765625,5320.7080078125,7139.04736328125,2935.727294921875,-665.9825439453125,4409.94873046875,-0.0,4693.6669921875,-14857.451171875,3147.919921875,12350.08203125,2681.414306640625,-6922.880859375,4271.666015625,4545.05322265625,6614.5263671875,3749.529541015625,3137.58837890625,-4580.81591796875,-13795.693359375,-8172.98876953125,2580.483642578125,-2442.200927734375,0.0,-6261.6669921875,0.0,-6653.4677734375,-13010.501953125,3574.689208984375,-9229.9775390625,0.0,-16036.033203125,-2844.333740234375,0.0,-7311.5029296875,0.0,4752.47705078125,-0.0,-6009.7373046875
-9922.9814453125,-8512.337890625,11153.220703125,-8387.5654296875,6689.23046875,2384.98046875,3502.368896484375,-6016.89013671875,0.0,-4173.91455078125,-2081.394287109375,-14821.6884765625,0.0,0.0,0.0,-3698.666748046875,1552.10498046875,11368.591796875,-0.0,-175.63502502441406,5864.30224609375,9398.4599609375,6929.23876953125,2888.043701171875,3236.9296875,-5255.54052734375,-6157.55712890625,6388.8232421875,-1450.3797607421875,-3795.623779296875,9211.69921875,-5957.28564453125,8644.263671875,6184.578125,5323.091796875,7141.43115234375,2936.522216796875,-663.598388671875,4409.154296875,-0.0,4697.64111328125,-14852.6826171875,3147.919921875,12350.876953125,2683.003662109375,-6920.49658203125,4277.2294921875,4547.43701171875,6619.29443359375,3749.529541015625,3136.7939453125,-4579.22607421875,-13806.025390625,-8170.6044921875,2585.251953125,-2442.995849609375,0.0,-6262.46142578125,0.0,-6651.08349609375,-13016.8603515625,3575.484130859375,-9227.59375,0.0,-16031.265625,-2846.7177734375,0.0,-7308.32421875,0.0,4754.861328125,-0.0,-6007.353515625
-9933.3125,-8511.54296875,11154.810546875,-8382.796875,6690.025390625,2386.570068359375,3499.98486328125,-6016.095703125,0.0,-4175.50439453125,-2085.367919921875,-14828.0458984375,0.0,0.0,0.0,-3699.461669921875,1553.6943359375,11370.181640625,-0.0,-178.0192108154297,5866.6865234375,9401.638671875,6929.23876953125,2887.2490234375,3236.134765625,-5247.5927734375,-6159.94140625,6389.6181640625,-1451.1744384765625,-3797.21337890625,9212.494140625,-5955.6962890625,8645.0576171875,6187.7568359375,5323.091796875,7141.43115234375,2935.727294921875,-663.598388671875,4405.9755859375,-0.0,4700.02490234375,-14846.3251953125,3147.125244140625,12350.876953125,2683.003662109375,-6918.9072265625,4279.61328125,4550.61572265625,6619.29443359375,3750.32421875,3135.9990234375,-4580.02099609375,-13825.8935546875,-8172.1943359375,2582.867919921875,-2448.558837890625,0.0,-6260.8720703125,0.0,-6654.2626953125,-13016.064453125,3576.27880859375,-9228.388671875,0.0,-16037.6220703125,-2845.923095703125,0.0,-7313.0927734375,0.0,4745.32470703125,-0.0,-6017.68505859375
-9934.90234375,-8513.927734375,11159.5791015625,-8377.234375,6689.23046875,2390.543701171875,3501.57421875,-6009.7373046875,0.0,-4169.14599609375,-2091.7255859375,-14820.8935546875,0.0,0.0,0.0,-3691.51416015625,1557.6680908203125,11371.771484375,-0.0,-174.04556274414062,5869.0703125,9404.818359375,6931.623046875,2892.017333984375,3233.75048828125,-5245.208984375,-6159.14697265625,6395.18115234375,-1452.763916015625,-3789.265869140625,9216.4677734375,-5950.927734375,8649.03125,6192.525390625,5324.681640625,7146.994140625,2935.727294921875,-661.2141723632812,4411.53857421875,-0.0,4701.6142578125,-14836.7880859375,3147.919921875,12356.4404296875,2680.619384765625,-6912.54931640625,4281.20263671875,4557.7685546875,6620.0888671875,3757.476806640625,3136.7939453125,-4574.45751953125,-13821.125,-8169.01513671875,2580.483642578125,-2450.1484375,0.0,-6252.1298828125,0.0,-6642.341796875,-13014.4755859375,3581.047119140625,-9223.6201171875,0.0,-16043.1865234375,-2840.35986328125,0.0,-7304.3505859375,0.0,4754.861328125,-0.0,-6012.91650390625
-9919.802734375,-8516.3115234375,11158.7841796875,-8377.234375,6689.23046875,2392.133056640625,3501.57421875,-6009.7373046875,0.0,-4169.14599609375,-2088.546875,-14817.71484375,0.0,0.0,0.0,-3692.30908203125,1558.4627685546875,11370.9765625,-0.0,-176.42974853515625,5869.0703125,9405.61328125,6931.623046875,2892.017333984375,3237.724365234375,-5245.208984375,-6155.9677734375,6393.59130859375,-1448.7901611328125,-3786.0869140625,9215.6728515625,-5949.33837890625,8648.236328125,6194.11474609375,5323.091796875,7146.994140625,2935.727294921875,-661.2141723632812,4407.564453125,-0.0,4699.22998046875,-14830.4296875,3148.71484375,12354.8505859375,2679.0302734375,-6910.16552734375,4277.2294921875,4556.97412109375,6617.705078125,3755.88720703125,3136.7939453125,-4575.25244140625,-13817.1513671875,-8161.8623046875,2584.45751953125,-2448.558837890625,0.0,-6252.1298828125,0.0,-6643.13671875,-13016.8603515625,3582.636474609375,-9226.0048828125,0.0,-16047.9541015625,-2838.7705078125,0.0,-7305.93994140625,0.0,4754.06640625,-0.0,-6008.94287109375
-9909.470703125,-8513.927734375,11152.4267578125,-8375.64453125,6686.0517578125,2392.133056640625,3500.779296875,-6008.94287109375,0.0,-4165.96728515625,-2085.367919921875,-14814.5361328125,0.0,0.0,0.0,-3694.693359375,1556.07861328125,11370.9765625,-0.0,-174.04556274414062,5867.4814453125,9404.0234375,6933.21240234375,2890.427734375,3238.51904296875,-5240.4404296875,-6156.7626953125,6391.20703125,-1449.5849609375,-3782.908203125,9214.083984375,-5950.1328125,8644.263671875,6192.525390625,5322.29736328125,7147.7890625,2934.9326171875,-660.41943359375,4402.79638671875,-0.0,4697.64111328125,-14824.8671875,3149.509521484375,12352.466796875,2679.82470703125,-6909.37060546875,4266.8974609375,4557.7685546875,6615.32080078125,3755.88720703125,3138.383056640625,-4576.841796875,-13814.7666015625,-8156.2998046875,2584.45751953125,-2445.3798828125,0.0,-6254.51416015625,0.0,-6643.93115234375,-13025.6015625,3581.047119140625,-9224.4150390625,0.0,-16052.72265625,-2841.15478515625,0.0,-7305.1455078125,0.0,4758.0400390625,-0.0,-5998.611328125
-9911.8544921875,-8511.54296875,11147.658203125,-8375.64453125,6688.43603515625,2393.72265625,3499.98486328125,-6007.353515625,0.0,-4164.3779296875,-2091.7255859375,-14815.330078125,0.0,0.0,0.0,-3695.488037109375,1554.4891357421875,11372.56640625,-0.0,-173.25083923339844,5864.30224609375,9404.818359375,6932.41748046875,2890.427734375,3236.9296875,-5236.466796875,-6158.35205078125,6391.20703125,-1451.9691162109375,-3783.702880859375,9214.8779296875,-5952.51708984375,8641.87890625,6191.73046875,5323.091796875,7150.96826171875,2936.522216796875,-660.41943359375,4397.2333984375,-0.0,4696.84619140625,-14820.0986328125,3147.919921875,12354.056640625,2682.208984375,-6909.37060546875,4266.8974609375,4556.97412109375,6616.91064453125,3757.476806640625,3139.177978515625,-4576.841796875,-13815.5625,-8153.12109375,2582.867919921875,-2442.200927734375,0.0,-6254.51416015625,0.0,-6643.13671875,-13013.6806640625,3581.047119140625,-9225.208984375,0.0,-16047.1591796875,-2847.512451171875,0.0,-7305.1455078125,0.0,4756.45068359375,-0.0,-6000.20068359375
-9928.5439453125,-8514.7216796875,11148.453125,-8376.439453125,6689.23046875,2394.51708984375,3499.98486328125,-6004.96923828125,0.0,-4160.404296875,-2093.315185546875,-14819.3046875,0.0,0.0,0.0,-3691.51416015625,1553.6943359375,11373.3603515625,-0.0,-171.661376953125,5864.30224609375,9404.818359375,6933.21240234375,2892.017333984375,3238.51904296875,-5234.876953125,-6157.55712890625,6391.20703125,-1448.7901611328125,-3786.0869140625,9216.4677734375,-5952.51708984375,8641.87890625,6192.525390625,5323.88671875,7150.17333984375,2937.31689453125,-659.624755859375,4390.87548828125,-0.0,4696.84619140625,-14816.919921875,3149.509521484375,12354.8505859375,2682.208984375,-6905.39697265625,4271.666015625,4553.0,6616.91064453125,3759.06640625,3139.97265625,-4573.6630859375,-13825.0986328125,-8154.7099609375,2584.45751953125,-2441.40625,0.0,-6249.74560546875,0.0,-6637.5732421875,-12989.0439453125,3581.841796875,-9222.0302734375,0.0,-16039.212890625,-2851.486328125,0.0,-7295.6083984375,0.0,4759.6298828125,-0.0,-5997.02197265625
-9929.33984375,-8513.1328125,11147.658203125,-8375.64453125,6689.23046875,2394.51708984375,3499.98486328125,-6001.79052734375,0.0,-4154.8408203125,-2094.10986328125,-14818.5087890625,0.0,0.0,0.0,-3686.745849609375,1552.10498046875,11373.3603515625,-0.0,-169.27719116210938,5863.5078125,9404.0234375,6932.41748046875,2894.401611328125,3236.134765625,-5230.90380859375,-6158.35205078125,6394.38623046875,-1449.5849609375,-3786.0869140625,9214.8779296875,-5951.72265625,8641.083984375,6194.90966796875,5323.88671875,7153.35205078125,2935.727294921875,-658.8300170898438,4388.4912109375,-0.0,4696.84619140625,-14808.177734375,3147.919921875,12356.4404296875,2681.414306640625,-6899.83349609375,4273.255859375,4552.20556640625,6617.705078125,3759.06640625,3139.177978515625,-4568.89501953125,-13821.919921875,-8157.09423828125,2582.0732421875,-2443.79052734375,0.0,-6244.9775390625,0.0,-6630.4208984375,-12995.40234375,3581.047119140625,-9221.236328125,0.0,-16041.59765625,-2849.10205078125,0.0,-7287.6611328125,0.0,4765.9873046875,-0.0,-5987.4853515625
-9908.67578125,-8509.1591796875,11147.658203125,-8374.0546875,6688.43603515625,2392.133056640625,3501.57421875,-6001.79052734375,0.0,-4154.8408203125,-2093.315185546875,-14820.8935546875,0.0,0.0,0.0,-3689.925048828125,1553.6943359375,11373.3603515625,-0.0,-170.07191467285156,5863.5078125,9405.61328125,6932.41748046875,2893.60693359375,3231.366455078125,-5230.90380859375,-6157.55712890625,6391.20703125,-1455.9427490234375,-3789.265869140625,9213.2880859375,-5953.31201171875,8642.673828125,6196.4990234375,5323.091796875,7156.53076171875,2934.9326171875,-658.0352783203125,4395.6435546875,-0.0,4696.05126953125,-14801.8193359375,3147.919921875,12354.056640625,2681.414306640625,-6897.44970703125,4274.05029296875,4549.8212890625,6616.91064453125,3755.092529296875,3136.7939453125,-4571.27880859375,-13806.8203125,-8160.2734375,2577.304931640625,-2445.3798828125,0.0,-6242.59326171875,0.0,-6632.009765625,-13006.5283203125,3581.841796875,-9222.8251953125,0.0,-16045.5703125,-2847.512451171875,0.0,-7294.8134765625,0.0,4758.0400390625,-0.0,-5993.84326171875
-9908.67578125,-8507.5693359375,11143.6845703125,-8381.20703125,6685.2568359375,2386.570068359375,3502.368896484375,-6004.96923828125,0.0,-4156.4306640625,-2090.930908203125,-14828.0458984375,0.0,0.0,0.0,-3694.693359375,1550.5155029296875,11370.181640625,-0.0,-170.8666534423828,5861.12353515625,9401.638671875,6930.033203125,2891.22265625,3229.777099609375,-5236.466796875,-6159.94140625,6384.849609375,-1459.91650390625,-3795.623779296875,9211.69921875,-5957.28564453125,8637.9052734375,6192.525390625,5319.91357421875,7154.146484375,2936.522216796875,-660.41943359375,4392.46533203125,-0.0,4692.87255859375,-14804.2041015625,3147.919921875,12350.876953125,2682.208984375,-6899.03857421875,4266.8974609375,4543.46337890625,6615.32080078125,3747.1455078125,3136.7939453125,-4576.841796875,-13809.998046875,-8167.42626953125,2574.920654296875,-2453.3271484375,0.0,-6246.56689453125,0.0,-6637.5732421875,-12996.9912109375,3578.662841796875,-9222.8251953125,0.0,-16054.3115234375,-2852.28076171875,0.0,-7303.55615234375,0.0,4748.50341796875,-0.0,-5997.81640625
-9917.4189453125,-8509.953125,11139.7099609375,-8383.591796875,6683.66748046875,2383.39111328125,3499.98486328125,-6008.94287109375,0.0,-4158.81494140625,-2092.5205078125,-14832.814453125,0.0,0.0,0.0,-3701.051025390625,1546.5418701171875,11366.2080078125,-0.0,-173.25083923339844,5857.9443359375,9400.0498046875,6928.44384765625,2889.63330078125,3226.59814453125,-5238.85107421875,-6161.53076171875,6380.0810546875,-1459.91650390625,-3798.008056640625,9208.51953125,-5960.46435546875,8635.5205078125,6188.55126953125,5317.529296875,7150.17333984375,2935.727294921875,-662.8036499023438,4390.0810546875,-0.0,4691.28271484375,-14805.7939453125,3147.125244140625,12344.51953125,2679.82470703125,-6902.2177734375,4259.7451171875,4541.0791015625,6611.34716796875,3743.171630859375,3135.204345703125,-4580.81591796875,-13821.125,-8168.220703125,2574.1259765625,-2458.095458984375,0.0,-6247.36181640625,0.0,-6642.341796875,-12999.375,3577.0732421875,-9225.208984375,0.0,-16055.90234375,-2857.04931640625,0.0,-7311.5029296875,0.0,4739.76123046875,-0.0,-6001.79052734375
-9924.5712890625,-8517.9013671875,11138.1220703125,-8389.1552734375,6683.66748046875,2380.212158203125,3499.98486328125,-6012.12158203125,0.0,-4159.609375,-2091.7255859375,-14836.7880859375,0.0,0.0,0.0,-3704.22998046875,1544.1575927734375,11364.619140625,-0.0,-171.661376953125,5858.7392578125,9396.076171875,6924.47021484375,2885.659423828125,3224.2138671875,-5242.02978515625,-6163.1201171875,6377.69677734375,-1462.3006591796875,-3802.7763671875,9206.1357421875,-5962.8486328125,8633.931640625,6186.16748046875,5316.734375,7145.40478515625,2934.137939453125,-665.1878662109375,4387.69677734375,-0.0,4689.693359375,-14808.177734375,3145.53564453125,12342.1357421875,2679.0302734375,-6903.0126953125,4259.7451171875,4537.900390625,6611.34716796875,3741.582275390625,3136.7939453125,-4583.2001953125,-13831.4560546875,-8171.39892578125,2573.3310546875,-2459.68505859375,0.0,-6250.5400390625,0.0,-6646.31494140625,-13012.091796875,3575.484130859375,-9224.4150390625,0.0,-16050.3388671875,-2857.843994140625,0.0,-7314.68212890625,0.0,4741.3505859375,-0.0,-6003.3798828125
-9938.8759765625,-8517.1064453125,11139.7099609375,-8386.771484375,6682.87255859375,2381.801513671875,3499.98486328125,-6012.91650390625,0.0,-4158.81494140625,-2089.34130859375,-14830.4296875,0.0,0.0,0.0,-3707.408935546875,1547.3365478515625,11366.2080078125,-0.0,-174.04556274414062,5858.7392578125,9396.87109375,6924.47021484375,2884.86474609375,3227.392822265625,-5240.4404296875,-6159.94140625,6379.2861328125,-1460.711181640625,-3798.008056640625,9206.9306640625,-5958.875,8635.5205078125,6187.7568359375,5318.32373046875,7147.7890625,2933.34326171875,-666.7772827148438,4390.87548828125,-0.0,4691.28271484375,-14807.3837890625,3143.9462890625,12342.9296875,2679.0302734375,-6902.2177734375,4262.12939453125,4541.0791015625,6612.9365234375,3743.96630859375,3135.9990234375,-4583.99462890625,-13857.6826171875,-8168.220703125,2574.920654296875,-2453.3271484375,0.0,-6254.51416015625,0.0,-6647.90478515625,-13016.8603515625,3575.484130859375,-9226.0048828125,0.0,-16046.3662109375,-2847.512451171875,0.0,-7325.80810546875,0.0,4740.55615234375,-0.0,-6005.76416015625
-9956.359375,-8517.9013671875,11141.2998046875,-8383.591796875,6683.66748046875,2384.185791015625,3502.368896484375,-6012.12158203125,0.0,-4156.4306640625,-2089.34130859375,-14828.0458984375,0.0,0.0,0.0,-3704.22998046875,1548.926025390625,11366.2080078125,-0.0,-172.4561004638672,5861.12353515625,9399.2548828125,6926.0595703125,2886.454345703125,3228.1875,-5237.26123046875,-6159.14697265625,6380.8759765625,-1460.711181640625,-3794.8291015625,9208.51953125,-5957.28564453125,8636.3154296875,6188.55126953125,5318.32373046875,7150.17333984375,2936.522216796875,-664.3931274414062,4393.259765625,-0.0,4692.07763671875,-14806.587890625,3146.33056640625,12346.9033203125,2679.82470703125,-6901.4228515625,4258.15576171875,4542.6689453125,6613.7314453125,3747.93994140625,3135.9990234375,-4582.4052734375,-13847.3515625,-8169.01513671875,2575.71533203125,-2450.1484375,0.0,-6253.71923828125,0.0,-6644.7255859375,-13015.2705078125,3576.27880859375,-9224.4150390625,0.0,-16046.3662109375,-2845.12841796875,0.0,-7320.2451171875,0.0,4743.73486328125,-0.0,-6001.79052734375
-9956.359375,-8525.8486328125,11142.0947265625,-8382.0029296875,6684.4619140625,2384.98046875,3499.98486328125,-6009.7373046875,0.0,-4155.6357421875,-2095.69921875,-14832.814453125,0.0,0.0,0.0,-3700.25634765625,1549.720703125,11367.7978515625,-0.0,-172.4561004638672,5861.12353515625,9399.2548828125,6927.64892578125,2887.2490234375,3228.1875,-5238.85107421875,-6159.14697265625,6383.26025390625,-1459.1217041015625,-3796.41845703125,9210.109375,-5958.080078125,8638.69921875,6188.55126953125,5319.91357421875,7150.17333984375,2935.727294921875,-663.598388671875,4396.4384765625,-0.0,4692.87255859375,-14809.767578125,3146.33056640625,12346.9033203125,2679.0302734375,-6899.83349609375,4262.12939453125,4543.46337890625,6613.7314453125,3745.555908203125,3137.58837890625,-4580.02099609375,-13820.3310546875,-8172.98876953125,2575.71533203125,-2455.71142578125,0.0,-6249.74560546875,0.0,-6642.341796875,-13011.2958984375,3577.0732421875,-9222.8251953125,0.0,-16046.3662109375,-2856.254638671875,0.0,-7315.47705078125,0.0,4742.9404296875,-0.0,-6002.5849609375
-9947.6171875,-8538.5634765625,11142.8896484375,-8383.591796875,6684.4619140625,2384.98046875,3501.57421875,-6008.1484375,0.0,-4152.45654296875,-2099.673095703125,-14835.994140625,0.0,0.0,0.0,-3695.488037109375,1550.5155029296875,11367.7978515625,-0.0,-171.661376953125,5861.12353515625,9399.2548828125,6927.64892578125,2887.2490234375,3228.1875,-5239.6455078125,-6161.53076171875,6384.849609375,-1459.1217041015625,-3801.186767578125,9208.51953125,-5958.875,8637.9052734375,6188.55126953125,5319.91357421875,7150.96826171875,2934.9326171875,-662.0089111328125,4390.87548828125,-0.0,4692.07763671875,-14808.97265625,3145.53564453125,12347.6982421875,2679.82470703125,-6898.244140625,4267.6923828125,4544.25830078125,6613.7314453125,3745.555908203125,3137.58837890625,-4576.04736328125,-13817.1513671875,-8176.962890625,2575.71533203125,-2458.89013671875,0.0,-6248.15625,0.0,-6639.95751953125,-13018.44921875,3577.0732421875,-9222.8251953125,0.0,-16046.3662109375,-2864.99658203125,0.0,-7306.734375,0.0,4748.50341796875,-0.0,-5999.40625
-9946.0283203125,-8541.7431640625,11149.2470703125,-8377.234375,6686.84619140625,2388.159423828125,3501.57421875,-6006.55908203125,0.0,-4150.07275390625,-2094.904541015625,-14835.1982421875,0.0,0.0,0.0,-3693.103759765625,1551.3101806640625,11368.591796875,-0.0,-172.4561004638672,5863.5078125,9401.638671875,6928.44384765625,2890.427734375,3230.57177734375,-5230.90380859375,-6160.736328125,6385.64453125,-1456.737548828125,-3798.802734375,9212.494140625,-5952.51708984375,8641.083984375,6190.935546875,5321.5029296875,7152.5576171875,2935.727294921875,-660.41943359375,4388.4912109375,-0.0,4696.05126953125,-14801.8193359375,3146.33056640625,12349.2880859375,2679.0302734375,-6896.65478515625,4279.61328125,4556.17919921875,6615.32080078125,3749.529541015625,3138.383056640625,-4573.6630859375,-13825.0986328125,-8173.783203125,2578.894287109375,-2462.864013671875,0.0,-6247.36181640625,0.0,-6637.5732421875,-13035.1376953125,3578.662841796875,-9222.0302734375,0.0,-16045.5703125,-2859.433349609375,0.0,-7315.47705078125,0.0,4746.119140625,-0.0,-6002.5849609375
-9944.4384765625,-8531.4111328125,11154.015625,-8374.8505859375,6687.64111328125,2388.159423828125,3502.368896484375,-6007.353515625,0.0,-4149.2783203125,-2092.5205078125,-14834.404296875,0.0,0.0,0.0,-3692.30908203125,1552.899658203125,11370.181640625,-0.0,-170.8666534423828,5864.30224609375,9403.228515625,6930.033203125,2889.63330078125,3234.54541015625,-5232.4931640625,-6159.94140625,6386.43896484375,-1454.353271484375,-3800.39208984375,9213.2880859375,-5946.9541015625,8643.4677734375,6190.935546875,5319.91357421875,7152.5576171875,2935.727294921875,-660.41943359375,4393.259765625,-0.0,4700.8193359375,-14804.9990234375,3147.125244140625,12350.08203125,2679.0302734375,-6895.8603515625,4282.79248046875,4552.20556640625,6616.11572265625,3747.93994140625,3138.383056640625,-4572.8681640625,-13843.376953125,-8176.16748046875,2581.278564453125,-2471.60595703125,0.0,-6248.15625,0.0,-6635.98388671875,-13035.93359375,3579.45751953125,-9222.0302734375,0.0,-16047.9541015625,-2854.6650390625,0.0,-7313.88720703125,0.0,4745.32470703125,-0.0,-6002.5849609375
-9939.6708984375,-8525.8486328125,11150.04296875,-8382.796875,6686.0517578125,2384.98046875,3500.779296875,-6008.94287109375,0.0,-4148.4833984375,-2092.5205078125,-14835.994140625,0.0,0.0,0.0,-3696.28271484375,1551.3101806640625,11369.3876953125,-0.0,-167.68772888183594,5861.12353515625,9400.0498046875,6929.23876953125,2888.043701171875,3234.54541015625,-5243.61962890625,-6159.94140625,6384.0546875,-1454.353271484375,-3800.39208984375,9209.3154296875,-5949.33837890625,8641.87890625,6188.55126953125,5319.11865234375,7149.37841796875,2934.9326171875,-661.2141723632812,4393.259765625,-0.0,4697.64111328125,-14811.3564453125,3147.125244140625,12349.2880859375,2680.619384765625,-6895.0654296875,4270.07666015625,4541.0791015625,6613.7314453125,3744.76123046875,3138.383056640625,-4575.25244140625,-13830.662109375,-8180.1416015625,2581.278564453125,-2465.248046875,0.0,-6249.74560546875,0.0,-6640.75244140625,-13021.6279296875,3578.662841796875,-9222.8251953125,0.0,-16047.9541015625,-2857.843994140625,0.0,-7295.6083984375,0.0,4755.65576171875,-0.0,-5988.27978515625
-9946.8232421875,-8525.0537109375,11139.7099609375,-8382.796875,6682.078125,2384.185791015625,3500.779296875,-6009.7373046875,0.0,-4146.89404296875,-2094.904541015625,-14837.5830078125,0.0,0.0,0.0,-3699.461669921875,1548.13134765625,11367.7978515625,-0.0,-167.68772888183594,5856.35498046875,9398.4599609375,6925.2646484375,2888.043701171875,3231.366455078125,-5241.2353515625,-6161.53076171875,6384.0546875,-1456.737548828125,-3801.186767578125,9209.3154296875,-5950.927734375,8635.5205078125,6186.9619140625,5315.939453125,7146.994140625,2935.727294921875,-662.0089111328125,4386.90185546875,-0.0,4690.48828125,-14809.767578125,3149.509521484375,12348.4921875,2680.619384765625,-6895.8603515625,4262.12939453125,4542.6689453125,6610.55224609375,3745.555908203125,3138.383056640625,-4577.63671875,-13838.6083984375,-8180.93603515625,2577.304931640625,-2461.2744140625,0.0,-6250.5400390625,0.0,-6642.341796875,-13042.291015625,3577.0732421875,-9221.236328125,0.0,-16049.54296875,-2859.433349609375,0.0,-7297.99267578125,0.0,4753.271484375,-0.0,-5990.6640625
-9938.0810546875,-8514.7216796875,11142.0947265625,-8374.0546875,6686.0517578125,2391.33837890625,3501.57421875,-6004.96923828125,0.0,-4142.919921875,-2087.752197265625,-14825.662109375,0.0,0.0,0.0,-3690.7197265625,1556.07861328125,11370.9765625,-0.0,-166.89300537109375,5861.12353515625,9405.61328125,6930.828125,2892.81201171875,3232.9560546875,-5233.28759765625,-6160.736328125,6390.41259765625,-1454.353271484375,-3791.650146484375,9213.2880859375,-5941.39111328125,8639.4951171875,6192.525390625,5321.5029296875,7154.94140625,2935.727294921875,-657.2405395507812,4390.87548828125,-0.0,4692.87255859375,-14803.4091796875,3149.509521484375,12354.056640625,2679.82470703125,-6892.68115234375,4270.87158203125,4552.20556640625,6615.32080078125,3753.503173828125,3136.7939453125,-4573.6630859375,-13841.7880859375,-8164.24658203125,2580.483642578125,-2448.558837890625,0.0,-6242.59326171875,0.0,-6637.5732421875,-13050.23828125,3581.841796875,-9217.2626953125,0.0,-16043.1865234375,-2845.923095703125,0.0,-7293.22412109375,0.0,4756.45068359375,-0.0,-5990.6640625
-9908.67578125,-8504.390625,11147.658203125,-8373.2607421875,6690.025390625,2393.72265625,3501.57421875,-6002.5849609375,0.0,-4142.919921875,-2082.18896484375,-14820.8935546875,0.0,0.0,0.0,-3689.925048828125,1559.257568359375,11374.9501953125,-0.0,-166.89300537109375,5865.89208984375,9408.7919921875,6934.00732421875,2896.78564453125,3233.75048828125,-5230.90380859375,-6159.14697265625,6394.38623046875,-1453.55859375,-3786.0869140625,9217.2626953125,-5939.0068359375,8645.0576171875,6194.11474609375,5323.88671875,7158.12060546875,2936.522216796875,-654.8563842773438,4399.61767578125,-0.0,4696.84619140625,-14803.4091796875,3148.71484375,12357.2353515625,2680.619384765625,-6891.091796875,4277.2294921875,4554.58984375,6616.91064453125,3757.476806640625,3137.58837890625,-4570.484375,-13833.8408203125,-8153.12109375,2581.278564453125,-2444.585205078125,0.0,-6239.4140625,0.0,-6637.5732421875,-13027.9853515625,3585.020751953125,-9216.4677734375,0.0,-16043.9814453125,-2845.923095703125,0.0,-7290.84033203125,0.0,4760.42431640625,-0.0,-5990.6640625
-9896.7548828125,-8502.80078125,11144.478515625,-8375.64453125,6690.025390625,2393.72265625,3503.16357421875,-6003.3798828125,0.0,-4143.71484375,-2082.18896484375,-14820.8935546875,0.0,0.0,0.0,-3690.7197265625,1558.4627685546875,11374.9501953125,-0.0,-166.89300537109375,5864.30224609375,9407.203125,6934.00732421875,2896.78564453125,3236.134765625,-5235.671875,-6159.14697265625,6392.796875,-1451.1744384765625,-3787.676513671875,9215.6728515625,-5942.98046875,8643.4677734375,6190.935546875,5323.88671875,7155.736328125,2935.727294921875,-654.0616455078125,4401.20703125,-0.0,4695.2568359375,-14806.587890625,3151.098876953125,12356.4404296875,2680.619384765625,-6892.68115234375,4269.28173828125,4553.794921875,6616.11572265625,3756.68212890625,3138.383056640625,-4569.689453125,-13814.7666015625,-8149.94140625,2582.867919921875,-2445.3798828125,0.0,-6241.79833984375,0.0,-6637.5732421875,-12994.607421875,3585.020751953125,-9218.056640625,0.0,-16043.1865234375,-2848.307373046875,0.0,-7294.01904296875,0.0,4756.45068359375,-0.0,-5990.6640625
-9910.265625,-8509.953125,11140.505859375,-8382.0029296875,6687.64111328125,2392.133056640625,3503.16357421875,-6006.55908203125,0.0,-4146.09912109375,-2091.7255859375,-14826.45703125,0.0,0.0,0.0,-3695.488037109375,1550.5155029296875,11371.771484375,-0.0,-169.27719116210938,5859.53369140625,9402.4345703125,6930.033203125,2892.81201171875,3235.340087890625,-5242.02978515625,-6159.14697265625,6388.02880859375,-1451.1744384765625,-3794.8291015625,9210.904296875,-5954.10693359375,8637.1103515625,6184.578125,5321.5029296875,7151.7626953125,2936.522216796875,-657.2405395507812,4390.87548828125,-0.0,4692.87255859375,-14815.330078125,3147.125244140625,12352.466796875,2680.619384765625,-6895.8603515625,4262.12939453125,4546.64208984375,6616.11572265625,3751.913818359375,3137.58837890625,-4572.0732421875,-13809.2041015625,-8155.50537109375,2582.0732421875,-2448.558837890625,0.0,-6248.15625,0.0,-6640.75244140625,-12966.7919921875,3582.636474609375,-9220.4404296875,0.0,-16043.9814453125,-2852.28076171875,0.0,-7298.78759765625,0.0,4753.271484375,-0.0,-5992.25390625
-9922.9814453125,-8512.337890625,11138.916015625,-8381.20703125,6687.64111328125,2391.33837890625,3502.368896484375,-6004.96923828125,0.0,-4147.6884765625,-2095.69921875,-14824.8671875,0.0,0.0,0.0,-3692.30908203125,1549.720703125,11370.9765625,-0.0,-170.07191467285156,5860.32861328125,9404.818359375,6930.828125,2893.60693359375,3230.57177734375,-5240.4404296875,-6157.55712890625,6392.001953125,-1455.1480712890625,-3796.41845703125,9210.904296875,-5953.31201171875,8637.1103515625,6184.578125,5320.7080078125,7150.17333984375,2936.522216796875,-655.651123046875,4386.10693359375,-0.0,4692.87255859375,-14816.125,3147.919921875,12353.2607421875,2681.414306640625,-6895.8603515625,4262.92431640625,4547.43701171875,6615.32080078125,3752.70849609375,3138.383056640625,-4572.0732421875,-13810.7939453125,-8159.47802734375,2578.099609375,-2446.96923828125,0.0,-6244.9775390625,0.0,-6639.16259765625,-12982.6865234375,3581.841796875,-9220.4404296875,0.0,-16046.3662109375,-2853.870361328125,0.0,-7294.8134765625,0.0,4758.8349609375,-0.0,-5989.86962890625
-9934.107421875,-8520.28515625,11138.916015625,-8381.20703125,6686.0517578125,2392.133056640625,3500.779296875,-6006.55908203125,0.0,-4148.4833984375,-2097.288818359375,-14824.0732421875,0.0,0.0,0.0,-3694.693359375,1552.10498046875,11369.3876953125,-0.0,-169.27719116210938,5861.12353515625,9403.228515625,6931.623046875,2892.81201171875,3225.0087890625,-5243.61962890625,-6158.35205078125,6392.001953125,-1462.3006591796875,-3796.41845703125,9211.69921875,-5950.1328125,8638.69921875,6182.98876953125,5320.7080078125,7150.17333984375,2936.522216796875,-658.0352783203125,4393.259765625,-0.0,4692.07763671875,-14817.71484375,3147.919921875,12352.466796875,2682.208984375,-6898.244140625,4259.7451171875,4549.8212890625,6615.32080078125,3753.503173828125,3138.383056640625,-4573.6630859375,-13821.919921875,-8164.24658203125,2572.536376953125,-2446.96923828125,0.0,-6247.36181640625,0.0,-6642.341796875,-13007.3232421875,3581.047119140625,-9218.8515625,0.0,-16052.72265625,-2856.254638671875,0.0,-7301.171875,0.0,4755.65576171875,-0.0,-5991.458984375
-9939.6708984375,-8521.080078125,11143.6845703125,-8377.234375,6686.0517578125,2392.927978515625,3499.98486328125,-6006.55908203125,0.0,-4148.4833984375,-2094.904541015625,-14827.2509765625,0.0,0.0,0.0,-3696.28271484375,1555.283935546875,11370.9765625,-0.0,-169.27719116210938,5862.712890625,9404.0234375,6930.828125,2892.81201171875,3225.803466796875,-5241.2353515625,-6159.94140625,6391.20703125,-1462.3006591796875,-3796.41845703125,9214.8779296875,-5942.18603515625,8641.87890625,6186.16748046875,5322.29736328125,7151.7626953125,2935.727294921875,-659.624755859375,4406.77001953125,-0.0,4692.87255859375,-14816.919921875,3147.919921875,12354.056640625,2682.208984375,-6898.244140625,4261.3349609375,4553.0,6615.32080078125,3752.70849609375,3137.58837890625,-4575.25244140625,-13829.072265625,-8164.24658203125,2570.947021484375,-2450.1484375,0.0,-6248.15625,0.0,-6642.341796875,-13011.2958984375,3583.43115234375,-9219.646484375,0.0,-16055.90234375,-2857.843994140625,0.0,-7302.76123046875,0.0,4751.68212890625,-0.0,-5993.84326171875
-9946.8232421875,-8513.927734375,11147.658203125,-8371.6708984375,6687.64111328125,2396.106689453125,3501.57421875,-6004.1748046875,0.0,-4149.2783203125,-2093.315185546875,-14824.0732421875,0.0,0.0,0.0,-3693.8984375,1560.05224609375,11375.7451171875,-0.0,-170.07191467285156,5867.4814453125,9408.7919921875,6933.21240234375,2897.580322265625,3231.366455078125,-5236.466796875,-6158.35205078125,6394.38623046875,-1456.737548828125,-3799.597412109375,9220.4404296875,-5932.64892578125,8645.8525390625,6192.525390625,5325.47607421875,7155.736328125,2936.522216796875,-654.8563842773438,4409.154296875,-0.0,4699.22998046875,-14810.5625,3148.71484375,12357.2353515625,2680.619384765625,-6896.65478515625,4273.255859375,4559.35791015625,6616.11572265625,3757.476806640625,3139.177978515625,-4572.8681640625,-13821.125,-8153.12109375,2575.71533203125,-2447.76416015625,0.0,-6243.3876953125,0.0,-6639.95751953125,-12996.9912109375,3585.020751953125,-9220.4404296875,0.0,-16054.3115234375,-2853.870361328125,0.0,-7296.4033203125,0.0,4752.47705078125,-0.0,-5997.02197265625
-9940.46484375,-8516.3115234375,11151.6318359375,-8373.2607421875,6691.61474609375,2396.9013671875,3502.368896484375,-6004.1748046875,0.0,-4149.2783203125,-2093.315185546875,-14827.2509765625,0.0,0.0,0.0,-3693.8984375,1562.4364013671875,11378.9248046875,-0.0,-170.07191467285156,5870.66015625,9411.970703125,6934.00732421875,2898.375244140625,3235.340087890625,-5236.466796875,-6156.7626953125,6395.18115234375,-1451.9691162109375,-3801.186767578125,9223.6201171875,-5927.880859375,8649.03125,6194.11474609375,5328.6552734375,7158.12060546875,2936.522216796875,-654.0616455078125,4407.564453125,-0.0,4702.4091796875,-14810.5625,3147.919921875,12356.4404296875,2683.003662109375,-6894.2705078125,4283.5869140625,4560.15234375,6619.29443359375,3758.271484375,3138.383056640625,-4572.0732421875,-13817.9462890625,-8149.94140625,2582.0732421875,-2447.76416015625,0.0,-6244.1826171875,0.0,-6641.546875,-12992.22265625,3587.405029296875,-9220.4404296875,0.0,-16047.9541015625,-2853.07568359375,0.0,-7300.376953125,0.0,4753.271484375,-0.0,-5997.81640625
-9919.802734375,-8523.4638671875,11150.04296875,-8374.0546875,6689.23046875,2395.31201171875,3500.779296875,-6006.55908203125,0.0,-4152.45654296875,-2096.493896484375,-14827.2509765625,0.0,0.0,0.0,-3696.28271484375,1560.846923828125,11375.7451171875,-0.0,-172.4561004638672,5867.4814453125,9410.380859375,6932.41748046875,2896.78564453125,3230.57177734375,-5239.6455078125,-6161.53076171875,6392.001953125,-1455.9427490234375,-3793.239501953125,9220.4404296875,-5927.880859375,8645.8525390625,6190.935546875,5326.27099609375,7154.94140625,2935.727294921875,-655.651123046875,4398.82275390625,-0.0,4697.64111328125,-14816.125,3147.125244140625,12354.056640625,2683.003662109375,-6896.65478515625,4272.4609375,4555.38427734375,6616.11572265625,3755.88720703125,3136.7939453125,-4574.45751953125,-13818.7412109375,-8154.7099609375,2577.304931640625,-2452.532470703125,0.0,-6246.56689453125,0.0,-6643.93115234375,-13014.4755859375,3586.610107421875,-9221.236328125,0.0,-16047.9541015625,-2852.28076171875,0.0,-7313.0927734375,0.0,4749.2978515625,-0.0,-6001.79052734375
-9922.9814453125,-8524.2587890625,11146.068359375,-8378.8232421875,6684.4619140625,2392.927978515625,3500.779296875,-6008.1484375,0.0,-4151.662109375,-2100.4677734375,-14830.4296875,0.0,0.0,0.0,-3695.488037109375,1558.4627685546875,11374.15625,-0.0,-169.27719116210938,5865.09716796875,9407.9970703125,6930.033203125,2893.60693359375,3226.59814453125,-5243.61962890625,-6163.9150390625,6392.796875,-1461.505859375,-3790.060791015625,9216.4677734375,-5929.47021484375,8641.87890625,6188.55126953125,5323.091796875,7150.17333984375,2937.31689453125,-657.2405395507812,4386.90185546875,-0.0,4692.87255859375,-14824.8671875,3147.125244140625,12354.056640625,2682.208984375,-6899.03857421875,4259.7451171875,4549.8212890625,6612.9365234375,3752.70849609375,3137.58837890625,-4572.8681640625,-13826.6875,-8166.630859375,2573.3310546875,-2452.532470703125,0.0,-6249.74560546875,0.0,-6643.93115234375,-13040.7021484375,3583.43115234375,-9222.0302734375,0.0,-16055.107421875,-2854.6650390625,0.0,-7311.5029296875,0.0,4751.68212890625,-0.0,-5997.81640625
-9957.154296875,-8521.080078125,11142.8896484375,-8382.0029296875,6683.66748046875,2394.51708984375,3500.779296875,-6007.353515625,0.0,-4148.4833984375,-2099.673095703125,-14826.45703125,0.0,0.0,0.0,-3693.8984375,1556.07861328125,11374.15625,-0.0,-168.4824676513672,5864.30224609375,9407.203125,6932.41748046875,2893.60693359375,3226.59814453125,-5246.00341796875,-6163.1201171875,6392.001953125,-1464.684814453125,-3791.650146484375,9217.2626953125,-5923.1123046875,8641.87890625,6185.373046875,5322.29736328125,7150.17333984375,2938.111572265625,-658.0352783203125,4386.90185546875,-0.0,4691.28271484375,-14828.8408203125,3147.125244140625,12353.2607421875,2681.414306640625,-6899.83349609375,4257.36083984375,4547.43701171875,6611.34716796875,3753.503173828125,3136.7939453125,-4570.484375,-13837.01953125,-8169.81005859375,2572.536376953125,-2453.3271484375,0.0,-6252.1298828125,0.0,-6639.95751953125,-13027.9853515625,3582.636474609375,-9220.4404296875,0.0,-16059.080078125,-2856.254638671875,0.0,-7301.96630859375,0.0,4755.65576171875,-0.0,-5994.63818359375
-9970.6650390625,-8529.02734375,11140.505859375,-8378.8232421875,6686.0517578125,2395.31201171875,3500.779296875,-6007.353515625,0.0,-4149.2783203125,-2098.08349609375,-14822.4833984375,0.0,0.0,0.0,-3693.8984375,1555.283935546875,11374.15625,-0.0,-170.07191467285156,5863.5078125,9407.203125,6930.828125,2895.990966796875,3225.803466796875,-5243.61962890625,-6160.736328125,6392.796875,-1462.3006591796875,-3794.0341796875,9217.2626953125,-5930.26513671875,8641.87890625,6182.19384765625,5323.091796875,7151.7626953125,2936.522216796875,-657.2405395507812,4398.82275390625,-0.0,4692.07763671875,-14828.0458984375,3147.919921875,12353.2607421875,2680.619384765625,-6899.03857421875,4258.15576171875,4548.2314453125,6611.34716796875,3755.092529296875,3136.7939453125,-4571.27880859375,-13836.224609375,-8169.81005859375,2573.3310546875,-2448.558837890625,0.0,-6252.1298828125,0.0,-6640.75244140625,-13001.759765625,3581.841796875,-9220.4404296875,0.0,-16055.90234375,-2855.4599609375,0.0,-7303.55615234375,0.0,4754.861328125,-0.0,-5996.22705078125
-9949.20703125,-8531.4111328125,11141.2998046875,-8376.439453125,6689.23046875,2395.31201171875,3500.779296875,-6008.94287109375,0.0,-4154.8408203125,-2092.5205078125,-14819.3046875,0.0,0.0,0.0,-3697.077392578125,1556.07861328125,11374.9501953125,-0.0,-170.07191467285156,5866.6865234375,9407.203125,6931.623046875,2894.401611328125,3233.75048828125,-5242.02978515625,-6160.736328125,6393.59130859375,-1454.353271484375,-3798.802734375,9218.056640625,-5933.443359375,8642.673828125,6182.98876953125,5324.681640625,7151.7626953125,2937.31689453125,-658.0352783203125,4400.412109375,-0.0,4693.6669921875,-14826.45703125,3147.919921875,12353.2607421875,2681.414306640625,-6901.4228515625,4262.12939453125,4552.20556640625,6616.11572265625,3755.88720703125,3137.58837890625,-4573.6630859375,-13834.6357421875,-8165.0419921875,2579.68896484375,-2446.96923828125,0.0,-6252.1298828125,0.0,-6647.90478515625,-13004.939453125,3581.841796875,-9222.0302734375,0.0,-16048.75,-2852.28076171875,0.0,-7312.2978515625,0.0,4751.68212890625,-0.0,-5997.02197265625
-9934.107421875,-8529.02734375,11146.86328125,-8374.0546875,6690.025390625,2396.106689453125,3500.779296875,-6008.94287109375,0.0,-4155.6357421875,-2089.34130859375,-14823.27734375,0.0,0.0,0.0,-3697.8720703125,1558.4627685546875,11374.9501953125,-0.0,-170.07191467285156,5869.0703125,9409.5869140625,6931.623046875,2894.401611328125,3239.313720703125,-5242.02978515625,-6158.35205078125,6392.796875,-1449.5849609375,-3798.008056640625,9219.646484375,-5923.90673828125,8645.0576171875,6185.373046875,5323.88671875,7151.7626953125,2935.727294921875,-658.8300170898438,4402.001953125,-0.0,4697.64111328125,-14826.45703125,3147.919921875,12355.6455078125,2681.414306640625,-6902.2177734375,4263.71923828125,4553.0,6620.8837890625,3758.271484375,3138.383056640625,-4572.0732421875,-13836.224609375,-8168.220703125,2582.867919921875,-2450.1484375,0.0,-6250.5400390625,0.0,-6647.90478515625,-13029.5751953125,3583.43115234375,-9222.0302734375,0.0,-16042.390625,-2853.07568359375,0.0,-7311.5029296875,0.0,4750.0927734375,-0.0,-5997.81640625
-9920.5966796875,-8539.359375,11143.6845703125,-8372.4658203125,6688.43603515625,2396.9013671875,3501.57421875,-6009.7373046875,0.0,-4156.4306640625,-2090.930908203125,-14821.6884765625,0.0,0.0,0.0,-3695.488037109375,1555.283935546875,11374.9501953125,-0.0,-170.07191467285156,5866.6865234375,9409.5869140625,6930.828125,2894.401611328125,3236.134765625,-5241.2353515625,-6159.14697265625,6392.001953125,-1452.763916015625,-3789.265869140625,9219.646484375,-5927.880859375,8641.083984375,6187.7568359375,5322.29736328125,7154.94140625,2935.727294921875,-658.0352783203125,4388.4912109375,-0.0,4697.64111328125,-14821.6884765625,3147.125244140625,12356.4404296875,2682.208984375,-6901.4228515625,4262.12939453125,4556.97412109375,6618.5,3757.476806640625,3137.58837890625,-4572.0732421875,-13835.4296875,-8176.16748046875,2579.68896484375,-2448.558837890625,0.0,-6250.5400390625,0.0,-6645.5205078125,-13020.8330078125,3583.43115234375,-9222.0302734375,0.0,-16043.9814453125,-2849.896728515625,0.0,-7305.1455078125,0.0,4751.68212890625,-0.0,-5998.611328125
-9917.4189453125,-8537.76953125,11138.916015625,-8371.6708984375,6687.64111328125,2399.28564453125,3500.779296875,-6009.7373046875,0.0,-4158.02001953125,-2093.315185546875,-14819.3046875,0.0,0.0,0.0,-3695.488037109375,1554.4891357421875,11374.15625,-0.0,-171.661376953125,5865.89208984375,9407.9970703125,6930.033203125,2895.990966796875,3230.57177734375,-5238.85107421875,-6162.3251953125,6394.38623046875,-1458.326904296875,-3783.702880859375,9218.8515625,-5930.26513671875,8639.4951171875,6185.373046875,5322.29736328125,7154.146484375,2934.137939453125,-658.8300170898438,4384.517578125,-0.0,4693.6669921875,-14820.0986328125,3146.33056640625,12354.8505859375,2681.414306640625,-6902.2177734375,4261.3349609375,4560.15234375,6616.11572265625,3756.68212890625,3138.383056640625,-4572.8681640625,-13834.6357421875,-8167.42626953125,2577.304931640625,-2446.96923828125,0.0,-6249.74560546875,0.0,-6646.31494140625,-13016.8603515625,3581.841796875,-9222.8251953125,0.0,-16047.1591796875,-2845.12841796875,0.0,-7302.76123046875,0.0,4752.47705078125,-0.0,-5999.40625
-9928.5439453125,-8527.4384765625,11137.326171875,-8374.8505859375,6683.66748046875,2396.106689453125,3499.190185546875,-6009.7373046875,0.0,-4157.22509765625,-2101.262451171875,-14821.6884765625,0.0,0.0,0.0,-3693.8984375,1552.10498046875,11371.771484375,-0.0,-174.04556274414062,5861.91796875,9405.61328125,6927.64892578125,2892.017333984375,3226.59814453125,-5243.61962890625,-6162.3251953125,6393.59130859375,-1464.684814453125,-3792.44482421875,9214.083984375,-5928.67529296875,8636.3154296875,6181.39892578125,5319.11865234375,7150.17333984375,2934.137939453125,-659.624755859375,4384.517578125,-0.0,4691.28271484375,-14827.2509765625,3144.740966796875,12353.2607421875,2680.619384765625,-6900.62841796875,4262.92431640625,4558.5634765625,6612.14208984375,3755.092529296875,3136.7939453125,-4571.27880859375,-13832.251953125,-8160.2734375,2573.3310546875,-2457.30078125,0.0,-6252.92431640625,0.0,-6645.5205078125,-13023.216796875,3580.25244140625,-9223.6201171875,0.0,-16051.1337890625,-2845.923095703125,0.0,-7298.78759765625,0.0,4761.21923828125,-0.0,-5989.86962890625
-9946.8232421875,-8523.4638671875,11134.1474609375,-8382.0029296875,6680.48876953125,2391.33837890625,3500.779296875,-6012.91650390625,0.0,-4157.22509765625,-2106.03076171875,-14824.8671875,0.0,0.0,0.0,-3696.28271484375,1547.3365478515625,11370.181640625,-0.0,-171.661376953125,5857.1494140625,9402.4345703125,6926.0595703125,2888.043701171875,3221.82958984375,-5252.361328125,-6166.29931640625,6389.6181640625,-1465.4794921875,-3800.39208984375,9210.904296875,-5931.0595703125,8629.9580078125,6174.24609375,5317.529296875,7144.60986328125,2935.727294921875,-661.2141723632812,4379.74951171875,-0.0,4687.30908203125,-14837.5830078125,3145.53564453125,12350.876953125,2681.414306640625,-6906.19140625,4262.12939453125,4552.20556640625,6608.962890625,3753.503173828125,3136.7939453125,-4572.0732421875,-13840.1982421875,-8162.65771484375,2568.562744140625,-2466.042724609375,0.0,-6256.8984375,0.0,-6647.10986328125,-13020.0390625,3577.0732421875,-9226.0048828125,0.0,-16060.6708984375,-2849.896728515625,0.0,-7299.58203125,0.0,4763.60302734375,-0.0,-5987.4853515625
-9947.6171875,-8518.6962890625,11138.916015625,-8379.6181640625,6683.66748046875,2392.927978515625,3501.57421875,-6013.71142578125,0.0,-4160.404296875,-2098.878173828125,-14821.6884765625,0.0,0.0,0.0,-3697.8720703125,1550.5155029296875,11372.56640625,-0.0,-173.25083923339844,5860.32861328125,9404.818359375,6927.64892578125,2889.63330078125,3229.777099609375,-5251.56640625,-6164.70947265625,6390.41259765625,-1459.1217041015625,-3794.8291015625,9214.083984375,-5922.3173828125,8635.5205078125,6176.63037109375,5320.7080078125,7146.19970703125,2935.727294921875,-659.624755859375,4387.69677734375,-0.0,4692.07763671875,-14839.171875,3146.33056640625,12351.671875,2681.414306640625,-6910.16552734375,4263.71923828125,4553.0,6612.9365234375,3755.092529296875,3137.58837890625,-4573.6630859375,-13832.251953125,-8165.0419921875,2574.920654296875,-2454.121826171875,0.0,-6256.8984375,0.0,-6651.08349609375,-13025.6015625,3578.662841796875,-9225.208984375,0.0,-16052.72265625,-2849.896728515625,0.0,-7309.91357421875,0.0,4754.06640625,-0.0,-6000.99560546875
-9940.46484375,-8535.384765625,11142.0947265625,-8382.0029296875,6686.0517578125,2391.33837890625,3500.779296875,-6015.30078125,0.0,-4163.58349609375,-2090.930908203125,-14824.8671875,0.0,0.0,0.0,-3701.051025390625,1553.6943359375,11371.771484375,-0.0,-174.8402862548828,5863.5078125,9403.228515625,6926.8544921875,2888.838623046875,3232.9560546875,-5255.54052734375,-6163.1201171875,6389.6181640625,-1456.737548828125,-3792.44482421875,9214.8779296875,-5915.9599609375,8639.4951171875,6175.8359375,5320.7080078125,7143.8154296875,2935.727294921875,-662.0089111328125,4397.2333984375,-0.0,4693.6669921875,-14845.5302734375,3147.919921875,12349.2880859375,2679.82470703125,-6912.54931640625,4262.92431640625,4550.61572265625,6613.7314453125,3751.913818359375,3135.9990234375,-4575.25244140625,-13832.251953125,-8175.373046875,2577.304931640625,-2455.71142578125,0.0,-6261.6669921875,0.0,-6652.67333984375,-13055.0068359375,3577.8681640625,-9225.208984375,0.0,-16049.54296875,-2857.04931640625,0.0,-7313.88720703125,0.0,4747.708984375,-0.0,-6008.1484375
-9950.001953125,-8541.7431640625,11140.505859375,-8387.5654296875,6682.87255859375,2390.543701171875,3499.98486328125,-6016.095703125,0.0,-4159.609375,-2095.69921875,-14824.0732421875,0.0,0.0,0.0,-3697.8720703125,1551.3101806640625,11370.181640625,-0.0,-172.4561004638672,5861.12353515625,9401.638671875,6926.0595703125,2885.659423828125,3223.419189453125,-5257.92431640625,-6163.9150390625,6392.001953125,-1464.684814453125,-3791.650146484375,9213.2880859375,-5917.54931640625,8637.1103515625,6171.8623046875,5318.32373046875,7142.2255859375,2934.9326171875,-661.2141723632812,4396.4384765625,-0.0,4689.693359375,-14851.09375,3147.125244140625,12350.08203125,2680.619384765625,-6909.37060546875,4256.56640625,4549.0263671875,6608.16796875,3752.70849609375,3137.58837890625,-4573.6630859375,-13847.3515625,-8179.34716796875,2570.15234375,-2455.71142578125,0.0,-6261.6669921875,0.0,-6647.90478515625,-13035.93359375,3579.45751953125,-9224.4150390625,0.0,-16057.4912109375,-2857.843994140625,0.0,-7309.11865234375,0.0,4756.45068359375,-0.0,-5996.22705078125
-9948.4130859375,-8531.4111328125,11141.2998046875,-8380.4130859375,6681.28369140625,2394.51708984375,3501.57421875,-6012.91650390625,0.0,-4155.6357421875,-2097.288818359375,-14815.330078125,0.0,0.0,0.0,-3693.8984375,1552.899658203125,11374.9501953125,-0.0,-169.27719116210938,5861.91796875,9405.61328125,6929.23876953125,2892.017333984375,3222.62451171875,-5251.56640625,-6162.3251953125,6397.5654296875,-1465.4794921875,-3787.676513671875,9215.6728515625,-5918.34423828125,8640.2890625,6175.8359375,5319.91357421875,7146.994140625,2937.31689453125,-658.8300170898438,4391.67041015625,-0.0,4692.87255859375,-14848.708984375,3147.919921875,12354.056640625,2680.619384765625,-6907.78125,4258.15576171875,4556.17919921875,6608.962890625,3756.68212890625,3138.383056640625,-4569.689453125,-13845.76171875,-8172.98876953125,2568.562744140625,-2446.96923828125,0.0,-6258.48779296875,0.0,-6645.5205078125,-13009.70703125,3581.841796875,-9221.236328125,0.0,-16058.287109375,-2848.307373046875,0.0,-7306.734375,0.0,4762.013671875,-0.0,-5990.6640625
-9953.181640625,-8535.384765625,11136.5322265625,-8387.5654296875,6677.3095703125,2390.543701171875,3500.779296875,-6015.30078125,0.0,-4159.609375,-2104.44140625,-14823.27734375,0.0,0.0,0.0,-3697.077392578125,1547.3365478515625,11370.9765625,-0.0,-169.27719116210938,5857.9443359375,9401.638671875,6928.44384765625,2889.63330078125,3216.2666015625,-5256.3349609375,-6164.70947265625,6392.796875,-1470.2479248046875,-3794.8291015625,9210.904296875,-5924.70166015625,8633.931640625,6172.6572265625,5315.14501953125,7143.0205078125,2936.522216796875,-663.598388671875,4390.87548828125,-0.0,4686.51416015625,-14854.271484375,3145.53564453125,12349.2880859375,2679.0302734375,-6910.9599609375,4257.36083984375,4549.0263671875,6606.57861328125,3753.503173828125,3136.7939453125,-4572.8681640625,-13854.50390625,-8184.90966796875,2564.58935546875,-2449.353515625,0.0,-6264.05078125,0.0,-6647.10986328125,-13008.912109375,3577.8681640625,-9223.6201171875,0.0,-16063.8486328125,-2857.04931640625,0.0,-7309.11865234375,0.0,4759.6298828125,-0.0,-5992.25390625
-9952.3857421875,-8542.5380859375,11135.7373046875,-8389.1552734375,6677.3095703125,2389.748779296875,3499.98486328125,-6016.89013671875,0.0,-4162.78857421875,-2108.414794921875,-14826.45703125,0.0,0.0,0.0,-3699.461669921875,1547.3365478515625,11368.591796875,-0.0,-172.4561004638672,5857.1494140625,9399.2548828125,6926.8544921875,2887.2490234375,3211.498291015625,-5258.71875,-6167.09375,6388.8232421875,-1472.632080078125,-3800.39208984375,9210.109375,-5923.1123046875,8634.7265625,6171.06787109375,5315.14501953125,7142.2255859375,2935.727294921875,-663.598388671875,4393.259765625,-0.0,4684.13037109375,-14855.861328125,3147.125244140625,12348.4921875,2679.82470703125,-6913.34375,4254.18212890625,4549.0263671875,6605.7841796875,3751.913818359375,3138.383056640625,-4576.04736328125,-13852.119140625,-8185.7041015625,2560.615478515625,-2452.532470703125,0.0,-6265.64013671875,0.0,-6650.2890625,-13029.5751953125,3576.27880859375,-9225.208984375,0.0,-16061.4638671875,-2864.99658203125,0.0,-7312.2978515625,0.0,4755.65576171875,-0.0,-5995.4326171875
-9946.0283203125,-8539.359375,11130.173828125,-8387.5654296875,6675.72021484375,2386.570068359375,3498.395263671875,-6020.86376953125,0.0,-4172.3251953125,-2113.183349609375,-14824.0732421875,0.0,0.0,0.0,-3707.408935546875,1547.3365478515625,11366.2080078125,-0.0,-177.22447204589844,5855.560546875,9399.2548828125,6925.2646484375,2884.86474609375,3217.061279296875,-5259.513671875,-6165.50439453125,6384.0546875,-1467.8636474609375,-3800.39208984375,9209.3154296875,-5918.34423828125,8633.13671875,6173.45166015625,5314.35009765625,7139.04736328125,2934.137939453125,-667.572021484375,4388.4912109375,-0.0,4682.541015625,-14857.451171875,3145.53564453125,12343.724609375,2680.619384765625,-6918.9072265625,4245.43994140625,4554.58984375,6604.98974609375,3747.93994140625,3136.7939453125,-4582.4052734375,-13847.3515625,-8181.7314453125,2566.178466796875,-2453.3271484375,0.0,-6271.20361328125,0.0,-6659.82568359375,-13032.75390625,3576.27880859375,-9227.59375,0.0,-16057.4912109375,-2865.791259765625,0.0,-7325.013671875,0.0,4738.171875,-0.0,-6018.47998046875
-9950.001953125,-8548.1005859375,11126.9951171875,-8388.3603515625,6674.92529296875,2386.570068359375,3501.57421875,-6022.453125,0.0,-4173.91455078125,-2113.183349609375,-14820.0986328125,0.0,0.0,0.0,-3706.6142578125,1544.1575927734375,11367.7978515625,-0.0,-174.04556274414062,5853.97119140625,9400.0498046875,6926.0595703125,2882.480712890625,3220.240234375,-5259.513671875,-6163.9150390625,6385.64453125,-1466.2742919921875,-3797.21337890625,9209.3154296875,-5923.1123046875,8629.9580078125,6172.6572265625,5312.7607421875,7137.45751953125,2934.9326171875,-667.572021484375,4380.5439453125,-0.0,4680.95166015625,-14861.4248046875,3146.33056640625,12342.9296875,2681.414306640625,-6919.7021484375,4246.23486328125,4550.61572265625,6604.98974609375,3747.1455078125,3138.383056640625,-4580.81591796875,-13856.09375,-8180.1416015625,2567.76806640625,-2453.3271484375,0.0,-6271.998046875,0.0,-6660.6201171875,-13026.396484375,3576.27880859375,-9228.388671875,0.0,-16063.8486328125,-2861.02294921875,0.0,-7325.80810546875,0.0,4739.76123046875,-0.0,-6017.68505859375
-9948.4130859375,-8553.6640625,11125.4052734375,-8389.9501953125,6674.130859375,2389.748779296875,3500.779296875,-6021.658203125,0.0,-4169.94091796875,-2110.799072265625,-14819.3046875,0.0,0.0,0.0,-3702.640625,1542.5682373046875,11368.591796875,-0.0,-172.4561004638672,5853.97119140625,9400.0498046875,6924.47021484375,2884.070068359375,3217.061279296875,-5259.513671875,-6165.50439453125,6386.43896484375,-1470.2479248046875,-3794.8291015625,9208.51953125,-5925.49658203125,8629.1630859375,6171.06787109375,5312.7607421875,7137.45751953125,2935.727294921875,-666.7772827148438,4374.98095703125,-0.0,4678.5673828125,-14862.2197265625,3145.53564453125,12344.51953125,2681.414306640625,-6919.7021484375,4245.43994140625,4554.58984375,6604.98974609375,3751.118896484375,3138.383056640625,-4578.431640625,-13862.4501953125,-8180.93603515625,2566.178466796875,-2454.916748046875,0.0,-6268.8193359375,0.0,-6657.44140625,-13035.1376953125,3575.484130859375,-9227.59375,0.0,-16074.9755859375,-2856.254638671875,0.0,-7320.2451171875,0.0,4746.9140625,-0.0,-6009.7373046875
-9936.4921875,-8550.484375,11128.5849609375,-8387.5654296875,6676.51513671875,2388.159423828125,3499.190185546875,-6021.658203125,0.0,-4169.14599609375,-2109.209716796875,-14819.3046875,0.0,0.0,0.0,-3701.051025390625,1545.7471923828125,11368.591796875,-0.0,-173.25083923339844,5855.560546875,9400.8447265625,6924.47021484375,2884.86474609375,3217.856201171875,-5260.30859375,-6165.50439453125,6388.8232421875,-1470.2479248046875,-3794.8291015625,9210.109375,-5919.93310546875,8630.7529296875,6171.8623046875,5314.35009765625,7139.04736328125,2936.522216796875,-665.1878662109375,4380.5439453125,-0.0,4680.95166015625,-14862.2197265625,3145.53564453125,12349.2880859375,2680.619384765625,-6918.9072265625,4246.23486328125,4553.0,6605.7841796875,3752.70849609375,3135.9990234375,-4577.63671875,-13853.708984375,-8188.08837890625,2565.3837890625,-2454.121826171875,0.0,-6270.40869140625,0.0,-6657.44140625,-13046.2646484375,3575.484130859375,-9227.59375,0.0,-16073.384765625,-2856.254638671875,0.0,-7320.2451171875,0.0,4750.0927734375,-0.0,-6011.3271484375
-9942.0546875,-8539.359375,11133.353515625,-8385.9755859375,6678.8994140625,2390.543701171875,3499.98486328125,-6019.2744140625,0.0,-4169.94091796875,-2117.156982421875,-14816.125,0.0,0.0,0.0,-3701.051025390625,1548.13134765625,11370.181640625,-0.0,-174.8402862548828,5858.7392578125,9404.0234375,6926.8544921875,2886.454345703125,3220.240234375,-5258.71875,-6165.50439453125,6392.001953125,-1466.2742919921875,-3791.650146484375,9213.2880859375,-5915.9599609375,8636.3154296875,6173.45166015625,5317.529296875,7139.04736328125,2937.31689453125,-663.598388671875,4387.69677734375,-0.0,4684.13037109375,-14866.98828125,3146.33056640625,12353.2607421875,2681.414306640625,-6918.9072265625,4251.79833984375,4552.20556640625,6608.16796875,3755.092529296875,3137.58837890625,-4576.04736328125,-13844.966796875,-8184.90966796875,2566.178466796875,-2450.1484375,0.0,-6269.61376953125,0.0,-6655.85205078125,-13020.8330078125,3579.45751953125,-9226.0048828125,0.0,-16058.287109375,-2853.870361328125,0.0,-7321.83447265625,0.0,4752.47705078125,-0.0,-6011.3271484375
-9960.333984375,-8536.1796875,11140.505859375,-8379.6181640625,6683.66748046875,2396.106689453125,3502.368896484375,-6017.68505859375,0.0,-4170.73583984375,-2118.74658203125,-14811.3564453125,0.0,0.0,0.0,-3699.461669921875,1553.6943359375,11376.5400390625,-0.0,-172.4561004638672,5865.09716796875,9409.5869140625,6930.033203125,2889.63330078125,3225.803466796875,-5255.54052734375,-6160.736328125,6395.18115234375,-1460.711181640625,-3786.881591796875,9218.8515625,-5910.396484375,8641.083984375,6178.22021484375,5321.5029296875,7143.0205078125,2937.31689453125,-659.624755859375,4400.412109375,-0.0,4690.48828125,-14864.603515625,3147.919921875,12355.6455078125,2681.414306640625,-6919.7021484375,4261.3349609375,4562.53662109375,6611.34716796875,3759.06640625,3137.58837890625,-4572.8681640625,-13831.4560546875,-8180.1416015625,2572.536376953125,-2455.71142578125,0.0,-6267.2294921875,0.0,-6654.2626953125,-13014.4755859375,3581.841796875,-9224.4150390625,0.0,-16048.75,-2850.691650390625,0.0,-7321.03955078125,0.0,4754.861328125,-0.0,-6012.91650390625
-9961.1279296875,-8537.76953125,11139.7099609375,-8378.029296875,6683.66748046875,2396.9013671875,3502.368896484375,-6018.47998046875,0.0,-4173.91455078125,-2113.183349609375,-14812.15234375,0.0,0.0,0.0,-3699.461669921875,1553.6943359375,11377.3349609375,-0.0,-174.8402862548828,5863.5078125,9407.203125,6930.828125,2889.63330078125,3225.803466796875,-5255.54052734375,-6159.94140625,6397.5654296875,-1461.505859375,-3788.47119140625,9218.8515625,-5908.80712890625,8638.69921875,6177.42529296875,5321.5029296875,7143.8154296875,2937.31689453125,-659.624755859375,4394.05419921875,-0.0,4689.693359375,-14863.80859375,3147.919921875,12354.8505859375,2682.208984375,-6920.49658203125,4258.95068359375,4562.53662109375,6612.14208984375,3759.06640625,3138.383056640625,-4572.8681640625,-13828.27734375,-8176.16748046875,2572.536376953125,-2448.558837890625,0.0,-6268.0244140625,0.0,-6655.0576171875,-13027.9853515625,3581.047119140625,-9224.4150390625,0.0,-16051.1337890625,-2852.28076171875,0.0,-7318.6552734375,0.0,4753.271484375,-0.0,-6015.30078125
-9950.796875,-8527.4384765625,11141.2998046875,-8375.64453125,6684.4619140625,2400.080322265625,3502.368896484375,-6012.91650390625,0.0,-4171.5302734375,-2103.646484375,-14810.5625,0.0,0.0,0.0,-3693.103759765625,1555.283935546875,11378.12890625,-0.0,-175.63502502441406,5864.30224609375,9409.5869140625,6932.41748046875,2893.60693359375,3227.392822265625,-5251.56640625,-6159.94140625,6399.94970703125,-1459.91650390625,-3784.49755859375,9219.646484375,-5907.21728515625,8641.083984375,6178.22021484375,5324.681640625,7146.994140625,2937.31689453125,-658.8300170898438,4396.4384765625,-0.0,4692.87255859375,-14856.65625,3147.919921875,12357.2353515625,2681.414306640625,-6918.9072265625,4262.12939453125,4564.12646484375,6612.9365234375,3761.450439453125,3139.177978515625,-4570.484375,-13835.4296875,-8175.373046875,2575.71533203125,-2440.611572265625,0.0,-6264.05078125,0.0,-6651.87841796875,-13027.19140625,3582.636474609375,-9224.4150390625,0.0,-16054.3115234375,-2846.7177734375,0.0,-7312.2978515625,0.0,4751.68212890625,-0.0,-6009.7373046875
-9952.3857421875,-8530.6171875,11138.916015625,-8380.4130859375,6682.87255859375,2396.106689453125,3500.779296875,-6015.30078125,0.0,-4175.50439453125,-2099.673095703125,-14816.919921875,0.0,0.0,0.0,-3696.28271484375,1552.10498046875,11374.9501953125,-0.0,-178.0192108154297,5860.32861328125,9405.61328125,6929.23876953125,2892.81201171875,3225.0087890625,-5253.15625,-6160.736328125,6395.18115234375,-1460.711181640625,-3786.0869140625,9218.8515625,-5910.396484375,8637.9052734375,6175.8359375,5320.7080078125,7145.40478515625,2936.522216796875,-661.2141723632812,4394.05419921875,-0.0,4689.693359375,-14855.861328125,3145.53564453125,12353.2607421875,2680.619384765625,-6919.7021484375,4258.15576171875,4558.5634765625,6610.55224609375,3756.68212890625,3137.58837890625,-4573.6630859375,-13850.529296875,-8176.962890625,2574.1259765625,-2445.3798828125,0.0,-6268.0244140625,0.0,-6652.67333984375,-13024.806640625,3583.43115234375,-9227.59375,0.0,-16058.287109375,-2849.10205078125,0.0,-7317.86083984375,0.0,4750.0927734375,-0.0,-6016.89013671875
-9948.4130859375,-8531.4111328125,11130.96875,-8385.181640625,6678.8994140625,2391.33837890625,3500.779296875,-6018.47998046875,0.0,-4177.09375,-2100.4677734375,-14822.4833984375,0.0,0.0,0.0,-3701.051025390625,1548.13134765625,11372.56640625,-0.0,-176.42974853515625,5857.9443359375,9403.228515625,6926.8544921875,2888.838623046875,3219.445556640625,-5257.92431640625,-6161.53076171875,6392.796875,-1468.658447265625,-3790.060791015625,9214.083984375,-5914.3701171875,8633.13671875,6170.27294921875,5315.939453125,7143.8154296875,2934.9326171875,-662.8036499023438,4388.4912109375,-0.0,4684.13037109375,-14860.6298828125,3145.53564453125,12350.876953125,2682.208984375,-6919.7021484375,4249.4140625,4553.0,6608.16796875,3754.2978515625,3137.58837890625,-4576.04736328125,-13864.0400390625,-8177.75732421875,2566.178466796875,-2449.353515625,0.0,-6268.8193359375,0.0,-6654.2626953125,-13025.6015625,3581.047119140625,-9226.0048828125,0.0,-16067.0283203125,-2855.4599609375,0.0,-7318.6552734375,0.0,4753.271484375,-0.0,-6015.30078125
-9937.2861328125,-8534.5908203125,11131.763671875,-8385.181640625,6681.28369140625,2392.133056640625,3501.57421875,-6017.68505859375,0.0,-4175.50439453125,-2106.82568359375,-14816.125,0.0,0.0,0.0,-3700.25634765625,1548.926025390625,11374.15625,-0.0,-174.04556274414062,5858.7392578125,9404.818359375,6928.44384765625,2887.2490234375,3218.65087890625,-5257.1298828125,-6161.53076171875,6393.59130859375,-1471.83740234375,-3788.47119140625,9216.4677734375,-5911.98583984375,8634.7265625,6171.8623046875,5317.529296875,7143.8154296875,2935.727294921875,-661.2141723632812,4384.517578125,-0.0,4684.92529296875,-14861.4248046875,3147.125244140625,12353.2607421875,2682.208984375,-6918.9072265625,4251.00341796875,4553.794921875,6608.962890625,3755.092529296875,3139.177978515625,-4574.45751953125,-13873.5771484375,-8176.16748046875,2564.58935546875,-2445.3798828125,0.0,-6267.2294921875,0.0,-6654.2626953125,-13026.396484375,3581.841796875,-9225.208984375,0.0,-16070.2080078125,-2853.07568359375,0.0,-7319.4501953125,0.0,4754.06640625,-0.0,-6016.095703125
-9929.33984375,-8533.794921875,11137.326171875,-8378.8232421875,6686.0517578125,2397.6962890625,3503.16357421875,-6014.505859375,0.0,-4173.1201171875,-2102.05712890625,-14808.97265625,0.0,0.0,0.0,-3696.28271484375,1554.4891357421875,11377.3349609375,-0.0,-174.8402862548828,5863.5078125,9407.9970703125,6931.623046875,2892.017333984375,3226.59814453125,-5253.15625,-6159.94140625,6396.7705078125,-1461.505859375,-3785.29248046875,9220.4404296875,-5905.62841796875,8639.4951171875,6175.8359375,5321.5029296875,7147.7890625,2937.31689453125,-658.8300170898438,4387.69677734375,-0.0,4691.28271484375,-14857.451171875,3149.509521484375,12354.8505859375,2683.003662109375,-6917.31787109375,4254.9765625,4557.7685546875,6613.7314453125,3757.476806640625,3139.177978515625,-4571.27880859375,-13856.8876953125,-8176.962890625,2573.3310546875,-2441.40625,0.0,-6262.46142578125,0.0,-6651.87841796875,-13035.93359375,3584.225830078125,-9224.4150390625,0.0,-16059.875,-2850.691650390625,0.0,-7316.271484375,0.0,4755.65576171875,-0.0,-6013.71142578125
-9945.2333984375,-8540.1533203125,11135.7373046875,-8383.591796875,6684.4619140625,2392.927978515625,3501.57421875,-6016.89013671875,0.0,-4175.50439453125,-2102.05712890625,-14814.5361328125,0.0,0.0,0.0,-3699.461669921875,1549.720703125,11373.3603515625,-0.0,-178.0192108154297,5859.53369140625,9403.228515625,6927.64892578125,2886.454345703125,3225.0087890625,-5257.92431640625,-6159.94140625,6392.796875,-1462.3006591796875,-3792.44482421875,9214.083984375,-5909.6015625,8635.5205078125,6171.06787109375,5319.11865234375,7145.40478515625,2937.31689453125,-663.598388671875,4382.92822265625,-0.0,4688.8984375,-14859.8359375,3147.125244140625,12350.08203125,2682.208984375,-6922.08642578125,4252.5927734375,4555.38427734375,6611.34716796875,3751.118896484375,3139.177978515625,-4575.25244140625,-13853.708984375,-8184.115234375,2571.74169921875,-2444.585205078125,0.0,-6265.64013671875,0.0,-6658.23583984375,-13043.880859375,3580.25244140625,-9226.798828125,0.0,-16062.259765625,-2853.870361328125,0.0,-7328.1923828125,0.0,4747.708984375,-0.0,-6016.89013671875
-9954.7705078125,-8540.9482421875,11132.5576171875,-8387.5654296875,6679.69384765625,2388.9541015625,3499.190185546875,-6018.47998046875,0.0,-4176.298828125,-2110.00439453125,-14817.71484375,0.0,0.0,0.0,-3701.845947265625,1545.7471923828125,11370.181640625,-0.0,-179.60865783691406,5856.35498046875,9399.2548828125,6924.47021484375,2883.275390625,3218.65087890625,-5259.513671875,-6163.1201171875,6390.41259765625,-1467.8636474609375,-3794.0341796875,9210.904296875,-5909.6015625,8632.3427734375,6169.47802734375,5314.35009765625,7143.0205078125,2933.34326171875,-666.7772827148438,4373.3916015625,-0.0,4684.92529296875,-14860.6298828125,3145.53564453125,12348.4921875,2681.414306640625,-6926.0595703125,4254.9765625,4553.0,6608.16796875,3748.734619140625,3137.58837890625,-4578.431640625,-13880.7294921875,-8188.8837890625,2566.178466796875,-2448.558837890625,0.0,-6267.2294921875,0.0,-6659.03076171875,-13031.1650390625,3577.8681640625,-9229.18359375,0.0,-16065.439453125,-2857.04931640625,0.0,-7332.96044921875,0.0,4742.9404296875,-0.0,-6020.0693359375
-9955.5654296875,-8536.974609375,11139.7099609375,-8383.591796875,6682.87255859375,2392.133056640625,3499.190185546875,-6016.095703125,0.0,-4174.70947265625,-2106.82568359375,-14814.5361328125,0.0,0.0,0.0,-3697.077392578125,1550.5155029296875,11371.771484375,-0.0,-177.22447204589844,5859.53369140625,9402.4345703125,6928.44384765625,2886.454345703125,3221.82958984375,-5253.95068359375,-6159.94140625,6391.20703125,-1463.89013671875,-3792.44482421875,9213.2880859375,-5904.0390625,8637.1103515625,6174.24609375,5317.529296875,7143.8154296875,2934.137939453125,-665.1878662109375,4380.5439453125,-0.0,4689.693359375,-14855.0673828125,3147.919921875,12353.2607421875,2680.619384765625,-6921.29150390625,4262.12939453125,4555.38427734375,6611.34716796875,3752.70849609375,3137.58837890625,-4574.45751953125,-13865.6298828125,-8185.7041015625,2570.947021484375,-2446.96923828125,0.0,-6262.46142578125,0.0,-6652.67333984375,-13027.9853515625,3579.45751953125,-9226.798828125,0.0,-16059.080078125,-2858.638671875,0.0,-7318.6552734375,0.0,4754.06640625,-0.0,-6012.12158203125
-9953.9755859375,-8536.974609375,11140.505859375,-8380.4130859375,6684.4619140625,2394.51708984375,3500.779296875,-6013.71142578125,0.0,-4169.94091796875,-2108.414794921875,-14815.330078125,0.0,0.0,0.0,-3693.103759765625,1554.4891357421875,11372.56640625,-0.0,-173.25083923339844,5862.712890625,9404.0234375,6928.44384765625,2889.63330078125,3226.59814453125,-5249.97705078125,-6158.35205078125,6395.18115234375,-1460.711181640625,-3793.239501953125,9216.4677734375,-5904.83349609375,8639.4951171875,6176.63037109375,5317.529296875,7145.40478515625,2936.522216796875,-662.8036499023438,4390.0810546875,-0.0,4691.28271484375,-14847.119140625,3150.30419921875,12354.8505859375,2681.414306640625,-6913.34375,4256.56640625,4557.7685546875,6612.9365234375,3756.68212890625,3137.58837890625,-4571.27880859375,-13838.6083984375,-8181.7314453125,2573.3310546875,-2447.76416015625,0.0,-6257.69287109375,0.0,-6648.69921875,-13031.1650390625,3581.047119140625,-9222.0302734375,0.0,-16057.4912109375,-2855.4599609375,0.0,-7309.91357421875,0.0,4762.80810546875,-0.0,-6005.76416015625
-9947.6171875,-8544.1279296875,11134.1474609375,-8378.8232421875,6682.078125,2393.72265625,3499.98486328125,-6013.71142578125,0.0,-4170.73583984375,-2109.209716796875,-14819.3046875,0.0,0.0,0.0,-3695.488037109375,1551.3101806640625,11370.9765625,-0.0,-174.8402862548828,5860.32861328125,9403.228515625,6929.23876953125,2888.043701171875,3224.2138671875,-5249.18212890625,-6159.94140625,6393.59130859375,-1463.0953369140625,-3797.21337890625,9211.69921875,-5907.21728515625,8636.3154296875,6175.8359375,5315.14501953125,7144.60986328125,2937.31689453125,-663.598388671875,4387.69677734375,-0.0,4688.8984375,-14842.3505859375,3147.919921875,12352.466796875,2681.414306640625,-6913.34375,4251.00341796875,4553.0,6611.34716796875,3755.092529296875,3137.58837890625,-4573.6630859375,-13840.1982421875,-8185.7041015625,2570.15234375,-2450.94287109375,0.0,-6257.69287109375,0.0,-6649.494140625,-13020.8330078125,3581.841796875,-9222.8251953125,0.0,-16061.4638671875,-2851.486328125,0.0,-7320.2451171875,0.0,4752.47705078125,-0.0,-6013.71142578125
-9944.4384765625,-8555.2529296875,11130.96875,-8377.234375,6681.28369140625,2393.72265625,3501.57421875,-6012.91650390625,0.0,-4171.5302734375,-2106.82568359375,-14816.125,0.0,0.0,0.0,-3696.28271484375,1549.720703125,11369.3876953125,-0.0,-176.42974853515625,5858.7392578125,9403.228515625,6927.64892578125,2887.2490234375,3223.419189453125,-5246.7978515625,-6159.14697265625,6392.796875,-1466.2742919921875,-3794.0341796875,9211.69921875,-5905.62841796875,8633.13671875,6174.24609375,5316.734375,7145.40478515625,2936.522216796875,-663.598388671875,4385.3125,-0.0,4687.30908203125,-14837.5830078125,3147.919921875,12351.671875,2680.619384765625,-6914.138671875,4250.20849609375,4555.38427734375,6611.34716796875,3754.2978515625,3137.58837890625,-4574.45751953125,-13849.7353515625,-8185.7041015625,2570.947021484375,-2449.353515625,0.0,-6256.103515625,0.0,-6650.2890625,-13027.9853515625,3580.25244140625,-9223.6201171875,0.0,-16062.259765625,-2845.923095703125,0.0,-7325.80810546875,0.0,4745.32470703125,-0.0,-6017.68505859375
-9942.849609375,-8547.3056640625,11135.7373046875,-8374.0546875,6686.0517578125,2397.6962890625,3499.98486328125,-6010.5322265625,0.0,-4169.94091796875,-2093.315185546875,-14809.767578125,0.0,0.0,0.0,-3693.103759765625,1553.6943359375,11374.15625,-0.0,-176.42974853515625,5861.91796875,9407.203125,6928.44384765625,2890.427734375,3228.1875,-5242.82470703125,-6159.14697265625,6397.5654296875,-1459.91650390625,-3785.29248046875,9217.2626953125,-5896.88623046875,8636.3154296875,6179.0146484375,5320.7080078125,7147.7890625,2937.31689453125,-662.0089111328125,4384.517578125,-0.0,4690.48828125,-14835.1982421875,3147.919921875,12355.6455078125,2680.619384765625,-6911.75439453125,4254.18212890625,4557.7685546875,6616.11572265625,3758.271484375,3139.177978515625,-4571.27880859375,-13840.9931640625,-8179.34716796875,2574.920654296875,-2444.585205078125,0.0,-6251.3349609375,0.0,-6647.10986328125,-13031.9599609375,3582.636474609375,-9222.8251953125,0.0,-16055.90234375,-2843.5390625,0.0,-7320.2451171875,0.0,4749.2978515625,-0.0,-6016.095703125
-9947.6171875,-8533.0009765625,11141.2998046875,-8370.8759765625,6690.8203125,2400.875,3503.16357421875,-6006.55908203125,0.0,-4165.17236328125,-2087.752197265625,-14806.587890625,0.0,0.0,0.0,-3689.925048828125,1560.846923828125,11378.12890625,-0.0,-173.25083923339844,5868.27587890625,9412.765625,6931.623046875,2895.990966796875,3231.366455078125,-5235.671875,-6156.7626953125,6401.5390625,-1457.5322265625,-3779.729248046875,9221.236328125,-5892.91259765625,8642.673828125,6184.578125,5326.27099609375,7155.736328125,2938.906494140625,-657.2405395507812,4391.67041015625,-0.0,4696.05126953125,-14827.2509765625,3150.30419921875,12358.8251953125,2683.003662109375,-6907.78125,4258.95068359375,4563.33154296875,6620.8837890625,3763.039794921875,3139.177978515625,-4568.10009765625,-13833.8408203125,-8173.783203125,2579.68896484375,-2439.816650390625,0.0,-6248.15625,0.0,-6640.75244140625,-13020.8330078125,3587.405029296875,-9218.8515625,0.0,-16051.1337890625,-2843.5390625,0.0,-7309.91357421875,0.0,4756.45068359375,-0.0,-6009.7373046875
-9967.486328125,-8537.76953125,11141.2998046875,-8375.64453125,6689.23046875,2400.080322265625,3503.16357421875,-6006.55908203125,0.0,-4162.78857421875,-2094.904541015625,-14813.7412109375,0.0,0.0,0.0,-3691.51416015625,1556.873291015625,11375.7451171875,-0.0,-171.661376953125,5865.89208984375,9409.5869140625,6930.828125,2894.401611328125,3227.392822265625,-5238.05615234375,-6155.9677734375,6400.744140625,-1461.505859375,-3784.49755859375,9219.646484375,-5896.09130859375,8641.87890625,6179.8095703125,5322.29736328125,7154.94140625,2937.31689453125,-658.0352783203125,4398.02783203125,-0.0,4694.4619140625,-14827.2509765625,3149.509521484375,12357.2353515625,2682.208984375,-6905.39697265625,4257.36083984375,4557.7685546875,6618.5,3762.2451171875,3138.383056640625,-4567.30517578125,-13840.1982421875,-8173.783203125,2575.71533203125,-2446.174560546875,0.0,-6248.951171875,0.0,-6639.16259765625,-13020.0390625,3585.8154296875,-9220.4404296875,0.0,-16058.287109375,-2845.12841796875,0.0,-7301.96630859375,0.0,4760.42431640625,-0.0,-6004.1748046875
-9973.84375,-8548.1005859375,11139.7099609375,-8377.234375,6686.0517578125,2399.28564453125,3502.368896484375,-6006.55908203125,0.0,-4159.609375,-2103.646484375,-14818.5087890625,0.0,0.0,0.0,-3689.925048828125,1555.283935546875,11374.9501953125,-0.0,-169.27719116210938,5863.5078125,9407.9970703125,6930.828125,2893.60693359375,3225.0087890625,-5239.6455078125,-6156.7626953125,6399.15478515625,-1463.89013671875,-3788.47119140625,9216.4677734375,-5896.88623046875,8640.2890625,6177.42529296875,5322.29736328125,7151.7626953125,2937.31689453125,-659.624755859375,4396.4384765625,-0.0,4693.6669921875,-14829.6357421875,3151.098876953125,12357.2353515625,2682.208984375,-6904.60205078125,4257.36083984375,4553.0,6616.11572265625,3760.65576171875,3139.97265625,-4567.30517578125,-13839.404296875,-8175.373046875,2573.3310546875,-2450.94287109375,0.0,-6249.74560546875,0.0,-6639.16259765625,-13019.244140625,3584.225830078125,-9220.4404296875,0.0,-16063.0546875,-2848.307373046875,0.0,-7301.96630859375,0.0,4762.80810546875,-0.0,-5993.84326171875
-9961.1279296875,-8542.5380859375,11137.326171875,-8378.8232421875,6685.2568359375,2397.6962890625,3501.57421875,-6005.76416015625,0.0,-4160.404296875,-2109.209716796875,-14823.27734375,0.0,0.0,0.0,-3690.7197265625,1554.4891357421875,11374.15625,-0.0,-169.27719116210938,5861.91796875,9404.0234375,6928.44384765625,2890.427734375,3224.2138671875,-5240.4404296875,-6159.14697265625,6395.9755859375,-1464.684814453125,-3790.060791015625,9214.8779296875,-5895.29638671875,8637.9052734375,6177.42529296875,5320.7080078125,7150.17333984375,2937.31689453125,-659.624755859375,4389.2861328125,-0.0,4689.693359375,-14829.6357421875,3150.30419921875,12357.2353515625,2680.619384765625,-6905.39697265625,4261.3349609375,4551.41064453125,6612.9365234375,3759.861083984375,3138.383056640625,-4568.89501953125,-13833.8408203125,-8177.75732421875,2572.536376953125,-2447.76416015625,0.0,-6250.5400390625,0.0,-6639.16259765625,-13040.7021484375,3584.225830078125,-9219.646484375,0.0,-16067.0283203125,-2852.28076171875,0.0,-7305.1455078125,0.0,4760.42431640625,-0.0,-5995.4326171875
-9956.359375,-8535.384765625,11134.9423828125,-8379.6181640625,6682.078125,2392.927978515625,3501.57421875,-6011.3271484375,0.0,-4165.17236328125,-2113.183349609375,-14824.8671875,0.0,0.0,0.0,-3695.488037109375,1549.720703125,11370.181640625,-0.0,-173.25083923339844,5857.9443359375,9400.8447265625,6924.47021484375,2887.2490234375,3220.240234375,-5242.02978515625,-6159.94140625,6391.20703125,-1467.8636474609375,-3791.650146484375,9210.109375,-5897.6806640625,8633.931640625,6174.24609375,5315.939453125,7146.994140625,2936.522216796875,-665.1878662109375,4386.10693359375,-0.0,4685.7197265625,-14828.8408203125,3147.919921875,12350.876953125,2681.414306640625,-6906.19140625,4258.95068359375,4548.2314453125,6608.16796875,3754.2978515625,3138.383056640625,-4573.6630859375,-13844.966796875,-8176.962890625,2567.76806640625,-2450.94287109375,0.0,-6252.1298828125,0.0,-6645.5205078125,-13058.98046875,3581.047119140625,-9223.6201171875,0.0,-16070.2080078125,-2856.254638671875,0.0,-7313.88720703125,0.0,4749.2978515625,-0.0,-6008.94287109375
-9963.5126953125,-8537.76953125,11127.7890625,-8383.591796875,6676.51513671875,2388.159423828125,3499.98486328125,-6013.71142578125,0.0,-4168.3515625,-2115.5673828125,-14823.27734375,0.0,0.0,0.0,-3700.25634765625,1544.1575927734375,11366.2080078125,-0.0,-176.42974853515625,5853.17626953125,9396.87109375,6921.29150390625,2884.070068359375,3216.2666015625,-5244.4140625,-6163.1201171875,6386.43896484375,-1471.83740234375,-3794.8291015625,9205.341796875,-5902.44921875,8625.984375,6171.06787109375,5309.58154296875,7144.60986328125,2934.137939453125,-669.1614990234375,4380.5439453125,-0.0,4680.95166015625,-14828.0458984375,3144.740966796875,12346.9033203125,2679.82470703125,-6907.78125,4251.00341796875,4545.05322265625,6604.19482421875,3749.529541015625,3137.58837890625,-4578.431640625,-13868.80859375,-8176.16748046875,2562.999755859375,-2454.121826171875,0.0,-6256.103515625,0.0,-6650.2890625,-13036.7275390625,3575.484130859375,-9227.59375,0.0,-16074.9755859375,-2855.4599609375,0.0,-7316.271484375,0.0,4740.55615234375,-0.0,-6015.30078125
-9955.5654296875,-8539.359375,11126.9951171875,-8382.796875,6673.3359375,2390.543701171875,3498.395263671875,-6011.3271484375,0.0,-4165.96728515625,-2113.183349609375,-14815.330078125,0.0,0.0,0.0,-3697.8720703125,1543.3629150390625,11367.7978515625,-0.0,-177.22447204589844,5852.38134765625,9399.2548828125,6922.880859375,2886.454345703125,3219.445556640625,-5241.2353515625,-6163.9150390625,6389.6181640625,-1469.4532470703125,-3790.85546875,9206.9306640625,-5904.0390625,8625.984375,6172.6572265625,5311.1708984375,7147.7890625,2932.548583984375,-665.9825439453125,4379.74951171875,-0.0,4679.36181640625,-14818.5087890625,3147.125244140625,12348.4921875,2679.0302734375,-6907.78125,4247.82421875,4546.64208984375,6602.60546875,3751.118896484375,3135.9990234375,-4576.04736328125,-13878.345703125,-8170.6044921875,2566.178466796875,-2447.76416015625,0.0,-6250.5400390625,0.0,-6646.31494140625,-13018.44921875,3577.0732421875,-9227.59375,0.0,-16072.591796875,-2850.691650390625,0.0,-7310.70849609375,0.0,4742.1455078125,-0.0,-6011.3271484375
-9944.4384765625,-8537.76953125,11127.7890625,-8379.6181640625,6675.72021484375,2393.72265625,3499.190185546875,-6008.94287109375,0.0,-4163.58349609375,-2111.593994140625,-14808.97265625,0.0,0.0,0.0,-3693.103759765625,1544.952392578125,11369.3876953125,-0.0,-177.22447204589844,5853.17626953125,9401.638671875,6922.08642578125,2888.838623046875,3218.65087890625,-5238.05615234375,-6163.9150390625,6392.796875,-1469.4532470703125,-3786.0869140625,9209.3154296875,-5901.65478515625,8626.7783203125,6175.8359375,5312.7607421875,7149.37841796875,2932.548583984375,-665.9825439453125,4381.33837890625,-0.0,4681.74609375,-14814.5361328125,3146.33056640625,12351.671875,2679.82470703125,-6903.0126953125,4247.82421875,4550.61572265625,6604.19482421875,3754.2978515625,3135.204345703125,-4572.0732421875,-13871.9873046875,-8169.01513671875,2566.973388671875,-2442.200927734375,0.0,-6242.59326171875,0.0,-6639.95751953125,-13017.654296875,3577.0732421875,-9226.798828125,0.0,-16070.2080078125,-2841.949462890625,0.0,-7312.2978515625,0.0,4742.9404296875,-0.0,-6008.1484375
-9946.8232421875,-8543.33203125,11130.96875,-8374.8505859375,6677.3095703125,2395.31201171875,3500.779296875,-6007.353515625,0.0,-4157.22509765625,-2111.593994140625,-14804.9990234375,0.0,0.0,0.0,-3687.540771484375,1548.13134765625,11370.181640625,-0.0,-172.4561004638672,5856.35498046875,9405.61328125,6922.880859375,2891.22265625,3217.856201171875,-5234.876953125,-6162.3251953125,6395.18115234375,-1471.83740234375,-3785.29248046875,9210.904296875,-5896.09130859375,8629.9580078125,6178.22021484375,5313.55517578125,7151.7626953125,2934.137939453125,-663.598388671875,4374.98095703125,-0.0,4684.13037109375,-14811.3564453125,3146.33056640625,12356.4404296875,2680.619384765625,-6899.03857421875,4248.619140625,4553.0,6606.57861328125,3758.271484375,3136.7939453125,-4568.10009765625,-13853.708984375,-8169.01513671875,2563.79443359375,-2439.816650390625,0.0,-6237.0302734375,0.0,-6636.7783203125,-13026.396484375,3578.662841796875,-9223.6201171875,0.0,-16074.9755859375,-2841.15478515625,0.0,-7302.76123046875,0.0,4757.24560546875,-0.0,-5996.22705078125
-9950.796875,-8544.1279296875,11133.353515625,-8375.64453125,6678.1044921875,2397.6962890625,3503.16357421875,-6005.76416015625,0.0,-4152.45654296875,-2110.00439453125,-14806.587890625,0.0,0.0,0.0,-3685.951171875,1552.10498046875,11370.181640625,-0.0,-167.68772888183594,5859.53369140625,9406.4072265625,6924.47021484375,2892.017333984375,3219.445556640625,-5234.876953125,-6161.53076171875,6396.7705078125,-1470.2479248046875,-3785.29248046875,9210.904296875,-5894.501953125,8633.13671875,6179.0146484375,5315.939453125,7150.96826171875,2937.31689453125,-660.41943359375,4382.13330078125,-0.0,4684.13037109375,-14813.7412109375,3147.919921875,12356.4404296875,2680.619384765625,-6897.44970703125,4247.82421875,4553.0,6608.16796875,3759.861083984375,3139.177978515625,-4568.10009765625,-13834.6357421875,-8172.1943359375,2565.3837890625,-2442.200927734375,0.0,-6237.82470703125,0.0,-6633.599609375,-13037.5224609375,3581.047119140625,-9222.0302734375,0.0,-16078.94921875,-2842.744140625,0.0,-7292.4296875,0.0,4769.16650390625,-0.0,-5981.12744140625
-9955.5654296875,-8543.33203125,11131.763671875,-8381.20703125,6676.51513671875,2393.72265625,3501.57421875,-6008.94287109375,0.0,-4151.662109375,-2110.00439453125,-14810.5625,0.0,0.0,0.0,-3688.33544921875,1548.926025390625,11367.00390625,-0.0,-167.68772888183594,5855.560546875,9402.4345703125,6922.880859375,2888.838623046875,3217.856201171875,-5239.6455078125,-6164.70947265625,6392.796875,-1472.632080078125,-3788.47119140625,9209.3154296875,-5895.29638671875,8630.7529296875,6174.24609375,5313.55517578125,7147.7890625,2936.522216796875,-662.8036499023438,4378.95458984375,-0.0,4681.74609375,-14820.0986328125,3147.125244140625,12353.2607421875,2682.208984375,-6899.03857421875,4246.23486328125,4551.41064453125,6604.98974609375,3756.68212890625,3137.58837890625,-4570.484375,-13840.9931640625,-8176.962890625,2562.999755859375,-2446.174560546875,0.0,-6244.1826171875,0.0,-6634.39404296875,-13039.90625,3579.45751953125,-9223.6201171875,0.0,-16073.384765625,-2845.12841796875,0.0,-7295.6083984375,0.0,4767.57666015625,-0.0,-5981.12744140625
-9965.896484375,-8538.5634765625,11129.37890625,-8384.38671875,6677.3095703125,2392.927978515625,3500.779296875,-6012.12158203125,0.0,-4157.22509765625,-2115.5673828125,-14813.7412109375,0.0,0.0,0.0,-3692.30908203125,1545.7471923828125,11367.00390625,-0.0,-170.8666534423828,5854.765625,9404.0234375,6922.08642578125,2888.043701171875,3215.471923828125,-5244.4140625,-6165.50439453125,6392.001953125,-1475.0162353515625,-3790.85546875,9207.7255859375,-5894.501953125,8629.1630859375,6174.24609375,5312.7607421875,7147.7890625,2935.727294921875,-665.1878662109375,4379.74951171875,-0.0,4683.3359375,-14825.662109375,3146.33056640625,12351.671875,2682.208984375,-6902.2177734375,4253.3876953125,4551.41064453125,6604.98974609375,3753.503173828125,3139.177978515625,-4574.45751953125,-13847.3515625,-8179.34716796875,2562.999755859375,-2447.76416015625,0.0,-6247.36181640625,0.0,-6642.341796875,-13037.5224609375,3577.0732421875,-9225.208984375,0.0,-16069.412109375,-2848.307373046875,0.0,-7303.55615234375,0.0,4758.0400390625,-0.0,-5993.04833984375
-9980.2021484375,-8536.1796875,11130.96875,-8382.0029296875,6678.8994140625,2392.927978515625,3498.395263671875,-6013.71142578125,0.0,-4161.19921875,-2115.5673828125,-14807.3837890625,0.0,0.0,0.0,-3693.103759765625,1548.13134765625,11367.7978515625,-0.0,-174.8402862548828,5857.1494140625,9404.818359375,6923.67578125,2889.63330078125,3220.240234375,-5244.4140625,-6162.3251953125,6392.796875,-1468.658447265625,-3789.265869140625,9210.109375,-5892.1181640625,8632.3427734375,6173.45166015625,5314.35009765625,7148.583984375,2935.727294921875,-664.3931274414062,4387.69677734375,-0.0,4684.92529296875,-14828.8408203125,3147.125244140625,12352.466796875,2682.208984375,-6905.39697265625,4256.56640625,4553.0,6608.16796875,3757.476806640625,3137.58837890625,-4572.8681640625,-13856.09375,-8175.373046875,2566.973388671875,-2443.79052734375,0.0,-6247.36181640625,0.0,-6644.7255859375,-13038.3173828125,3577.0732421875,-9226.0048828125,0.0,-16068.6171875,-2843.5390625,0.0,-7306.734375,0.0,4754.861328125,-0.0,-5999.40625
-9980.2021484375,-8536.974609375,11128.5849609375,-8381.20703125,6681.28369140625,2395.31201171875,3498.395263671875,-6014.505859375,0.0,-4165.96728515625,-2110.799072265625,-14801.8193359375,0.0,0.0,0.0,-3695.488037109375,1551.3101806640625,11369.3876953125,-0.0,-176.42974853515625,5857.1494140625,9405.61328125,6924.47021484375,2889.63330078125,3223.419189453125,-5244.4140625,-6161.53076171875,6392.001953125,-1464.684814453125,-3792.44482421875,9212.494140625,-5889.73388671875,8633.13671875,6174.24609375,5315.14501953125,7150.17333984375,2934.137939453125,-665.1878662109375,4394.05419921875,-0.0,4684.92529296875,-14830.4296875,3147.125244140625,12354.056640625,2681.414306640625,-6908.57568359375,4250.20849609375,4558.5634765625,6608.16796875,3757.476806640625,3135.9990234375,-4573.6630859375,-13865.6298828125,-8172.98876953125,2570.15234375,-2440.611572265625,0.0,-6249.74560546875,0.0,-6647.90478515625,-13039.1123046875,3579.45751953125,-9226.798828125,0.0,-16067.8232421875,-2838.7705078125,0.0,-7309.91357421875,0.0,4752.47705078125,-0.0,-6008.1484375
-9968.28125,-8536.1796875,11131.763671875,-8378.029296875,6684.4619140625,2400.080322265625,3501.57421875,-6009.7373046875,0.0,-4163.58349609375,-2106.82568359375,-14797.0517578125,0.0,0.0,0.0,-3692.30908203125,1552.899658203125,11372.56640625,-0.0,-175.63502502441406,5861.12353515625,9406.4072265625,6926.0595703125,2892.017333984375,3226.59814453125,-5241.2353515625,-6159.14697265625,6398.35986328125,-1464.684814453125,-3790.060791015625,9214.8779296875,-5889.73388671875,8634.7265625,6177.42529296875,5317.529296875,7151.7626953125,2936.522216796875,-662.0089111328125,4389.2861328125,-0.0,4688.10400390625,-14828.8408203125,3148.71484375,12358.029296875,2681.414306640625,-6905.39697265625,4249.4140625,4558.5634765625,6610.55224609375,3761.450439453125,3136.7939453125,-4571.27880859375,-13865.6298828125,-8169.81005859375,2571.74169921875,-2435.84326171875,0.0,-6244.1826171875,0.0,-6643.93115234375,-13025.6015625,3582.636474609375,-9226.0048828125,0.0,-16061.4638671875,-2832.41259765625,0.0,-7302.76123046875,0.0,4757.24560546875,-0.0,-6006.55908203125
-9957.154296875,-8538.5634765625,11130.96875,-8380.4130859375,6682.87255859375,2396.106689453125,3500.779296875,-6013.71142578125,0.0,-4166.76171875,-2104.44140625,-14801.025390625,0.0,0.0,0.0,-3694.693359375,1548.926025390625,11372.56640625,-0.0,-176.42974853515625,5859.53369140625,9406.4072265625,6924.47021484375,2889.63330078125,3228.1875,-5243.61962890625,-6157.55712890625,6396.7705078125,-1462.3006591796875,-3794.0341796875,9214.083984375,-5894.501953125,8630.7529296875,6174.24609375,5317.529296875,7149.37841796875,2936.522216796875,-663.598388671875,4379.74951171875,-0.0,4688.8984375,-14832.814453125,3148.71484375,12354.056640625,2681.414306640625,-6909.37060546875,4250.20849609375,4558.5634765625,6610.55224609375,3759.06640625,3139.177978515625,-4575.25244140625,-13855.2978515625,-8173.783203125,2573.3310546875,-2439.816650390625,0.0,-6248.951171875,0.0,-6648.69921875,-13016.8603515625,3581.047119140625,-9227.59375,0.0,-16059.080078125,-2837.18115234375,0.0,-7309.11865234375,0.0,4747.708984375,-0.0,-6015.30078125
-9949.20703125,-8544.1279296875,11125.4052734375,-8385.9755859375,6680.48876953125,2391.33837890625,3500.779296875,-6020.0693359375,0.0,-4170.73583984375,-2108.414794921875,-14806.587890625,0.0,0.0,0.0,-3698.666748046875,1544.1575927734375,11370.181640625,-0.0,-178.0192108154297,5855.560546875,9400.0498046875,6923.67578125,2885.659423828125,3220.240234375,-5249.97705078125,-6157.55712890625,6392.796875,-1467.0689697265625,-3794.8291015625,9209.3154296875,-5898.4755859375,8626.7783203125,6168.68359375,5314.35009765625,7144.60986328125,2935.727294921875,-665.1878662109375,4371.8017578125,-0.0,4686.51416015625,-14843.146484375,3146.33056640625,12351.671875,2680.619384765625,-6913.34375,4244.6455078125,4559.35791015625,6608.16796875,3754.2978515625,3138.383056640625,-4577.63671875,-13845.76171875,-8174.57861328125,2568.562744140625,-2451.737548828125,0.0,-6256.103515625,0.0,-6655.0576171875,-13024.0126953125,3577.8681640625,-9228.388671875,0.0,-16068.6171875,-2843.5390625,0.0,-7317.06640625,0.0,4745.32470703125,-0.0,-6018.47998046875
-9945.2333984375,-8543.33203125,11125.4052734375,-8383.591796875,6680.48876953125,2393.72265625,3501.57421875,-6020.0693359375,0.0,-4169.94091796875,-2102.851806640625,-14801.8193359375,0.0,0.0,0.0,-3698.666748046875,1546.5418701171875,11369.3876953125,-0.0,-178.81393432617188,5855.560546875,9400.0498046875,6923.67578125,2884.86474609375,3221.034912109375,-5249.18212890625,-6157.55712890625,6393.59130859375,-1468.658447265625,-3782.908203125,9209.3154296875,-5892.1181640625,8628.3681640625,6171.8623046875,5313.55517578125,7144.60986328125,2936.522216796875,-663.598388671875,4375.77587890625,-0.0,4684.92529296875,-14843.146484375,3146.33056640625,12352.466796875,2681.414306640625,-6914.138671875,4243.0556640625,4561.7421875,6610.55224609375,3756.68212890625,3139.177978515625,-4576.841796875,-13845.76171875,-8169.81005859375,2567.76806640625,-2446.96923828125,0.0,-6256.8984375,0.0,-6655.0576171875,-13024.0126953125,3577.0732421875,-9227.59375,0.0,-16068.6171875,-2841.15478515625,0.0,-7319.4501953125,0.0,4746.119140625,-0.0,-6016.89013671875
