-5372.3857421875,-10614.8017578125,5536.8603515625,7085.927734375,13224.087890625,12501.4208984375,12523.9814453125,10909.63671875,11893.978515625,8454.0849609375,14439.7275390625,0.0,11395.474609375,0.0,10070.32421875,14376.548828125,23891.865234375,10755.251953125,6533.59619140625,4217.9599609375,2206.39013671875,13443.9384765625,11733.5166015625,8092.47216796875,0.0,1147.7454833984375,5550.31689453125,3171.052978515625,-2883.225830078125,-7534.03173828125,11850.8994140625,1853.2921142578125,8294.513671875,12727.2177734375,8961.884765625,14199.8837890625,3624.111328125,8073.2236328125,2617.93017578125,0.0,3208.52490234375,10317.42578125,5704.57080078125,6268.224609375,17845.052734375,4385.76025390625,-5404.10400390625,6302.01025390625,4209.65087890625,23915.662109375,4550.0986328125,10094.126953125,-8644.5087890625,-11260.578125,5750.1259765625,4345.23388671875,7927.453125,3196.08203125,5004.318359375,2693.372802734375,-3815.894775390625,6980.9404296875,6328.87744140625,7157.603515625,-15839.5322265625,-0.0,-0.0,8003.34765625,5450.1484375,-5765.86767578125,0.0,10302.81640625
-5425.2587890625,-10647.4599609375,5543.478515625,7091.36962890625,13227.2705078125,12504.9423828125,12527.4892578125,10909.39453125,11898.9609375,8449.0771484375,14436.197265625,0.0,11396.2841796875,0.0,10080.0771484375,14376.6064453125,23896.083984375,10758.23046875,6535.13671875,4217.486328125,2209.69677734375,13448.1015625,11735.568359375,8093.91943359375,0.0,1153.974365234375,5555.9052734375,3172.74609375,-2882.509033203125,-7525.12451171875,11854.8251953125,1863.5675048828125,8299.154296875,12732.6015625,8965.2197265625,14203.2861328125,3625.958740234375,8073.6865234375,2600.14501953125,0.0,3211.32275390625,10322.3134765625,5709.1484375,6270.30859375,17846.51953125,4383.48046875,-5399.59033203125,6308.63671875,4212.4912109375,23919.693359375,4555.66162109375,10093.5732421875,-8651.3125,-11248.1005859375,5751.48876953125,4335.69482421875,7927.80224609375,3198.28076171875,5005.62841796875,2685.387939453125,-3798.099853515625,6980.7109375,6330.93505859375,7151.26953125,-15838.1240234375,-0.0,-0.0,8000.31689453125,5464.4560546875,-5777.45703125,0.0,10291.4599609375
-5403.8037109375,-10689.568359375,5545.14013671875,7096.21484375,13226.8837890625,12504.818359375,12525.232421875,10909.75,11897.5263671875,8444.02734375,14434.5830078125,0.0,11393.2705078125,0.0,10070.44140625,14374.869140625,23898.353515625,10759.7119140625,6535.66552734375,4213.38525390625,2212.56201171875,13449.634765625,11735.3037109375,8093.7080078125,0.0,1154.485107421875,5552.693359375,3170.464111328125,-2885.1376953125,-7526.609375,11857.2568359375,1870.5635986328125,8301.8369140625,12734.0693359375,8965.7041015625,14203.205078125,3623.91455078125,8073.2880859375,2607.405029296875,0.0,3212.183837890625,10325.5810546875,5706.7353515625,6269.5634765625,17843.82421875,4384.20947265625,-5403.4658203125,6311.99560546875,4212.9716796875,23920.583984375,4551.162109375,10092.04296875,-8660.3505859375,-11257.4306640625,5756.64599609375,4342.455078125,7924.4833984375,3193.988525390625,5008.3837890625,2690.48046875,-3795.001220703125,6981.6416015625,6328.384765625,7145.15966796875,-15836.419921875,-0.0,-0.0,7999.96484375,5457.00244140625,-5779.71337890625,0.0,10286.587890625
-5376.99462890625,-10662.705078125,5540.8076171875,7105.86279296875,13225.5791015625,12506.80078125,12521.173828125,10914.0625,11891.9541015625,8449.6806640625,14444.458984375,0.0,11402.01171875,0.0,10059.318359375,14377.7646484375,23898.154296875,10760.2431640625,6537.40087890625,4211.4775390625,2214.355712890625,13452.4375,11737.103515625,8095.7177734375,0.0,1156.2066650390625,5548.94580078125,3171.60888671875,-2879.472900390625,-7527.95458984375,11857.01953125,1863.33837890625,8300.5693359375,12734.369140625,8965.55859375,14205.5859375,3623.612060546875,8076.71728515625,2604.013671875,0.0,3211.918212890625,10329.482421875,5704.3662109375,6272.44287109375,17843.09375,4390.85107421875,-5398.59716796875,6321.61376953125,4211.146484375,23925.3046875,4545.35205078125,10096.0859375,-8654.9716796875,-11284.5244140625,5758.59130859375,4360.99365234375,7920.78857421875,3196.119384765625,5003.90283203125,2703.29736328125,-3796.558349609375,6986.50390625,6328.66064453125,7142.80810546875,-15825.646484375,-0.0,-0.0,8009.02978515625,5434.67236328125,-5767.517578125,0.0,10294.685546875
-5369.13916015625,-10635.08984375,5542.16650390625,7109.5283203125,13227.4580078125,12505.30078125,12522.0947265625,10912.94921875,11893.1279296875,8454.0888671875,14446.009765625,0.0,11408.8046875,0.0,10058.9130859375,14372.3564453125,23897.07421875,10763.5810546875,6536.42333984375,4215.1513671875,2216.910400390625,13454.9599609375,11739.1298828125,8097.294921875,0.0,1156.5234375,5551.095703125,3168.565673828125,-2871.064697265625,-7525.52587890625,11858.6748046875,1857.379638671875,8299.123046875,12735.224609375,8968.2294921875,14206.5673828125,3626.06982421875,8076.9052734375,2600.330078125,0.0,3214.622802734375,10329.2861328125,5707.17578125,6271.4423828125,17844.26171875,4392.17724609375,-5408.80712890625,6325.2998046875,4215.03564453125,23926.099609375,4546.4091796875,10091.720703125,-8643.0703125,-11292.3779296875,5766.21142578125,4366.4384765625,7923.56005859375,3190.977294921875,5005.193359375,2708.3662109375,-3805.8076171875,6988.435546875,6330.4970703125,7145.751953125,-15820.3837890625,-0.0,-0.0,8014.83740234375,5431.60693359375,-5753.2568359375,0.0,10306.6533203125
-5378.9326171875,-10652.2373046875,5530.17578125,7083.94921875,13216.0576171875,12490.2734375,12512.9013671875,10901.8017578125,11886.119140625,8445.82421875,14424.79296875,0.0,11392.310546875,0.0,10047.2109375,14359.712890625,23881.775390625,10751.3974609375,6526.3857421875,4207.89892578125,2204.27197265625,13440.03125,11727.0380859375,8084.7626953125,0.0,1137.620361328125,5539.7275390625,3153.7958984375,-2883.29443359375,-7540.5498046875,11844.9375,1839.2960205078125,8286.78125,12718.212890625,8956.2568359375,14192.4560546875,3615.3974609375,8064.29150390625,2608.35009765625,0.0,3200.935302734375,10311.25,5695.732421875,6257.3701171875,17836.015625,4381.5625,-5439.5888671875,6299.81298828125,4203.509765625,23911.13671875,4536.0595703125,10078.642578125,-8647.478515625,-11310.17578125,5760.8134765625,4354.92138671875,7915.0693359375,3174.918701171875,5002.07470703125,2695.83544921875,-3835.5966796875,6978.61865234375,6321.62646484375,7142.25341796875,-15843.6875,-0.0,-0.0,8006.77685546875,5432.7529296875,-5759.134765625,0.0,10300.71484375
-5401.1640625,-10649.32421875,5534.99609375,7085.11279296875,13221.0498046875,12496.2646484375,12517.3154296875,10906.91796875,11889.681640625,8451.8076171875,14419.3203125,0.0,11388.3759765625,0.0,10052.162109375,14368.787109375,23888.552734375,10758.3095703125,6532.3642578125,4213.181640625,2207.69189453125,13443.8837890625,11732.1181640625,8091.95556640625,0.0,1144.2344970703125,5544.45556640625,3162.68603515625,-2876.65576171875,-7536.453125,11850.5,1845.4627685546875,8293.5693359375,12721.7509765625,8960.55078125,14199.2353515625,3621.288330078125,8068.6669921875,2587.545654296875,0.0,3206.825927734375,10315.166015625,5701.08642578125,6264.2236328125,17840.453125,4387.4560546875,-5417.638671875,6299.29833984375,4206.84814453125,23917.576171875,4541.267578125,10086.2265625,-8653.2626953125,-11284.78125,5761.1435546875,4354.01708984375,7916.5322265625,3185.0966796875,5000.06103515625,2697.665283203125,-3848.964111328125,6985.97802734375,6327.708984375,7149.7646484375,-15847.099609375,-0.0,-0.0,8015.6298828125,5435.4833984375,-5759.90478515625,0.0,10298.4443359375
-5422.638671875,-10669.041015625,5547.49267578125,7100.23974609375,13230.6494140625,12505.98046875,12524.4990234375,10913.740234375,11895.19921875,8457.015625,14422.75390625,0.0,11390.783203125,0.0,10061.876953125,14378.7880859375,23901.595703125,10768.8544921875,6538.91650390625,4218.94970703125,2216.11572265625,13453.6650390625,11739.3857421875,8102.2353515625,0.0,1154.4459228515625,5551.916015625,3173.292236328125,-2874.52880859375,-7522.9296875,11862.0283203125,1860.1663818359375,8304.1474609375,12735.5,8969.556640625,14208.9580078125,3627.97509765625,8077.49365234375,2611.093017578125,0.0,3218.762451171875,10325.5244140625,5709.02783203125,6273.0849609375,17846.314453125,4392.955078125,-5406.05419921875,6313.73779296875,4215.60302734375,23925.474609375,4547.10498046875,10093.74609375,-8656.568359375,-11252.9169921875,5764.22607421875,4357.6328125,7922.05517578125,3194.01171875,5002.36962890625,2706.992919921875,-3849.71240234375,6993.5673828125,6334.36181640625,7154.0361328125,-15836.89453125,-0.0,-0.0,8022.16748046875,5435.95166015625,-5758.0751953125,0.0,10298.9365234375
-5416.0185546875,-10681.23046875,5547.60107421875,7100.01171875,13233.7490234375,12508.212890625,12523.662109375,10917.232421875,11888.5556640625,8455.875,14424.7900390625,0.0,11395.77734375,0.0,10060.19921875,14390.119140625,23903.017578125,10770.912109375,6539.8798828125,4215.91796875,2218.299072265625,13454.0712890625,11740.3310546875,8104.40185546875,0.0,1156.4923095703125,5551.60693359375,3179.878662109375,-2882.3408203125,-7510.3076171875,11865.09375,1863.269287109375,8309.041015625,12737.86328125,8971.0400390625,14210.25,3627.564208984375,8079.296875,2653.55419921875,0.0,3218.630126953125,10328.466796875,5708.56396484375,6275.90625,17843.6953125,4394.3115234375,-5398.1484375,6314.517578125,4216.63720703125,23927.375,4546.46533203125,10101.3076171875,-8642.19921875,-11273.1494140625,5763.33203125,4371.74169921875,7923.98583984375,3206.65673828125,5003.70361328125,2706.458984375,-3831.718017578125,6995.0107421875,6333.080078125,7150.38671875,-15833.5439453125,-0.0,-0.0,8022.458984375,5421.388671875,-5757.7861328125,0.0,10300.5634765625
-5404.80810546875,-10655.9345703125,5541.6279296875,7099.87890625,13235.501953125,12508.3642578125,12525.3876953125,10917.9404296875,11892.046875,8458.5068359375,14435.892578125,0.0,11401.3955078125,0.0,10065.8369140625,14392.5048828125,23903.158203125,10771.2822265625,6540.310546875,4220.126953125,2218.302490234375,13452.388671875,11742.26953125,8104.23388671875,0.0,1153.985107421875,5556.4736328125,3182.06201171875,-2883.011474609375,-7507.9921875,11863.65625,1864.7373046875,8307.1982421875,12735.0625,8972.310546875,14210.08984375,3628.76220703125,8079.38525390625,2645.191162109375,0.0,3215.986083984375,10326.9931640625,5710.2216796875,6275.39990234375,17847.408203125,4395.27978515625,-5385.0927734375,6312.2646484375,4218.75439453125,23927.73046875,4551.38427734375,10103.453125,-8635.8095703125,-11255.0712890625,5751.8447265625,4385.443359375,7926.45361328125,3215.03466796875,5008.61767578125,2704.34521484375,-3816.381103515625,6997.08984375,6333.12255859375,7153.45703125,-15828.8349609375,-0.0,-0.0,8018.31298828125,5439.46044921875,-5762.1591796875,0.0,10299.115234375
-5410.93212890625,-10640.7880859375,5548.5341796875,7113.22021484375,13239.056640625,12511.8173828125,12526.78515625,10915.4482421875,11891.2041015625,8452.2958984375,14450.142578125,0.0,11405.40625,0.0,10071.4375,14386.5068359375,23906.328125,10772.2158203125,6539.32763671875,4216.76123046875,2220.800048828125,13458.1923828125,11744.41796875,8103.904296875,0.0,1160.0361328125,5560.904296875,3183.035400390625,-2883.43798828125,-7504.44189453125,11866.1787109375,1863.0748291015625,8309.6220703125,12740.6630859375,8975.375,14213.3037109375,3629.845703125,8079.22705078125,2650.5869140625,0.0,3219.67724609375,10332.81640625,5712.16064453125,6277.57275390625,17845.6328125,4390.3583984375,-5388.1943359375,6327.54150390625,4221.189453125,23934.216796875,4553.99462890625,10099.1181640625,-8636.4248046875,-11256.4921875,5760.22998046875,4373.3935546875,7931.56982421875,3220.64990234375,5003.2255859375,2699.367431640625,-3811.384765625,6999.21044921875,6331.740234375,7144.8095703125,-15820.9990234375,-0.0,-0.0,8011.365234375,5445.64013671875,-5770.2333984375,0.0,10286.7490234375
-5365.46484375,-10632.7412109375,5545.82373046875,7110.80810546875,13236.015625,12509.783203125,12520.7666015625,10909.5771484375,11881.7880859375,8440.068359375,14444.8544921875,0.0,11403.4541015625,0.0,10059.97265625,14380.4345703125,23905.349609375,10768.37109375,6533.80712890625,4205.75927734375,2219.462890625,13457.8798828125,11739.212890625,8098.98681640625,0.0,1163.24560546875,5554.4287109375,3177.6162109375,-2881.052978515625,-7512.41357421875,11864.3837890625,1863.36279296875,8307.4033203125,12742.0537109375,8972.5634765625,14212.56640625,3625.287109375,8075.2607421875,2632.12744140625,0.0,3217.20703125,10331.8193359375,5707.32958984375,6273.8173828125,17838.173828125,4383.95751953125,-5432.83837890625,6327.19091796875,4217.271484375,23933.6015625,4546.01123046875,10093.798828125,-8635.21484375,-11290.060546875,5767.39794921875,4354.29833984375,7929.205078125,3214.751953125,4995.435546875,2687.845703125,-3811.0595703125,6996.4169921875,6324.43115234375,7133.1689453125,-15828.7822265625,-0.0,-0.0,7999.93994140625,5427.2919921875,-5782.9853515625,0.0,10277.74609375
-5347.2314453125,-10606.9169921875,5542.962890625,7102.97216796875,13231.9140625,12509.0625,12519.4326171875,10911.3046875,11881.1572265625,8434.435546875,14432.30859375,0.0,11402.1611328125,0.0,10058.4013671875,14386.193359375,23906.361328125,10766.6259765625,6533.84326171875,4202.6806640625,2219.596435546875,13456.33203125,11738.396484375,8098.99609375,0.0,1161.3797607421875,5553.708984375,3178.1884765625,-2874.337890625,-7521.896484375,11862.677734375,1869.141357421875,8305.650390625,12739.015625,8972.1123046875,14211.3671875,3624.05859375,8075.01171875,2598.62451171875,0.0,3214.513671875,10328.9609375,5704.9326171875,6273.14111328125,17838.548828125,4383.2705078125,-5410.4453125,6319.27490234375,4213.24560546875,23930.90234375,4545.28662109375,10097.5029296875,-8643.5986328125,-11266.2490234375,5767.9970703125,4361.41015625,7927.0869140625,3209.22021484375,5000.7392578125,2682.91845703125,-3810.38525390625,6995.7353515625,6321.66015625,7131.40673828125,-15831.5771484375,-0.0,-0.0,7990.7021484375,5423.142578125,-5789.4619140625,0.0,10277.2802734375
-5384.18408203125,-10645.2138671875,5546.3779296875,7106.4609375,13230.146484375,12508.9287109375,12522.2373046875,10914.884765625,11888.48046875,8439.255859375,14419.1787109375,0.0,11400.998046875,0.0,10067.1787109375,14393.83203125,23904.568359375,10767.26953125,6535.39697265625,4207.69873046875,2218.322509765625,13456.6630859375,11737.8447265625,8100.9501953125,0.0,1160.9537353515625,5556.8125,3181.229736328125,-2878.776611328125,-7526.16796875,11863.8984375,1865.6304931640625,8305.0751953125,12738.59375,8971.982421875,14210.712890625,3625.910400390625,8077.4638671875,2599.658935546875,0.0,3215.76806640625,10330.0087890625,5705.69580078125,6275.26318359375,17843.208984375,4386.447265625,-5381.60009765625,6323.25732421875,4211.9765625,23930.767578125,4551.83447265625,10102.986328125,-8666.7177734375,-11254.2802734375,5770.98681640625,4366.3837890625,7927.32373046875,3207.283935546875,5014.4619140625,2685.762939453125,-3812.575439453125,6996.12841796875,6326.85791015625,7138.84033203125,-15826.12109375,-0.0,-0.0,8001.755859375,5443.44580078125,-5780.2841796875,0.0,10280.9501953125
-5422.51416015625,-10700.9765625,5552.8740234375,7106.54248046875,13232.1142578125,12505.5029296875,12523.4755859375,10914.533203125,11895.5087890625,8448.14453125,14426.7099609375,0.0,11407.744140625,0.0,10068.908203125,14384.5244140625,23904.265625,10766.4775390625,6535.67724609375,4217.408203125,2219.554931640625,13455.517578125,11737.150390625,8099.67529296875,0.0,1157.3846435546875,5557.09326171875,3176.416748046875,-2877.4921875,-7529.83154296875,11864.5732421875,1863.571044921875,8306.4990234375,12739.30859375,8972.4765625,14208.4716796875,3628.114501953125,8078.9130859375,2603.762939453125,0.0,3220.099853515625,10327.4765625,5707.8642578125,6272.2578125,17846.525390625,4390.953125,-5389.88720703125,6322.23291015625,4214.49951171875,23924.890625,4552.8466796875,10100.958984375,-8657.212890625,-11277.0,5762.5205078125,4366.9814453125,7926.9560546875,3196.96142578125,5016.595703125,2695.586669921875,-3808.62744140625,6996.4619140625,6329.82958984375,7153.47265625,-15820.3876953125,-0.0,-0.0,8014.49560546875,5449.44091796875,-5765.6337890625,0.0,10294.7451171875
-5456.96533203125,-10691.5478515625,5576.9697265625,7116.52978515625,13249.0244140625,12518.763671875,12533.21875,10926.103515625,11899.9404296875,8460.1767578125,14459.8896484375,0.0,11424.5087890625,0.0,10076.9775390625,14386.6669921875,23923.65234375,10782.3662109375,6548.45703125,4227.73681640625,2238.56591796875,13470.1337890625,11752.3466796875,8112.57861328125,0.0,1172.4970703125,5568.56494140625,3186.12255859375,-2855.278564453125,-7501.20556640625,11881.86328125,1885.373046875,8330.021484375,12755.5830078125,8988.6728515625,14222.6669921875,3641.1435546875,8091.02294921875,2647.072509765625,0.0,3239.37060546875,10340.8115234375,5721.0859375,6284.20849609375,17854.626953125,4403.60791015625,-5348.58154296875,6332.57177734375,4230.15625,23937.2109375,4562.5517578125,10108.1298828125,-8636.185546875,-11262.8330078125,5777.14501953125,4388.255859375,7939.24853515625,3208.454833984375,5007.80517578125,2718.953125,-3781.64453125,7009.783203125,6340.1630859375,7162.927734375,-15801.6142578125,-0.0,-0.0,8027.8525390625,5426.34912109375,-5753.26904296875,0.0,10309.4951171875
-5421.5048828125,-10650.732421875,5585.1728515625,7127.9296875,13258.779296875,12527.853515625,12537.216796875,10934.65625,11903.3369140625,8454.978515625,14475.3515625,0.0,11421.0234375,0.0,10079.66796875,14400.5771484375,23932.439453125,10790.4111328125,6554.53173828125,4227.2265625,2245.74609375,13476.6181640625,11758.5380859375,8121.12060546875,0.0,1180.15771484375,5574.23291015625,3196.441650390625,-2850.888671875,-7488.08251953125,11889.4189453125,1896.82470703125,8338.9306640625,12766.0302734375,8995.95703125,14231.125,3646.677490234375,8097.38525390625,2641.5576171875,0.0,3247.48681640625,10350.3544921875,5726.44580078125,6293.9228515625,17857.916015625,4408.279296875,-5338.607421875,6344.86767578125,4237.36279296875,23949.12109375,4565.69970703125,10119.15625,-8642.501953125,-11260.99609375,5778.9853515625,4396.76220703125,7943.919921875,3220.40625,5003.6611328125,2730.36767578125,-3766.17236328125,7018.14453125,6344.83154296875,7158.48095703125,-15787.2978515625,-0.0,-0.0,8038.1630859375,5437.748046875,-5756.96435546875,0.0,10301.876953125
-5338.25732421875,-10602.1982421875,5575.24658203125,7131.35791015625,13255.935546875,12530.7685546875,12533.962890625,10939.40625,11907.1337890625,8452.4267578125,14474.8115234375,0.0,11415.03125,0.0,10072.21875,14411.3935546875,23931.017578125,10789.92578125,6555.33349609375,4226.4921875,2241.123291015625,13478.1083984375,11758.5283203125,8123.7109375,0.0,1178.9111328125,5569.1689453125,3202.770751953125,-2852.318359375,-7495.0009765625,11887.08984375,1894.4718017578125,8334.35546875,12765.36328125,8993.01171875,14233.2666015625,3645.2001953125,8100.15380859375,2644.710693359375,0.0,3239.73779296875,10352.029296875,5723.33154296875,6297.74365234375,17856.984375,4408.77685546875,-5358.67626953125,6347.4365234375,4230.20703125,23953.111328125,4557.67333984375,10129.4482421875,-8621.2158203125,-11283.0087890625,5769.03857421875,4389.4853515625,7938.611328125,3226.2783203125,5005.46044921875,2728.976318359375,-3768.44091796875,7018.794921875,6344.357421875,7153.2490234375,-15797.92578125,-0.0,-0.0,8041.59521484375,5448.87841796875,-5756.58544921875,0.0,10293.5712890625
-5325.6025390625,-10566.0341796875,5558.31494140625,7116.04541015625,13248.5751953125,12527.35546875,12530.646484375,10940.841796875,11907.1015625,8457.40625,14460.1044921875,0.0,11405.9189453125,0.0,10071.416015625,14422.3681640625,23920.279296875,10784.9384765625,6554.96044921875,4229.97705078125,2233.0478515625,13469.779296875,11754.3037109375,8122.64697265625,0.0,1170.6514892578125,5564.50244140625,3205.50732421875,-2857.378173828125,-7507.1953125,11878.638671875,1884.6551513671875,8324.767578125,12755.3974609375,8986.66015625,14228.74609375,3642.14453125,8099.220703125,2664.697021484375,0.0,3229.53125,10343.607421875,5719.1376953125,6296.6015625,17857.2421875,4411.2421875,-5380.69287109375,6331.32470703125,4223.9609375,23947.47265625,4554.58837890625,10136.3212890625,-8597.3251953125,-11262.4453125,5772.98046875,4381.12353515625,7932.8232421875,3229.557373046875,5008.271484375,2722.27490234375,-3807.07666015625,7011.82080078125,6346.22119140625,7162.55517578125,-15814.3193359375,-0.0,-0.0,8045.0830078125,5440.13623046875,-5745.36865234375,0.0,10307.419921875
-5343.67431640625,-10565.3525390625,5542.25390625,7094.2666015625,13238.99609375,12514.357421875,12528.37109375,10932.5224609375,11908.9814453125,8462.7109375,14443.8974609375,0.0,11398.6708984375,0.0,10074.9013671875,14408.314453125,23903.490234375,10773.54296875,6548.28857421875,4231.31689453125,2220.27978515625,13453.716796875,11746.138671875,8111.93994140625,0.0,1153.8074951171875,5561.9814453125,3195.641357421875,-2871.39794921875,-7518.92138671875,11864.3330078125,1865.765869140625,8307.2841796875,12737.4599609375,8975.962890625,14216.138671875,3635.1220703125,8090.30712890625,2631.197998046875,0.0,3218.2158203125,10327.2685546875,5711.85546875,6286.7490234375,17855.27734375,4406.912109375,-5384.10400390625,6309.17041015625,4217.8017578125,23934.4140625,4555.33154296875,10124.1455078125,-8621.2060546875,-11231.50390625,5767.07763671875,4370.36865234375,7929.4033203125,3222.783447265625,5016.2529296875,2720.31396484375,-3827.715576171875,7001.7705078125,6345.6357421875,7166.82470703125,-15821.970703125,-0.0,-0.0,8035.716796875,5458.74267578125,-5742.1650390625,0.0,10315.1494140625
-5371.24951171875,-10596.3291015625,5537.6484375,7083.107421875,13233.2568359375,12503.3251953125,12524.7783203125,10918.8427734375,11908.9833984375,8466.841796875,14434.4208984375,0.0,11399.486328125,0.0,10071.0966796875,14379.1220703125,23892.49609375,10764.6201171875,6541.40771484375,4231.625,2212.297119140625,13444.240234375,11739.9482421875,8101.267578125,0.0,1144.8197021484375,5558.0791015625,3179.1533203125,-2877.758056640625,-7528.5458984375,11854.4111328125,1848.75146484375,8299.3857421875,12726.296875,8969.1494140625,14207.0537109375,3630.205810546875,8082.7158203125,2627.876708984375,0.0,3211.085693359375,10316.32421875,5707.49853515625,6276.18310546875,17851.263671875,4396.767578125,-5398.20751953125,6295.9140625,4213.20263671875,23923.986328125,4550.6884765625,10100.16015625,-8649.833984375,-11227.1171875,5763.931640625,4351.14404296875,7925.84765625,3205.333251953125,5014.14453125,2710.553466796875,-3840.83544921875,6994.57568359375,6341.63916015625,7169.673828125,-15839.8115234375,-0.0,-0.0,8012.5947265625,5463.07421875,-5747.7744140625,0.0,10320.5185546875
-5395.4658203125,-10623.6728515625,5541.47216796875,7076.892578125,13231.365234375,12495.6171875,12521.2724609375,10908.4931640625,11903.896484375,8466.6650390625,14427.90625,0.0,11406.81640625,0.0,10063.171875,14359.173828125,23891.576171875,10761.1318359375,6537.93359375,4229.5791015625,2212.122802734375,13438.1875,11737.6416015625,8096.15771484375,0.0,1139.5323486328125,5553.3369140625,3161.837646484375,-2872.27099609375,-7542.40673828125,11852.310546875,1846.0423583984375,8300.39453125,12723.796875,8966.640625,14201.072265625,3629.627197265625,8077.1494140625,2620.605712890625,0.0,3211.899169921875,10310.3046875,5705.623046875,6265.0400390625,17847.9140625,4391.8798828125,-5413.7783203125,6291.015625,4213.16943359375,23913.65234375,4547.224609375,10082.8984375,-8636.783203125,-11239.5087890625,5773.69921875,4343.4560546875,7926.86083984375,3182.960205078125,5005.93994140625,2698.98046875,-3847.68408203125,6992.10400390625,6337.7197265625,7176.19873046875,-15840.6435546875,-0.0,-0.0,7993.189453125,5439.7734375,-5751.3623046875,0.0,10329.3076171875
-5365.39208984375,-10639.91015625,5539.419921875,7078.125,13228.6513671875,12491.267578125,12521.4423828125,10903.994140625,11908.8603515625,8467.0556640625,14423.0986328125,0.0,11404.8916015625,0.0,10067.5048828125,14351.544921875,23889.04296875,10758.583984375,6537.369140625,4230.56884765625,2209.126953125,13435.744140625,11737.6005859375,8091.73681640625,0.0,1134.994384765625,5554.0283203125,3152.244873046875,-2883.056396484375,-7551.06982421875,11850.8525390625,1846.9755859375,8296.44921875,12720.109375,8962.81640625,14198.482421875,3627.71875,8074.4150390625,2592.725341796875,0.0,3208.725341796875,10307.36328125,5705.83154296875,6260.0224609375,17849.77734375,4391.30224609375,-5418.5302734375,6293.083984375,4211.97021484375,23907.236328125,4551.16015625,10074.087890625,-8639.4033203125,-11270.837890625,5769.27734375,4353.07275390625,7929.63818359375,3173.07470703125,5013.3095703125,2698.989013671875,-3830.0458984375,6990.955078125,6338.25146484375,7175.521484375,-15828.765625,-0.0,-0.0,7987.123046875,5457.49853515625,-5757.97705078125,0.0,10321.892578125
-5368.9541015625,-10666.6494140625,5525.3173828125,7070.7509765625,13221.583984375,12482.2890625,12518.818359375,10898.607421875,11913.765625,8456.0234375,14407.5029296875,0.0,11391.3857421875,0.0,10071.509765625,14353.1640625,23877.44921875,10749.009765625,6532.76171875,4229.11572265625,2197.646240234375,13427.052734375,11731.5712890625,8082.9931640625,0.0,1124.657470703125,5551.546875,3144.62158203125,-2899.37158203125,-7568.3349609375,11839.53125,1836.5435791015625,8284.1337890625,12710.38671875,8955.6787109375,14188.583984375,3622.68701171875,8068.00830078125,2585.6748046875,0.0,3197.382568359375,10297.943359375,5701.28369140625,6253.11376953125,17847.82421875,4385.82080078125,-5417.7705078125,6285.7080078125,4204.9169921875,23895.6796875,4549.390625,10071.8076171875,-8658.1806640625,-11291.6845703125,5754.525390625,4333.19775390625,7926.05322265625,3162.5458984375,5020.38037109375,2685.784912109375,-3835.188232421875,6981.8056640625,6333.7080078125,7171.244140625,-15835.3818359375,-0.0,-0.0,7981.0927734375,5485.67333984375,-5769.6767578125,0.0,10308.7470703125
-5389.04638671875,-10679.634765625,5531.44775390625,7082.86767578125,13228.5185546875,12493.4189453125,12522.287109375,10910.95703125,11909.484375,8459.7412109375,14420.259765625,0.0,11396.6767578125,0.0,10068.861328125,14376.7197265625,23886.025390625,10758.54296875,6539.5419921875,4229.07275390625,2204.543212890625,13438.1416015625,11738.34765625,8092.39990234375,0.0,1134.0950927734375,5555.083984375,3159.940673828125,-2885.95849609375,-7561.2216796875,11847.6865234375,1842.2064208984375,8290.078125,12722.0126953125,8963.6923828125,14197.2265625,3628.906005859375,8076.64453125,2599.505126953125,0.0,3204.447021484375,10310.884765625,5705.7353515625,6262.208984375,17850.181640625,4396.43017578125,-5414.84521484375,6299.3896484375,4209.4619140625,23905.498046875,4550.23291015625,10091.998046875,-8662.9912109375,-11279.6025390625,5763.4501953125,4331.892578125,7927.4560546875,3182.4775390625,5014.42529296875,2693.6982421875,-3829.683837890625,6988.056640625,6338.24853515625,7169.9228515625,-15832.3515625,-0.0,-0.0,8001.4306640625,5457.5009765625,-5755.43896484375,0.0,10314.8916015625
-5373.6181640625,-10655.4931640625,5542.2861328125,7101.8583984375,13234.767578125,12506.7412109375,12525.2138671875,10922.7177734375,11908.15625,8461.826171875,14443.375,0.0,11397.8203125,0.0,10070.1494140625,14394.37890625,23896.54296875,10768.1611328125,6545.96142578125,4229.7001953125,2213.482666015625,13450.4873046875,11744.46484375,8102.298828125,0.0,1149.4635009765625,5560.35302734375,3179.569580078125,-2882.919677734375,-7541.11865234375,11858.8974609375,1856.5274658203125,8300.572265625,12735.8212890625,8974.1328125,14209.244140625,3632.74072265625,8085.20263671875,2593.80126953125,0.0,3214.344970703125,10325.0,5712.1044921875,6275.58447265625,17853.1328125,4402.79052734375,-5400.0048828125,6318.17236328125,4214.8779296875,23924.982421875,4553.63671875,10107.337890625,-8672.3408203125,-11295.3095703125,5764.33447265625,4353.89794921875,7927.95703125,3205.81884765625,5010.49365234375,2706.2958984375,-3824.365234375,6995.5166015625,6342.8046875,7168.04931640625,-15825.880859375,-0.0,-0.0,8016.5322265625,5445.076171875,-5751.93310546875,0.0,10314.8740234375
-5381.365234375,-10659.38671875,5534.71337890625,7102.9130859375,13230.2138671875,12507.1572265625,12522.1318359375,10923.330078125,11906.107421875,8450.7177734375,14437.9345703125,0.0,11392.6181640625,0.0,10063.6044921875,14395.2568359375,23893.9609375,10764.6015625,6543.6220703125,4225.1005859375,2210.815185546875,13447.6142578125,11740.7451171875,8098.85107421875,0.0,1149.86669921875,5555.7578125,3183.508544921875,-2885.1181640625,-7532.53466796875,11855.541015625,1852.675537109375,8296.908203125,12733.7490234375,8972.2822265625,14207.70703125,3630.361572265625,8083.73828125,2600.231201171875,0.0,3210.38671875,10323.31640625,5707.07666015625,6275.9833984375,17850.533203125,4399.79443359375,-5398.84619140625,6318.25732421875,4209.7880859375,23930.1875,4549.04541015625,10108.736328125,-8676.0126953125,-11305.0419921875,5756.18701171875,4359.14306640625,7921.15478515625,3207.14306640625,5008.6474609375,2711.173095703125,-3828.169189453125,6992.66943359375,6338.80078125,7162.7080078125,-15835.5908203125,-0.0,-0.0,8006.03515625,5450.150390625,-5762.8720703125,0.0,10306.3779296875
-5381.77978515625,-10655.5263671875,5542.60546875,7109.296875,13239.169921875,12518.3076171875,12530.7431640625,10934.943359375,11914.927734375,8463.0087890625,14437.494140625,0.0,11397.0400390625,0.0,10069.36328125,14407.0615234375,23899.138671875,10773.2939453125,6553.896484375,4234.46484375,2219.4736328125,13455.494140625,11749.359375,8110.5751953125,0.0,1159.76220703125,5561.447265625,3194.476806640625,-2872.104736328125,-7523.94091796875,11863.5751953125,1851.7706298828125,8302.7744140625,12738.8173828125,8979.4716796875,14217.1220703125,3640.543701171875,8094.4541015625,2618.33544921875,0.0,3215.295654296875,10333.3291015625,5715.654296875,6285.79931640625,17860.92578125,4411.5986328125,-5412.77978515625,6324.7119140625,4216.3291015625,23942.267578125,4557.17041015625,10121.1044921875,-8637.1435546875,-11284.6357421875,5763.7333984375,4363.29736328125,7924.296875,3217.84619140625,5021.49365234375,2725.82763671875,-3807.0625,7001.66162109375,6347.99560546875,7170.4814453125,-15830.703125,-0.0,-0.0,8007.27099609375,5463.3125,-5752.853515625,0.0,10313.23046875
-5378.80517578125,-10658.2314453125,5543.48291015625,7105.39892578125,13238.6826171875,12515.998046875,12532.44921875,10933.9560546875,11917.572265625,8467.3984375,14434.560546875,0.0,11397.0078125,0.0,10075.353515625,14397.3505859375,23898.82421875,10771.9345703125,6554.77978515625,4237.7470703125,2219.416748046875,13455.6982421875,11749.6298828125,8110.443359375,0.0,1158.4366455078125,5562.81982421875,3189.8642578125,-2878.02880859375,-7527.3369140625,11863.4208984375,1853.318359375,8303.8974609375,12736.83203125,8978.552734375,14216.1484375,3641.514892578125,8093.56201171875,2612.93359375,0.0,3214.746826171875,10330.13671875,5717.8369140625,6284.82080078125,17863.916015625,4409.34619140625,-5424.97412109375,6320.9970703125,4218.015625,23941.02734375,4562.18603515625,10116.5283203125,-8612.896484375,-11291.03515625,5760.75439453125,4354.3759765625,7926.96240234375,3213.12353515625,5028.07763671875,2717.51708984375,-3800.923583984375,7001.07080078125,6349.31201171875,7173.04541015625,-15827.3955078125,-0.0,-0.0,8017.26220703125,5470.59228515625,-5751.59912109375,0.0,10313.9921875
-5407.30908203125,-10685.77734375,5544.93603515625,7102.28564453125,13241.103515625,12514.80859375,12535.87890625,10929.404296875,11916.076171875,8469.4736328125,14438.9140625,0.0,11399.359375,0.0,10078.04296875,14385.3583984375,23900.796875,10773.564453125,6556.68701171875,4240.34130859375,2220.995361328125,13457.751953125,11753.10546875,8109.16796875,0.0,1155.3782958984375,5565.34765625,3182.75927734375,-2875.094482421875,-7525.7333984375,11864.703125,1855.7218017578125,8305.51953125,12738.0478515625,8980.25390625,14217.2724609375,3643.450439453125,8094.7763671875,2606.745849609375,-0.0,3217.625732421875,10329.533203125,5719.11962890625,6283.23291015625,17865.66796875,4411.79931640625,-5417.57763671875,6318.1318359375,4221.58837890625,23936.533203125,4564.06396484375,10106.24609375,-8635.27734375,-11293.068359375,5761.2216796875,4356.77978515625,7930.88525390625,3206.827880859375,5024.55712890625,2725.86865234375,-3803.733154296875,7004.4326171875,6350.25244140625,7174.25341796875,-15825.48046875,-0.0,-0.0,8033.18505859375,5456.50048828125,-5740.71923828125,0.0,10319.873046875
-5406.7060546875,-10669.517578125,5554.7265625,7112.3076171875,13249.7412109375,12522.7236328125,12543.060546875,10936.595703125,11922.2265625,8482.6904296875,14446.646484375,0.0,11408.0029296875,0.0,10079.544921875,14394.3935546875,23911.16796875,10783.3974609375,6565.74072265625,4247.68603515625,2228.881103515625,13466.578125,11762.8857421875,8118.61181640625,0.0,1161.5509033203125,5571.2890625,3187.265380859375,-2861.421142578125,-7519.8212890625,11875.2587890625,1869.2484130859375,8315.8876953125,12747.9287109375,8989.8271484375,14227.3759765625,3651.924072265625,8103.6826171875,2615.822998046875,-0.0,3227.19091796875,10340.3544921875,5726.18994140625,6288.85400390625,17872.208984375,4422.61865234375,-5401.142578125,6326.765625,4229.02734375,23942.58984375,4568.98388671875,10113.6669921875,-8642.716796875,-11297.560546875,5765.8017578125,4375.50927734375,7937.23486328125,3211.577392578125,5027.4736328125,2739.975341796875,-3809.80517578125,7015.80517578125,6357.87451171875,7179.81787109375,-15819.1083984375,-0.0,-0.0,8042.05908203125,5451.08935546875,-5727.47412109375,0.0,10329.6865234375
-5383.5009765625,-10640.48046875,5560.4365234375,7110.65087890625,13250.09375,12524.099609375,12540.498046875,10935.880859375,11920.634765625,8476.8681640625,14440.732421875,0.0,11413.0732421875,0.0,10078.0283203125,14398.203125,23916.126953125,10785.0341796875,6563.4658203125,4241.1650390625,2230.634521484375,13467.865234375,11761.49609375,8118.7578125,0.0,1162.166259765625,5571.32275390625,3189.310791015625,-2869.7314453125,-7515.4990234375,11877.8203125,1877.174072265625,8321.0302734375,12752.2509765625,8988.6826171875,14226.880859375,3651.021484375,8102.72705078125,2619.67919921875,-0.0,3230.475341796875,10339.408203125,5724.4560546875,6289.7060546875,17870.666015625,4417.51708984375,-5407.2763671875,6324.61083984375,4227.29931640625,23945.32421875,4567.474609375,10115.6318359375,-8625.7451171875,-11275.08203125,5763.43701171875,4384.169921875,7937.1259765625,3216.198974609375,5026.50341796875,2726.993896484375,-3816.5009765625,7014.4423828125,6355.33251953125,7173.4755859375,-15826.201171875,-0.0,-0.0,8045.71044921875,5447.09130859375,-5734.91748046875,0.0,10322.6044921875
-5387.49560546875,-10638.8017578125,5563.0576171875,7101.0732421875,13247.142578125,12520.3955078125,12538.2705078125,10931.56640625,11917.912109375,8474.021484375,14430.0146484375,0.0,11412.1796875,0.0,10080.5400390625,14394.08984375,23911.0078125,10781.888671875,6559.85400390625,4238.306640625,2228.26318359375,13463.2939453125,11758.3466796875,8114.2158203125,0.0,1160.3819580078125,5570.4052734375,3187.373046875,-2876.6298828125,-7513.71728515625,11873.21875,1872.20849609375,8317.03125,12746.5537109375,8984.65625,14222.3359375,3646.980224609375,8098.7177734375,2601.1806640625,0.0,3230.327392578125,10333.1953125,5721.6298828125,6287.00830078125,17867.8984375,4414.6767578125,-5409.02001953125,6316.19970703125,4225.41162109375,23942.412109375,4564.1474609375,10111.416015625,-8638.0732421875,-11264.03515625,5765.77685546875,4379.98486328125,7937.583984375,3215.447509765625,5025.982421875,2723.021728515625,-3810.295654296875,7009.669921875,6352.74853515625,7171.79736328125,-15836.9375,-0.0,-0.0,8044.130859375,5446.76708984375,-5737.26708984375,0.0,10317.5146484375
-5393.48974609375,-10649.669921875,5557.15869140625,7095.12353515625,13244.498046875,12513.4658203125,12540.5458984375,10927.3125,11919.1572265625,8476.9560546875,14421.125,0.0,11407.697265625,0.0,10091.353515625,14386.8544921875,23903.55078125,10775.798828125,6556.568359375,4242.0419921875,2224.065673828125,13456.025390625,11754.9404296875,8108.548828125,0.0,1154.10595703125,5572.76025390625,3181.428466796875,-2874.578125,-7521.37548828125,11866.5107421875,1868.822509765625,8310.935546875,12741.17578125,8981.1494140625,14216.3017578125,3646.477783203125,8093.728515625,2601.44482421875,0.0,3226.261474609375,10327.095703125,5722.65087890625,6280.80615234375,17868.431640625,4412.7060546875,-5408.96142578125,6311.02197265625,4225.7099609375,23933.7578125,4570.5380859375,10104.5888671875,-8659.9677734375,-11293.69921875,5766.2666015625,4366.94580078125,7940.6630859375,3205.804931640625,5035.4765625,2716.67822265625,-3816.509033203125,7004.3876953125,6352.87744140625,7177.06884765625,-15836.853515625,-0.0,-0.0,8026.3662109375,5471.48779296875,-5746.4775390625,0.0,10315.458984375
-5403.328125,-10664.6259765625,5548.35888671875,7083.39599609375,13241.517578125,12503.966796875,12540.1953125,10920.2158203125,11919.36328125,8473.6884765625,14424.015625,0.0,11406.7216796875,0.0,10101.5771484375,14380.5849609375,23896.556640625,10769.619140625,6550.6748046875,4242.37890625,2218.320556640625,13447.9130859375,11751.1259765625,8101.556640625,0.0,1139.4071044921875,5576.8388671875,3173.603515625,-2877.757568359375,-7540.91943359375,11858.6298828125,1859.1121826171875,8303.8837890625,12734.14453125,8974.6640625,14207.099609375,3642.9619140625,8088.5810546875,2602.34765625,-0.0,3219.31884765625,10316.587890625,5721.501953125,6272.00732421875,17866.373046875,4406.67041015625,-5404.65966796875,6300.92626953125,4224.3359375,23920.92578125,4576.69189453125,10096.7607421875,-8656.1376953125,-11289.291015625,5761.544921875,4345.95947265625,7946.1064453125,3195.0439453125,5032.7138671875,2704.93896484375,-3814.85302734375,6997.41943359375,6349.73193359375,7179.36572265625,-15834.515625,-0.0,-0.0,8013.8994140625,5496.390625,-5755.0947265625,0.0,10317.826171875
-5393.712890625,-10656.8564453125,5557.20751953125,7102.40283203125,13249.638671875,12514.451171875,12542.9912109375,10931.42578125,11915.728515625,8478.5732421875,14441.111328125,0.0,11422.1689453125,0.0,10099.248046875,14396.5439453125,23909.203125,10780.5322265625,6558.568359375,4244.54541015625,2227.86328125,13460.8701171875,11759.283203125,8111.0859375,0.0,1150.6669921875,5581.234375,3185.9755859375,-2865.201904296875,-7534.8486328125,11869.4462890625,1871.015380859375,8314.060546875,12746.6826171875,8983.78125,14218.7529296875,3647.660888671875,8097.38623046875,2601.824462890625,-0.0,3229.0947265625,10329.771484375,5727.52783203125,6283.30126953125,17868.3984375,4414.48583984375,-5394.66015625,6319.00439453125,4230.60791015625,23932.123046875,4575.32763671875,10110.1689453125,-8630.3662109375,-11286.0791015625,5772.7802734375,4345.11767578125,7954.54345703125,3203.161865234375,5026.86328125,2714.848876953125,-3793.567626953125,7006.76220703125,6353.6953125,7182.0283203125,-15825.5234375,-0.0,-0.0,8023.1298828125,5459.95751953125,-5737.62646484375,0.0,10334.0322265625
-5412.234375,-10640.5390625,5582.15234375,7137.9150390625,13263.0947265625,12534.47265625,12550.87109375,10946.5859375,11921.025390625,8484.802734375,14456.8828125,0.0,11433.8408203125,0.0,10103.5390625,14417.0927734375,23930.71875,10795.9990234375,6570.68603515625,4249.54736328125,2246.29638671875,13480.201171875,11770.919921875,8126.69482421875,0.0,1176.83154296875,5587.1826171875,3205.44091796875,-2851.3759765625,-7517.81103515625,11888.583984375,1887.764892578125,8334.90625,12769.578125,8999.455078125,14238.0302734375,3658.8623046875,8111.31201171875,2638.68408203125,0.0,3248.170654296875,10354.4755859375,5739.95947265625,6300.96044921875,17875.42578125,4426.19775390625,-5380.45751953125,6353.60693359375,4243.353515625,23953.693359375,4579.962890625,10129.3857421875,-8617.1572265625,-11291.0625,5790.75537109375,4369.0322265625,7962.7509765625,3222.84375,5034.2646484375,2726.81005859375,-3793.539794921875,7022.84423828125,6362.65185546875,7184.1748046875,-15806.650390625,-0.0,-0.0,8029.99658203125,5452.92138671875,-5729.02001953125,0.0,10340.80859375
-5429.66015625,-10623.546875,5587.384765625,7129.84521484375,13260.3154296875,12533.7021484375,12545.9541015625,10945.5927734375,11923.5478515625,8477.9375,14447.2080078125,0.0,11426.162109375,0.0,10103.1640625,14424.3271484375,23932.970703125,10794.10546875,6567.390625,4246.50927734375,2244.47998046875,13478.611328125,11769.0166015625,8124.94482421875,0.0,1175.096435546875,5583.68701171875,3207.30224609375,-2860.64013671875,-7521.37255859375,11887.4306640625,1888.5928955078125,8336.611328125,12767.8505859375,8996.1201171875,14234.6015625,3654.65234375,8108.68212890625,2656.5458984375,0.0,3247.929443359375,10350.5107421875,5735.25,6299.6650390625,17872.27734375,4422.17919921875,-5368.06298828125,6344.96728515625,4241.07958984375,23952.89453125,4575.01171875,10134.455078125,-8631.7607421875,-11258.666015625,5792.462890625,4374.89501953125,7960.9833984375,3227.705322265625,5024.27099609375,2719.248046875,-3788.615966796875,7021.470703125,6360.6884765625,7180.05859375,-15800.9326171875,-0.0,-0.0,8021.40869140625,5458.13671875,-5743.87353515625,0.0,10331.9697265625
-5368.666015625,-10610.0576171875,5577.65869140625,7118.5986328125,13251.314453125,12526.013671875,12533.0263671875,10938.43359375,11912.287109375,8466.998046875,14442.359375,0.0,11409.0849609375,0.0,10082.990234375,14420.515625,23926.919921875,10787.396484375,6557.5703125,4234.73388671875,2235.68408203125,13471.400390625,11759.126953125,8117.0107421875,0.0,1167.14404296875,5570.046875,3204.116455078125,-2871.654541015625,-7521.28173828125,11879.3701171875,1888.125,8328.611328125,12761.64453125,8987.6435546875,14226.3759765625,3644.12109375,8098.9755859375,2649.42919921875,-0.0,3238.72119140625,10341.94921875,5722.51953125,6294.68603515625,17861.37109375,4412.5693359375,-5358.83740234375,6334.548828125,4231.42822265625,23948.703125,4558.55810546875,10129.0830078125,-8654.4169921875,-11249.484375,5776.298828125,4367.9609375,7941.40625,3222.192626953125,5014.03369140625,2706.9267578125,-3790.802001953125,7013.0576171875,6349.60888671875,7166.39697265625,-15810.00390625,-0.0,-0.0,8015.71630859375,5430.92041015625,-5754.26708984375,0.0,10314.9140625
-5397.17431640625,-10609.337890625,5574.21826171875,7118.24169921875,13248.685546875,12523.837890625,12529.025390625,10932.7333984375,11909.1083984375,8467.64453125,14455.14453125,0.0,11399.2685546875,0.0,10071.9375,14405.3251953125,23922.638671875,10783.5498046875,6553.65478515625,4232.63818359375,2233.410400390625,13467.6396484375,11754.48046875,8113.73828125,0.0,1165.3834228515625,5564.12890625,3199.251708984375,-2874.6357421875,-7518.9736328125,11875.89453125,1882.9530029296875,8326.705078125,12758.04296875,8985.779296875,14224.53515625,3640.575927734375,8096.46875,2651.65478515625,-0.0,3237.484130859375,10340.56640625,5719.58642578125,6289.001953125,17859.060546875,4410.82470703125,-5349.83154296875,6334.47607421875,4230.75537109375,23950.28515625,4553.73681640625,10119.064453125,-8662.0888671875,-11264.2294921875,5756.17626953125,4381.2109375,7924.462890625,3215.451904296875,5010.552734375,2715.129638671875,-3812.9443359375,7009.06982421875,6347.38427734375,7163.06298828125,-15808.9248046875,-0.0,-0.0,8024.9619140625,5436.28662109375,-5746.65234375,0.0,10313.357421875
-5459.7607421875,-10629.591796875,5563.0595703125,7099.45458984375,13242.0595703125,12512.4755859375,12525.2470703125,10923.2080078125,11909.1923828125,8469.69140625,14453.3095703125,0.0,11395.4775390625,0.0,10066.3681640625,14383.265625,23913.90625,10775.13671875,6547.509765625,4233.6865234375,2224.4013671875,13456.15625,11749.3173828125,8103.0751953125,0.0,1151.6590576171875,5559.78173828125,3183.083251953125,-2877.998779296875,-7528.11328125,11866.2734375,1875.2276611328125,8318.6826171875,12746.8994140625,8977.4794921875,14213.9228515625,3634.009521484375,8089.11865234375,2645.09716796875,-0.0,3229.101318359375,10327.978515625,5713.3212890625,6276.98681640625,17856.43359375,4406.77587890625,-5373.923828125,6315.71826171875,4225.89990234375,23938.013671875,4551.31201171875,10104.009765625,-8661.43359375,-11269.4716796875,5752.3671875,4378.3544921875,7916.65087890625,3197.53515625,5005.630859375,2719.306884765625,-3804.52001953125,6997.93310546875,6343.7890625,7166.08740234375,-15815.3515625,-0.0,-0.0,8020.52099609375,5446.685546875,-5744.1923828125,0.0,10312.109375
-5378.6923828125,-10612.2607421875,5554.63134765625,7101.6494140625,13241.927734375,12512.6962890625,12527.09765625,10926.732421875,11917.177734375,8482.33203125,14451.8212890625,0.0,11393.962890625,0.0,10058.8984375,14381.71484375,23914.955078125,10775.4267578125,6551.5771484375,4243.25341796875,2224.2841796875,13457.900390625,11751.71484375,8104.2880859375,0.0,1150.415283203125,5559.83251953125,3183.476806640625,-2876.833984375,-7529.14697265625,11866.515625,1877.7352294921875,8315.2197265625,12747.9052734375,8977.5966796875,14215.306640625,3638.369140625,8093.9560546875,2640.195068359375,-0.0,3225.354248046875,10329.2861328125,5713.671875,6279.4580078125,17859.884765625,4413.3818359375,-5386.39990234375,6318.4296875,4224.15087890625,23939.00390625,4553.3251953125,10105.55859375,-8635.5927734375,-11253.376953125,5759.85498046875,4373.16552734375,7917.1015625,3198.025634765625,5018.0224609375,2730.2841796875,-3800.18212890625,6996.34912109375,6348.3740234375,7176.12744140625,-15821.9501953125,-0.0,-0.0,8038.01904296875,5453.5244140625,-5736.365234375,0.0,10321.111328125
-5327.2353515625,-10578.5205078125,5551.1103515625,7095.25927734375,13240.18359375,12513.865234375,12526.5302734375,10929.8974609375,11920.1474609375,8482.7705078125,14439.44140625,0.0,11391.380859375,0.0,10057.8701171875,14390.95703125,23911.970703125,10774.1103515625,6553.46142578125,4244.6845703125,2222.4287109375,13458.3642578125,11750.978515625,8105.3740234375,0.0,1152.321044921875,5558.845703125,3184.71240234375,-2880.9521484375,-7523.63916015625,11864.296875,1875.1639404296875,8310.7431640625,12744.7255859375,8977.6337890625,14214.5712890625,3640.758056640625,8095.09033203125,2608.42236328125,-0.0,3221.02001953125,10327.0849609375,5714.75537109375,6281.20751953125,17861.705078125,4414.06591796875,-5403.12109375,6311.58984375,4221.85595703125,23938.228515625,4553.13720703125,10110.7294921875,-8615.9091796875,-11234.796875,5765.39892578125,4370.5517578125,7919.1474609375,3207.7001953125,5026.302734375,2735.162353515625,-3809.109619140625,6995.9619140625,6351.77587890625,7176.95263671875,-15823.673828125,-0.0,-0.0,8059.169921875,5455.560546875,-5730.85009765625,0.0,10331.8291015625
-5302.6455078125,-10593.7431640625,5542.19287109375,7085.4521484375,13234.3779296875,12509.67578125,12526.6220703125,10927.9111328125,11917.064453125,8469.5576171875,14437.3330078125,0.0,11390.71875,0.0,10062.271484375,14397.3837890625,23904.806640625,10769.583984375,6550.443359375,4237.76953125,2216.599365234375,13452.501953125,11747.587890625,8100.7861328125,0.0,1145.9232177734375,5557.4453125,3182.92041015625,-2882.20751953125,-7521.84130859375,11858.69140625,1866.306884765625,8303.55078125,12738.720703125,8973.44921875,14210.39453125,3637.40966796875,8089.787109375,2589.357666015625,-0.0,3212.470947265625,10321.96875,5711.62744140625,6278.0703125,17858.220703125,4407.4892578125,-5411.525390625,6301.6787109375,4217.85009765625,23931.265625,4552.859375,10111.244140625,-8617.9814453125,-11244.201171875,5769.2392578125,4366.1435546875,7921.9658203125,3213.400390625,5023.9150390625,2725.4990234375,-3802.221435546875,6992.79345703125,6346.95458984375,7167.07861328125,-15822.345703125,-0.0,-0.0,8044.7421875,5455.99267578125,-5746.0751953125,0.0,10320.1611328125
-5272.359375,-10600.375,5537.33544921875,7094.34716796875,13236.9755859375,12516.1416015625,12531.591796875,10937.2958984375,11923.208984375,8471.869140625,14440.86328125,0.0,11394.640625,0.0,10067.271484375,14411.4873046875,23908.052734375,10772.55859375,6555.7119140625,4242.8427734375,2219.823974609375,13457.123046875,11751.8330078125,8107.67333984375,0.0,1147.3289794921875,5561.11669921875,3193.773681640625,-2878.5205078125,-7524.1796875,11862.4248046875,1867.504150390625,8304.888671875,12743.0458984375,8977.505859375,14216.6171875,3641.85986328125,8096.087890625,2614.287841796875,-0.0,3213.5615234375,10327.6513671875,5715.8408203125,6286.33642578125,17862.990234375,4414.6669921875,-5403.04833984375,6309.6533203125,4218.271484375,23939.3515625,4558.796875,10125.0390625,-8614.3486328125,-11254.0,5764.77294921875,4371.17626953125,7925.1376953125,3222.99755859375,5027.85693359375,2737.863037109375,-3810.033203125,6997.79248046875,6351.48486328125,7170.3701171875,-15817.0029296875,-0.0,-0.0,8043.1328125,5462.244140625,-5744.62841796875,0.0,10325.6064453125
-5331.517578125,-10622.6083984375,5540.4052734375,7096.3974609375,13236.4306640625,12515.2451171875,12527.703125,10936.58984375,11918.2705078125,8469.2802734375,14436.7744140625,0.0,11397.078125,0.0,10064.32421875,14408.1552734375,23908.591796875,10773.4150390625,6553.33154296875,4235.93212890625,2220.046875,13454.4765625,11750.34765625,8106.8369140625,0.0,1146.9210205078125,5558.6875,3192.320556640625,-2878.66455078125,-7523.646484375,11863.419921875,1862.176513671875,8306.677734375,12742.7470703125,8976.3642578125,14215.03515625,3639.449462890625,8095.54296875,2617.913330078125,-0.0,3214.76708984375,10327.126953125,5714.5068359375,6285.5400390625,17860.181640625,4413.05517578125,-5406.57763671875,6310.35595703125,4216.38232421875,23939.701171875,4553.88671875,10123.9580078125,-8615.23828125,-11292.0341796875,5755.951171875,4375.58251953125,7920.40283203125,3221.07470703125,5023.685546875,2739.4833984375,-3816.14599609375,6996.0927734375,6349.09130859375,7163.61181640625,-15818.79296875,-0.0,-0.0,8036.12744140625,5456.2548828125,-5736.615234375,0.0,10328.70703125
-5395.1025390625,-10669.5673828125,5543.0068359375,7093.6005859375,13233.5947265625,12507.6123046875,12525.978515625,10923.712890625,11914.9853515625,8462.875,14441.4248046875,0.0,11401.794921875,0.0,10069.390625,14386.7744140625,23905.21875,10768.9365234375,6547.4755859375,4230.78515625,2217.942626953125,13448.2666015625,11746.98828125,8100.12109375,0.0,1141.843505859375,5558.70361328125,3178.24169921875,-2878.47021484375,-7525.24609375,11860.40234375,1859.6083984375,8306.0673828125,12739.71875,8972.724609375,14209.0595703125,3634.3232421875,8088.822265625,2610.617431640625,-0.0,3215.790283203125,10322.3701171875,5710.4296875,6275.06396484375,17854.5859375,4402.5732421875,-5408.4853515625,6309.59521484375,4215.6611328125,23929.189453125,4553.8740234375,10107.16796875,-8619.0791015625,-11329.7392578125,5754.6513671875,4377.75244140625,7924.7041015625,3201.767578125,5021.72998046875,2717.162109375,-3802.877685546875,6990.62109375,6342.896484375,7163.0244140625,-15825.798828125,-0.0,-0.0,8006.4462890625,5466.6396484375,-5750.09228515625,0.0,10320.3701171875
-5398.51513671875,-10678.166015625,5538.634765625,7082.00146484375,13230.263671875,12494.9716796875,12525.486328125,10912.3193359375,11922.6953125,8459.453125,14429.74609375,0.0,11396.15234375,0.0,10079.2841796875,14374.935546875,23898.4765625,10763.2900390625,6543.4169921875,4232.79736328125,2212.290771484375,13440.0146484375,11742.31640625,8091.03515625,0.0,1123.509033203125,5559.93310546875,3165.314208984375,-2889.761962890625,-7542.591796875,11851.3017578125,1856.8099365234375,8299.21484375,12730.7412109375,8966.4384765625,14198.1689453125,3631.272705078125,8080.8623046875,2596.0419921875,-0.0,3213.87451171875,10310.234375,5709.337890625,6264.9248046875,17855.205078125,4396.16748046875,-5432.208984375,6298.1044921875,4213.4560546875,23915.642578125,4558.60791015625,10095.4521484375,-8643.0771484375,-11314.2060546875,5752.1337890625,4355.0400390625,7930.5908203125,3186.888671875,5031.7333984375,2693.424072265625,-3812.466064453125,6984.34765625,6339.9013671875,7169.42724609375,-15840.4208984375,-0.0,-0.0,7995.248046875,5507.37060546875,-5768.7587890625,0.0,10306.32421875
-5369.80419921875,-10632.41796875,5543.5517578125,7085.19384765625,13232.3154296875,12498.5478515625,12522.677734375,10913.875,11914.8779296875,8451.9453125,14425.48828125,0.0,11389.267578125,0.0,10069.9580078125,14382.1923828125,23902.494140625,10767.8310546875,6543.92529296875,4227.287109375,2215.43994140625,13445.0205078125,11743.23046875,8092.892578125,0.0,1130.66943359375,5557.501953125,3168.945068359375,-2889.0068359375,-7541.55615234375,11854.1337890625,1862.5242919921875,8303.54296875,12734.0498046875,8968.3740234375,14201.4443359375,3630.678466796875,8081.384765625,2607.290771484375,-0.0,3215.422607421875,10314.041015625,5709.083984375,6267.3271484375,17852.36328125,4395.0556640625,-5426.505859375,6300.37255859375,4214.99658203125,23920.173828125,4552.974609375,10096.85546875,-8643.990234375,-11301.6943359375,5750.693359375,4342.06005859375,7925.49658203125,3195.547607421875,5022.90771484375,2691.807373046875,-3813.973876953125,6988.33251953125,6337.3125,7161.8095703125,-15838.9619140625,-0.0,-0.0,8003.529296875,5484.12255859375,-5773.6474609375,0.0,10294.42578125
-5370.90673828125,-10627.640625,5559.86279296875,7110.9462890625,13244.3349609375,12517.6435546875,12527.59375,10929.02734375,11906.3642578125,8445.86328125,14442.3701171875,0.0,11398.609375,0.0,10064.8798828125,14403.751953125,23919.73046875,10781.748046875,6554.3251953125,4224.32080078125,2231.901123046875,13461.75,11754.388671875,8108.5244140625,0.0,1154.850341796875,5561.8759765625,3189.294677734375,-2872.99072265625,-7526.12109375,11870.880859375,1881.0477294921875,8321.130859375,12754.2119140625,8982.3291015625,14220.419921875,3638.025390625,8092.1689453125,2626.778564453125,-0.0,3231.0771484375,10335.21875,5717.1171875,6283.8681640625,17854.365234375,4404.06884765625,-5404.41357421875,6326.28955078125,4226.18701171875,23939.998046875,4554.66748046875,10114.5087890625,-8627.732421875,-11285.3232421875,5763.052734375,4363.75439453125,7926.94921875,3213.740234375,5013.37548828125,2704.177734375,-3789.232666015625,7000.7373046875,6341.94287109375,7152.9580078125,-15821.7958984375,-0.0,-0.0,8011.84033203125,5439.798828125,-5770.90185546875,0.0,10292.7412109375
-5420.25341796875,-10679.4541015625,5560.89990234375,7120.2890625,13244.111328125,12518.1787109375,12530.0595703125,10931.73828125,11910.4638671875,8449.720703125,14443.91015625,0.0,11394.248046875,0.0,10070.83984375,14409.0830078125,23921.837890625,10781.7783203125,6555.37841796875,4226.41015625,2232.461669921875,13461.4013671875,11753.880859375,8109.76806640625,0.0,1153.8382568359375,5562.59814453125,3192.40234375,-2876.76513671875,-7536.92822265625,11871.3193359375,1881.7000732421875,8322.3154296875,12757.080078125,8982.2666015625,14220.5029296875,3639.097412109375,8094.62109375,2629.5458984375,-0.0,3232.754150390625,10337.9150390625,5718.33740234375,6285.70751953125,17857.59375,4407.53369140625,-5397.64599609375,6332.35205078125,4225.2646484375,23941.96875,4559.93017578125,10121.365234375,-8650.0068359375,-11269.357421875,5751.2177734375,4356.93310546875,7927.1708984375,3214.361328125,5019.990234375,2710.018798828125,-3783.863037109375,6999.625,6343.85595703125,7150.10400390625,-15828.056640625,-0.0,-0.0,8012.78466796875,5454.21044921875,-5769.3935546875,0.0,10291.767578125
-5409.498046875,-10626.6103515625,5559.224609375,7105.583984375,13239.29296875,12513.2578125,12525.7783203125,10929.1201171875,11905.8984375,8455.357421875,14435.1181640625,0.0,11389.4345703125,0.0,10066.0888671875,14403.4169921875,23916.548828125,10775.5146484375,6551.0361328125,4225.7646484375,2227.385986328125,13455.904296875,11749.7734375,8104.32421875,0.0,1152.34521484375,5559.04345703125,3189.359130859375,-2875.760986328125,-7541.68359375,11865.708984375,1879.45263671875,8318.82421875,12748.501953125,8978.748046875,14214.9814453125,3635.18212890625,8092.4072265625,2635.45947265625,-0.0,3229.32666015625,10330.6826171875,5714.791015625,6281.74365234375,17853.287109375,4403.935546875,-5377.4140625,6318.80712890625,4221.12060546875,23939.05859375,4554.71142578125,10118.896484375,-8632.5068359375,-11290.2470703125,5747.02978515625,4355.07421875,7923.8369140625,3209.506103515625,5013.97119140625,2709.34228515625,-3800.52783203125,6994.2587890625,6341.634765625,7153.64599609375,-15838.009765625,-0.0,-0.0,8017.513671875,5439.87841796875,-5760.98046875,0.0,10296.3662109375
-5369.5966796875,-10612.705078125,5555.35546875,7091.64697265625,13236.751953125,12506.734375,12523.4755859375,10921.888671875,11906.1015625,8460.4755859375,14434.38671875,0.0,11394.6943359375,0.0,10070.68359375,14382.140625,23910.466796875,10771.24609375,6548.53662109375,4226.4755859375,2223.125244140625,13449.1767578125,11747.3671875,8099.61474609375,0.0,1143.7935791015625,5559.3740234375,3180.462890625,-2878.28662109375,-7539.90966796875,11861.1943359375,1873.1051025390625,8313.783203125,12741.5517578125,8976.1220703125,14208.6455078125,3634.235595703125,8088.02978515625,2627.193359375,-0.0,3226.876953125,10321.5380859375,5713.771484375,6274.80615234375,17852.23046875,4399.8837890625,-5382.4931640625,6307.48193359375,4218.4716796875,23932.71875,4554.52880859375,10103.298828125,-8588.8486328125,-11282.2548828125,5755.33837890625,4364.2822265625,7930.47607421875,3201.10107421875,5014.25390625,2699.923583984375,-3812.78515625,6989.26416015625,6341.84521484375,7155.61474609375,-15837.5673828125,-0.0,-0.0,8014.84765625,5441.8740234375,-5757.42919921875,0.0,10300.9404296875
-5385.74462890625,-10646.544921875,5553.009765625,7088.54541015625,13236.87890625,12503.060546875,12525.7373046875,10913.9521484375,11907.4541015625,8465.349609375,14438.171875,0.0,11397.2802734375,0.0,10079.0166015625,14370.693359375,23904.50390625,10768.9921875,6549.39111328125,4229.94677734375,2220.352294921875,13446.400390625,11746.4951171875,8097.62255859375,0.0,1139.0460205078125,5561.9013671875,3172.57470703125,-2885.616455078125,-7540.671875,11856.8369140625,1864.1619873046875,8309.0263671875,12737.5517578125,8975.3232421875,14205.4697265625,3634.93212890625,8086.3115234375,2621.987548828125,-0.0,3221.935302734375,10317.9853515625,5713.65087890625,6270.703125,17855.0625,4398.5146484375,-5382.3994140625,6303.37841796875,4219.56640625,23928.546875,4558.783203125,10090.970703125,-8614.1552734375,-11258.59765625,5757.1748046875,4361.8427734375,7936.8388671875,3197.93310546875,5022.00439453125,2698.7314453125,-3819.25830078125,6987.29736328125,6341.3896484375,7158.01611328125,-15833.640625,-0.0,-0.0,8015.44287109375,5452.76220703125,-5755.81494140625,0.0,10305.654296875
-5383.1044921875,-10635.4716796875,5561.07177734375,7096.6103515625,13245.46875,12514.599609375,12532.11328125,10925.416015625,11905.7158203125,8473.767578125,14445.509765625,0.0,11408.119140625,0.0,10075.498046875,14385.107421875,23916.720703125,10779.74609375,6557.8564453125,4235.744140625,2229.292236328125,13458.326171875,11755.8310546875,8108.18359375,0.0,1150.1290283203125,5567.59130859375,3186.4345703125,-2873.387451171875,-7523.24658203125,11866.5888671875,1875.9959716796875,8319.578125,12746.798828125,8986.1435546875,14218.9931640625,3643.30615234375,8097.28076171875,2628.413818359375,-0.0,3230.756591796875,10330.095703125,5721.33056640625,6284.00927734375,17860.236328125,4410.16845703125,-5383.61474609375,6311.89111328125,4227.90869140625,23943.1953125,4560.7119140625,10102.755859375,-8649.3115234375,-11266.3701171875,5773.6328125,4377.0966796875,7936.259765625,3213.160888671875,5020.224609375,2716.051513671875,-3808.982177734375,7000.71240234375,6350.01416015625,7165.5986328125,-15813.7509765625,-0.0,-0.0,8032.2587890625,5429.77587890625,-5741.18603515625,0.0,10316.6064453125
-5390.68408203125,-10671.2841796875,5558.4208984375,7104.119140625,13243.99609375,12516.7705078125,12531.455078125,10928.7509765625,11906.8076171875,8478.2880859375,14439.3056640625,0.0,11408.9453125,0.0,10073.0888671875,14389.0849609375,23919.36328125,10782.6083984375,6558.6328125,4240.34521484375,2230.36083984375,13461.34375,11756.71484375,8110.6240234375,0.0,1150.9345703125,5564.97119140625,3187.917236328125,-2873.99267578125,-7523.10498046875,11870.0078125,1883.225830078125,8319.7744140625,12753.9951171875,8986.1767578125,14221.7080078125,3643.595947265625,8099.14453125,2620.3251953125,-0.0,3230.492431640625,10334.0205078125,5720.47802734375,6286.67578125,17861.537109375,4415.0234375,-5403.515625,6320.8974609375,4226.4921875,23944.3125,4559.8955078125,10107.0830078125,-8662.8857421875,-11278.380859375,5774.1142578125,4374.9716796875,7929.9052734375,3212.47412109375,5015.2080078125,2727.20263671875,-3815.736328125,7006.4052734375,6353.1767578125,7170.43017578125,-15811.326171875,-0.0,-0.0,8034.76220703125,5429.1630859375,-5734.7509765625,0.0,10325.890625
-5390.93017578125,-10657.92578125,5560.216796875,7104.45849609375,13243.6767578125,12512.716796875,12535.0830078125,10928.0029296875,11916.5283203125,8479.525390625,14429.8173828125,0.0,11410.5849609375,0.0,10085.927734375,14393.3056640625,23915.51171875,10780.25390625,6559.98828125,4245.5791015625,2228.94970703125,13458.2958984375,11757.5810546875,8108.5478515625,0.0,1144.6871337890625,5568.5244140625,3184.962158203125,-2877.490234375,-7531.82568359375,11867.283203125,1883.0068359375,8315.8896484375,12752.4501953125,8985.4033203125,14217.890625,3645.3740234375,8099.71630859375,2589.901123046875,-0.0,3229.7939453125,10331.1650390625,5721.60888671875,6283.9697265625,17867.8359375,4415.87646484375,-5413.4609375,6319.90478515625,4227.52783203125,23935.681640625,4566.43505859375,10110.0615234375,-8663.2763671875,-11268.64453125,5768.55908203125,4362.81103515625,7936.314453125,3206.25927734375,5021.072265625,2730.50537109375,-3826.966796875,7005.77392578125,6355.16064453125,7176.88720703125,-15824.029296875,-0.0,-0.0,8033.66845703125,5462.66455078125,-5731.6962890625,0.0,10333.9111328125
-5363.34814453125,-10614.7197265625,5556.52783203125,7093.44970703125,13242.3720703125,12506.0810546875,12537.173828125,10927.2470703125,11926.3330078125,8480.189453125,14424.8818359375,0.0,11414.73828125,0.0,10101.3837890625,14390.58203125,23907.599609375,10775.146484375,6558.31884765625,4249.212890625,2223.67236328125,13451.9228515625,11755.224609375,8103.10888671875,0.0,1134.5701904296875,5575.0234375,3179.876220703125,-2876.321044921875,-7536.1728515625,11861.3486328125,1872.566650390625,8310.94921875,12742.8349609375,8981.83984375,14211.51953125,3645.991455078125,8097.24462890625,2591.123046875,-0.0,3227.2333984375,10322.8828125,5723.166015625,6279.759765625,17868.5390625,4414.63720703125,-5411.9677734375,6310.6201171875,4227.63671875,23926.900390625,4571.4599609375,10109.4833984375,-8643.638671875,-11277.9453125,5768.42578125,4345.19287109375,7945.8076171875,3200.290283203125,5023.974609375,2724.7919921875,-3810.629638671875,7002.47802734375,6356.78076171875,7186.44189453125,-15837.2666015625,-0.0,-0.0,8028.751953125,5482.3701171875,-5733.90966796875,0.0,10333.1318359375
-5364.1123046875,-10591.1787109375,5552.11279296875,7086.3955078125,13238.052734375,12500.0986328125,12530.9541015625,10920.337890625,11916.4296875,8468.919921875,14426.28125,0.0,11413.994140625,0.0,10100.8876953125,14377.3232421875,23900.423828125,10768.9296875,6551.560546875,4238.19384765625,2218.73095703125,13445.8046875,11749.716796875,8094.91162109375,0.0,1129.543701171875,5572.439453125,3169.241943359375,-2875.94140625,-7544.81298828125,11855.6533203125,1862.9775390625,8305.201171875,12736.39453125,8975.318359375,14203.3642578125,3638.8505859375,8088.89794921875,2600.49267578125,-0.0,3222.34423828125,10316.8544921875,5717.474609375,6271.7109375,17860.458984375,4404.638671875,-5398.62451171875,6304.45654296875,4222.57763671875,23920.98828125,4569.07373046875,10098.3623046875,-8642.4208984375,-11280.080078125,5766.24755859375,4341.390625,7944.7783203125,3191.217041015625,5016.99267578125,2713.118408203125,-3803.2490234375,6996.021484375,6346.6064453125,7175.78125,-15843.607421875,-0.0,-0.0,8017.90576171875,5457.62109375,-5748.23095703125,0.0,10315.9794921875
-5374.21142578125,-10625.486328125,5555.5087890625,7097.6513671875,13241.150390625,12507.875,12528.99609375,10921.5439453125,11906.021484375,8459.5654296875,14430.1796875,0.0,11408.6826171875,0.0,10082.8125,14377.306640625,23906.48046875,10773.44140625,6552.97216796875,4228.17431640625,2223.28076171875,13451.43359375,11751.60546875,8100.185546875,0.0,1141.7249755859375,5567.40771484375,3173.938720703125,-2870.655029296875,-7538.86767578125,11862.20703125,1866.403564453125,8309.416015625,12743.3154296875,8979.3486328125,14208.375,3640.33447265625,8091.07275390625,2598.6875,-0.0,3224.120849609375,10325.306640625,5716.62255859375,6274.67919921875,17857.845703125,4401.9599609375,-5392.14990234375,6313.44970703125,4222.3994140625,23929.443359375,4563.701171875,10098.244140625,-8669.7041015625,-11257.462890625,5767.27880859375,4363.814453125,7935.5185546875,3197.5048828125,5026.41455078125,2711.385986328125,-3796.56298828125,6998.68505859375,6342.63720703125,7159.8076171875,-15834.9296875,-0.0,-0.0,8016.96533203125,5435.41943359375,-5756.6650390625,0.0,10305.07421875
-5367.31201171875,-10685.462890625,5551.0859375,7111.267578125,13242.3232421875,12515.046875,12531.4853515625,10927.5947265625,11907.5146484375,8458.1962890625,14415.423828125,0.0,11406.3232421875,0.0,10074.0029296875,14392.60546875,23911.193359375,10779.392578125,6556.4765625,4227.94384765625,2226.226318359375,13456.63671875,11753.6962890625,8107.74609375,0.0,1152.9921875,5565.72314453125,3185.564453125,-2867.55810546875,-7526.45458984375,11867.4560546875,1869.500732421875,8314.06640625,12748.7900390625,8982.9921875,14217.537109375,3643.64306640625,8095.02685546875,2606.74951171875,-0.0,3224.310302734375,10334.4189453125,5718.3017578125,6283.00244140625,17858.830078125,4405.6826171875,-5389.78955078125,6327.61669921875,4222.75927734375,23940.84375,4564.86376953125,10107.9638671875,-8661.89453125,-11254.82421875,5769.32177734375,4377.17431640625,7929.1611328125,3210.15625,5033.61669921875,2711.107421875,-3790.445556640625,7003.53125,6344.43505859375,7157.7099609375,-15828.5166015625,-0.0,-0.0,8016.37841796875,5445.35888671875,-5760.10546875,0.0,10305.578125
-5360.818359375,-10648.318359375,5549.97412109375,7113.3134765625,13242.88671875,12517.0009765625,12533.4345703125,10931.966796875,11912.66015625,8457.3291015625,14411.7734375,0.0,11403.123046875,0.0,10074.8564453125,14406.83984375,23910.923828125,10781.21875,6556.76416015625,4229.99609375,2227.13232421875,13458.0888671875,11755.59375,8109.98681640625,0.0,1157.109375,5565.93701171875,3193.818603515625,-2870.57421875,-7524.1669921875,11865.89453125,1867.650390625,8313.4423828125,12745.52734375,8984.5068359375,14219.5234375,3644.698974609375,8096.79931640625,2596.538818359375,-0.0,3226.6279296875,10335.8349609375,5719.740234375,6287.41748046875,17861.841796875,4407.36181640625,-5409.4482421875,6330.0009765625,4223.71240234375,23945.701171875,4566.76708984375,10118.234375,-8643.1298828125,-11277.828125,5767.2080078125,4368.56884765625,7925.83935546875,3218.7275390625,5028.33447265625,2707.662841796875,-3799.734375,7007.95556640625,6345.54443359375,7159.49560546875,-15827.12890625,-0.0,-0.0,8012.21630859375,5468.03271484375,-5761.79443359375,0.0,10308.7646484375
-5351.7919921875,-10641.7744140625,5546.90673828125,7107.01416015625,13239.88671875,12514.0263671875,12529.7236328125,10930.546875,11918.3037109375,8458.4130859375,14419.953125,0.0,11398.658203125,0.0,10072.970703125,14410.294921875,23906.86328125,10778.9267578125,6554.62646484375,4232.0537109375,2223.69677734375,13456.615234375,11752.73828125,8109.24072265625,0.0,1154.0653076171875,5563.697265625,3195.50830078125,-2876.935546875,-7528.0791015625,11863.1064453125,1865.694091796875,8308.2509765625,12742.3671875,8981.5166015625,14215.7578125,3642.747314453125,8094.7568359375,2600.48193359375,-0.0,3222.7373046875,10330.4609375,5717.51904296875,6286.8828125,17861.525390625,4407.5751953125,-5419.8583984375,6324.60400390625,4221.341796875,23943.685546875,4561.66357421875,10119.3681640625,-8632.724609375,-11284.0185546875,5765.5322265625,4359.28515625,7926.98486328125,3223.164306640625,5020.8837890625,2705.248046875,-3803.95361328125,7007.27490234375,6345.2880859375,7163.8994140625,-15828.529296875,-0.0,-0.0,8010.115234375,5482.19482421875,-5766.17919921875,0.0,10306.7568359375
-5372.75732421875,-10654.0771484375,5542.19580078125,7095.53662109375,13233.234375,12506.5673828125,12524.13671875,10926.337890625,11922.5771484375,8461.646484375,14432.4443359375,0.0,11399.7041015625,0.0,10070.7197265625,14401.0185546875,23904.806640625,10772.7412109375,6550.9931640625,4235.96435546875,2217.40185546875,13449.4345703125,11747.3818359375,8105.48486328125,0.0,1141.79248046875,5559.11376953125,3188.697509765625,-2883.116455078125,-7533.62744140625,11858.8037109375,1866.8623046875,8303.90625,12738.84375,8976.3974609375,14211.158203125,3638.0068359375,8089.83837890625,2628.898193359375,-0.0,3215.263671875,10323.462890625,5712.27587890625,6282.23828125,17860.275390625,4406.3291015625,-5398.14013671875,6312.11669921875,4215.46142578125,23934.00390625,4555.33935546875,10111.19921875,-8625.1201171875,-11269.6337890625,5763.9169921875,4359.86376953125,7929.67138671875,3217.295166015625,5018.4609375,2706.52294921875,-3822.888671875,7004.171875,6344.45068359375,7165.2119140625,-15829.732421875,-0.0,-0.0,8011.29345703125,5487.1572265625,-5763.623046875,0.0,10305.51953125
-5395.70458984375,-10616.6181640625,5551.41943359375,7099.48828125,13239.08984375,12512.3037109375,12525.4853515625,10929.642578125,11916.603515625,8467.41796875,14460.7470703125,0.0,11401.923828125,0.0,10063.8447265625,14400.8896484375,23912.77734375,10779.451171875,6554.54931640625,4236.7197265625,2224.824462890625,13454.7041015625,11751.2568359375,8110.5625,0.0,1143.0728759765625,5560.099609375,3190.2958984375,-2871.526611328125,-7527.98046875,11865.6142578125,1879.1163330078125,8313.111328125,12746.7021484375,8982.0068359375,14216.2587890625,3640.152587890625,8094.015625,2652.826904296875,-0.0,3222.57861328125,10327.5859375,5714.75146484375,6285.70703125,17859.439453125,4409.46435546875,-5379.4150390625,6314.279296875,4219.70849609375,23936.482421875,4551.638671875,10112.6142578125,-8644.306640625,-11279.94140625,5769.6484375,4372.8720703125,7925.95068359375,3216.272705078125,5015.4599609375,2714.83984375,-3828.451171875,7009.515625,6346.2880859375,7162.7529296875,-15814.5634765625,-0.0,-0.0,8024.0732421875,5451.7734375,-5750.5693359375,0.0,10313.89453125
-5394.28955078125,-10612.154296875,5558.5771484375,7111.580078125,13245.81640625,12520.1962890625,12528.5234375,10933.3642578125,11908.8818359375,8468.802734375,14463.4716796875,0.0,11403.3564453125,0.0,10061.150390625,14400.60546875,23920.8671875,10787.203125,6559.09912109375,4232.66455078125,2234.32666015625,13464.75390625,11755.501953125,8116.40283203125,0.0,1152.174072265625,5562.57666015625,3195.015869140625,-2861.75439453125,-7518.81640625,11874.357421875,1889.06103515625,8320.916015625,12757.669921875,8988.884765625,14222.8642578125,3643.543701171875,8099.05224609375,2649.34716796875,-0.0,3230.999755859375,10337.671875,5719.49072265625,6291.4248046875,17859.869140625,4410.52783203125,-5390.1318359375,6325.61083984375,4224.97412109375,23947.48046875,4554.4853515625,10115.3857421875,-8627.3564453125,-11272.580078125,5769.125,4388.01611328125,7925.8212890625,3222.37353515625,5015.60107421875,2719.698974609375,-3787.93017578125,7014.7119140625,6346.9599609375,7156.5966796875,-15806.5615234375,-0.0,-0.0,8037.5390625,5435.48046875,-5744.8388671875,0.0,10313.28125
-5396.2099609375,-10572.1181640625,5564.39599609375,7115.56640625,13251.283203125,12523.224609375,12533.5068359375,10934.9091796875,11911.5771484375,8471.7607421875,14455.6923828125,0.0,11410.771484375,0.0,10064.201171875,14392.33203125,23924.806640625,10789.6396484375,6561.89111328125,4235.62841796875,2240.124267578125,13469.3994140625,11761.138671875,8119.02783203125,0.0,1157.9971923828125,5567.189453125,3196.087158203125,-2860.705078125,-7509.72509765625,11877.5,1891.319091796875,8325.6650390625,12761.119140625,8993.2490234375,14227.5302734375,3648.48291015625,8102.197265625,2649.23046875,-0.0,3237.475830078125,10344.1025390625,5725.76318359375,6294.5419921875,17864.50390625,4413.623046875,-5407.01220703125,6329.56787109375,4233.7412109375,23951.3203125,4558.564453125,10114.5419921875,-8605.1328125,-11259.6103515625,5776.373046875,4388.49560546875,7931.6982421875,3224.595947265625,5020.79638671875,2725.557861328125,-3774.99658203125,7016.1826171875,6350.48583984375,7163.08154296875,-15803.642578125,-0.0,-0.0,8041.63623046875,5436.05615234375,-5741.7353515625,0.0,10314.791015625
-5383.16796875,-10594.4609375,5572.55615234375,7121.4248046875,13253.263671875,12521.0400390625,12535.9296875,10935.93359375,11912.470703125,8470.916015625,14450.3486328125,0.0,11415.1953125,0.0,10074.7099609375,14394.84765625,23921.0,10789.1201171875,6562.0224609375,4237.4521484375,2240.927490234375,13468.7138671875,11763.42578125,8117.716796875,0.0,1155.700927734375,5573.08154296875,3194.711669921875,-2862.77490234375,-7509.91552734375,11875.8212890625,1879.4775390625,8327.5361328125,12758.33984375,8993.728515625,14226.0703125,3649.810302734375,8102.0556640625,2650.332763671875,-0.0,3241.91650390625,10342.80078125,5728.45068359375,6293.697265625,17865.015625,4415.6494140625,-5383.19580078125,6335.1064453125,4239.2236328125,23947.841796875,4563.78466796875,10117.3779296875,-8631.4599609375,-11307.1259765625,5780.7919921875,4377.00732421875,7937.931640625,3218.880859375,5017.2197265625,2729.7392578125,-3779.602783203125,7012.12060546875,6350.37060546875,7166.6943359375,-15801.6943359375,-0.0,-0.0,8037.89404296875,5435.49658203125,-5744.44482421875,0.0,10320.5244140625
-5376.1923828125,-10703.3671875,5565.98486328125,7123.0107421875,13247.044921875,12516.916015625,12532.4130859375,10933.21484375,11910.0478515625,8454.1796875,14446.5068359375,0.0,11410.5322265625,0.0,10078.75,14399.7890625,23914.966796875,10781.228515625,6558.078125,4228.96142578125,2233.47705078125,13462.7333984375,11757.9453125,8110.97021484375,0.0,1147.558837890625,5570.68115234375,3190.64306640625,-2873.937744140625,-7517.8525390625,11869.3359375,1871.637939453125,8319.810546875,12754.06640625,8988.578125,14219.28515625,3644.67236328125,8097.82373046875,2632.840576171875,-0.0,3235.505126953125,10339.16796875,5723.1591796875,6288.53955078125,17861.28515625,4409.65869140625,-5391.9765625,6337.7646484375,4232.98974609375,23943.703125,4563.62744140625,10118.8857421875,-8628.0712890625,-11292.408203125,5769.50390625,4371.7998046875,7934.99609375,3214.408935546875,5017.83154296875,2726.492431640625,-3775.350341796875,7004.86083984375,6345.52783203125,7152.845703125,-15810.96875,-0.0,-0.0,8028.3740234375,5450.9189453125,-5759.28759765625,0.0,10301.693359375
-5405.99365234375,-10694.3203125,5550.96337890625,7092.505859375,13237.90625,12506.1376953125,12526.9521484375,10924.29296875,11911.365234375,8447.8984375,14449.3349609375,0.0,11405.498046875,0.0,10072.5517578125,14392.052734375,23905.546875,10771.79296875,6550.53369140625,4226.13037109375,2221.439453125,13449.1787109375,11750.78125,8102.40380859375,0.0,1134.3125,5563.8974609375,3182.24853515625,-2881.90380859375,-7529.20458984375,11858.490234375,1871.7933349609375,8309.2529296875,12741.99609375,8978.69140625,14209.4482421875,3637.72607421875,8091.03515625,2620.99658203125,-0.0,3223.255859375,10322.8056640625,5715.33349609375,6279.02685546875,17857.9765625,4402.42822265625,-5396.83056640625,6307.39306640625,4223.265625,23934.0390625,4557.81396484375,10110.9462890625,-8624.251953125,-11257.212890625,5762.57373046875,4364.93115234375,7926.142578125,3208.810546875,5023.73046875,2716.02734375,-3800.645263671875,6995.22998046875,6341.0888671875,7147.25537109375,-15822.0458984375,-0.0,-0.0,8020.3935546875,5462.8916015625,-5769.244140625,0.0,10286.7275390625
-5413.60498046875,-10620.615234375,5555.74462890625,7082.91943359375,13239.8857421875,12506.1416015625,12529.5107421875,10924.6337890625,11914.0576171875,8457.2529296875,14453.1123046875,0.0,11408.3037109375,0.0,10071.19140625,14386.775390625,23908.9140625,10775.630859375,6553.9833984375,4233.546875,2225.43359375,13449.896484375,11752.5517578125,8104.1708984375,0.0,1132.711669921875,5565.55224609375,3182.604736328125,-2873.84521484375,-7528.1064453125,11861.5966796875,1875.67626953125,8313.724609375,12741.5078125,8980.4609375,14210.986328125,3640.609619140625,8092.7255859375,2626.914794921875,-0.0,3226.20263671875,10319.5,5717.2001953125,6279.5126953125,17861.27734375,4403.62353515625,-5376.15771484375,6298.19140625,4224.13623046875,23933.92578125,4559.759765625,10108.0595703125,-8632.44921875,-11261.650390625,5769.53515625,4365.6337890625,7926.0283203125,3209.593994140625,5024.5078125,2713.095458984375,-3820.016357421875,6998.06884765625,6344.48876953125,7153.9228515625,-15821.615234375,-0.0,-0.0,8024.23046875,5459.73828125,-5762.55029296875,0.0,10298.375
-5399.21337890625,-10575.712890625,5556.42333984375,7090.984375,13241.2216796875,12508.9306640625,12530.5732421875,10924.2509765625,11915.2392578125,8463.06640625,14449.9404296875,0.0,11409.94140625,0.0,10074.1083984375,14386.796875,23912.779296875,10778.384765625,6556.14892578125,4236.26611328125,2229.728759765625,13454.98046875,11754.482421875,8106.5361328125,0.0,1139.3388671875,5568.69482421875,3184.031494140625,-2868.415771484375,-7525.591796875,11865.1845703125,1880.313232421875,8316.8134765625,12745.560546875,8983.078125,14213.314453125,3643.19775390625,8093.91796875,2623.329345703125,-0.0,3229.216796875,10324.1953125,5719.99755859375,6281.56103515625,17862.09765625,4404.5390625,-5393.90576171875,6308.18408203125,4225.47314453125,23937.6328125,4562.1875,10105.529296875,-8631.087890625,-11270.3515625,5773.869140625,4369.50537109375,7929.744140625,3213.840087890625,5019.65478515625,2708.95263671875,-3817.332275390625,7001.83251953125,6347.04931640625,7159.65185546875,-15820.4921875,-0.0,-0.0,8021.78564453125,5450.55517578125,-5759.3076171875,0.0,10303.8271484375
-5389.46337890625,-10554.828125,5544.92724609375,7083.5107421875,13235.84765625,12499.3515625,12525.0341796875,10917.1806640625,11916.95703125,8464.85546875,14442.06640625,0.0,11405.8662109375,0.0,10074.2919921875,14378.0546875,23903.953125,10769.90234375,6547.49755859375,4237.6572265625,2221.305419921875,13449.0146484375,11749.1494140625,8099.37158203125,0.0,1134.480712890625,5565.2578125,3176.724365234375,-2875.049560546875,-7536.611328125,11856.765625,1871.5052490234375,8306.537109375,12736.6513671875,8975.2333984375,14205.78515625,3639.301513671875,8087.30419921875,2587.94287109375,-0.0,3220.762939453125,10317.59375,5714.89501953125,6274.80029296875,17858.521484375,4402.40673828125,-5417.3056640625,6300.30908203125,4220.03955078125,23928.73828125,4559.64892578125,10095.6494140625,-8652.0888671875,-11314.0947265625,5757.95751953125,4362.00927734375,7930.7724609375,3204.9892578125,5017.3828125,2702.754150390625,-3800.70361328125,6996.22802734375,6344.45703125,7163.08203125,-15826.001953125,-0.0,-0.0,8013.10986328125,5457.56689453125,-5763.37841796875,0.0,10300.3095703125
-5361.119140625,-10603.2666015625,5535.83154296875,7091.7802734375,13229.740234375,12495.5791015625,12521.67578125,10916.1435546875,11917.7509765625,8457.9453125,14434.455078125,0.0,11404.365234375,0.0,10070.0087890625,14374.6943359375,23900.265625,10765.5078125,6543.77880859375,4236.66796875,2215.1904296875,13445.4912109375,11745.3896484375,8094.24755859375,0.0,1128.565185546875,5560.10205078125,3172.394287109375,-2880.416015625,-7543.56982421875,11852.056640625,1869.7515869140625,8299.4755859375,12733.9609375,8969.259765625,14201.5419921875,3635.914306640625,8083.783203125,2572.450439453125,-0.0,3213.300537109375,10317.4951171875,5710.89111328125,6270.73388671875,17857.0859375,4400.3818359375,-5416.81787109375,6308.388671875,4213.35107421875,23921.80078125,4555.953125,10093.2119140625,-8666.720703125,-11302.0517578125,5753.44091796875,4358.09765625,7927.06201171875,3194.56884765625,5019.65478515625,2705.20068359375,-3810.3681640625,6990.89990234375,6342.7919921875,7165.02197265625,-15830.1484375,-0.0,-0.0,8005.98583984375,5465.9765625,-5770.880859375,0.0,10300.1962890625
-5358.0302734375,-10643.8896484375,5541.4853515625,7108.11767578125,13232.822265625,12505.5380859375,12522.2578125,10923.49609375,11909.0908203125,8447.5888671875,14436.1376953125,0.0,11402.0263671875,0.0,10069.0634765625,14396.330078125,23907.033203125,10770.7646484375,6548.45458984375,4227.580078125,2219.709228515625,13451.2666015625,11747.8662109375,8100.2626953125,0.0,1138.67626953125,5559.41796875,3183.83154296875,-2872.671142578125,-7531.11572265625,11857.646484375,1877.18359375,8305.8251953125,12742.2705078125,8973.453125,14208.3798828125,3635.80419921875,8087.3232421875,2598.294921875,-0.0,3216.4853515625,10327.228515625,5712.44775390625,6279.2080078125,17854.701171875,4401.6240234375,-5405.7060546875,6323.23046875,4215.20166015625,23932.794921875,4555.1455078125,10110.21875,-8645.43359375,-11262.033203125,5752.49853515625,4368.92919921875,7925.9267578125,3206.31396484375,5017.5966796875,2711.432861328125,-3804.9072265625,6995.3583984375,6341.2880859375,7148.2421875,-15824.8154296875,-0.0,-0.0,8009.7939453125,5457.17724609375,-5773.53857421875,0.0,10292.3310546875
-5373.55126953125,-10623.5625,5549.28857421875,7106.47412109375,13240.2080078125,12512.7119140625,12526.5859375,10930.88671875,11904.9033203125,8448.1611328125,14440.5205078125,0.0,11402.4091796875,0.0,10075.794921875,14413.6923828125,23910.341796875,10774.7890625,6552.966796875,4225.03466796875,2224.27587890625,13455.4755859375,11752.873046875,8105.9521484375,0.0,1145.81640625,5565.42138671875,3194.958251953125,-2867.532958984375,-7521.52294921875,11861.6650390625,1876.030029296875,8310.734375,12745.0712890625,8978.9541015625,14214.1923828125,3639.877685546875,8094.22412109375,2616.06103515625,-0.0,3221.7275390625,10331.255859375,5717.0,6286.29443359375,17855.939453125,4405.89404296875,-5406.66943359375,6321.16455078125,4221.595703125,23942.357421875,4558.74267578125,10126.40625,-8619.6884765625,-11250.703125,5756.96435546875,4372.10009765625,7930.935546875,3215.6826171875,5016.57470703125,2713.988525390625,-3787.86669921875,7000.38818359375,6343.36376953125,7141.46044921875,-15823.8779296875,-0.0,-0.0,8019.38232421875,5452.54443359375,-5766.603515625,0.0,10293.2021484375
-5349.66357421875,-10591.3017578125,5550.4140625,7097.955078125,13241.587890625,12512.2080078125,12529.3154296875,10933.08984375,11909.3623046875,8457.9697265625,14432.884765625,0.0,11405.5283203125,0.0,10081.783203125,14410.0771484375,23909.490234375,10775.9443359375,6555.57373046875,4231.17724609375,2226.8857421875,13454.7099609375,11754.578125,8107.5048828125,0.0,1143.9644775390625,5570.40771484375,3193.984130859375,-2868.379150390625,-7523.3466796875,11862.181640625,1874.9583740234375,8312.25390625,12744.1083984375,8980.6318359375,14214.185546875,3643.797119140625,8097.7314453125,2622.99951171875,-0.0,3223.810302734375,10328.552734375,5719.18408203125,6286.46533203125,17860.7109375,4411.41943359375,-5399.4833984375,6312.94482421875,4226.8388671875,23941.025390625,4561.9443359375,10127.4296875,-8616.87109375,-11266.7939453125,5773.05419921875,4365.33935546875,7935.68701171875,3211.080078125,5017.67431640625,2716.79248046875,-3802.177978515625,7001.35107421875,6347.11328125,7154.83935546875,-15822.1083984375,-0.0,-0.0,8022.6025390625,5452.0068359375,-5756.02587890625,0.0,10307.9609375
-5344.16064453125,-10603.501953125,5560.27587890625,7105.46142578125,13245.103515625,12514.654296875,12532.509765625,10932.693359375,11911.634765625,8472.24609375,14435.8525390625,0.0,11413.0185546875,0.0,10083.0625,14396.94921875,23917.2734375,10779.4130859375,6560.23583984375,4238.49462890625,2233.735595703125,13459.525390625,11757.1171875,8111.41259765625,0.0,1147.1796875,5572.1474609375,3190.622802734375,-2862.83203125,-7515.28369140625,11868.6005859375,1880.312744140625,8320.37109375,12751.125,8986.4423828125,14218.59765625,3648.36767578125,8099.037109375,2631.75341796875,-0.0,3231.06396484375,10332.9951171875,5723.22021484375,6287.0302734375,17862.84765625,4415.9423828125,-5388.873046875,6319.03369140625,4231.95068359375,23941.861328125,4563.7890625,10118.609375,-8630.392578125,-11293.7666015625,5784.4482421875,4375.59716796875,7938.994140625,3210.456787109375,5016.43310546875,2722.052490234375,-3812.677001953125,7005.64794921875,6351.06787109375,7165.6318359375,-15814.17578125,-0.0,-0.0,8022.626953125,5439.2724609375,-5744.494140625,0.0,10325.578125
-5355.50341796875,-10640.8125,5557.3193359375,7103.2880859375,13241.6279296875,12508.904296875,12529.0263671875,10927.205078125,11910.5302734375,8473.8671875,14437.0361328125,0.0,11412.6650390625,0.0,10085.00390625,14389.2568359375,23913.97265625,10776.994140625,6555.88037109375,4238.439453125,2230.2041015625,13455.9453125,11752.8369140625,8107.21240234375,0.0,1143.0076904296875,5568.87451171875,3184.865478515625,-2870.42822265625,-7519.6318359375,11864.3212890625,1874.5518798828125,8316.6982421875,12748.5751953125,8983.2548828125,14213.5146484375,3645.494140625,8094.52099609375,2618.505615234375,-0.0,3229.537109375,10329.44921875,5720.60009765625,6281.97412109375,17860.947265625,4411.3505859375,-5396.08203125,6317.13818359375,4228.47265625,23936.65625,4562.71337890625,10109.361328125,-8637.767578125,-11286.75,5780.1455078125,4371.22216796875,7936.4443359375,3207.415771484375,5013.5947265625,2712.077392578125,-3804.59765625,7000.82373046875,6348.9814453125,7166.6904296875,-15815.1650390625,-0.0,-0.0,8020.1142578125,5444.91162109375,-5745.51806640625,0.0,10328.0888671875
-5349.072265625,-10649.3759765625,5550.095703125,7094.2685546875,13234.7275390625,12502.2060546875,12526.1123046875,10920.1220703125,11909.890625,8472.83203125,14429.8896484375,0.0,11407.4052734375,0.0,10082.58984375,14380.26171875,23908.16015625,10773.37109375,6550.892578125,4237.25537109375,2223.729736328125,13451.26171875,11748.0478515625,8100.94091796875,0.0,1137.0125732421875,5564.2841796875,3177.03125,-2875.8828125,-7528.92626953125,11857.85546875,1871.4678955078125,8310.4208984375,12743.9755859375,8976.6123046875,14208.07421875,3639.670654296875,8090.5205078125,2601.740478515625,-0.0,3223.96044921875,10323.6572265625,5716.26806640625,6275.353515625,17860.20703125,4407.5380859375,-5402.7421875,6308.81884765625,4223.15771484375,23929.484375,4560.72265625,10098.4970703125,-8633.1669921875,-11264.240234375,5767.99365234375,4360.859375,7931.50146484375,3201.88232421875,5014.6240234375,2709.96044921875,-3793.923583984375,6995.982421875,6345.890625,7163.1494140625,-15824.111328125,-0.0,-0.0,8014.30712890625,5457.693359375,-5753.63525390625,0.0,10321.0224609375
-5359.73193359375,-10639.4765625,5564.24658203125,7096.96826171875,13237.6630859375,12509.763671875,12528.41796875,10921.8955078125,11910.0927734375,8470.10546875,14436.966796875,0.0,11409.82421875,0.0,10076.73828125,14386.2890625,23915.013671875,10779.564453125,6553.8955078125,4237.0927734375,2228.290283203125,13456.716796875,11751.7705078125,8105.46240234375,0.0,1144.34130859375,5563.19482421875,3182.850341796875,-2864.759033203125,-7519.90966796875,11864.1962890625,1878.3446044921875,8317.1318359375,12749.3564453125,8980.388671875,14213.583984375,3642.17578125,8093.3720703125,2575.244140625,-0.0,3231.273193359375,10328.2890625,5718.46533203125,6279.3857421875,17861.625,4408.978515625,-5395.99462890625,6312.580078125,4223.39208984375,23937.080078125,4560.27392578125,10101.68359375,-8641.837890625,-11265.9248046875,5758.919921875,4370.69482421875,7929.99951171875,3212.45654296875,5019.7568359375,2714.923095703125,-3801.03369140625,7001.0,6347.00390625,7161.0810546875,-15833.8115234375,-0.0,-0.0,8017.9189453125,5456.82958984375,-5758.2958984375,0.0,10317.185546875
-5379.55419921875,-10652.93359375,5570.16064453125,7106.35791015625,13244.89453125,12519.8984375,12531.6171875,10934.5791015625,11911.4228515625,8462.0576171875,14437.2265625,0.0,11405.177734375,0.0,10077.880859375,14412.736328125,23921.759765625,10786.42578125,6560.65673828125,4238.0419921875,2234.271240234375,13463.6298828125,11756.8486328125,8114.30810546875,0.0,1153.4586181640625,5567.8955078125,3199.6904296875,-2862.262939453125,-7513.2041015625,11872.119140625,1887.443603515625,8322.8251953125,12755.822265625,8986.8134765625,14221.0849609375,3647.5771484375,8100.68212890625,2570.612548828125,-0.0,3235.75390625,10335.91796875,5722.36083984375,6291.2900390625,17863.7109375,4415.41357421875,-5393.43408203125,6321.80712890625,4227.89208984375,23951.078125,4562.388671875,10122.609375,-8647.56640625,-11296.587890625,5761.1669921875,4379.82958984375,7932.18896484375,3230.17724609375,5024.17431640625,2728.42529296875,-3800.06689453125,7008.26806640625,6350.45654296875,7160.033203125,-15837.5263671875,-0.0,-0.0,8024.1142578125,5460.0830078125,-5758.0341796875,0.0,10310.4091796875
-5386.1376953125,-10643.328125,5570.548828125,7119.916015625,13253.828125,12530.7958984375,12540.6572265625,10950.859375,11920.4794921875,8473.0126953125,14424.310546875,0.0,11412.263671875,0.0,10082.845703125,14433.1748046875,23931.029296875,10795.16796875,6569.56298828125,4245.6494140625,2242.63916015625,13472.76171875,11767.7978515625,8124.68212890625,0.0,1161.5885009765625,5574.791015625,3214.7431640625,-2861.150146484375,-7502.34228515625,11881.314453125,1899.0015869140625,8330.8583984375,12766.3203125,8996.0751953125,14231.765625,3655.8369140625,8112.7333984375,2635.188232421875,-0.0,3240.556396484375,10347.82421875,5730.57275390625,6304.10107421875,17871.50390625,4428.89794921875,-5393.11328125,6336.046875,4236.98779296875,23963.611328125,4568.21435546875,10140.48828125,-8641.072265625,-11280.5205078125,5780.46142578125,4389.64990234375,7937.2451171875,3243.10888671875,5032.63037109375,2746.92138671875,-3774.75341796875,7017.01953125,6361.3330078125,7164.13720703125,-15825.2900390625,-0.0,-0.0,8035.97998046875,5467.41796875,-5741.25146484375,0.0,10317.966796875
-5376.80517578125,-10620.5908203125,5577.52587890625,7125.69091796875,13256.224609375,12529.6611328125,12540.1318359375,10947.1396484375,11919.974609375,8477.5419921875,14431.607421875,0.0,11421.056640625,0.0,10083.685546875,14416.619140625,23934.078125,10796.0283203125,6568.49267578125,4245.3525390625,2246.107666015625,13473.1220703125,11769.62109375,8123.87744140625,0.0,1161.3011474609375,5574.84619140625,3209.313232421875,-2856.888427734375,-7501.12744140625,11883.2607421875,1901.183349609375,8335.447265625,12768.3671875,8997.404296875,14232.3837890625,3657.396728515625,8111.07666015625,2651.885009765625,-0.0,3246.058349609375,10350.1484375,5731.18310546875,6300.4384765625,17870.71875,4425.9658203125,-5408.2001953125,6341.62109375,4240.7119140625,23960.396484375,4568.83154296875,10133.7705078125,-8634.615234375,-11268.5302734375,5789.49658203125,4390.525390625,7937.63330078125,3235.797607421875,5029.333984375,2738.879150390625,-3779.52587890625,7015.92236328125,6361.650390625,7168.68115234375,-15813.52734375,-0.0,-0.0,8038.13916015625,5455.6982421875,-5736.03662109375,0.0,10325.7314453125
-5388.38525390625,-10682.3212890625,5567.88232421875,7120.14013671875,13248.73828125,12514.673828125,12533.85546875,10930.4873046875,11915.541015625,8476.4794921875,14442.10546875,0.0,11414.93359375,0.0,10083.009765625,14385.4658203125,23925.62890625,10785.4296875,6560.060546875,4243.04931640625,2236.197509765625,13463.0693359375,11760.3505859375,8110.6806640625,0.0,1146.0087890625,5570.173828125,3187.395751953125,-2861.813232421875,-7527.9482421875,11872.3291015625,1891.20458984375,8326.30078125,12759.7763671875,8987.9658203125,14221.3857421875,3647.869873046875,8097.86181640625,2645.625244140625,-0.0,3237.513671875,10339.376953125,5724.513671875,6283.8046875,17863.236328125,4412.34033203125,-5408.55419921875,6335.24169921875,4234.0029296875,23944.4296875,4565.1162109375,10107.8505859375,-8614.6904296875,-11287.603515625,5785.29736328125,4376.58740234375,7934.0224609375,3210.7197265625,5021.37548828125,2718.60107421875,-3787.762451171875,7004.7001953125,6353.47705078125,7178.11328125,-15815.701171875,-0.0,-0.0,8021.61181640625,5449.20361328125,-5747.78076171875,0.0,10320.25
-5388.44775390625,-10660.3701171875,5558.8935546875,7105.62744140625,13242.396484375,12503.671875,12528.7880859375,10918.4111328125,11908.265625,8472.0478515625,14442.6083984375,0.0,11415.4208984375,0.0,10079.66015625,14373.65625,23915.482421875,10777.787109375,6551.3203125,4235.49951171875,2227.01416015625,13455.287109375,11754.09375,8100.75439453125,0.0,1133.5968017578125,5567.880859375,3175.32763671875,-2861.22802734375,-7548.6123046875,11862.3154296875,1878.380615234375,8317.63671875,12750.9833984375,8981.2431640625,14212.7978515625,3641.45947265625,8089.45947265625,2648.94091796875,-0.0,3229.74658203125,10327.86328125,5718.6943359375,6273.6748046875,17858.517578125,4402.85400390625,-5388.72900390625,6319.9990234375,4231.06103515625,23932.080078125,4560.68359375,10090.33203125,-8614.4375,-11280.4931640625,5782.57568359375,4362.37890625,7932.71240234375,3195.18994140625,5015.71923828125,2701.068115234375,-3768.494873046875,6998.79833984375,6345.484375,7169.1708984375,-15809.396484375,-0.0,-0.0,8026.11474609375,5438.228515625,-5749.81201171875,0.0,10311.146484375
-5386.92578125,-10605.2919921875,5550.81396484375,7086.072265625,13234.2236328125,12492.5986328125,12524.013671875,10906.9912109375,11904.056640625,8455.7138671875,14450.8076171875,0.0,11413.0205078125,0.0,10082.330078125,14359.7841796875,23902.96484375,10769.435546875,6543.46142578125,4225.5537109375,2218.549560546875,13445.2255859375,11746.2783203125,8092.5078125,0.0,1121.065673828125,5564.9384765625,3166.145263671875,-2865.325927734375,-7560.1015625,11852.4609375,1864.042236328125,8308.3955078125,12737.0947265625,8974.03125,14202.1513671875,3637.808837890625,8081.208984375,2615.6787109375,-0.0,3220.24365234375,10314.314453125,5713.087890625,6263.2119140625,17853.947265625,4392.8349609375,-5411.87353515625,6300.4658203125,4223.52880859375,23919.591796875,4557.578125,10079.115234375,-8611.25390625,-11315.89453125,5772.00439453125,4351.11083984375,7934.24169921875,3185.142333984375,5015.80078125,2688.629150390625,-3794.4423828125,6992.822265625,6336.95361328125,7150.8935546875,-15814.4365234375,-0.0,-0.0,8017.8623046875,5451.580078125,-5757.15380859375,0.0,10301.5126953125
-5412.11376953125,-10647.2333984375,5554.11474609375,7088.138671875,13240.765625,12497.0263671875,12533.0615234375,10914.69921875,11917.3203125,8456.6337890625,14461.1220703125,0.0,11416.69140625,0.0,10092.5439453125,14370.5439453125,23909.236328125,10775.6005859375,6551.89208984375,4234.53076171875,2222.8701171875,13448.5029296875,11751.134765625,8098.59765625,0.0,1125.8619384765625,5572.97314453125,3169.8525390625,-2866.072021484375,-7558.82275390625,11858.0849609375,1870.6815185546875,8313.0380859375,12741.681640625,8981.083984375,14205.119140625,3644.704833984375,8087.8642578125,2613.787109375,-0.0,3223.08203125,10317.734375,5720.6240234375,6270.056640625,17862.052734375,4402.56298828125,-5401.44775390625,6302.296875,4227.52099609375,23924.0625,4567.8876953125,10088.458984375,-8596.3095703125,-11327.287109375,5772.8291015625,4355.837890625,7943.32275390625,3188.796142578125,5028.4580078125,2699.589111328125,-3797.54833984375,7001.46923828125,6345.1552734375,7161.4560546875,-15810.58984375,-0.0,-0.0,8014.71435546875,5483.162109375,-5758.82373046875,0.0,10304.078125
-5372.640625,-10591.4814453125,5564.26708984375,7098.57666015625,13250.6298828125,12509.443359375,12540.12890625,10928.00390625,11920.767578125,8464.513671875,14469.51953125,0.0,11421.3681640625,0.0,10091.8984375,14390.6484375,23920.658203125,10786.3623046875,6560.32958984375,4241.9794921875,2234.38330078125,13457.388671875,11761.1826171875,8110.28955078125,0.0,1133.7264404296875,5579.82177734375,3183.44775390625,-2859.759033203125,-7543.94921875,11868.515625,1885.363525390625,8323.0625,12752.3447265625,8992.2900390625,14216.01953125,3653.380859375,8098.0390625,2645.459716796875,-0.0,3233.995361328125,10328.380859375,5728.9560546875,6282.9326171875,17869.396484375,4412.587890625,-5366.32275390625,6312.0869140625,4238.11865234375,23933.6875,4573.30322265625,10107.7890625,-8621.6611328125,-11252.7216796875,5783.0390625,4367.39697265625,7947.6220703125,3197.45751953125,5030.748046875,2712.326904296875,-3773.184326171875,7015.37255859375,6353.8857421875,7165.18310546875,-15794.724609375,-0.0,-0.0,8029.134765625,5475.1484375,-5748.5869140625,0.0,10314.1875
-5339.34130859375,-10551.6953125,5557.6376953125,7088.8125,13243.5634765625,12505.166015625,12531.5595703125,10923.205078125,11910.642578125,8462.759765625,14463.544921875,0.0,11413.7578125,0.0,10079.69140625,14384.4453125,23915.75390625,10782.33984375,6554.28759765625,4236.484375,2229.627197265625,13452.908203125,11755.037109375,8105.7177734375,0.0,1129.292236328125,5569.162109375,3179.79443359375,-2865.626708984375,-7542.45849609375,11863.0,1883.3331298828125,8316.0576171875,12746.4072265625,8985.279296875,14211.873046875,3646.50244140625,8092.90283203125,2637.427001953125,-0.0,3229.45166015625,10323.6689453125,5720.49560546875,6276.9716796875,17862.31640625,4407.21337890625,-5388.21728515625,6304.48828125,4229.4267578125,23930.02734375,4564.1416015625,10104.6298828125,-8635.541015625,-11235.70703125,5771.04833984375,4353.23876953125,7939.12451171875,3193.382568359375,5021.560546875,2705.47900390625,-3783.37744140625,7011.0537109375,6348.65087890625,7161.06787109375,-15805.900390625,-0.0,-0.0,8015.34375,5453.32275390625,-5753.1787109375,0.0,10314.1552734375
-5347.19091796875,-10589.412109375,5556.36474609375,7087.037109375,13239.2314453125,12501.50390625,12527.9541015625,10919.478515625,11910.3544921875,8466.556640625,14452.0556640625,0.0,11405.9423828125,0.0,10073.4501953125,14379.302734375,23913.47265625,10777.873046875,6551.7080078125,4239.44384765625,2224.228271484375,13450.7021484375,11751.271484375,8102.04150390625,0.0,1132.539306640625,5564.14697265625,3174.695556640625,-2867.8330078125,-7546.1953125,11860.96875,1878.5108642578125,8311.833984375,12744.361328125,8979.759765625,14209.267578125,3642.740966796875,8090.93017578125,2605.1982421875,-0.0,3226.048583984375,10322.470703125,5716.03369140625,6274.064453125,17860.181640625,4406.3603515625,-5386.75341796875,6303.5869140625,4222.8447265625,23927.931640625,4559.3564453125,10098.796875,-8619.5263671875,-11251.71484375,5761.5625,4345.71240234375,7931.9951171875,3192.012939453125,5019.07275390625,2708.497802734375,-3815.1689453125,7007.306640625,6347.64013671875,7171.0830078125,-15821.1025390625,-0.0,-0.0,8009.44189453125,5447.955078125,-5757.4287109375,0.0,10315.748046875
-5340.75732421875,-10607.240234375,5552.6416015625,7100.28076171875,13236.689453125,12503.6416015625,12526.662109375,10920.56640625,11909.6826171875,8465.439453125,14443.931640625,0.0,11401.564453125,0.0,10070.3388671875,14380.98828125,23913.478515625,10777.2275390625,6551.2392578125,4237.84619140625,2224.340087890625,13451.4296875,11751.451171875,8102.537109375,0.0,1134.1748046875,5562.55419921875,3177.30419921875,-2870.45751953125,-7544.7587890625,11860.046875,1876.11865234375,8311.2783203125,12745.806640625,8977.8681640625,14211.8564453125,3642.92626953125,8091.435546875,2608.74951171875,-0.0,3223.985107421875,10326.33984375,5715.189453125,6276.73486328125,17860.6328125,4405.3427734375,-5367.06298828125,6315.60302734375,4220.861328125,23930.41015625,4556.638671875,10100.1728515625,-8638.4951171875,-11266.9638671875,5762.17236328125,4353.6630859375,7929.06689453125,3194.2109375,5016.30712890625,2714.236328125,-3823.51025390625,7006.1982421875,6346.08251953125,7168.55078125,-15827.033203125,-0.0,-0.0,8012.25634765625,5441.7177734375,-5756.50439453125,0.0,10314.3515625
-5364.99755859375,-10643.595703125,5547.2021484375,7108.48681640625,13237.7294921875,12505.638671875,12529.2373046875,10923.4560546875,11913.9990234375,8463.6484375,14434.4990234375,0.0,11404.212890625,0.0,10077.3779296875,14385.1015625,23913.349609375,10779.7294921875,6553.7021484375,4236.87939453125,2224.6455078125,13454.419921875,11751.15625,8105.65234375,0.0,1134.944580078125,5566.6337890625,3181.383056640625,-2878.9248046875,-7546.3330078125,11861.095703125,1877.458984375,8309.9443359375,12748.3251953125,8978.24609375,14213.328125,3644.55419921875,8094.1298828125,2615.7998046875,-0.0,3222.48828125,10330.078125,5717.5087890625,6280.2119140625,17862.66796875,4407.1865234375,-5387.458984375,6320.8623046875,4222.74365234375,23934.087890625,4562.22412109375,10102.595703125,-8653.5712890625,-11305.0947265625,5765.37646484375,4357.9462890625,7933.43896484375,3198.264404296875,5021.94580078125,2712.636962890625,-3818.9912109375,7007.517578125,6347.76171875,7163.1669921875,-15830.296875,-0.0,-0.0,8015.087890625,5455.68212890625,-5752.69580078125,0.0,10313.0068359375
-5401.91845703125,-10659.3916015625,5554.68701171875,7098.82080078125,13243.947265625,12508.2646484375,12536.595703125,10927.9306640625,11921.728515625,8467.693359375,14438.2412109375,0.0,11411.6728515625,0.0,10089.84375,14390.0986328125,23914.3828125,10782.177734375,6557.958984375,4242.19873046875,2229.353759765625,13454.6630859375,11755.4912109375,8109.30419921875,0.0,1130.3529052734375,5573.35205078125,3185.19580078125,-2879.727294921875,-7547.52685546875,11863.5859375,1875.4908447265625,8315.0693359375,12748.8232421875,8982.7421875,14213.888671875,3649.891357421875,8097.3115234375,2628.02392578125,-0.0,3228.962158203125,10327.2509765625,5724.52685546875,6284.5029296875,17868.513671875,4410.93359375,-5398.2666015625,6311.29541015625,4229.009765625,23935.892578125,4570.89111328125,10108.033203125,-8628.24609375,-11303.1884765625,5770.25341796875,4363.77978515625,7942.88525390625,3202.975341796875,5030.18994140625,2710.47314453125,-3817.642822265625,7009.61572265625,6353.1328125,7167.2060546875,-15826.44921875,-0.0,-0.0,8020.92236328125,5476.0810546875,-5752.2216796875,0.0,10315.7431640625
-5402.78857421875,-10646.701171875,5566.91650390625,7106.28369140625,13250.82421875,12516.2822265625,12540.6474609375,10931.4130859375,11915.97265625,8465.908203125,14448.7138671875,0.0,11421.232421875,0.0,10096.5771484375,14394.3212890625,23923.037109375,10789.49609375,6563.60546875,4242.5166015625,2240.31884765625,13460.765625,11763.2900390625,8114.99169921875,0.0,1137.2862548828125,5581.18505859375,3190.8466796875,-2870.0546875,-7538.20556640625,11872.01171875,1883.22314453125,8324.5107421875,12756.421875,8991.3828125,14221.162109375,3655.19921875,8103.57177734375,2635.339111328125,-0.0,3239.421875,10334.4326171875,5732.01708984375,6289.7216796875,17870.95703125,4412.68603515625,-5379.2900390625,6319.115234375,4237.73583984375,23943.623046875,4576.43310546875,10111.68359375,-8631.40625,-11287.9892578125,5779.9599609375,4379.341796875,7952.1396484375,3208.27734375,5030.02392578125,2711.021240234375,-3791.091064453125,7016.54541015625,6354.79296875,7167.45361328125,-15813.173828125,-0.0,-0.0,8020.74267578125,5450.7412109375,-5757.72216796875,0.0,10311.8466796875
-5374.88818359375,-10626.9072265625,5565.81103515625,7106.20654296875,13252.1767578125,12519.603515625,12540.630859375,10933.625,11907.3388671875,8463.2783203125,14449.1767578125,0.0,11419.970703125,0.0,10096.5263671875,14400.61328125,23925.822265625,10793.1484375,6563.228515625,4239.00830078125,2242.745361328125,13464.32421875,11765.427734375,8116.90185546875,0.0,1140.3404541015625,5582.4990234375,3193.882568359375,-2864.174560546875,-7534.1953125,11875.5810546875,1889.1259765625,8324.46484375,12759.103515625,8993.701171875,14223.89453125,3654.6201171875,8105.10400390625,2624.295654296875,-0.0,3241.13232421875,10335.9375,5732.44482421875,6291.3134765625,17868.326171875,4413.10107421875,-5389.67578125,6319.45166015625,4239.7529296875,23946.4453125,4576.58447265625,10114.9375,-8639.82421875,-11255.9482421875,5780.72509765625,4384.1171875,7951.10888671875,3215.76806640625,5027.388671875,2715.580810546875,-3779.600830078125,7020.09228515625,6354.1953125,7162.41552734375,-15807.3310546875,-0.0,-0.0,8024.76416015625,5430.66943359375,-5755.2724609375,0.0,10309.05078125
-5373.3505859375,-10604.28515625,5553.14892578125,7081.8505859375,13240.15625,12506.03125,12529.3095703125,10924.73828125,11899.251953125,8455.759765625,14436.212890625,0.0,11404.4169921875,0.0,10080.6630859375,14393.9453125,23911.173828125,10782.103515625,6552.31005859375,4229.4697265625,2229.474609375,13451.330078125,11754.7041015625,8105.376953125,0.0,1126.39599609375,5568.5419921875,3185.42333984375,-2875.757568359375,-7544.78662109375,11864.333984375,1875.5941162109375,8311.94921875,12743.3193359375,8982.2109375,14211.5244140625,3644.146728515625,8094.14208984375,2601.212158203125,-0.0,3227.903564453125,10319.3056640625,5719.1337890625,6280.57958984375,17859.25390625,4404.6474609375,-5410.0224609375,6296.17724609375,4227.64111328125,23934.80078125,4563.029296875,10108.1455078125,-8629.146484375,-11251.486328125,5768.1806640625,4368.44921875,7936.9580078125,3211.5283203125,5013.73388671875,2708.506591796875,-3807.80908203125,7010.61083984375,6344.65087890625,7152.2197265625,-15824.986328125,-0.0,-0.0,8017.865234375,5429.185546875,-5761.73779296875,0.0,10300.4169921875
-5364.79638671875,-10617.048828125,5553.681640625,7088.52001953125,13239.7509765625,12504.69921875,12525.7666015625,10919.4931640625,11902.8369140625,8456.9169921875,14431.703125,0.0,11401.4306640625,0.0,10070.6357421875,14380.9599609375,23911.67578125,10782.01953125,6550.2685546875,4229.40869140625,2229.511962890625,13451.91015625,11753.123046875,8104.2421875,0.0,1129.712646484375,5565.140625,3178.434326171875,-2877.52685546875,-7542.9921875,11865.044921875,1877.955078125,8311.7421875,12745.01953125,8981.1513671875,14211.8173828125,3642.121826171875,8093.23486328125,2611.07373046875,-0.0,3227.0078125,10322.5126953125,5717.18994140625,6277.76953125,17858.486328125,4403.82958984375,-5403.3779296875,6303.919921875,4226.0478515625,23931.16015625,4558.46142578125,10100.8447265625,-8632.1162109375,-11271.0869140625,5768.93310546875,4370.1328125,7930.39404296875,3206.6015625,5010.3310546875,2705.54638671875,-3817.1044921875,7013.06787109375,6343.0732421875,7152.57275390625,-15834.8681640625,-0.0,-0.0,8010.078125,5433.6923828125,-5760.505859375,0.0,10301.625
-5350.8388671875,-10617.8671875,5550.80029296875,7088.6298828125,13238.6533203125,12503.3359375,12525.556640625,10918.2041015625,11906.1904296875,8460.4287109375,14427.076171875,0.0,11400.5888671875,0.0,10066.1611328125,14377.806640625,23911.271484375,10781.2412109375,6549.02685546875,4231.11083984375,2228.572998046875,13451.0576171875,11750.953125,8103.5419921875,0.0,1128.0948486328125,5563.4296875,3174.303955078125,-2877.852294921875,-7545.36474609375,11863.4267578125,1876.5062255859375,8310.37890625,12744.1953125,8979.1298828125,14210.505859375,3641.183837890625,8092.7021484375,2607.579345703125,-0.0,3226.359619140625,10321.3310546875,5716.1455078125,6274.95166015625,17859.37890625,4404.11865234375,-5409.83642578125,6304.076171875,4224.3671875,23928.962890625,4557.6572265625,10095.642578125,-8641.8388671875,-11285.6337890625,5766.67333984375,4369.4375,7925.75634765625,3200.732666015625,5020.3359375,2703.874267578125,-3811.198486328125,7013.49853515625,6343.38623046875,7157.29052734375,-15837.94921875,-0.0,-0.0,8013.02685546875,5442.61865234375,-5756.6669921875,0.0,10307.5771484375
-5358.28125,-10624.96875,5543.9638671875,7087.64013671875,13233.2958984375,12498.357421875,12522.650390625,10916.1142578125,11903.4443359375,8454.7255859375,14420.6201171875,0.0,11397.828125,0.0,10064.154296875,14376.998046875,23903.8046875,10775.0576171875,6544.978515625,4228.734375,2222.25439453125,13445.2724609375,11745.9765625,8100.41015625,0.0,1121.792236328125,5559.18896484375,3172.7978515625,-2883.442626953125,-7547.23388671875,11856.734375,1868.976806640625,8304.708984375,12737.69921875,8974.5615234375,14204.9345703125,3637.294921875,8088.53369140625,2581.123779296875,-0.0,3218.880615234375,10317.5927734375,5710.7529296875,6270.14794921875,17856.166015625,4399.42138671875,-5422.6025390625,6302.3935546875,4218.06689453125,23925.83203125,4555.681640625,10092.6767578125,-8643.275390625,-11312.0751953125,5760.34130859375,4361.74658203125,7922.32421875,3193.27099609375,5018.66748046875,2702.8955078125,-3809.898193359375,7009.01708984375,6339.6650390625,7155.25244140625,-15850.41015625,-0.0,-0.0,8017.44482421875,5449.32275390625,-5765.2236328125,0.0,10303.544921875
-5386.09375,-10635.849609375,5549.31884765625,7102.1083984375,13235.828125,12504.4794921875,12524.4072265625,10918.3115234375,11903.400390625,8449.2578125,14416.65625,0.0,11406.732421875,0.0,10072.1611328125,14378.1181640625,23911.599609375,10778.2666015625,6548.05322265625,4228.994140625,2227.227783203125,13450.177734375,11749.5234375,8102.7158203125,0.0,1131.2578125,5563.27880859375,3176.28564453125,-2878.036865234375,-7539.80078125,11861.583984375,1877.2998046875,8310.232421875,12743.62109375,8977.5419921875,14210.1533203125,3638.433349609375,8090.70849609375,2608.271240234375,-0.0,3223.1171875,10324.720703125,5714.99560546875,6274.5615234375,17856.7109375,4399.138671875,-5415.91455078125,6318.416015625,4219.36962890625,23931.31640625,4559.34814453125,10096.8408203125,-8635.44140625,-11313.4619140625,5768.10888671875,4366.68115234375,7930.38671875,3189.87451171875,5019.49853515625,2708.05810546875,-3797.9384765625,7011.99365234375,6339.0986328125,7152.484375,-15847.435546875,-0.0,-0.0,8011.13623046875,5453.37158203125,-5773.56201171875,0.0,10296.4267578125
-5417.615234375,-10612.658203125,5566.6923828125,7110.8271484375,13244.4638671875,12512.970703125,12531.419921875,10929.2646484375,11906.1025390625,8453.4345703125,14419.552734375,0.0,11415.0244140625,0.0,10081.9892578125,14398.7919921875,23922.5859375,10788.0224609375,6557.1298828125,4233.56982421875,2236.626708984375,13458.66796875,11758.81640625,8111.384765625,0.0,1141.47802734375,5572.61865234375,3188.871337890625,-2871.826171875,-7528.4453125,11872.685546875,1886.291259765625,8322.80859375,12753.607421875,8986.826171875,14217.41796875,3645.189697265625,8098.48974609375,2631.964599609375,-0.0,3235.269775390625,10333.8251953125,5722.60791015625,6285.646484375,17861.5,4406.25732421875,-5392.6064453125,6327.2080078125,4228.02734375,23941.94921875,4566.4345703125,10111.033203125,-8614.5166015625,-11284.228515625,5774.23388671875,4380.7451171875,7942.869140625,3204.46435546875,5025.693359375,2714.99462890625,-3798.237060546875,7020.189453125,6345.154296875,7153.59033203125,-15830.015625,-0.0,-0.0,8013.83349609375,5445.7431640625,-5771.20703125,0.0,10298.3193359375
-5420.96240234375,-10603.0029296875,5587.81640625,7119.12158203125,13258.673828125,12523.515625,12542.875,10943.109375,11918.634765625,8466.337890625,14429.24609375,0.0,11420.107421875,0.0,10092.40625,14420.5302734375,23934.208984375,10799.8134765625,6567.984375,4244.06982421875,2249.074462890625,13469.8623046875,11770.681640625,8123.71826171875,0.0,1148.1199951171875,5583.7666015625,3205.450927734375,-2867.801513671875,-7512.65625,11882.7333984375,1896.6068115234375,8337.015625,12767.2744140625,9001.6240234375,14227.9580078125,3657.10400390625,8109.72119140625,2652.009033203125,-0.0,3252.472412109375,10344.3984375,5733.0078125,6299.0,17873.64453125,4417.66748046875,-5370.24365234375,6334.662109375,4241.31982421875,23951.958984375,4578.279296875,10130.03125,-8610.8759765625,-11257.267578125,5774.26611328125,4392.078125,7955.49609375,3229.323486328125,5034.52490234375,2722.221435546875,-3771.30859375,7031.28271484375,6356.99072265625,7163.82666015625,-15820.0224609375,-0.0,-0.0,8030.98828125,5455.478515625,-5759.94677734375,0.0,10309.263671875
-5399.798828125,-10593.98046875,5593.15576171875,7123.58154296875,13264.1162109375,12530.2900390625,12548.1884765625,10947.828125,11928.697265625,8472.5595703125,14444.1435546875,0.0,11423.185546875,0.0,10099.1513671875,14421.7275390625,23943.83203125,10805.638671875,6573.28173828125,4250.1298828125,2257.25634765625,13476.2177734375,11777.18359375,8128.736328125,0.0,1155.7025146484375,5588.27685546875,3214.41064453125,-2863.864501953125,-7503.4775390625,11888.513671875,1908.18896484375,8343.8486328125,12773.9150390625,9007.69140625,14234.892578125,3663.662353515625,8115.53662109375,2670.900390625,-0.0,3258.885498046875,10349.2236328125,5739.1123046875,6305.15283203125,17881.150390625,4422.7099609375,-5365.49755859375,6337.30078125,4246.732421875,23961.064453125,4581.4248046875,10135.0498046875,-8623.4326171875,-11266.3037109375,5776.42431640625,4396.05859375,7957.4130859375,3237.506103515625,5040.7529296875,2720.048583984375,-3761.47607421875,7038.17578125,6363.18115234375,7169.42236328125,-15809.19921875,-0.0,-0.0,8037.12841796875,5476.51416015625,-5749.7177734375,0.0,10310.306640625
-5367.19189453125,-10600.76171875,5580.29833984375,7114.1396484375,13256.462890625,12523.3837890625,12543.2236328125,10942.0537109375,11924.6416015625,8466.146484375,14449.9013671875,0.0,11415.9189453125,0.0,10100.978515625,14410.0791015625,23932.875,10798.4384765625,6567.33935546875,4246.94970703125,2248.332763671875,13469.1083984375,11771.341796875,8122.09765625,0.0,1151.938720703125,5585.7333984375,3207.274658203125,-2867.869384765625,-7504.81103515625,11880.9150390625,1897.8082275390625,8334.2490234375,12765.357421875,8999.5205078125,14228.4091796875,3658.277099609375,8110.10400390625,2649.634033203125,-0.0,3249.781005859375,10341.5888671875,5733.07861328125,6298.806640625,17875.3203125,4418.43505859375,-5380.81884765625,6328.4287109375,4240.27099609375,23957.099609375,4577.99755859375,10125.7490234375,-8634.80078125,-11272.5771484375,5779.5595703125,4391.1787109375,7947.58544921875,3233.926513671875,5026.0703125,2718.784423828125,-3782.857666015625,7032.5595703125,6358.36572265625,7166.541015625,-15808.38671875,-0.0,-0.0,8038.67724609375,5475.41357421875,-5747.9736328125,0.0,10306.62890625
-5330.99169921875,-10642.7314453125,5560.81201171875,7103.47216796875,13244.79296875,12511.8720703125,12536.05078125,10934.2392578125,11920.7119140625,8464.0029296875,14444.9169921875,0.0,11405.7216796875,0.0,10096.73046875,14401.1552734375,23916.482421875,10786.703125,6558.314453125,4241.8271484375,2234.62548828125,13456.1171875,11759.908203125,8113.06494140625,0.0,1141.7763671875,5577.79833984375,3196.159423828125,-2872.614990234375,-7521.39111328125,11866.9404296875,1880.788330078125,8318.4501953125,12751.4560546875,8986.9345703125,14218.6943359375,3650.292236328125,8101.8740234375,2612.109375,-0.0,3233.802001953125,10329.7041015625,5723.734375,6288.916015625,17868.46484375,4412.67822265625,-5400.55322265625,6317.42529296875,4228.29150390625,23945.1171875,4571.79638671875,10117.6748046875,-8647.7412109375,-11281.3779296875,5768.04833984375,4386.02001953125,7937.10986328125,3224.769287109375,5014.38134765625,2720.730712890625,-3784.97900390625,7022.1220703125,6352.49072265625,7164.91748046875,-15826.0517578125,-0.0,-0.0,8037.59326171875,5477.7958984375,-5749.0205078125,0.0,10308.373046875
-5318.49462890625,-10668.47265625,5554.94287109375,7104.88134765625,13241.3564453125,12512.6611328125,12528.6279296875,10933.962890625,11922.2236328125,8469.326171875,14460.3173828125,0.0,11402.6640625,0.0,10071.3896484375,14401.73046875,23914.81640625,10784.9892578125,6557.017578125,4245.66259765625,2232.68994140625,13454.87109375,11757.318359375,8112.37744140625,0.0,1141.919677734375,5564.61181640625,3195.95458984375,-2870.23876953125,-7527.333984375,11865.787109375,1884.2152099609375,8316.107421875,12750.0283203125,8983.06640625,14216.9619140625,3647.9921875,8100.6064453125,2608.61083984375,-0.0,3228.154541015625,10329.3447265625,5718.5712890625,6288.60205078125,17865.94140625,4414.30517578125,-5392.951171875,6317.24072265625,4223.1376953125,23946.935546875,4557.14013671875,10118.81640625,-8642.9580078125,-11326.81640625,5759.42431640625,4393.02099609375,7924.60986328125,3217.98388671875,5017.16748046875,2719.7392578125,-3777.732421875,7020.7744140625,6353.5439453125,7173.66455078125,-15827.052734375,-0.0,-0.0,8032.4189453125,5468.8427734375,-5746.88427734375,0.0,10318.650390625
-5325.57763671875,-10634.8515625,5555.88818359375,7104.66015625,13242.912109375,12513.419921875,12527.2177734375,10933.91796875,11920.3662109375,8472.48828125,14465.1181640625,0.0,11407.123046875,0.0,10062.3203125,14400.0947265625,23915.6796875,10785.9072265625,6559.04296875,4245.58056640625,2234.22412109375,13456.890625,11756.359375,8111.63330078125,0.0,1142.421875,5562.93408203125,3194.966064453125,-2868.28173828125,-7525.6533203125,11868.64453125,1889.245849609375,8318.0126953125,12754.4833984375,8984.119140625,14217.7978515625,3648.036376953125,8100.76318359375,2625.913818359375,-0.0,3228.718505859375,10331.357421875,5716.693359375,6290.2734375,17866.595703125,4414.8310546875,-5382.66748046875,6319.052734375,4223.27880859375,23947.79296875,4552.7998046875,10116.8818359375,-8615.7822265625,-11327.5068359375,5770.25927734375,4388.5361328125,7925.19677734375,3216.99853515625,5020.658203125,2713.55810546875,-3771.615234375,7020.43994140625,6353.1025390625,7176.70751953125,-15810.64453125,-0.0,-0.0,8025.3642578125,5450.85205078125,-5751.9482421875,0.0,10321.994140625
-5340.95654296875,-10601.00390625,5549.2392578125,7094.77685546875,13239.017578125,12508.0595703125,12526.5458984375,10928.234375,11915.587890625,8474.25,14455.7119140625,0.0,11411.9521484375,0.0,10067.830078125,14392.5322265625,23912.404296875,10781.2177734375,6556.041015625,4242.39404296875,2229.067138671875,13452.2802734375,11752.7412109375,8106.08642578125,0.0,1136.0205078125,5564.07470703125,3186.860595703125,-2870.20703125,-7530.669921875,11862.2578125,1883.9515380859375,8311.634765625,12749.4609375,8981.75390625,14212.3212890625,3645.40771484375,8097.447265625,2620.771240234375,-0.0,3222.29150390625,10325.666015625,5714.01025390625,6284.99755859375,17865.4453125,4412.01171875,-5383.708984375,6310.8271484375,4218.86328125,23941.849609375,4553.13623046875,10105.5029296875,-8613.7880859375,-11315.3681640625,5769.2255859375,4381.4677734375,7932.04931640625,3212.134765625,5025.84619140625,2709.57763671875,-3789.194580078125,7014.07861328125,6351.314453125,7170.521484375,-15809.66796875,-0.0,-0.0,8020.70458984375,5445.29638671875,-5755.36962890625,0.0,10318.005859375
-5366.06591796875,-10595.1259765625,5551.78955078125,7095.94580078125,13241.16796875,12510.953125,12529.97265625,10930.169921875,11919.66015625,8476.3095703125,14454.76953125,0.0,11413.162109375,0.0,10072.869140625,14395.8115234375,23915.005859375,10783.568359375,6559.130859375,4247.61669921875,2230.27880859375,13454.697265625,11755.0498046875,8108.60302734375,0.0,1139.989990234375,5567.4013671875,3189.7998046875,-2868.177490234375,-7527.42138671875,11864.033203125,1887.0311279296875,8312.41015625,12749.9560546875,8984.6015625,14213.0478515625,3647.919921875,8100.39990234375,2626.18408203125,-0.0,3226.503662109375,10327.2822265625,5717.48193359375,6287.125,17869.978515625,4415.89453125,-5391.8544921875,6312.40966796875,4223.578125,23945.1328125,4558.8857421875,10108.341796875,-8624.126953125,-11286.330078125,5775.0703125,4386.4482421875,7938.18115234375,3209.9462890625,5034.25146484375,2711.84521484375,-3795.15966796875,7014.91259765625,6356.037109375,7171.671875,-15810.509765625,-0.0,-0.0,8023.5859375,5460.11962890625,-5749.58837890625,0.0,10321.306640625
