-4742.1455078125,-10557.96875,6605.7841796875,9515.28515625,14832.01953125,15158.6533203125,13198.8525390625,12160.1416015625,12931.82421875,9058.31640625,16590.75390625,0.0,12152.1953125,0.0,11970.9970703125,15868.345703125,26491.484375,12296.8359375,7657.2099609375,5532.10595703125,4003.0478515625,14755.7255859375,12632.2109375,9280.8408203125,0.0,1462.3006591796875,6144.841796875,4172.3251953125,-851.9490356445312,-6968.18017578125,13234.615234375,3687.540771484375,9233.1572265625,15232.5634765625,9582.8369140625,15560.7861328125,5640.9833984375,9432.6337890625,4862.9443359375,-0.0,5090.23681640625,12051.2646484375,6913.34375,9432.6337890625,18838.248046875,6252.92431640625,-3124.078125,7410.84423828125,5507.46923828125,25199.255859375,5732.37744140625,11931.259765625,-7376.6708984375,-9916.623046875,7261.43505859375,3873.50732421875,8176.962890625,5474.88525390625,5556.7421875,5222.9560546875,2514.521240234375,8699.8935546875,7620.65283203125,7417.9970703125,-14244.7158203125,-0.0,-0.0,9886.423828125,6292.6611328125,-2987.384765625,0.0,12096.564453125
-4741.3505859375,-10594.52734375,6622.47314453125,9537.537109375,14846.3251953125,15175.3427734375,13210.7734375,12174.447265625,12937.38671875,9064.6748046875,16589.9609375,0.0,12170.4736328125,0.0,11980.533203125,15889.802734375,26498.63671875,12307.9619140625,7669.130859375,5539.25830078125,4014.96875,14770.8251953125,12644.9267578125,9294.3505859375,0.0,1483.75830078125,6156.7626953125,4193.78271484375,-839.2333984375,-6946.72265625,13247.3310546875,3681.182861328125,9241.8984375,15241.3056640625,9594.7578125,15574.2958984375,5654.49365234375,9445.349609375,4866.123046875,-0.0,5100.568359375,12067.9541015625,6926.8544921875,9449.322265625,18847.783203125,6264.05078125,-3109.77294921875,7431.50732421875,5522.5693359375,25222.30078125,5744.29833984375,11947.94921875,-7396.5390625,-9967.486328125,7275.740234375,3898.143798828125,8194.4462890625,5499.52197265625,5561.5107421875,5222.9560546875,2551.87353515625,8711.814453125,7630.98388671875,7433.09619140625,-14247.89453125,-0.0,-0.0,9885.62890625,6299.81396484375,-2993.74267578125,0.0,12094.1796875
-4727.84033203125,-10573.0693359375,6628.83154296875,9545.4853515625,14854.271484375,15181.701171875,13217.1318359375,12176.8310546875,12940.56640625,9065.46875,16593.93359375,0.0,12181.599609375,0.0,11990.0703125,15885.0341796875,26508.966796875,12314.3193359375,7670.720703125,5541.642578125,4025.300537109375,14779.5673828125,12649.6953125,9297.5302734375,0.0,1487.73193359375,6161.53076171875,4197.75634765625,-832.8755493164062,-6942.7490234375,13254.4833984375,3698.666748046875,9252.23046875,15253.2265625,9599.5263671875,15579.859375,5656.8779296875,9448.5283203125,4891.55419921875,-0.0,5106.130859375,12075.1064453125,6931.623046875,9451.70703125,18850.16796875,6264.05078125,-3123.283447265625,7442.63330078125,5529.7216796875,25227.0703125,5750.65625,11944.7705078125,-7379.85009765625,-9963.5126953125,7273.35595703125,3885.42822265625,8201.599609375,5493.958984375,5553.5634765625,5222.9560546875,2578.099609375,8715.7890625,7632.57373046875,7434.68603515625,-14243.919921875,-0.0,-0.0,9878.4765625,6306.96630859375,-3003.279541015625,0.0,12091.0009765625
-4768.37158203125,-10495.185546875,6639.16259765625,9544.6904296875,14859.0400390625,15181.701171875,13218.720703125,12181.599609375,12954.076171875,9077.3896484375,16616.185546875,0.0,12172.8583984375,0.0,11970.9970703125,15889.802734375,26519.298828125,12319.087890625,7676.283203125,5552.7685546875,4032.453125,14781.9521484375,12652.0791015625,9300.708984375,0.0,1486.9371337890625,6159.14697265625,4192.98779296875,-838.4386596679688,-6944.33837890625,13260.046875,3722.5087890625,9264.1513671875,15261.1728515625,9604.294921875,15583.8330078125,5661.646484375,9454.0908203125,4922.548828125,-0.0,5115.66796875,12075.1064453125,6934.00732421875,9452.501953125,18857.3203125,6271.20361328125,-3118.51513671875,7441.0439453125,5532.900390625,25220.712890625,5744.29833984375,11952.7177734375,-7340.908203125,-9919.0068359375,7278.91943359375,3862.380859375,8194.4462890625,5485.216796875,5567.07373046875,5242.02978515625,2597.9677734375,8721.3515625,7638.93115234375,7448.1962890625,-14235.1787109375,-0.0,-0.0,9884.833984375,6306.96630859375,-2996.921630859375,0.0,12104.51171875
-4793.00830078125,-10521.412109375,6649.494140625,9531.974609375,14856.65625,15176.13671875,13211.568359375,12176.8310546875,12949.3076171875,9071.0322265625,16609.033203125,0.0,12163.3212890625,0.0,11941.591796875,15881.0615234375,26520.88671875,12316.7041015625,7672.31005859375,5547.20556640625,4032.453125,14777.9775390625,12649.6953125,9295.9404296875,0.0,1485.3477783203125,6148.81494140625,4181.86181640625,-844.0017700195312,-6953.08056640625,13259.251953125,3724.09814453125,9263.3564453125,15258.7890625,9602.7060546875,15580.654296875,5657.6728515625,9450.912109375,4919.3701171875,-0.0,5118.05224609375,12071.1328125,6928.44384765625,9447.7333984375,18852.552734375,6268.8193359375,-3108.18359375,7429.91796875,5530.51611328125,25209.5859375,5734.76171875,11947.1552734375,-7343.2919921875,-9880.8603515625,7282.892578125,3863.175537109375,8180.1416015625,5474.88525390625,5573.431640625,5241.2353515625,2598.762451171875,8721.3515625,7635.75244140625,7433.89111328125,-14214.515625,-0.0,-0.0,9884.0400390625,6298.22412109375,-2993.74267578125,0.0,12102.126953125
-4796.18701171875,-10545.25390625,6635.98388671875,9531.974609375,14847.9150390625,15169.779296875,13205.2109375,12170.4736328125,12944.5390625,9062.2900390625,16605.05859375,0.0,12156.1689453125,0.0,11943.1806640625,15866.7568359375,26513.734375,12312.7294921875,7667.54150390625,5541.642578125,4024.505615234375,14772.4150390625,12644.1318359375,9290.3779296875,0.0,1477.400390625,6145.63623046875,4172.3251953125,-851.154296875,-6980.10107421875,13252.0986328125,3716.945556640625,9256.2041015625,15252.4306640625,9596.34765625,15574.2958984375,5651.3154296875,9444.5546875,4897.11767578125,-0.0,5106.130859375,12066.3642578125,6922.880859375,9441.3759765625,18847.783203125,6264.84521484375,-3122.48876953125,7429.91796875,5524.15869140625,25201.638671875,5729.1982421875,11940.001953125,-7395.744140625,-9930.9287109375,7278.91943359375,3857.612548828125,8177.75732421875,5458.99072265625,5567.86865234375,5239.6455078125,2584.45751953125,8722.94140625,7631.77880859375,7426.73876953125,-14206.568359375,-0.0,-0.0,9865.7607421875,6301.40283203125,-2990.563720703125,0.0,12105.3056640625
-4733.40380859375,-10553.99609375,6614.5263671875,9529.5908203125,14839.966796875,15163.421875,13203.62109375,12171.2685546875,12955.666015625,9059.90625,16599.49609375,0.0,12148.220703125,0.0,11949.5390625,15868.345703125,26504.197265625,12306.373046875,7665.1572265625,5550.384765625,4014.174072265625,14766.8525390625,12640.158203125,9288.7880859375,0.0,1475.0162353515625,6144.046875,4171.5302734375,-864.6647338867188,-6995.201171875,13244.15234375,3706.6142578125,9243.48828125,15245.2783203125,9587.60546875,15568.7333984375,5648.13623046875,9443.759765625,4870.0966796875,-0.0,5091.03173828125,12060.8017578125,6918.1123046875,9437.4013671875,18848.578125,6269.61376953125,-3115.336181640625,7427.53369140625,5514.62158203125,25196.076171875,5730.78759765625,11941.591796875,-7371.90234375,-9955.5654296875,7265.4091796875,3842.512939453125,8168.220703125,5452.6328125,5575.021484375,5257.92431640625,2523.26318359375,8724.5302734375,7633.3681640625,7442.63330078125,-14228.8203125,-0.0,-0.0,9853.83984375,6329.21826171875,-3003.279541015625,0.0,12092.58984375
-4751.68212890625,-10677.9736328125,6602.60546875,9509.72265625,14824.0732421875,15138.78515625,13198.05859375,12149.0166015625,12963.6123046875,9040.0380859375,16572.474609375,0.0,12144.248046875,0.0,11963.8447265625,15837.3505859375,26485.919921875,12289.68359375,7650.05712890625,5549.58984375,3995.8955078125,14744.599609375,12624.263671875,9269.71484375,0.0,1441.6376953125,6137.68896484375,4143.71484375,-871.0225219726562,-7028.57958984375,13224.2841796875,3685.951171875,9224.4150390625,15224.6162109375,9571.7119140625,15548.0703125,5637.8046875,9425.48046875,4804.92919921875,-0.0,5076.7265625,12038.548828125,6906.986328125,9413.5595703125,18843.80859375,6243.3876953125,-3136.7939453125,7406.076171875,5495.54833984375,25165.080078125,5731.58251953125,11914.5712890625,-7393.3603515625,-9941.2607421875,7224.8779296875,3811.518310546875,8173.783203125,5425.61181640625,5581.37890625,5221.36669921875,2497.83203125,8710.2255859375,7621.447265625,7445.81201171875,-14264.583984375,-0.0,-0.0,9828.408203125,6368.16015625,-3042.22119140625,0.0,12049.6748046875
-4767.57666015625,-10630.2900390625,6616.91064453125,9525.6162109375,14834.404296875,15153.884765625,13198.8525390625,12149.0166015625,12935.001953125,9035.26953125,16584.396484375,0.0,12171.2685546875,0.0,11963.8447265625,15842.9150390625,26502.609375,12302.3984375,7653.236328125,5530.51611328125,4009.405517578125,14760.494140625,12630.6220703125,9277.6611328125,0.0,1459.1217041015625,6141.66259765625,4156.4306640625,-846.385986328125,-6998.38037109375,13237.7939453125,3701.845947265625,9238.7197265625,15241.3056640625,9583.6328125,15560.7861328125,5640.1884765625,9424.6865234375,4866.91796875,-0.0,5088.6474609375,12053.6494140625,6910.9599609375,9423.8916015625,18836.65625,6233.85107421875,-3142.35693359375,7422.76513671875,5500.31640625,25184.154296875,5729.9931640625,11913.7763671875,-7409.25439453125,-9932.517578125,7230.4404296875,3837.744384765625,8187.2939453125,5447.06982421875,5560.71630859375,5188.783203125,2579.68896484375,8723.7353515625,7613.5,7410.04931640625,-14235.1787109375,-0.0,-0.0,9848.27734375,6306.17138671875,-3039.8369140625,0.0,12045.701171875
-4790.6240234375,-10486.443359375,6635.18896484375,9535.1533203125,14853.4775390625,15175.3427734375,13204.4150390625,12167.294921875,12915.9287109375,9061.49609375,16606.6484375,0.0,12156.962890625,0.0,11955.1015625,15876.29296875,26520.09375,12321.47265625,7665.9521484375,5527.33740234375,4027.6845703125,14781.1572265625,12644.9267578125,9297.5302734375,0.0,1492.500244140625,6148.81494140625,4185.83544921875,-836.8492431640625,-6953.875,13259.251953125,3717.740234375,9259.3828125,15255.6103515625,9602.7060546875,15582.244140625,5650.5205078125,9441.3759765625,4972.61669921875,-0.0,5108.51513671875,12071.9267578125,6922.880859375,9446.9384765625,18836.65625,6255.30859375,-3085.136474609375,7434.68603515625,5528.1318359375,25215.1484375,5730.78759765625,11932.0556640625,-7363.955078125,-9921.3916015625,7282.892578125,3863.175537109375,8188.8837890625,5486.80615234375,5540.84765625,5210.24072265625,2616.24658203125,8744.3994140625,7623.03662109375,7405.28125,-14206.568359375,-0.0,-0.0,9901.5234375,6254.51416015625,-2992.94775390625,0.0,12089.412109375
-4746.9140625,-10459.4228515625,6635.98388671875,9555.0224609375,14860.6298828125,15186.46875,13212.36328125,12176.037109375,12934.2080078125,9062.2900390625,16626.515625,0.0,12170.4736328125,0.0,11965.43359375,15881.0615234375,26523.271484375,12330.21484375,7673.8994140625,5540.052734375,4033.24755859375,14788.3095703125,12653.66796875,9306.271484375,0.0,1500.4476318359375,6158.35205078125,4194.57763671875,-832.8755493164062,-6944.33837890625,13265.609375,3717.740234375,9260.177734375,15261.9677734375,9609.8583984375,15589.396484375,5659.26220703125,9450.912109375,4925.72802734375,-0.0,5114.87353515625,12083.0537109375,6932.41748046875,9455.6806640625,18847.783203125,6265.64013671875,-3097.057373046875,7451.37548828125,5542.43701171875,25223.09765625,5738.7353515625,11940.001953125,-7338.52392578125,-9907.8818359375,7301.171875,3890.9912109375,8197.625,5500.31640625,5558.33203125,5223.7509765625,2602.736328125,8753.935546875,7632.57373046875,7421.17529296875,-14204.1845703125,-0.0,-0.0,9910.265625,6282.32958984375,-2992.94775390625,0.0,12082.2587890625
-4688.10400390625,-10471.34375,6630.4208984375,9550.25390625,14861.4248046875,15183.2890625,13223.4892578125,12179.2158203125,12958.0498046875,9077.3896484375,16628.107421875,0.0,12186.3681640625,0.0,11984.5078125,15871.5244140625,26520.88671875,12328.625,7680.25732421875,5562.3056640625,4030.86328125,14785.130859375,12657.642578125,9306.271484375,0.0,1485.3477783203125,6167.888671875,4188.2197265625,-838.4386596679688,-6957.84912109375,13261.6357421875,3716.945556640625,9257.79296875,15259.5830078125,9610.6533203125,15587.0126953125,5664.8251953125,9456.4755859375,4881.22314453125,-0.0,5108.51513671875,12078.28515625,6937.98046875,9453.296875,18860.498046875,6275.9716796875,-3112.951904296875,7446.60693359375,5543.23193359375,25212.765625,5752.24560546875,11942.38671875,-7335.3447265625,-9943.64453125,7297.99267578125,3882.2490234375,8208.751953125,5497.1376953125,5573.431640625,5242.02978515625,2585.251953125,8758.7041015625,7643.69970703125,7459.322265625,-14210.5419921875,-0.0,-0.0,9900.7294921875,6314.9130859375,-2983.4111328125,0.0,12106.8955078125
-4758.0400390625,-10572.2744140625,6633.599609375,9543.1015625,14860.6298828125,15182.4951171875,13223.4892578125,12181.599609375,12959.6396484375,9083.748046875,16611.41796875,0.0,12183.9833984375,0.0,11982.123046875,15877.0888671875,26524.861328125,12330.21484375,7681.0517578125,5567.07373046875,4033.24755859375,14784.3359375,12656.84765625,9308.6552734375,0.0,1482.1688232421875,6167.09375,4190.603515625,-844.0017700195312,-6951.49072265625,13263.2255859375,3725.687744140625,9261.767578125,15260.37890625,9610.6533203125,15587.0126953125,5666.41455078125,9458.0654296875,4889.17041015625,-0.0,5110.8994140625,12075.1064453125,6934.8017578125,9454.0908203125,18861.29296875,6279.150390625,-3105.79931640625,7439.45458984375,5537.6689453125,25215.1484375,5750.65625,11946.3603515625,-7352.0341796875,-9950.796875,7287.6611328125,3872.71240234375,8204.77734375,5495.54833984375,5575.021484375,5246.7978515625,2605.9150390625,8762.6767578125,7647.67333984375,7460.912109375,-14222.462890625,-0.0,-0.0,9876.8876953125,6311.73486328125,-2985.00048828125,0.0,12120.40625
-4782.6767578125,-10565.9169921875,6638.3681640625,9531.1806640625,14863.80859375,15186.46875,13229.8466796875,12193.5205078125,12981.8916015625,9109.9736328125,16615.390625,0.0,12170.4736328125,0.0,11983.7119140625,15891.3935546875,26522.478515625,12334.1875,7689.7939453125,5594.88916015625,4037.221435546875,14784.3359375,12660.8212890625,9314.2197265625,0.0,1484.552978515625,6171.06787109375,4195.3720703125,-847.1806640625,-6966.5908203125,13264.8154296875,3720.12451171875,9260.9716796875,15254.8154296875,9613.037109375,15589.396484375,5674.3623046875,9466.8076171875,4929.701171875,-0.0,5113.28369140625,12071.9267578125,6940.36474609375,9460.44921875,18874.802734375,6295.83984375,-3085.136474609375,7428.328125,5541.642578125,25217.533203125,5758.603515625,11961.4599609375,-7369.51806640625,-9942.0546875,7283.6875,3870.328125,8200.009765625,5484.42236328125,5591.71044921875,5261.89794921875,2596.37841796875,8769.03515625,7662.77294921875,7500.6484375,-14220.8740234375,-0.0,-0.0,9870.529296875,6339.5498046875,-2964.337646484375,0.0,12166.5
-4683.3359375,-10486.443359375,6627.24169921875,9527.2060546875,14857.451171875,15175.3427734375,13218.720703125,12177.626953125,12957.2548828125,9081.36328125,16621.748046875,0.0,12161.7314453125,0.0,11967.818359375,15874.7041015625,26518.50390625,12327.830078125,7677.873046875,5566.27880859375,4030.06884765625,14775.59375,12651.2841796875,9303.8876953125,0.0,1478.1951904296875,6160.736328125,4179.4775390625,-839.2333984375,-6985.66455078125,13257.6630859375,3720.91943359375,9256.2041015625,15250.841796875,9605.884765625,15581.4482421875,5662.44140625,9451.70703125,4920.95947265625,-0.0,5105.33642578125,12064.7744140625,6933.21240234375,9447.7333984375,18860.498046875,6275.1767578125,-3111.362548828125,7421.97021484375,5538.46337890625,25205.611328125,5744.29833984375,11943.1806640625,-7343.2919921875,-9885.62890625,7286.86669921875,3862.380859375,8189.67822265625,5458.99072265625,5579.78955078125,5236.466796875,2524.852783203125,8761.8828125,7644.49462890625,7461.70654296875,-14215.310546875,-0.0,-0.0,9850.6611328125,6322.86083984375,-2980.232177734375,0.0,12139.4794921875
-4680.15673828125,-10476.9072265625,6624.857421875,9522.4384765625,14851.8876953125,15169.779296875,13209.18359375,12168.08984375,12938.181640625,9062.2900390625,16617.775390625,0.0,12162.5263671875,0.0,11959.076171875,15873.9091796875,26508.173828125,12319.8828125,7666.74658203125,5549.58984375,4021.32666015625,14769.236328125,12643.3369140625,9295.9404296875,0.0,1475.81103515625,6151.994140625,4177.88818359375,-835.259765625,-6975.33251953125,13248.9208984375,3704.22998046875,9249.05078125,15242.099609375,9597.9375,15574.2958984375,5650.5205078125,9444.5546875,4910.6279296875,-0.0,5102.15771484375,12060.005859375,6925.2646484375,9442.9658203125,18847.783203125,6262.46142578125,-3112.1572265625,7416.4072265625,5530.51611328125,25204.0234375,5733.171875,11935.234375,-7327.39794921875,-9900.7294921875,7283.6875,3863.970458984375,8188.08837890625,5460.58056640625,5563.89453125,5222.16162109375,2530.415771484375,8753.140625,7631.77880859375,7451.37548828125,-14208.1572265625,-0.0,-0.0,9849.0712890625,6296.634765625,-3004.07421875,0.0,12106.1005859375
-4706.3828125,-10503.927734375,6620.8837890625,9520.8486328125,14852.6826171875,15176.9326171875,13210.7734375,12176.037109375,12940.56640625,9064.6748046875,16608.23828125,0.0,12173.65234375,0.0,11968.6123046875,15887.4189453125,26506.58203125,12319.8828125,7669.130859375,5551.9736328125,4021.32666015625,14771.62109375,12645.7216796875,9301.5029296875,0.0,1481.3741455078125,6155.9677734375,4190.603515625,-834.4650268554688,-6972.154296875,13248.9208984375,3700.25634765625,9247.4619140625,15242.89453125,9598.732421875,15578.26953125,5652.10986328125,9448.5283203125,4889.17041015625,-0.0,5102.15771484375,12065.5703125,6927.64892578125,9450.912109375,18848.578125,6268.8193359375,-3102.620361328125,7416.4072265625,5528.9267578125,25214.353515625,5737.14599609375,11947.1552734375,-7352.0341796875,-9902.318359375,7282.892578125,3869.533447265625,8197.625,5473.2958984375,5560.71630859375,5231.69873046875,2571.74169921875,8750.755859375,7634.1630859375,7449.78564453125,-14211.3369140625,-0.0,-0.0,9870.529296875,6290.27685546875,-3007.2529296875,0.0,12106.1005859375
-4709.56201171875,-10558.7646484375,6631.21533203125,9536.7431640625,14861.4248046875,15187.263671875,13219.515625,12186.3681640625,12946.12890625,9059.90625,16613.802734375,0.0,12186.3681640625,0.0,11976.5595703125,15895.3662109375,26521.68359375,12328.625,7678.66748046875,5551.17919921875,4030.86328125,14783.5419921875,12656.84765625,9310.2451171875,0.0,1492.500244140625,6164.70947265625,4197.75634765625,-824.133544921875,-6965.7958984375,13260.841796875,3715.356201171875,9257.79296875,15257.9951171875,9609.0634765625,15588.6015625,5660.85205078125,9455.6806640625,4887.5810546875,-0.0,5110.8994140625,12079.080078125,6937.185546875,9460.44921875,18855.73046875,6271.998046875,-3096.2626953125,7433.09619140625,5537.6689453125,25227.0703125,5745.0927734375,11955.8974609375,-7345.67626953125,-9879.271484375,7290.04541015625,3883.838623046875,8205.5732421875,5478.06396484375,5570.2529296875,5236.466796875,2584.45751953125,8756.3203125,7638.93115234375,7441.8388671875,-14207.36328125,-0.0,-0.0,9888.0126953125,6295.83984375,-3002.484619140625,0.0,12092.58984375
-4723.86669921875,-10509.4912109375,6638.3681640625,9540.716796875,14866.1923828125,15188.853515625,13226.66796875,12188.751953125,12958.0498046875,9063.8798828125,16610.623046875,0.0,12186.3681640625,0.0,11982.91796875,15901.7236328125,26524.06640625,12331.0087890625,7682.6416015625,5558.33203125,4034.04248046875,14784.3359375,12661.6162109375,9311.8349609375,0.0,1496.473876953125,6170.27294921875,4200.935546875,-820.159912109375,-6965.7958984375,13263.2255859375,3716.15087890625,9261.767578125,15258.7890625,9613.8310546875,15590.1904296875,5668.798828125,9459.6552734375,4905.06494140625,-0.0,5116.462890625,12081.4638671875,6942.7490234375,9462.0390625,18865.267578125,6275.9716796875,-3107.388671875,7437.0703125,5543.23193359375,25227.865234375,5754.62939453125,11959.076171875,-7320.2451171875,-9899.93359375,7295.6083984375,3882.2490234375,8203.1884765625,5484.42236328125,5588.53125,5236.466796875,2608.29931640625,8755.5244140625,7644.49462890625,7447.4013671875,-14212.1318359375,-0.0,-0.0,9885.62890625,6309.3505859375,-3000.100341796875,0.0,12082.2587890625
-4766.7822265625,-10495.98046875,6628.03662109375,9523.232421875,14854.271484375,15176.13671875,13215.5419921875,12176.037109375,12937.38671875,9034.474609375,16607.443359375,0.0,12173.65234375,0.0,11978.943359375,15890.5986328125,26511.3515625,12315.9091796875,7665.9521484375,5529.7216796875,4021.32666015625,14770.03125,12647.3115234375,9298.32421875,0.0,1480.579345703125,6160.736328125,4191.3984375,-837.6439208984375,-6976.92236328125,13250.509765625,3711.382568359375,9253.025390625,15244.484375,9599.5263671875,15575.091796875,5655.28857421875,9446.14453125,4896.32275390625,-0.0,5104.5419921875,12066.3642578125,6931.623046875,9447.7333984375,18848.578125,6256.8984375,-3117.720458984375,7419.5859375,5532.10595703125,25215.1484375,5746.6826171875,11948.7451171875,-7357.59716796875,-9911.8544921875,7288.4560546875,3870.328125,8192.8564453125,5485.216796875,5581.37890625,5224.5458984375,2606.709716796875,8738.041015625,7625.4208984375,7407.6650390625,-14223.2578125,-0.0,-0.0,9866.5556640625,6297.4296875,-3023.1474609375,0.0,12062.390625
-4779.49755859375,-10532.5380859375,6624.857421875,9528.0009765625,14853.4775390625,15176.9326171875,13215.5419921875,12180.0107421875,12923.0810546875,9035.26953125,16612.2109375,0.0,12176.037109375,0.0,11982.91796875,15894.5712890625,26505.7890625,12312.7294921875,7664.3623046875,5520.18505859375,4018.14794921875,14769.236328125,12643.3369140625,9297.5302734375,0.0,1483.75830078125,6159.94140625,4196.9619140625,-847.9754028320312,-6973.74365234375,13247.3310546875,3700.25634765625,9250.640625,15241.3056640625,9597.142578125,15574.2958984375,5651.3154296875,9445.349609375,4882.017578125,-0.0,5100.568359375,12067.1591796875,6930.033203125,9450.912109375,18840.630859375,6258.48779296875,-3095.4677734375,7426.73876953125,5531.31103515625,25216.73828125,5745.8876953125,11957.486328125,-7379.05517578125,-9919.0068359375,7286.86669921875,3876.68603515625,8203.1884765625,5494.75341796875,5566.27880859375,5243.61962890625,2547.10498046875,8733.2724609375,7623.03662109375,7402.89697265625,-14222.462890625,-0.0,-0.0,9864.966796875,6287.892578125,-3015.200439453125,0.0,12073.5166015625
-4771.55078125,-10561.1484375,6654.2626953125,9552.6376953125,14876.525390625,15196.7998046875,13230.6416015625,12198.2890625,12935.7978515625,9068.6484375,16638.4375,0.0,12199.083984375,0.0,11997.22265625,15913.64453125,26527.24609375,12334.1875,7685.02587890625,5546.4111328125,4042.7841796875,14791.48828125,12663.205078125,9316.603515625,0.0,1502.037109375,6181.39892578125,4216.82958984375,-831.2861328125,-6942.7490234375,13270.3779296875,3712.971923828125,9275.27734375,15263.5576171875,9619.3955078125,15594.958984375,5669.59375,9466.01171875,4918.5751953125,-0.0,5127.5888671875,12089.412109375,6949.9013671875,9472.3701171875,18857.3203125,6280.740234375,-3073.215576171875,7452.96484375,5554.35791015625,25236.607421875,5763.3720703125,11979.7392578125,-7334.55029296875,-9927.75,7303.55615234375,3888.60693359375,8230.208984375,5509.853515625,5563.89453125,5258.71875,2561.41015625,8751.5517578125,7644.49462890625,7440.2490234375,-14212.92578125,-0.0,-0.0,9886.423828125,6291.8662109375,-2985.795166015625,0.0,12118.021484375
-4732.60888671875,-10564.3271484375,6666.18359375,9569.3271484375,14884.4716796875,15206.3369140625,13238.5888671875,12204.6474609375,12960.43359375,9100.4375,16651.94921875,0.0,12198.2890625,0.0,11991.66015625,15904.9033203125,26541.55078125,12346.1083984375,7695.35693359375,5574.2265625,4054.705078125,14803.4091796875,12673.537109375,9326.140625,0.0,1508.3948974609375,6185.373046875,4216.03515625,-819.3651733398438,-6925.2646484375,13281.5048828125,3734.4296875,9287.1982421875,15278.6572265625,9629.7265625,15605.2900390625,5681.5146484375,9477.138671875,4923.34375,-0.0,5138.71533203125,12098.9482421875,6957.84912109375,9477.9326171875,18872.419921875,6299.01904296875,-3071.6259765625,7466.47509765625,5561.5107421875,25242.962890625,5766.55078125,11977.35546875,-7327.39794921875,-9918.212890625,7299.58203125,3895.759521484375,8211.9306640625,5510.6484375,5574.2265625,5274.61376953125,2582.0732421875,8759.4990234375,7662.77294921875,7474.42236328125,-14202.5947265625,-0.0,-0.0,9893.576171875,6320.4765625,-2963.54296875,0.0,12141.068359375
-4782.6767578125,-10603.2685546875,6626.447265625,9532.76953125,14843.146484375,15166.6005859375,13200.4423828125,12167.294921875,12947.71875,9071.8271484375,16613.005859375,0.0,12143.453125,0.0,11942.38671875,15871.5244140625,26503.404296875,12306.373046875,7661.18359375,5555.15283203125,4014.96875,14766.056640625,12636.9794921875,9287.9931640625,0.0,1467.0689697265625,6137.68896484375,4174.70947265625,-852.7437744140625,-6984.0751953125,13242.5625,3693.8984375,9246.6669921875,15244.484375,9589.9892578125,15568.7333984375,5645.751953125,9439.7861328125,4865.328125,-0.0,5098.18408203125,12062.390625,6914.93359375,9438.197265625,18843.80859375,6261.6669921875,-3120.1044921875,7429.123046875,5512.2373046875,25200.84375,5721.2509765625,11936.0283203125,-7390.18115234375,-9999.275390625,7241.56689453125,3854.433837890625,8164.24658203125,5466.14306640625,5558.33203125,5218.98291015625,2558.2314453125,8717.3779296875,7632.57373046875,7472.0380859375,-14235.9736328125,-0.0,-0.0,9853.0458984375,6311.73486328125,-3001.68994140625,0.0,12112.4580078125
-4721.48291015625,-10606.4482421875,6624.06298828125,9530.384765625,14844.7353515625,15168.1904296875,13203.62109375,12170.4736328125,12942.9501953125,9060.7001953125,16602.673828125,0.0,12145.8369140625,0.0,11948.7451171875,15885.0341796875,26505.7890625,12306.373046875,7663.56787109375,5545.6162109375,4016.55810546875,14769.236328125,12639.36328125,9288.7880859375,0.0,1469.4532470703125,6139.2783203125,4182.65673828125,-850.359619140625,-6985.66455078125,13245.7421875,3700.25634765625,9245.8720703125,15246.8681640625,9591.5791015625,15571.1171875,5645.751953125,9440.5810546875,4849.43408203125,-0.0,5096.59423828125,12064.7744140625,6915.72802734375,9443.759765625,18843.80859375,6261.6669921875,-3129.641357421875,7425.94384765625,5511.44287109375,25204.81640625,5726.01953125,11943.1806640625,-7406.076171875,-9960.333984375,7253.48828125,3860.79150390625,8171.39892578125,5476.474609375,5560.71630859375,5220.57177734375,2597.173095703125,8714.9931640625,7630.189453125,7452.96484375,-14228.8203125,-0.0,-0.0,9859.40234375,6314.11865234375,-3013.61083984375,0.0,12087.02734375
-4727.84033203125,-10475.318359375,6640.75244140625,9550.25390625,14865.3984375,15186.46875,13221.1044921875,12180.8056640625,12935.7978515625,9063.0849609375,16601.880859375,0.0,12179.2158203125,0.0,11973.380859375,15886.625,26526.451171875,12323.8564453125,7676.283203125,5536.87451171875,4033.24755859375,14788.3095703125,12655.2578125,9304.6826171875,0.0,1495.67919921875,6159.94140625,4199.34619140625,-820.9546508789062,-6951.49072265625,13266.404296875,3723.303466796875,9265.740234375,15266.736328125,9609.0634765625,15589.396484375,5659.26220703125,9454.0908203125,4899.501953125,-0.0,5115.66796875,12084.6435546875,6935.5966796875,9460.44921875,18851.7578125,6267.2294921875,-3108.978271484375,7447.4013671875,5529.7216796875,25226.275390625,5744.29833984375,11950.333984375,-7352.8291015625,-9899.1396484375,7287.6611328125,3875.891357421875,8199.21484375,5494.75341796875,5573.431640625,5229.314453125,2624.19384765625,8726.9140625,7636.546875,7417.2021484375,-14203.3896484375,-0.0,-0.0,9879.271484375,6318.88720703125,-3006.458251953125,0.0,12067.9541015625
-4762.80810546875,-10464.986328125,6632.8046875,9528.0009765625,14851.8876953125,15168.984375,13207.5947265625,12159.34765625,12921.4921875,9051.1640625,16603.470703125,0.0,12173.65234375,0.0,11963.8447265625,15845.298828125,26510.556640625,12309.55078125,7661.97802734375,5525.74755859375,4021.32666015625,14770.8251953125,12640.953125,9288.7880859375,0.0,1480.579345703125,6148.0205078125,4172.3251953125,-828.107177734375,-6961.822265625,13251.3046875,3705.8193359375,9256.2041015625,15247.662109375,9595.5537109375,15572.70703125,5644.95703125,9438.197265625,4894.7333984375,-0.0,5101.36279296875,12067.1591796875,6923.67578125,9442.9658203125,18839.041015625,6250.5400390625,-3106.593994140625,7425.1494140625,5518.59521484375,25211.17578125,5733.171875,11920.9287109375,-7332.96044921875,-9886.423828125,7286.07177734375,3858.4072265625,8192.8564453125,5466.14306640625,5552.7685546875,5214.21435546875,2598.762451171875,8710.2255859375,7623.03662109375,7412.43359375,-14224.8466796875,-0.0,-0.0,9880.06640625,6285.5087890625,-3013.61083984375,0.0,12060.005859375
-4765.1923828125,-10597.7060546875,6635.98388671875,9534.359375,14848.708984375,15169.779296875,13204.4150390625,12157.7578125,12921.4921875,9051.958984375,16613.005859375,0.0,12168.08984375,0.0,11958.28125,15844.5029296875,26511.3515625,12308.7568359375,7660.38916015625,5523.36376953125,4021.32666015625,14771.62109375,12639.36328125,9286.4033203125,0.0,1478.989990234375,6145.63623046875,4169.94091796875,-846.385986328125,-6976.12744140625,13250.509765625,3706.6142578125,9256.2041015625,15250.046875,9596.34765625,15571.1171875,5644.16259765625,9435.8125,4898.70703125,-0.0,5103.7470703125,12068.748046875,6922.08642578125,9442.169921875,18836.65625,6250.5400390625,-3118.51513671875,7433.09619140625,5522.5693359375,25210.380859375,5728.40380859375,11917.75,-7355.21337890625,-9919.802734375,7278.91943359375,3863.970458984375,8188.08837890625,5462.16943359375,5535.28466796875,5214.21435546875,2598.762451171875,8707.046875,7623.03662109375,7409.25439453125,-14212.92578125,-0.0,-0.0,9883.244140625,6263.255859375,-3004.86865234375,0.0,12074.3115234375
-4788.23974609375,-10613.6005859375,6642.341796875,9542.3056640625,14851.8876953125,15172.9580078125,13206.7998046875,12160.1416015625,12931.82421875,9046.3955078125,16617.775390625,0.0,12172.8583984375,0.0,11952.7177734375,15854.8359375,26515.326171875,12309.55078125,7661.18359375,5522.5693359375,4024.505615234375,14773.2099609375,12641.7470703125,9287.9931640625,0.0,1482.1688232421875,6147.22607421875,4173.1201171875,-856.7174072265625,-6982.4853515625,13252.89453125,3705.8193359375,9259.3828125,15255.6103515625,9597.142578125,15574.2958984375,5644.95703125,9438.9912109375,4912.2177734375,-0.0,5111.6943359375,12071.1328125,6924.47021484375,9442.9658203125,18839.041015625,6250.5400390625,-3118.51513671875,7439.45458984375,5524.953125,25211.17578125,5728.40380859375,11922.5185546875,-7371.90234375,-9992.9169921875,7278.12451171875,3873.50732421875,8185.7041015625,5466.14306640625,5543.23193359375,5213.41943359375,2609.093994140625,8707.046875,7623.8310546875,7415.61279296875,-14209.7470703125,-0.0,-0.0,9882.4501953125,6272.79296875,-3012.816162109375,0.0,12072.72265625
-4721.48291015625,-10507.1064453125,6628.83154296875,9551.0478515625,14851.8876953125,15173.7529296875,13209.9794921875,12168.884765625,12944.5390625,9056.7275390625,16617.775390625,0.0,12183.9833984375,0.0,11957.486328125,15866.7568359375,26512.94140625,12311.140625,7665.1572265625,5532.10595703125,4022.916259765625,14774.7998046875,12644.1318359375,9290.3779296875,0.0,1482.963623046875,6149.60986328125,4178.6826171875,-846.385986328125,-6967.3857421875,13253.6884765625,3704.22998046875,9253.8193359375,15255.6103515625,9597.9375,15575.091796875,5648.93115234375,9443.759765625,4913.01220703125,-0.0,5107.720703125,12075.1064453125,6925.2646484375,9446.14453125,18845.400390625,6260.0771484375,-3112.1572265625,7445.81201171875,5527.33740234375,25208.791015625,5732.37744140625,11933.64453125,-7364.75,-9993.712890625,7282.09814453125,3879.864990234375,8186.49951171875,5470.91162109375,5551.9736328125,5227.724609375,2589.225830078125,8710.2255859375,7631.77880859375,7425.94384765625,-14212.1318359375,-0.0,-0.0,9883.244140625,6289.48193359375,-3006.458251953125,0.0,12075.1064453125
-4673.798828125,-10418.8916015625,6617.705078125,9535.94921875,14846.3251953125,15171.3681640625,13206.0048828125,12168.08984375,12942.1552734375,9059.111328125,16610.623046875,0.0,12177.626953125,0.0,11957.486328125,15863.5771484375,26504.994140625,12309.55078125,7664.3623046875,5535.28466796875,4016.55810546875,14770.8251953125,12640.953125,9287.9931640625,0.0,1478.989990234375,6146.43115234375,4178.6826171875,-840.0281372070312,-6972.154296875,13247.3310546875,3696.28271484375,9248.2568359375,15245.2783203125,9593.9638671875,15573.501953125,5645.751953125,9442.9658203125,4889.96484375,-0.0,5101.36279296875,12067.1591796875,6921.29150390625,9442.9658203125,18844.60546875,6259.28271484375,-3115.336181640625,7431.50732421875,5522.5693359375,25207.99609375,5729.9931640625,11932.0556640625,-7365.544921875,-9923.775390625,7270.17724609375,3865.559814453125,8188.08837890625,5469.322265625,5551.9736328125,5226.13525390625,2548.694580078125,8714.19921875,7632.57373046875,7431.50732421875,-14212.92578125,-0.0,-0.0,9864.966796875,6287.09814453125,-3012.021240234375,0.0,12078.28515625
-4742.9404296875,-10453.8603515625,6616.91064453125,9514.4912109375,14847.9150390625,15169.779296875,13213.1572265625,12173.65234375,12956.4599609375,9078.9794921875,16607.443359375,0.0,12162.5263671875,0.0,11970.9970703125,15876.29296875,26497.841796875,12308.7568359375,7670.720703125,5553.5634765625,4014.174072265625,14765.2626953125,12642.54296875,9291.966796875,0.0,1471.83740234375,6152.78857421875,4184.24609375,-847.1806640625,-6985.66455078125,13242.5625,3688.33544921875,9243.48828125,15237.3310546875,9593.9638671875,15572.70703125,5652.904296875,9448.5283203125,4848.63916015625,-0.0,5098.978515625,12058.4169921875,6925.2646484375,9445.349609375,18852.552734375,6271.998046875,-3129.641357421875,7410.84423828125,5523.36376953125,25206.408203125,5738.7353515625,11942.38671875,-7356.80224609375,-9946.0283203125,7263.8193359375,3856.81787109375,8190.47265625,5475.6796875,5563.10009765625,5242.82470703125,2540.747314453125,8719.76171875,7644.49462890625,7455.34912109375,-14208.1572265625,-0.0,-0.0,9880.8603515625,6317.29736328125,-2992.94775390625,0.0,12109.279296875
-4795.392578125,-10484.8544921875,6618.5,9512.1064453125,14849.50390625,15175.3427734375,13212.36328125,12181.599609375,12942.1552734375,9080.5693359375,16604.265625,0.0,12168.08984375,0.0,11969.4072265625,15893.7783203125,26502.609375,12313.525390625,7672.31005859375,5548.79541015625,4018.9423828125,14768.44140625,12644.9267578125,9297.5302734375,0.0,1469.4532470703125,6152.78857421875,4196.9619140625,-842.4122924804688,-6965.00146484375,13246.5361328125,3699.461669921875,9245.8720703125,15238.9208984375,9597.9375,15576.6806640625,5652.904296875,9454.0908203125,4905.859375,-0.0,5099.7734375,12059.2119140625,6926.0595703125,9451.70703125,18851.7578125,6275.1767578125,-3142.35693359375,7408.4599609375,5525.74755859375,25213.560546875,5735.55615234375,11954.3076171875,-7328.9873046875,-9946.0283203125,7275.740234375,3865.559814453125,8187.2939453125,5481.2431640625,5552.7685546875,5249.97705078125,2578.894287109375,8726.1201171875,7642.90478515625,7437.0703125,-14201.80078125,-0.0,-0.0,9893.576171875,6288.68701171875,-2973.07958984375,0.0,12129.943359375
-4702.4091796875,-10489.623046875,6624.857421875,9526.412109375,14855.861328125,15187.263671875,13218.720703125,12194.3154296875,12949.3076171875,9093.2841796875,16598.701171875,0.0,12180.8056640625,0.0,11965.43359375,15910.466796875,26512.146484375,12323.0615234375,7680.25732421875,5560.71630859375,4026.094970703125,14777.18359375,12652.8740234375,9307.861328125,0.0,1479.78466796875,6158.35205078125,4211.26708984375,-835.259765625,-6965.7958984375,13253.6884765625,3708.99853515625,9253.025390625,15246.0732421875,9607.474609375,15585.4228515625,5659.26220703125,9464.4228515625,4921.75439453125,-0.0,5106.92578125,12068.748046875,6933.21240234375,9463.6279296875,18858.91015625,6287.09814453125,-3122.48876953125,7423.5595703125,5534.490234375,25231.04296875,5737.9404296875,11969.4072265625,-7313.88720703125,-9925.365234375,7290.04541015625,3870.328125,8190.47265625,5489.1904296875,5567.86865234375,5263.4873046875,2566.178466796875,8739.630859375,7652.44140625,7450.58056640625,-14207.36328125,-0.0,-0.0,9902.318359375,6290.27685546875,-2955.595703125,0.0,12149.810546875
-4669.03076171875,-10497.5703125,6610.55224609375,9509.72265625,14845.5302734375,15167.3955078125,13214.7470703125,12175.2421875,12967.5869140625,9080.5693359375,16584.396484375,0.0,12176.037109375,0.0,11971.791015625,15877.8818359375,26501.01953125,12311.935546875,7673.8994140625,5564.689453125,4014.174072265625,14762.083984375,12644.9267578125,9293.556640625,0.0,1463.89013671875,6155.9677734375,4185.83544921875,-843.20703125,-6982.4853515625,13241.767578125,3704.22998046875,9241.1044921875,15235.7412109375,9594.7578125,15568.7333984375,5653.69921875,9450.1181640625,4874.865234375,-0.0,5097.38916015625,12051.2646484375,6926.8544921875,9444.5546875,18858.91015625,6274.38232421875,-3135.9990234375,7406.076171875,5524.953125,25204.81640625,5741.119140625,11945.5654296875,-7349.64990234375,-9887.21875,7263.8193359375,3852.84423828125,8194.4462890625,5478.85888671875,5580.583984375,5239.6455078125,2555.052490234375,8731.6826171875,7649.2626953125,7465.6806640625,-14228.8203125,-0.0,-0.0,9878.4765625,6333.98681640625,-2992.94775390625,0.0,12106.1005859375
-4745.32470703125,-10515.8486328125,6626.447265625,9507.3388671875,14846.3251953125,15161.83203125,13213.1572265625,12158.552734375,12956.4599609375,9056.7275390625,16607.443359375,0.0,12180.0107421875,0.0,11973.380859375,15843.7099609375,26510.556640625,12313.525390625,7667.54150390625,5546.4111328125,4018.9423828125,14761.2890625,12641.7470703125,9287.9931640625,0.0,1459.91650390625,6155.9677734375,4165.17236328125,-838.4386596679688,-6986.45947265625,13244.9462890625,3720.12451171875,9253.025390625,15241.3056640625,9597.142578125,15567.9384765625,5648.93115234375,9438.9912109375,4907.44921875,-0.0,5102.95263671875,12050.4697265625,6924.47021484375,9433.4287109375,18850.9609375,6257.69287109375,-3111.362548828125,7404.486328125,5524.953125,25195.279296875,5740.32470703125,11921.7236328125,-7345.67626953125,-9905.4970703125,7260.640625,3853.638916015625,8196.8310546875,5463.7587890625,5572.63720703125,5222.9560546875,2586.046875,8729.298828125,7638.93115234375,7439.45458984375,-14220.078125,-0.0,-0.0,9861.787109375,6325.2451171875,-3017.58447265625,0.0,12065.5703125
-4743.73486328125,-10520.6171875,6632.009765625,9514.4912109375,14850.298828125,15169.779296875,13207.5947265625,12162.5263671875,12931.82421875,9053.5478515625,16613.005859375,0.0,12176.037109375,0.0,11966.228515625,15858.0146484375,26509.76171875,12318.2939453125,7667.54150390625,5531.31103515625,4022.121337890625,14766.8525390625,12642.54296875,9291.966796875,0.0,1477.400390625,6154.37841796875,4175.50439453125,-834.4650268554688,-6971.359375,13247.3310546875,3705.8193359375,9254.615234375,15239.7158203125,9598.732421875,15573.501953125,5649.7255859375,9441.3759765625,4897.91259765625,-0.0,5107.720703125,12057.6220703125,6926.0595703125,9441.3759765625,18842.220703125,6257.69287109375,-3089.90478515625,7412.43359375,5529.7216796875,25207.201171875,5734.76171875,11929.6708984375,-7383.0283203125,-9936.4921875,7282.892578125,3848.87060546875,8196.0361328125,5469.322265625,5553.5634765625,5230.10888671875,2585.251953125,8734.8623046875,7631.77880859375,7414.02294921875,-14206.568359375,-0.0,-0.0,9880.8603515625,6285.5087890625,-2996.921630859375,0.0,12083.84765625
-4705.587890625,-10551.6123046875,6616.91064453125,9526.412109375,14847.119140625,15168.984375,13204.4150390625,12161.7314453125,12923.876953125,9047.9853515625,16613.802734375,0.0,12166.5,0.0,11963.8447265625,15862.783203125,26503.404296875,12314.3193359375,7662.77294921875,5525.74755859375,4013.379638671875,14766.8525390625,12639.36328125,9291.171875,0.0,1479.78466796875,6151.19921875,4177.88818359375,-832.8755493164062,-6966.5908203125,13242.5625,3688.33544921875,9244.283203125,15237.3310546875,9593.1689453125,15571.912109375,5644.95703125,9438.9912109375,4862.9443359375,-0.0,5098.18408203125,12059.2119140625,6922.880859375,9442.169921875,18839.8359375,6256.103515625,-3112.1572265625,7422.76513671875,5527.33740234375,25205.611328125,5729.9931640625,11931.259765625,-7373.49169921875,-9921.3916015625,7287.6611328125,3863.175537109375,8198.4208984375,5471.70654296875,5546.4111328125,5228.51953125,2570.947021484375,8735.65625,7627.80517578125,7412.43359375,-14200.2109375,-0.0,-0.0,9872.9130859375,6275.1767578125,-3000.895263671875,0.0,12087.02734375
-4748.50341796875,-10544.458984375,6623.26806640625,9527.2060546875,14850.298828125,15172.1640625,13209.18359375,12168.884765625,12936.591796875,9059.111328125,16614.595703125,0.0,12166.5,0.0,11967.818359375,15867.5517578125,26510.556640625,12317.498046875,7666.74658203125,5540.052734375,4018.9423828125,14769.236328125,12643.3369140625,9296.734375,0.0,1474.2215576171875,6154.37841796875,4181.06689453125,-832.8755493164062,-6961.822265625,13248.1259765625,3698.666748046875,9249.8466796875,15243.689453125,9597.142578125,15577.4755859375,5648.13623046875,9445.349609375,4874.07080078125,-0.0,5102.95263671875,12060.8017578125,6926.8544921875,9446.14453125,18845.400390625,6263.255859375,-3116.130859375,7421.97021484375,5531.31103515625,25204.0234375,5734.76171875,11936.82421875,-7347.265625,-9901.5234375,7293.22412109375,3876.68603515625,8197.625,5477.26953125,5553.5634765625,5230.90380859375,2605.9150390625,8744.3994140625,7635.75244140625,7438.65966796875,-14202.5947265625,-0.0,-0.0,9858.6083984375,6291.0712890625,-3006.458251953125,0.0,12096.564453125
-4774.7294921875,-10527.7705078125,6641.546875,9536.7431640625,14859.8359375,15178.521484375,13212.36328125,12172.8583984375,12937.38671875,9059.111328125,16621.748046875,0.0,12176.8310546875,0.0,11970.9970703125,15872.3203125,26525.65625,12328.625,7671.51513671875,5540.84765625,4032.453125,14779.5673828125,12650.490234375,9301.5029296875,0.0,1481.3741455078125,6158.35205078125,4185.041015625,-827.3125,-6963.41162109375,13260.046875,3721.714111328125,9266.5361328125,15257.9951171875,9608.2685546875,15586.216796875,5652.904296875,9449.322265625,4905.859375,-0.0,5119.6416015625,12069.54296875,6931.623046875,9451.70703125,18848.578125,6264.05078125,-3112.1572265625,7434.68603515625,5540.052734375,25211.17578125,5739.5302734375,11940.796875,-7327.39794921875,-9912.650390625,7301.171875,3875.0966796875,8198.4208984375,5474.88525390625,5555.15283203125,5230.90380859375,2607.504638671875,8753.935546875,7640.5205078125,7434.68603515625,-14195.4423828125,-0.0,-0.0,9857.0185546875,6290.27685546875,-3010.431884765625,0.0,12097.3583984375
-4733.40380859375,-10552.40625,6646.31494140625,9551.0478515625,14866.98828125,15187.263671875,13222.6943359375,12181.599609375,12950.1025390625,9066.263671875,16627.3125,0.0,12187.1630859375,0.0,11986.8916015625,15884.2412109375,26531.21875,12335.77734375,7681.0517578125,5551.9736328125,4039.605712890625,14788.3095703125,12658.4365234375,9310.2451171875,0.0,1489.3214111328125,6169.47802734375,4194.57763671875,-827.3125,-6963.41162109375,13267.994140625,3729.6611328125,9272.0986328125,15265.1474609375,9617.8056640625,15593.369140625,5662.44140625,9456.4755859375,4941.6220703125,-0.0,5126.79443359375,12078.28515625,6941.15966796875,9460.44921875,18858.11328125,6271.998046875,-3099.44140625,7450.58056640625,5545.6162109375,25220.712890625,5750.65625,11949.5390625,-7319.4501953125,-9972.2548828125,7304.3505859375,3882.2490234375,8210.341796875,5484.42236328125,5571.84228515625,5236.466796875,2570.15234375,8762.6767578125,7647.67333984375,7442.63330078125,-14201.0048828125,-0.0,-0.0,9854.634765625,6311.73486328125,-3011.2265625,0.0,12094.1796875
-4748.50341796875,-10567.505859375,6643.13671875,9531.974609375,14865.3984375,15181.701171875,13224.2841796875,12178.4208984375,12958.0498046875,9066.263671875,16608.23828125,0.0,12179.2158203125,0.0,11993.2490234375,15881.8564453125,26520.88671875,12327.830078125,7678.66748046875,5556.7421875,4036.426513671875,14780.3623046875,12655.2578125,9306.271484375,0.0,1482.1688232421875,6172.6572265625,4192.98779296875,-833.6702880859375,-6967.3857421875,13261.6357421875,3712.971923828125,9265.740234375,15254.0205078125,9613.037109375,15586.216796875,5660.85205078125,9454.0908203125,4928.11181640625,-0.0,5125.20458984375,12068.748046875,6941.15966796875,9455.6806640625,18859.705078125,6270.40869140625,-3142.35693359375,7431.50732421875,5545.6162109375,25218.328125,5756.21923828125,11947.1552734375,-7324.21875,-9973.84375,7303.55615234375,3872.71240234375,8209.5458984375,5484.42236328125,5579.78955078125,5232.4931640625,2610.683349609375,8753.935546875,7647.67333984375,7447.4013671875,-14219.2841796875,-0.0,-0.0,9853.83984375,6334.78173828125,-3015.9951171875,0.0,12085.4375
-4806.5185546875,-10562.7373046875,6630.4208984375,9513.6953125,14853.4775390625,15165.01171875,13216.3359375,12162.5263671875,12962.0234375,9059.90625,16603.470703125,0.0,12172.8583984375,0.0,11998.8125,15865.9609375,26505.7890625,12311.935546875,7664.3623046875,5554.35791015625,4020.5322265625,14762.083984375,12641.7470703125,9289.58203125,0.0,1463.0953369140625,6167.09375,4173.91455078125,-835.259765625,-6992.02197265625,13245.7421875,3701.051025390625,9251.435546875,15238.1259765625,9597.9375,15569.52734375,5649.7255859375,9442.9658203125,4914.6015625,-0.0,5108.51513671875,12052.853515625,6929.23876953125,9438.9912109375,18854.9375,6260.0771484375,-3138.383056640625,7410.84423828125,5534.490234375,25199.255859375,5753.04052734375,11932.849609375,-7379.05517578125,-9946.0283203125,7282.892578125,3853.638916015625,8203.9833984375,5461.375,5578.99462890625,5218.98291015625,2590.0205078125,8736.451171875,7638.93115234375,7449.78564453125,-14244.7158203125,-0.0,-0.0,9846.6875,6368.16015625,-3026.326416015625,0.0,12087.02734375
-4850.22900390625,-10534.9228515625,6663.00439453125,9550.25390625,14868.5771484375,15184.87890625,13222.6943359375,12182.39453125,12954.076171875,9072.62109375,16644.796875,0.0,12189.5478515625,0.0,11995.6328125,15896.955078125,26528.0390625,12330.21484375,7677.873046875,5559.12646484375,4040.400146484375,14785.130859375,12656.84765625,9307.0673828125,0.0,1488.5267333984375,6173.45166015625,4195.3720703125,-817.7757568359375,-6974.5380859375,13267.994140625,3722.5087890625,9274.482421875,15263.5576171875,9616.2158203125,15592.5751953125,5661.646484375,9458.859375,4917.7802734375,-0.0,5127.5888671875,12078.28515625,6940.36474609375,9458.859375,18857.3203125,6277.56103515625,-3070.03662109375,7447.4013671875,5545.6162109375,25219.12109375,5755.42431640625,11958.28125,-7369.51806640625,-9967.486328125,7286.86669921875,3874.302001953125,8210.341796875,5481.2431640625,5566.27880859375,5246.00341796875,2601.146728515625,8750.755859375,7648.4677734375,7456.14404296875,-14208.953125,-0.0,-0.0,9872.9130859375,6315.7080078125,-2996.126953125,0.0,12119.6103515625
-4781.8818359375,-10560.353515625,6675.72021484375,9565.353515625,14870.9609375,15193.6220703125,13217.92578125,12188.751953125,12935.7978515625,9067.05859375,16659.1015625,0.0,12190.341796875,0.0,11978.943359375,15903.314453125,26540.755859375,12337.3671875,7677.873046875,5548.00048828125,4049.142333984375,14795.462890625,12659.232421875,9312.6298828125,0.0,1495.67919921875,6167.888671875,4207.29296875,-822.5440673828125,-6953.08056640625,13275.146484375,3736.813720703125,9285.609375,15276.2724609375,9622.57421875,15600.5224609375,5660.05712890625,9461.2431640625,4906.654296875,-0.0,5134.7412109375,12090.2060546875,6938.775390625,9467.6015625,18850.16796875,6276.76611328125,-3032.684326171875,7463.29638671875,5544.02685546875,25230.25,5745.8876953125,11964.638671875,-7344.0869140625,-9952.3857421875,7296.4033203125,3884.63330078125,8203.1884765625,5489.98486328125,5544.02685546875,5254.74560546875,2617.041259765625,8753.935546875,7646.083984375,7437.86474609375,-14177.9580078125,-0.0,-0.0,9883.244140625,6268.0244140625,-2983.4111328125,0.0,12115.6376953125
-4706.3828125,-10539.69140625,6637.5732421875,9538.3330078125,14850.298828125,15173.7529296875,13203.62109375,12172.8583984375,12929.439453125,9051.958984375,16618.5703125,0.0,12161.7314453125,0.0,11966.228515625,15869.935546875,26515.326171875,12319.087890625,7661.97802734375,5536.87451171875,4026.094970703125,14772.4150390625,12640.953125,9295.9404296875,0.0,1476.605712890625,6150.404296875,4186.63037109375,-848.7701416015625,-6976.12744140625,13251.3046875,3717.740234375,9260.177734375,15253.2265625,9599.5263671875,15580.654296875,5644.16259765625,9446.14453125,4896.32275390625,-0.0,5108.51513671875,12069.54296875,6921.29150390625,9448.5283203125,18837.451171875,6263.255859375,-3075.599609375,7435.48046875,5523.36376953125,25211.17578125,5731.58251953125,11944.7705078125,-7356.0078125,-9957.94921875,7275.740234375,3859.2021484375,8184.90966796875,5474.88525390625,5537.6689453125,5256.3349609375,2583.662841796875,8733.2724609375,7634.1630859375,7429.123046875,-14197.0322265625,-0.0,-0.0,9871.3232421875,6272.79296875,-3004.07421875,0.0,12088.6162109375
-4702.4091796875,-10431.607421875,6631.21533203125,9535.94921875,14851.8876953125,15176.9326171875,13202.826171875,12177.626953125,12929.439453125,9062.2900390625,16616.98046875,0.0,12160.1416015625,0.0,11945.5654296875,15879.47265625,26516.119140625,12323.8564453125,7668.33642578125,5539.25830078125,4028.47900390625,14774.7998046875,12644.1318359375,9299.9140625,0.0,1481.3741455078125,6146.43115234375,4191.3984375,-845.5912475585938,-6976.92236328125,13253.6884765625,3719.329833984375,9258.587890625,15251.63671875,9603.5,15583.8330078125,5646.546875,9450.1181640625,4899.501953125,-0.0,5108.51513671875,12071.1328125,6922.08642578125,9453.296875,18841.42578125,6270.40869140625,-3094.673095703125,7433.89111328125,5524.15869140625,25215.1484375,5724.43017578125,11951.923828125,-7338.52392578125,-9965.1025390625,7271.7666015625,3867.1494140625,8176.962890625,5481.2431640625,5548.79541015625,5262.69287109375,2585.251953125,8736.451171875,7637.341796875,7428.328125,-14191.4677734375,-0.0,-0.0,9884.833984375,6265.64013671875,-2990.563720703125,0.0,12094.974609375
-4657.10986328125,-10413.3291015625,6627.24169921875,9533.564453125,14851.8876953125,15179.31640625,13199.646484375,12179.2158203125,12915.9287109375,9051.958984375,16624.927734375,0.0,12163.3212890625,0.0,11941.591796875,15896.955078125,26516.9140625,12323.0615234375,7666.74658203125,5524.15869140625,4026.094970703125,14777.18359375,12642.54296875,9300.708984375,0.0,1482.963623046875,6144.046875,4198.55126953125,-840.8228759765625,-6961.02783203125,13253.6884765625,3713.766845703125,9255.4091796875,15250.841796875,9601.1162109375,15583.0380859375,5644.95703125,9448.5283203125,4891.55419921875,-0.0,5102.95263671875,12069.54296875,6919.7021484375,9454.88671875,18835.068359375,6264.84521484375,-3115.336181640625,7429.91796875,5524.15869140625,25219.91796875,5720.45654296875,11959.076171875,-7350.44482421875,-9947.6171875,7269.38232421875,3880.659912109375,8176.16748046875,5493.1640625,5543.23193359375,5245.208984375,2610.683349609375,8739.630859375,7631.77880859375,7411.638671875,-14192.263671875,-0.0,-0.0,9898.3447265625,6264.05078125,-2985.795166015625,0.0,12098.1533203125
-4647.57275390625,-10472.93359375,6628.03662109375,9534.359375,14855.0673828125,15177.7265625,13202.826171875,12176.037109375,12923.876953125,9057.521484375,16616.185546875,0.0,12169.6787109375,0.0,11955.8974609375,15884.2412109375,26512.94140625,12322.2666015625,7666.74658203125,5530.51611328125,4023.710693359375,14775.59375,12645.7216796875,9298.32421875,0.0,1484.552978515625,6151.994140625,4195.3720703125,-838.4386596679688,-6956.25927734375,13251.3046875,3700.25634765625,9252.23046875,15246.8681640625,9601.1162109375,15580.654296875,5644.95703125,9447.7333984375,4870.8916015625,-0.0,5104.5419921875,12068.748046875,6922.880859375,9452.501953125,18839.041015625,6263.255859375,-3136.7939453125,7431.50732421875,5528.9267578125,25218.328125,5728.40380859375,11952.7177734375,-7346.47119140625,-9939.6708984375,7280.50830078125,3876.68603515625,8187.2939453125,5486.01171875,5545.6162109375,5230.90380859375,2597.173095703125,8738.041015625,7634.9580078125,7425.94384765625,-14196.236328125,-0.0,-0.0,9893.576171875,6274.38232421875,-2988.974365234375,0.0,12104.51171875
-4696.84619140625,-10535.716796875,6628.83154296875,9539.921875,14859.8359375,15182.4951171875,13211.568359375,12176.037109375,12939.7705078125,9072.62109375,16615.390625,0.0,12180.8056640625,0.0,11967.818359375,15881.0615234375,26518.50390625,12325.4462890625,7675.48876953125,5548.00048828125,4027.6845703125,14779.5673828125,12653.66796875,9303.8876953125,0.0,1483.75830078125,6159.94140625,4192.98779296875,-830.4913940429688,-6968.18017578125,13256.0732421875,3712.971923828125,9257.79296875,15254.8154296875,9607.474609375,15585.4228515625,5654.49365234375,9454.0908203125,4853.4072265625,-0.0,5107.720703125,12075.1064453125,6932.41748046875,9455.6806640625,18850.16796875,6270.40869140625,-3132.820068359375,7437.0703125,5532.10595703125,25219.12109375,5737.9404296875,11949.5390625,-7330.57666015625,-9946.0283203125,7291.63525390625,3871.123046875,8198.4208984375,5479.65380859375,5559.12646484375,5236.466796875,2602.736328125,8742.0146484375,7646.083984375,7450.58056640625,-14197.826171875,-0.0,-0.0,9892.78125,6286.30322265625,-2986.590087890625,0.0,12123.5849609375
-4720.68798828125,-10505.5166015625,6633.599609375,9539.921875,14867.7822265625,15191.2373046875,13221.900390625,12185.5732421875,12950.8974609375,9079.7734375,16620.158203125,0.0,12189.5478515625,0.0,11972.5869140625,15897.7509765625,26522.478515625,12332.5986328125,7685.02587890625,5556.7421875,4032.453125,14785.92578125,12660.0263671875,9311.8349609375,0.0,1482.963623046875,6163.1201171875,4202.52490234375,-826.5177612304688,-6966.5908203125,13262.4306640625,3718.53515625,9263.3564453125,15259.5830078125,9613.8310546875,15593.369140625,5665.6201171875,9464.4228515625,4878.0439453125,-0.0,5113.28369140625,12076.6953125,6939.56982421875,9462.8330078125,18860.498046875,6280.740234375,-3112.1572265625,7435.48046875,5538.46337890625,25223.09765625,5746.6826171875,11961.4599609375,-7308.32421875,-9959.5380859375,7294.8134765625,3874.302001953125,8203.1884765625,5489.1904296875,5570.2529296875,5244.4140625,2589.225830078125,8745.98828125,7656.41552734375,7458.52783203125,-14198.62109375,-0.0,-0.0,9886.423828125,6300.6083984375,-2988.179443359375,0.0,12123.5849609375
-4751.68212890625,-10516.6435546875,6625.65234375,9519.259765625,14861.4248046875,15184.87890625,13216.3359375,12184.779296875,12943.7451171875,9067.8525390625,16613.005859375,0.0,12172.0625,0.0,11968.6123046875,15904.9033203125,26508.173828125,12324.650390625,7678.66748046875,5547.20556640625,4023.710693359375,14774.0048828125,12654.4638671875,9305.4775390625,0.0,1470.2479248046875,6155.9677734375,4204.90869140625,-838.4386596679688,-6982.4853515625,13250.509765625,3695.488037109375,9252.23046875,15246.0732421875,9605.884765625,15586.216796875,5659.26220703125,9460.44921875,4906.654296875,-0.0,5102.95263671875,12064.7744140625,6932.41748046875,9458.859375,18856.525390625,6278.35595703125,-3112.1572265625,7415.61279296875,5531.31103515625,25217.533203125,5742.70849609375,11964.638671875,-7338.52392578125,-9946.0283203125,7279.7138671875,3855.228515625,8195.2412109375,5491.57470703125,5566.27880859375,5253.15625,2555.84716796875,8735.65625,7650.05712890625,7441.0439453125,-14224.052734375,-0.0,-0.0,9871.3232421875,6299.81396484375,-2998.510986328125,0.0,12102.126953125
-4792.21337890625,-10542.0751953125,6627.24169921875,9511.3115234375,14860.6298828125,15180.111328125,13216.3359375,12180.8056640625,12946.12890625,9072.62109375,16612.2109375,0.0,12163.3212890625,0.0,11966.228515625,15885.0341796875,26504.994140625,12323.0615234375,7678.66748046875,5548.00048828125,4026.889892578125,14769.236328125,12652.8740234375,9302.298828125,0.0,1463.89013671875,6156.7626953125,4193.78271484375,-846.385986328125,-6997.58544921875,13248.9208984375,3691.51416015625,9250.640625,15242.099609375,9605.08984375,15583.0380859375,5657.6728515625,9458.859375,4889.96484375,-0.0,5105.33642578125,12060.8017578125,6930.828125,9454.0908203125,18854.9375,6279.150390625,-3117.720458984375,7407.6650390625,5531.31103515625,25211.96875,5741.9140625,11955.8974609375,-7372.697265625,-9923.775390625,7277.330078125,3841.718017578125,8189.67822265625,5480.4482421875,5560.71630859375,5259.513671875,2557.436767578125,8732.478515625,7648.4677734375,7437.86474609375,-14220.8740234375,-0.0,-0.0,9879.271484375,6291.8662109375,-2992.94775390625,0.0,12103.716796875
-4730.224609375,-10499.16015625,6621.6787109375,9508.927734375,14856.65625,15172.1640625,13216.3359375,12171.2685546875,12950.8974609375,9078.185546875,16603.470703125,0.0,12160.1416015625,0.0,11967.818359375,15859.603515625,26501.814453125,12319.8828125,7675.48876953125,5554.35791015625,4022.916259765625,14765.2626953125,12647.3115234375,9295.9404296875,0.0,1455.9427490234375,6156.7626953125,4175.50439453125,-858.306884765625,-6999.9697265625,13245.7421875,3694.693359375,9245.8720703125,15238.1259765625,9602.7060546875,15577.4755859375,5654.49365234375,9452.501953125,4872.48095703125,-0.0,5101.36279296875,12054.443359375,6928.44384765625,9444.5546875,18856.525390625,6273.587890625,-3133.61474609375,7405.28125,5527.33740234375,25200.048828125,5744.29833984375,11938.4130859375,-7385.41259765625,-9930.9287109375,7278.91943359375,3836.155029296875,8192.0625,5461.375,5564.689453125,5238.05615234375,2551.87353515625,8727.7099609375,7648.4677734375,7454.55419921875,-14212.92578125,-0.0,-0.0,9891.1923828125,6299.01904296875,-2982.616455078125,0.0,12121.2001953125
-4736.58251953125,-10509.4912109375,6627.24169921875,9503.3642578125,14855.861328125,15170.57421875,13214.7470703125,12168.08984375,12952.4873046875,9082.953125,16604.265625,0.0,12170.4736328125,0.0,11973.380859375,15861.1923828125,26504.994140625,12319.087890625,7674.69384765625,5555.94775390625,4022.121337890625,14764.4677734375,12647.3115234375,9295.9404296875,0.0,1460.711181640625,6158.35205078125,4175.50439453125,-850.359619140625,-6984.0751953125,13244.9462890625,3700.25634765625,9251.435546875,15238.9208984375,9603.5,15576.6806640625,5655.28857421875,9450.1181640625,4874.07080078125,-0.0,5103.7470703125,12052.853515625,6929.23876953125,9443.759765625,18857.3203125,6271.20361328125,-3120.899169921875,7401.3076171875,5528.1318359375,25202.43359375,5745.8876953125,11932.0556640625,-7379.85009765625,-9907.8818359375,7282.892578125,3851.254638671875,8197.625,5460.58056640625,5568.6630859375,5233.28759765625,2558.2314453125,8726.9140625,7649.2626953125,7456.9384765625,-14205.7734375,-0.0,-0.0,9890.3974609375,6305.37646484375,-2985.00048828125,0.0,12123.5849609375
-4758.8349609375,-10538.8955078125,6636.7783203125,9514.4912109375,14860.6298828125,15176.9326171875,13213.1572265625,12172.0625,12944.5390625,9075.005859375,16605.853515625,0.0,12180.8056640625,0.0,11973.380859375,15881.0615234375,26512.146484375,12323.0615234375,7676.283203125,5550.384765625,4027.6845703125,14771.62109375,12648.900390625,9299.9140625,0.0,1476.605712890625,6159.14697265625,4187.42529296875,-828.107177734375,-6965.00146484375,13249.71484375,3702.640625,9257.79296875,15245.2783203125,9607.474609375,15580.654296875,5655.28857421875,9451.70703125,4891.55419921875,-0.0,5112.4892578125,12060.8017578125,6930.828125,9451.70703125,18854.140625,6271.998046875,-3108.18359375,7410.84423828125,5532.900390625,25215.943359375,5743.50341796875,11942.38671875,-7361.57080078125,-9934.107421875,7290.84033203125,3870.328125,8197.625,5472.50146484375,5563.10009765625,5236.466796875,2598.762451171875,8731.6826171875,7648.4677734375,7441.8388671875,-14195.4423828125,-0.0,-0.0,9885.62890625,6291.0712890625,-2989.76904296875,0.0,12113.25390625
-4721.48291015625,-10512.669921875,6625.65234375,9524.02734375,14857.451171875,15179.31640625,13212.36328125,12173.65234375,12938.9765625,9073.4169921875,16612.2109375,0.0,12175.2421875,0.0,11978.1494140625,15886.625,26507.376953125,12320.677734375,7673.10498046875,5549.58984375,4021.32666015625,14770.03125,12646.515625,9299.9140625,0.0,1481.3741455078125,6160.736328125,4191.3984375,-827.3125,-6961.822265625,13244.9462890625,3696.28271484375,9249.05078125,15243.689453125,9600.3212890625,15579.064453125,5652.10986328125,9451.70703125,4878.0439453125,-0.0,5104.5419921875,12061.595703125,6927.64892578125,9451.70703125,18851.7578125,6271.20361328125,-3118.51513671875,7421.17529296875,5529.7216796875,25220.712890625,5744.29833984375,11947.94921875,-7343.2919921875,-9920.5966796875,7285.27685546875,3875.891357421875,8202.3935546875,5475.6796875,5567.86865234375,5238.85107421875,2605.9150390625,8735.65625,7645.2890625,7437.86474609375,-14199.416015625,-0.0,-0.0,9883.244140625,6287.09814453125,-2988.179443359375,0.0,12113.25390625
-4682.541015625,-10535.716796875,6622.47314453125,9533.564453125,14857.451171875,15180.111328125,13215.5419921875,12172.8583984375,12942.9501953125,9075.80078125,16612.2109375,0.0,12178.4208984375,0.0,11985.3017578125,15869.935546875,26512.146484375,12323.8564453125,7673.8994140625,5554.35791015625,4023.710693359375,14773.2099609375,12646.515625,9300.708984375,0.0,1484.552978515625,6163.1201171875,4187.42529296875,-834.4650268554688,-6955.46484375,13243.357421875,3712.971923828125,9250.640625,15250.841796875,9601.91015625,15583.0380859375,5652.904296875,9452.501953125,4905.859375,-0.0,5102.95263671875,12067.9541015625,6930.033203125,9450.912109375,18854.9375,6271.20361328125,-3141.562255859375,7429.91796875,5530.51611328125,25223.09765625,5748.27197265625,11939.2080078125,-7326.60302734375,-9899.93359375,7279.7138671875,3883.0439453125,8209.5458984375,5475.6796875,5571.84228515625,5242.82470703125,2591.60986328125,8741.2197265625,7646.87890625,7444.22314453125,-14208.953125,-0.0,-0.0,9880.06640625,6299.81396484375,-2984.2060546875,0.0,12119.6103515625
-4731.01953125,-10526.974609375,6638.3681640625,9537.537109375,14865.3984375,15186.46875,13219.515625,12176.037109375,12949.3076171875,9078.9794921875,16620.158203125,0.0,12179.2158203125,0.0,11985.3017578125,15869.935546875,26520.09375,12331.0087890625,7679.46240234375,5560.71630859375,4031.658203125,14782.74609375,12652.8740234375,9307.0673828125,0.0,1490.910888671875,6167.888671875,4192.98779296875,-830.4913940429688,-6949.9013671875,13250.509765625,3721.714111328125,9262.5615234375,15256.4052734375,9609.8583984375,15590.1904296875,5659.26220703125,9458.0654296875,4921.75439453125,-0.0,5115.66796875,12075.1064453125,6934.00732421875,9456.4755859375,18858.91015625,6279.150390625,-3120.1044921875,7433.89111328125,5533.6953125,25226.275390625,5752.24560546875,11941.591796875,-7338.52392578125,-9914.2392578125,7282.09814453125,3889.401611328125,8203.9833984375,5487.6005859375,5568.6630859375,5250.77197265625,2580.483642578125,8748.3720703125,7652.44140625,7450.58056640625,-14204.978515625,-0.0,-0.0,9887.21875,6308.5556640625,-2983.4111328125,0.0,12121.2001953125
-4804.92919921875,-10438.759765625,6641.546875,9522.4384765625,14860.6298828125,15181.701171875,13210.7734375,12172.8583984375,12942.9501953125,9073.4169921875,16621.748046875,0.0,12172.8583984375,0.0,11973.380859375,15874.7041015625,26512.94140625,12327.830078125,7675.48876953125,5555.15283203125,4026.889892578125,14776.388671875,12648.10546875,9303.0927734375,0.0,1484.552978515625,6160.736328125,4193.78271484375,-836.8492431640625,-6955.46484375,13246.5361328125,3704.22998046875,9257.79296875,15245.2783203125,9606.6787109375,15583.8330078125,5652.904296875,9454.0908203125,4907.44921875,-0.0,5114.07861328125,12067.1591796875,6926.8544921875,9454.88671875,18854.140625,6274.38232421875,-3097.057373046875,7419.5859375,5529.7216796875,25223.09765625,5741.9140625,11943.1806640625,-7364.75,-9925.365234375,7281.30322265625,3879.864990234375,8191.26806640625,5488.3955078125,5551.17919921875,5248.3876953125,2582.0732421875,8749.1669921875,7648.4677734375,7441.8388671875,-14201.0048828125,-0.0,-0.0,9891.1923828125,6295.83984375,-2988.179443359375,0.0,12112.4580078125
-4760.42431640625,-10439.5546875,6644.7255859375,9535.1533203125,14864.603515625,15187.263671875,13213.1572265625,12176.8310546875,12946.9228515625,9072.62109375,16626.515625,0.0,12180.0107421875,0.0,11972.5869140625,15884.2412109375,26521.68359375,12332.5986328125,7678.66748046875,5555.94775390625,4032.453125,14783.5419921875,12651.2841796875,9310.2451171875,0.0,1490.1160888671875,6163.9150390625,4198.55126953125,-831.2861328125,-6946.72265625,13251.3046875,3717.740234375,9264.1513671875,15254.0205078125,9612.2431640625,15589.396484375,5656.08349609375,9458.0654296875,4897.91259765625,-0.0,5116.462890625,12075.1064453125,6930.033203125,9459.6552734375,18854.9375,6275.1767578125,-3093.87841796875,7431.50732421875,5536.87451171875,25228.658203125,5741.9140625,11950.333984375,-7356.0078125,-9926.955078125,7292.4296875,3875.891357421875,8200.8046875,5492.369140625,5550.384765625,5250.77197265625,2618.630615234375,8757.9091796875,7649.2626953125,7439.45458984375,-14193.0576171875,-0.0,-0.0,9894.37109375,6293.45556640625,-2990.563720703125,0.0,12108.4853515625
-4721.48291015625,-10461.0126953125,6651.87841796875,9548.6640625,14870.1669921875,15193.6220703125,13218.720703125,12182.39453125,12951.69140625,9073.4169921875,16628.107421875,0.0,12187.9580078125,0.0,11975.765625,15893.7783203125,26529.630859375,12338.1611328125,7681.8466796875,5559.12646484375,4040.400146484375,14788.3095703125,12656.052734375,9314.2197265625,0.0,1497.2686767578125,6167.888671875,4205.70361328125,-821.7493896484375,-6935.5966796875,13258.45703125,3726.482421875,9271.3037109375,15261.9677734375,9618.599609375,15595.75390625,5660.85205078125,9462.0390625,4907.44921875,-0.0,5123.615234375,12083.0537109375,6934.8017578125,9465.2177734375,18858.91015625,6278.35595703125,-3083.546875,7444.22314453125,5545.6162109375,25233.427734375,5743.50341796875,11955.8974609375,-7357.59716796875,-9934.107421875,7305.1455078125,3887.017578125,8207.95703125,5497.1376953125,5563.10009765625,5251.56640625,2602.736328125,8763.47265625,7651.64697265625,7441.8388671875,-14185.9052734375,-0.0,-0.0,9891.9873046875,6300.6083984375,-2991.3583984375,0.0,12110.07421875
-4717.5087890625,-10505.5166015625,6649.494140625,9545.4853515625,14864.603515625,15186.46875,13213.9521484375,12177.626953125,12947.71875,9067.8525390625,16618.5703125,0.0,12180.0107421875,0.0,11972.5869140625,15889.802734375,26523.271484375,12331.8037109375,7676.283203125,5555.15283203125,4034.837158203125,14781.9521484375,12649.6953125,9307.0673828125,0.0,1488.5267333984375,6163.9150390625,4199.34619140625,-832.8755493164062,-6945.92822265625,13252.0986328125,3714.5615234375,9264.1513671875,15256.4052734375,9613.037109375,15589.396484375,5653.69921875,9457.2705078125,4887.5810546875,-0.0,5118.8466796875,12076.6953125,6930.033203125,9458.859375,18854.140625,6275.1767578125,-3094.673095703125,7442.63330078125,5540.052734375,25223.890625,5738.7353515625,11951.923828125,-7363.955078125,-9963.5126953125,7295.6083984375,3881.45458984375,8202.3935546875,5486.01171875,5561.5107421875,5245.208984375,2599.55712890625,8757.1142578125,7647.67333984375,7441.0439453125,-14197.826171875,-0.0,-0.0,9876.8876953125,6301.40283203125,-3002.484619140625,0.0,12097.3583984375
-4738.171875,-10539.69140625,6634.39404296875,9554.2265625,14855.861328125,15181.701171875,13208.3896484375,12172.0625,12947.71875,9066.263671875,16601.880859375,0.0,12175.2421875,0.0,11968.6123046875,15883.4453125,26519.298828125,12325.4462890625,7670.720703125,5555.15283203125,4026.889892578125,14780.3623046875,12644.1318359375,9302.298828125,0.0,1486.1424560546875,6158.35205078125,4196.1669921875,-836.8492431640625,-6960.2333984375,13246.5361328125,3712.971923828125,9259.3828125,15254.8154296875,9605.884765625,15583.8330078125,5649.7255859375,9452.501953125,4891.55419921875,-0.0,5109.31005859375,12075.9013671875,6922.880859375,9454.0908203125,18850.16796875,6269.61376953125,-3123.283447265625,7451.37548828125,5532.10595703125,25224.685546875,5736.35107421875,11946.3603515625,-7358.39208984375,-9986.5595703125,7282.892578125,3870.328125,8196.0361328125,5469.322265625,5560.71630859375,5238.05615234375,2612.27294921875,8755.5244140625,7644.49462890625,7445.017578125,-14201.80078125,-0.0,-0.0,9872.119140625,6306.17138671875,-3004.07421875,0.0,12097.3583984375
-4750.88720703125,-10515.8486328125,6628.03662109375,9555.81640625,14855.0673828125,15180.9052734375,13205.2109375,12168.884765625,12936.591796875,9053.5478515625,16603.470703125,0.0,12177.626953125,0.0,11965.43359375,15873.11328125,26523.271484375,12327.03515625,7666.74658203125,5544.02685546875,4026.889892578125,14781.1572265625,12644.9267578125,9299.119140625,0.0,1489.3214111328125,6157.55712890625,4189.80908203125,-830.4913940429688,-6957.84912109375,13246.5361328125,3729.6611328125,9260.9716796875,15255.6103515625,9605.884765625,15583.0380859375,5647.34130859375,9446.9384765625,4911.4228515625,-0.0,5108.51513671875,12076.6953125,6920.49658203125,9449.322265625,18846.193359375,6264.84521484375,-3135.204345703125,7451.37548828125,5532.10595703125,25223.890625,5735.55615234375,11938.4130859375,-7340.11328125,-9975.43359375,7286.86669921875,3871.917724609375,8196.0361328125,5465.3486328125,5555.94775390625,5241.2353515625,2624.988525390625,8757.1142578125,7635.75244140625,7432.3017578125,-14194.6474609375,-0.0,-0.0,9876.091796875,6295.83984375,-3004.86865234375,0.0,12092.58984375
-4750.0927734375,-10508.6962890625,6632.8046875,9537.537109375,14855.861328125,15176.9326171875,13203.62109375,12166.5,12931.82421875,9053.5478515625,16623.337890625,0.0,12176.037109375,0.0,11971.791015625,15871.5244140625,26519.298828125,12324.650390625,7666.74658203125,5544.8212890625,4026.094970703125,14774.7998046875,12644.1318359375,9298.32421875,0.0,1482.1688232421875,6159.94140625,4185.041015625,-825.7230224609375,-6967.3857421875,13243.357421875,3724.892822265625,9259.3828125,15250.841796875,9604.294921875,15578.26953125,5647.34130859375,9445.349609375,4884.40185546875,-0.0,5107.720703125,12068.748046875,6922.08642578125,9446.9384765625,18846.193359375,6265.64013671875,-3116.130859375,7434.68603515625,5532.900390625,25216.73828125,5738.7353515625,11940.796875,-7324.21875,-9924.5712890625,7286.86669921875,3871.917724609375,8198.4208984375,5470.91162109375,5560.71630859375,5250.77197265625,2606.709716796875,8755.5244140625,7634.1630859375,7428.328125,-14192.263671875,-0.0,-0.0,9872.119140625,6302.9921875,-3004.86865234375,0.0,12096.564453125
-4755.65576171875,-10499.9541015625,6634.39404296875,9532.76953125,14855.861328125,15176.13671875,13206.0048828125,12168.08984375,12936.591796875,9057.521484375,16627.3125,0.0,12175.2421875,0.0,11979.7392578125,15871.5244140625,26510.556640625,12323.0615234375,7668.33642578125,5550.384765625,4023.710693359375,14770.8251953125,12642.54296875,9299.9140625,0.0,1482.963623046875,6160.736328125,4190.603515625,-828.107177734375,-6970.564453125,13239.3837890625,3705.024658203125,9253.8193359375,15244.484375,9602.7060546875,15579.859375,5648.13623046875,9446.9384765625,4879.63330078125,-0.0,5106.130859375,12064.7744140625,6922.880859375,9449.322265625,18849.373046875,6265.64013671875,-3101.82568359375,7429.123046875,5534.490234375,25222.30078125,5739.5302734375,11943.9765625,-7343.2919921875,-9927.75,7282.892578125,3870.328125,8202.3935546875,5477.26953125,5556.7421875,5249.18212890625,2610.683349609375,8753.140625,7636.546875,7441.0439453125,-14197.826171875,-0.0,-0.0,9868.14453125,6307.7607421875,-3003.279541015625,0.0,12103.716796875
-4790.6240234375,-10509.4912109375,6635.18896484375,9526.412109375,14859.8359375,15175.3427734375,13214.7470703125,12172.8583984375,12950.8974609375,9069.4423828125,16619.36328125,0.0,12175.2421875,0.0,11993.2490234375,15881.0615234375,26505.7890625,12324.650390625,7673.10498046875,5559.92138671875,4024.505615234375,14772.4150390625,12648.10546875,9302.298828125,0.0,1478.1951904296875,6165.50439453125,4191.3984375,-833.6702880859375,-6976.92236328125,13240.9736328125,3696.28271484375,9253.025390625,15242.099609375,9605.08984375,15580.654296875,5653.69921875,9452.501953125,4895.5283203125,-0.0,5109.31005859375,12061.595703125,6928.44384765625,9452.501953125,18854.9375,6271.998046875,-3108.18359375,7421.97021484375,5536.07958984375,25216.73828125,5746.6826171875,11948.7451171875,-7362.36572265625,-9979.4072265625,7279.7138671875,3863.970458984375,8208.751953125,5483.62744140625,5556.7421875,5249.97705078125,2588.43115234375,8750.755859375,7644.49462890625,7452.96484375,-14208.953125,-0.0,-0.0,9880.8603515625,6314.11865234375,-2989.76904296875,0.0,12114.8427734375
-4749.2978515625,-10519.822265625,6645.5205078125,9535.1533203125,14866.98828125,15187.263671875,13222.6943359375,12181.599609375,12960.43359375,9082.158203125,16623.337890625,0.0,12184.779296875,0.0,11988.48046875,15891.3935546875,26516.119140625,12333.3935546875,7682.6416015625,5569.4580078125,4035.631591796875,14783.5419921875,12658.4365234375,9308.6552734375,0.0,1487.73193359375,6171.06787109375,4201.73046875,-824.133544921875,-6966.5908203125,13252.0986328125,3709.79296875,9265.740234375,15253.2265625,9614.626953125,15588.6015625,5661.646484375,9462.8330078125,4909.03857421875,-0.0,5120.43603515625,12071.9267578125,6935.5966796875,9462.0390625,18862.8828125,6283.12451171875,-3118.51513671875,7432.3017578125,5540.84765625,25225.48046875,5750.65625,11955.8974609375,-7343.2919921875,-9947.6171875,7272.5615234375,3873.50732421875,8211.1357421875,5499.52197265625,5565.484375,5251.56640625,2594.788818359375,8757.1142578125,7654.82568359375,7458.52783203125,-14201.80078125,-0.0,-0.0,9892.78125,6298.22412109375,-2978.642822265625,0.0,12123.5849609375
-4726.2509765625,-10513.46484375,6643.93115234375,9549.458984375,14868.5771484375,15194.416015625,13222.6943359375,12187.1630859375,12955.666015625,9081.36328125,16623.337890625,0.0,12189.5478515625,0.0,11976.5595703125,15901.7236328125,26524.861328125,12338.1611328125,7685.8203125,5565.484375,4039.605712890625,14792.283203125,12660.0263671875,9316.603515625,0.0,1496.473876953125,6168.68359375,4212.8564453125,-813.00732421875,-6953.08056640625,13256.8671875,3720.91943359375,9270.5087890625,15261.9677734375,9617.8056640625,15596.548828125,5665.6201171875,9467.6015625,4913.80712890625,-0.0,5121.23095703125,12083.84765625,6934.8017578125,9469.986328125,18865.267578125,6283.9189453125,-3121.69384765625,7447.4013671875,5540.052734375,25238.1953125,5748.27197265625,11964.638671875,-7321.03955078125,-9940.46484375,7278.12451171875,3885.42822265625,8206.3671875,5509.853515625,5572.63720703125,5250.77197265625,2610.683349609375,8760.29296875,7655.62060546875,7449.78564453125,-14212.1318359375,-0.0,-0.0,9891.9873046875,6295.04541015625,-2980.232177734375,0.0,12125.96875
-4729.4296875,-10543.6640625,6640.75244140625,9543.1015625,14859.8359375,15188.0576171875,13209.18359375,12175.2421875,12924.6708984375,9063.8798828125,16611.41796875,0.0,12172.8583984375,0.0,11966.228515625,15892.982421875,26515.326171875,12328.625,7673.10498046875,5540.84765625,4030.06884765625,14781.1572265625,12649.6953125,9305.4775390625,0.0,1492.500244140625,6157.55712890625,4204.1142578125,-828.9019165039062,-6954.669921875,13248.1259765625,3709.79296875,9262.5615234375,15254.0205078125,9609.0634765625,15588.6015625,5653.69921875,9454.88671875,4901.8857421875,-0.0,5114.87353515625,12077.4912109375,6926.8544921875,9460.44921875,18848.578125,6269.61376953125,-3112.1572265625,7439.45458984375,5535.28466796875,25234.22265625,5736.35107421875,11951.12890625,-7336.1396484375,-9950.796875,7286.07177734375,3879.0703125,8198.4208984375,5497.9326171875,5548.79541015625,5238.05615234375,2592.404541015625,8745.193359375,7638.13623046875,7418.79150390625,-14206.568359375,-0.0,-0.0,9873.7080078125,6260.8720703125,-3002.484619140625,0.0,12097.3583984375
-4776.31884765625,-10515.0537109375,6647.10986328125,9533.564453125,14859.8359375,15182.4951171875,13208.3896484375,12174.447265625,12926.2607421875,9060.7001953125,16608.23828125,0.0,12172.8583984375,0.0,11966.228515625,15890.5986328125,26516.119140625,12324.650390625,7671.51513671875,5537.6689453125,4029.27392578125,14776.388671875,12647.3115234375,9303.0927734375,0.0,1484.552978515625,6157.55712890625,4200.140625,-840.8228759765625,-6955.46484375,13246.5361328125,3712.971923828125,9264.9462890625,15250.046875,9607.474609375,15583.8330078125,5652.904296875,9450.912109375,4881.22314453125,-0.0,5116.462890625,12068.748046875,6924.47021484375,9456.4755859375,18848.578125,6268.0244140625,-3135.9990234375,7431.50732421875,5534.490234375,25225.48046875,5737.14599609375,11950.333984375,-7354.41845703125,-9992.9169921875,7290.84033203125,3863.175537109375,8193.65234375,5493.958984375,5546.4111328125,5237.26123046875,2585.251953125,8740.4248046875,7638.93115234375,7419.5859375,-14194.6474609375,-0.0,-0.0,9870.529296875,6268.8193359375,-3009.63720703125,0.0,12091.0009765625
-4814.4658203125,-10480.880859375,6645.5205078125,9535.1533203125,14860.6298828125,15183.2890625,13213.1572265625,12176.037109375,12944.5390625,9065.46875,16611.41796875,0.0,12175.2421875,0.0,11965.43359375,15889.009765625,26516.119140625,12327.830078125,7677.078125,5549.58984375,4029.27392578125,14777.9775390625,12648.900390625,9304.6826171875,0.0,1483.75830078125,6160.736328125,4199.34619140625,-838.4386596679688,-6961.02783203125,13248.1259765625,3716.15087890625,9265.740234375,15248.4580078125,9607.474609375,15584.6279296875,5656.8779296875,9454.0908203125,4860.56005859375,-0.0,5115.66796875,12068.748046875,6927.64892578125,9456.4755859375,18857.3203125,6272.79296875,-3099.44140625,7432.3017578125,5535.28466796875,25221.505859375,5739.5302734375,11951.12890625,-7377.4658203125,-9973.048828125,7292.4296875,3863.970458984375,8186.49951171875,5487.6005859375,5563.10009765625,5248.3876953125,2586.046875,8742.8095703125,7645.2890625,7437.0703125,-14192.263671875,-0.0,-0.0,9881.6552734375,6294.25048828125,-3004.07421875,0.0,12107.689453125
-4727.84033203125,-10481.6748046875,6604.98974609375,9517.669921875,14840.76171875,15165.8056640625,13199.646484375,12160.9375,12936.591796875,9047.9853515625,16597.11328125,0.0,12163.3212890625,0.0,11958.28125,15869.140625,26494.662109375,12309.55078125,7661.97802734375,5536.87451171875,4007.021484375,14761.2890625,12633.005859375,9287.9931640625,0.0,1465.4794921875,6149.60986328125,4181.06689453125,-855.9227294921875,-6977.716796875,13229.8466796875,3698.666748046875,9239.5146484375,15231.7685546875,9588.400390625,15567.1435546875,5640.9833984375,9440.5810546875,4843.076171875,-0.0,5087.0576171875,12054.443359375,6911.75439453125,9440.5810546875,18844.60546875,6259.28271484375,-3112.1572265625,7413.228515625,5521.7744140625,25204.0234375,5729.1982421875,11936.82421875,-7384.6181640625,-9941.2607421875,7274.15087890625,3849.665283203125,8180.93603515625,5465.3486328125,5556.7421875,5241.2353515625,2571.74169921875,8726.1201171875,7630.98388671875,7428.328125,-14210.5419921875,-0.0,-0.0,9866.5556640625,6302.9921875,-3015.200439453125,0.0,12091.0009765625
-4657.904296875,-10489.623046875,6613.7314453125,9531.1806640625,14851.09375,15173.7529296875,13205.2109375,12169.6787109375,12931.029296875,9057.521484375,16609.033203125,0.0,12171.2685546875,0.0,11959.076171875,15874.7041015625,26504.994140625,12318.2939453125,7667.54150390625,5538.46337890625,4017.35302734375,14770.03125,12640.953125,9295.1455078125,0.0,1473.4267578125,6154.37841796875,4189.0146484375,-843.20703125,-6961.02783203125,13240.177734375,3702.640625,9246.6669921875,15242.89453125,9597.142578125,15572.70703125,5644.95703125,9447.7333984375,4874.07080078125,-0.0,5097.38916015625,12063.185546875,6918.1123046875,9449.322265625,18846.193359375,6263.255859375,-3114.541259765625,7427.53369140625,5531.31103515625,25215.943359375,5730.78759765625,11943.9765625,-7357.59716796875,-9980.99609375,7281.30322265625,3869.533447265625,8186.49951171875,5476.474609375,5551.17919921875,5247.5927734375,2586.046875,8733.2724609375,7635.75244140625,7428.328125,-14208.1572265625,-0.0,-0.0,9873.7080078125,6280.740234375,-2998.510986328125,0.0,12098.9482421875
-4685.7197265625,-10525.3857421875,6628.03662109375,9534.359375,14859.8359375,15179.31640625,13213.1572265625,12171.2685546875,12940.56640625,9068.6484375,16619.36328125,0.0,12178.4208984375,0.0,11968.6123046875,15872.3203125,26509.76171875,12322.2666015625,7675.48876953125,5549.58984375,4024.505615234375,14773.2099609375,12648.900390625,9299.9140625,0.0,1482.1688232421875,6161.53076171875,4190.603515625,-830.4913940429688,-6961.02783203125,13244.9462890625,3701.845947265625,9256.2041015625,15248.4580078125,9605.08984375,15580.654296875,5655.28857421875,9454.0908203125,4885.99169921875,-0.0,5109.31005859375,12070.337890625,6926.0595703125,9452.501953125,18854.140625,6269.61376953125,-3112.951904296875,7431.50732421875,5537.6689453125,25220.712890625,5740.32470703125,11943.1806640625,-7348.85546875,-9980.99609375,7285.27685546875,3876.68603515625,8196.8310546875,5482.83251953125,5560.71630859375,5244.4140625,2613.8623046875,8734.8623046875,7646.083984375,7441.8388671875,-14206.568359375,-0.0,-0.0,9873.7080078125,6283.9189453125,-2987.384765625,0.0,12114.8427734375
-4752.47705078125,-10506.3125,6632.8046875,9531.1806640625,14859.8359375,15177.7265625,13213.9521484375,12170.4736328125,12939.7705078125,9067.05859375,16624.1328125,0.0,12172.8583984375,0.0,11970.2021484375,15877.8818359375,26510.556640625,12322.2666015625,7675.48876953125,5544.02685546875,4023.710693359375,14772.4150390625,12649.6953125,9299.9140625,0.0,1480.579345703125,6158.35205078125,4189.80908203125,-837.6439208984375,-6965.7958984375,13244.15234375,3705.024658203125,9258.587890625,15249.251953125,9601.91015625,15579.859375,5655.28857421875,9451.70703125,4888.3759765625,-0.0,5107.720703125,12068.748046875,6923.67578125,9454.0908203125,18853.345703125,6268.8193359375,-3120.1044921875,7428.328125,5532.900390625,25219.91796875,5737.14599609375,11943.9765625,-7348.060546875,-9950.796875,7279.7138671875,3868.73876953125,8195.2412109375,5484.42236328125,5559.92138671875,5235.671875,2609.888671875,8730.888671875,7643.69970703125,7437.86474609375,-14193.0576171875,-0.0,-0.0,9876.8876953125,6279.9453125,-2993.74267578125,0.0,12115.6376953125
-4788.23974609375,-10476.1123046875,6643.93115234375,9539.126953125,14866.98828125,15187.263671875,13221.1044921875,12180.8056640625,12946.9228515625,9063.8798828125,16628.900390625,0.0,12180.8056640625,0.0,11979.7392578125,15890.5986328125,26517.708984375,12331.8037109375,7681.8466796875,5546.4111328125,4033.24755859375,14783.5419921875,12656.052734375,9307.861328125,0.0,1491.70556640625,6165.50439453125,4200.140625,-835.259765625,-6958.6435546875,13256.0732421875,3715.356201171875,9268.125,15258.7890625,9611.447265625,15588.6015625,5661.646484375,9460.44921875,4895.5283203125,-0.0,5117.2578125,12077.4912109375,6930.828125,9461.2431640625,18859.705078125,6275.1767578125,-3105.79931640625,7435.48046875,5539.25830078125,25229.453125,5746.6826171875,11954.3076171875,-7346.47119140625,-9897.5498046875,7291.63525390625,3883.838623046875,8201.599609375,5489.98486328125,5566.27880859375,5245.208984375,2576.51025390625,8735.65625,7648.4677734375,7436.275390625,-14176.369140625,-0.0,-0.0,9885.62890625,6286.30322265625,-2992.153076171875,0.0,12114.8427734375
-4723.072265625,-10548.4326171875,6625.65234375,9533.564453125,14859.0400390625,15183.2890625,13217.1318359375,12182.39453125,12945.333984375,9062.2900390625,16612.2109375,0.0,12175.2421875,0.0,11978.1494140625,15895.3662109375,26509.76171875,12326.240234375,7677.873046875,5544.02685546875,4024.505615234375,14777.18359375,12650.490234375,9303.8876953125,0.0,1482.1688232421875,6161.53076171875,4201.73046875,-842.4122924804688,-6967.3857421875,13247.3310546875,3704.22998046875,9257.79296875,15250.046875,9605.08984375,15582.244140625,5656.8779296875,9458.0654296875,4875.66015625,-0.0,5106.92578125,12070.337890625,6926.8544921875,9459.6552734375,18855.73046875,6275.9716796875,-3120.899169921875,7429.91796875,5528.9267578125,25227.0703125,5744.29833984375,11960.666015625,-7367.92919921875,-9915.8291015625,7284.482421875,3878.275634765625,8198.4208984375,5487.6005859375,5561.5107421875,5258.71875,2613.8623046875,8728.50390625,7646.083984375,7432.3017578125,-14193.8525390625,-0.0,-0.0,9880.8603515625,6289.48193359375,-2991.3583984375,0.0,12105.3056640625
-4689.693359375,-10542.869140625,6613.7314453125,9516.080078125,14851.09375,15171.3681640625,13210.7734375,12172.8583984375,12946.12890625,9066.263671875,16597.11328125,0.0,12161.7314453125,0.0,11973.380859375,15885.0341796875,26502.609375,12317.498046875,7671.51513671875,5546.4111328125,4014.96875,14766.056640625,12643.3369140625,9295.9404296875,0.0,1464.684814453125,6155.9677734375,4189.80908203125,-846.385986328125,-6991.2275390625,13237.0,3693.8984375,9248.2568359375,15239.7158203125,9597.142578125,15573.501953125,5652.10986328125,9451.70703125,4872.48095703125,-0.0,5096.59423828125,12057.6220703125,6921.29150390625,9450.1181640625,18852.552734375,6269.61376953125,-3141.562255859375,7411.638671875,5519.39013671875,25212.765625,5740.32470703125,11951.12890625,-7357.59716796875,-9941.2607421875,7278.91943359375,3847.28125,8192.0625,5471.70654296875,5567.86865234375,5247.5927734375,2620.22021484375,8721.3515625,7642.1103515625,7439.45458984375,-14214.515625,-0.0,-0.0,9874.5029296875,6302.9921875,-2997.71630859375,0.0,12109.279296875
-4720.68798828125,-10492.0068359375,6620.0888671875,9516.080078125,14851.8876953125,15170.57421875,13210.7734375,12168.884765625,12947.71875,9059.90625,16596.31640625,0.0,12157.7578125,0.0,11967.818359375,15873.9091796875,26506.58203125,12319.8828125,7673.10498046875,5548.00048828125,4017.35302734375,14766.056640625,12646.515625,9295.9404296875,0.0,1466.2742919921875,6154.37841796875,4185.041015625,-846.385986328125,-6994.40625,13240.177734375,3704.22998046875,9253.8193359375,15242.89453125,9599.5263671875,15574.2958984375,5653.69921875,9450.912109375,4882.017578125,-0.0,5098.978515625,12056.8271484375,6923.67578125,9447.7333984375,18855.73046875,6266.43505859375,-3139.177978515625,7411.638671875,5522.5693359375,25209.5859375,5737.9404296875,11943.1806640625,-7348.85546875,-9952.3857421875,7274.94580078125,3846.486328125,8188.8837890625,5469.322265625,5571.84228515625,5241.2353515625,2603.53076171875,8728.50390625,7643.69970703125,7441.0439453125,-14215.310546875,-0.0,-0.0,9867.3505859375,6314.9130859375,-3008.0478515625,0.0,12099.7431640625
-4793.00830078125,-10483.2646484375,6631.21533203125,9513.6953125,14856.65625,15174.5478515625,13212.36328125,12172.8583984375,12945.333984375,9067.8525390625,16590.75390625,0.0,12161.7314453125,0.0,11970.2021484375,15882.650390625,26510.556640625,12324.650390625,7677.078125,5551.17919921875,4024.505615234375,14770.03125,12650.490234375,9301.5029296875,0.0,1471.83740234375,6158.35205078125,4191.3984375,-844.0017700195312,-6976.92236328125,13244.9462890625,3705.024658203125,9258.587890625,15245.2783203125,9607.474609375,15577.4755859375,5656.08349609375,9455.6806640625,4862.14990234375,-0.0,5106.92578125,12060.8017578125,6926.8544921875,9451.70703125,18856.525390625,6272.79296875,-3124.078125,7410.04931640625,5528.1318359375,25213.560546875,5739.5302734375,11949.5390625,-7363.16064453125,-9963.5126953125,7278.12451171875,3861.58642578125,8193.65234375,5476.474609375,5566.27880859375,5249.18212890625,2604.325439453125,8738.8349609375,7647.67333984375,7436.275390625,-14214.515625,-0.0,-0.0,9885.62890625,6307.7607421875,-2992.153076171875,0.0,12098.9482421875
-4788.23974609375,-10499.16015625,6638.3681640625,9525.6162109375,14865.3984375,15180.9052734375,13215.5419921875,12173.65234375,12939.7705078125,9071.8271484375,16608.23828125,0.0,12172.0625,0.0,11970.2021484375,15874.7041015625,26520.09375,12334.982421875,7680.25732421875,5551.9736328125,4034.04248046875,14778.7734375,12654.4638671875,9308.6552734375,0.0,1483.75830078125,6160.736328125,4194.57763671875,-832.080810546875,-6955.46484375,13254.4833984375,3716.15087890625,9264.9462890625,15254.8154296875,9615.4208984375,15585.4228515625,5660.85205078125,9457.2705078125,4885.99169921875,-0.0,5114.87353515625,12068.748046875,6931.623046875,9455.6806640625,18857.3203125,6271.998046875,-3113.74658203125,7422.76513671875,5538.46337890625,25222.30078125,5741.119140625,11945.5654296875,-7365.544921875,-9945.2333984375,7288.4560546875,3874.302001953125,8198.4208984375,5478.06396484375,5557.537109375,5237.26123046875,2635.320068359375,8748.3720703125,7647.67333984375,7437.86474609375,-14199.416015625,-0.0,-0.0,9888.80859375,6285.5087890625,-2984.2060546875,0.0,12117.2265625
-4711.1513671875,-10498.3642578125,6635.18896484375,9539.921875,14866.1923828125,15182.4951171875,13216.3359375,12173.65234375,12946.12890625,9072.62109375,16629.6953125,0.0,12177.626953125,0.0,11978.943359375,15871.5244140625,26520.09375,12335.77734375,7679.46240234375,5555.15283203125,4033.24755859375,14781.1572265625,12653.66796875,9308.6552734375,0.0,1488.5267333984375,6163.9150390625,4190.603515625,-830.4913940429688,-6956.25927734375,13254.4833984375,3712.17724609375,9265.740234375,15255.6103515625,9614.626953125,15588.6015625,5660.05712890625,9458.0654296875,4897.11767578125,-0.0,5113.28369140625,12075.1064453125,6932.41748046875,9456.4755859375,18858.11328125,6271.20361328125,-3114.541259765625,7436.275390625,5540.84765625,25223.890625,5744.29833984375,11940.001953125,-7348.060546875,-9983.3798828125,7290.84033203125,3872.71240234375,8195.2412109375,5479.65380859375,5558.33203125,5232.4931640625,2624.988525390625,8750.755859375,7647.67333984375,7444.22314453125,-14193.0576171875,-0.0,-0.0,9879.271484375,6296.634765625,-2992.153076171875,0.0,12121.2001953125
-4712.740234375,-10484.8544921875,6635.98388671875,9540.716796875,14865.3984375,15182.4951171875,13220.310546875,12175.2421875,12948.5126953125,9064.6748046875,16627.3125,0.0,12187.1630859375,0.0,11990.865234375,15889.802734375,26517.708984375,12335.77734375,7681.0517578125,5553.5634765625,4032.453125,14780.3623046875,12654.4638671875,9307.861328125,0.0,1488.5267333984375,6171.06787109375,4196.1669921875,-832.080810546875,-6965.00146484375,13248.9208984375,3703.435302734375,9262.5615234375,15250.841796875,9613.037109375,15587.806640625,5661.646484375,9459.6552734375,4886.7861328125,-0.0,5111.6943359375,12074.3115234375,6934.00732421875,9458.0654296875,18858.11328125,6270.40869140625,-3108.978271484375,7438.65966796875,5542.43701171875,25223.09765625,5749.06689453125,11950.333984375,-7332.96044921875,-9969.0751953125,7296.4033203125,3855.228515625,8207.95703125,5481.2431640625,5566.27880859375,5227.724609375,2617.8359375,8754.73046875,7648.4677734375,7439.45458984375,-14188.2900390625,-0.0,-0.0,9868.14453125,6310.14501953125,-3011.2265625,0.0,12102.126953125
-4748.50341796875,-10506.3125,6639.95751953125,9530.384765625,14866.98828125,15181.701171875,13222.6943359375,12180.0107421875,12939.7705078125,9072.62109375,16618.5703125,0.0,12183.189453125,0.0,11982.91796875,15897.7509765625,26520.09375,12336.5712890625,7681.0517578125,5555.15283203125,4033.24755859375,14779.5673828125,12655.2578125,9309.451171875,0.0,1482.963623046875,6168.68359375,4201.73046875,-831.2861328125,-6976.12744140625,13249.71484375,3708.20361328125,9264.9462890625,15252.4306640625,9616.2158203125,15589.396484375,5660.85205078125,9458.859375,4897.11767578125,-0.0,5116.462890625,12068.748046875,6933.21240234375,9461.2431640625,18858.91015625,6272.79296875,-3110.56787109375,7429.123046875,5545.6162109375,25222.30078125,5749.861328125,11956.69140625,-7350.44482421875,-9934.90234375,7282.09814453125,3864.76513671875,8209.5458984375,5487.6005859375,5567.86865234375,5234.876953125,2625.783203125,8758.7041015625,7649.2626953125,7445.017578125,-14185.111328125,-0.0,-0.0,9884.0400390625,6278.35595703125,-2986.590087890625,0.0,12117.2265625
-4770.755859375,-10555.5849609375,6628.03662109375,9523.232421875,14855.861328125,15172.1640625,13213.1572265625,12168.08984375,12928.6455078125,9064.6748046875,16612.2109375,0.0,12167.294921875,0.0,11962.2548828125,15874.7041015625,26512.94140625,12328.625,7671.51513671875,5544.8212890625,4024.505615234375,14770.8251953125,12644.9267578125,9301.5029296875,0.0,1469.4532470703125,6154.37841796875,4189.80908203125,-843.20703125,-6982.4853515625,13243.357421875,3705.024658203125,9255.4091796875,15247.662109375,9605.884765625,15579.064453125,5652.10986328125,9448.5283203125,4885.19677734375,-0.0,5105.33642578125,12061.595703125,6921.29150390625,9450.912109375,18850.16796875,6264.05078125,-3139.97265625,7421.97021484375,5531.31103515625,25214.353515625,5736.35107421875,11936.0283203125,-7359.9814453125,-9943.64453125,7255.8720703125,3873.50732421875,8185.7041015625,5482.83251953125,5558.33203125,5234.08251953125,2611.47802734375,8752.345703125,7638.13623046875,7431.50732421875,-14204.1845703125,-0.0,-0.0,9874.5029296875,6261.6669921875,-2988.179443359375,0.0,12114.0478515625
-4786.650390625,-10556.3798828125,6620.8837890625,9512.1064453125,14849.50390625,15165.01171875,13209.18359375,12161.7314453125,12938.9765625,9063.8798828125,16601.0859375,0.0,12159.34765625,0.0,11959.8701171875,15858.80859375,26502.609375,12321.47265625,7666.74658203125,5549.58984375,4016.55810546875,14762.083984375,12640.158203125,9295.9404296875,0.0,1457.5322265625,6149.60986328125,4181.06689453125,-852.7437744140625,-6988.04833984375,13236.205078125,3698.666748046875,9249.05078125,15235.7412109375,9600.3212890625,15570.3232421875,5648.13623046875,9446.14453125,4873.27587890625,-0.0,5098.978515625,12053.6494140625,6917.31787109375,9442.9658203125,18849.373046875,6261.6669921875,-3140.767333984375,7409.25439453125,5520.9794921875,25204.81640625,5733.966796875,11925.697265625,-7378.26025390625,-9947.6171875,7257.46142578125,3857.612548828125,8176.962890625,5477.26953125,5560.71630859375,5236.466796875,2611.47802734375,8749.1669921875,7636.546875,7441.0439453125,-14219.2841796875,-0.0,-0.0,9865.7607421875,6295.83984375,-3004.07421875,0.0,12104.51171875
-4746.9140625,-10494.3916015625,6621.6787109375,9516.080078125,14853.4775390625,15168.984375,13213.1572265625,12168.884765625,12951.69140625,9071.0322265625,16608.23828125,0.0,12172.0625,0.0,11967.818359375,15861.1923828125,26504.197265625,12327.03515625,7673.10498046875,5559.12646484375,4021.32666015625,14766.8525390625,12646.515625,9299.9140625,0.0,1463.89013671875,6157.55712890625,4186.63037109375,-847.9754028320312,-6982.4853515625,13240.177734375,3703.435302734375,9252.23046875,15238.1259765625,9602.7060546875,15575.8857421875,5654.49365234375,9450.912109375,4888.3759765625,-0.0,5102.15771484375,12056.8271484375,6922.08642578125,9447.7333984375,18856.525390625,6268.8193359375,-3129.641357421875,7414.81787109375,5524.953125,25211.17578125,5742.70849609375,11934.439453125,-7363.16064453125,-9948.4130859375,7273.35595703125,3853.638916015625,8190.47265625,5482.0380859375,5570.2529296875,5242.02978515625,2617.041259765625,8755.5244140625,7644.49462890625,7446.60693359375,-14210.5419921875,-0.0,-0.0,9877.681640625,6323.65576171875,-2996.921630859375,0.0,12109.279296875
-4723.86669921875,-10486.443359375,6630.4208984375,9531.1806640625,14859.8359375,15176.9326171875,13213.9521484375,12172.0625,12938.181640625,9067.05859375,16613.802734375,0.0,12176.8310546875,0.0,11964.638671875,15860.3994140625,26514.529296875,12335.77734375,7673.8994140625,5551.17919921875,4030.86328125,14777.18359375,12652.0791015625,9307.861328125,0.0,1482.1688232421875,6162.3251953125,4187.42529296875,-833.6702880859375,-6971.359375,13246.5361328125,3712.17724609375,9259.3828125,15250.841796875,9609.8583984375,15585.4228515625,5656.8779296875,9453.296875,4891.55419921875,-0.0,5108.51513671875,12068.748046875,6926.8544921875,9450.912109375,18851.7578125,6271.20361328125,-3124.872802734375,7428.328125,5534.490234375,25218.328125,5741.9140625,11939.2080078125,-7362.36572265625,-9959.5380859375,7284.482421875,3871.123046875,8193.65234375,5478.85888671875,5555.94775390625,5249.97705078125,2628.962158203125,8762.6767578125,7642.90478515625,7432.3017578125,-14206.568359375,-0.0,-0.0,9891.9873046875,6281.53466796875,-2985.00048828125,0.0,12118.021484375
-4742.9404296875,-10476.9072265625,6643.93115234375,9546.2802734375,14870.1669921875,15188.853515625,13221.900390625,12180.8056640625,12941.3603515625,9073.4169921875,16623.337890625,0.0,12184.779296875,0.0,11971.791015625,15878.677734375,26526.451171875,12346.1083984375,7681.8466796875,5558.33203125,4040.400146484375,14786.720703125,12659.232421875,9318.1923828125,0.0,1492.500244140625,6171.06787109375,4198.55126953125,-824.133544921875,-6954.669921875,13256.0732421875,3721.714111328125,9269.71484375,15261.9677734375,9620.189453125,15594.958984375,5664.8251953125,9462.8330078125,4899.501953125,-0.0,5118.8466796875,12081.4638671875,6936.39111328125,9462.8330078125,18858.91015625,6277.56103515625,-3119.3095703125,7443.42822265625,5548.00048828125,25230.25,5746.6826171875,11953.5126953125,-7349.64990234375,-9965.1025390625,7296.4033203125,3890.9912109375,8205.5732421875,5488.3955078125,5560.71630859375,5260.30859375,2635.320068359375,8774.59765625,7650.85205078125,7437.86474609375,-14195.4423828125,-0.0,-0.0,9902.318359375,6280.740234375,-2980.232177734375,0.0,12118.81640625
-4765.9873046875,-10472.93359375,6637.5732421875,9537.537109375,14864.603515625,15184.0849609375,13220.310546875,12179.2158203125,12942.9501953125,9069.4423828125,16620.955078125,0.0,12184.779296875,0.0,11974.17578125,15881.0615234375,26520.09375,12339.7509765625,7678.66748046875,5559.12646484375,4033.24755859375,14781.1572265625,12655.2578125,9314.2197265625,0.0,1489.3214111328125,6168.68359375,4195.3720703125,-828.107177734375,-6961.02783203125,13252.0986328125,3715.356201171875,9263.3564453125,15255.6103515625,9614.626953125,15587.806640625,5662.44140625,9458.0654296875,4884.40185546875,-0.0,5112.4892578125,12074.3115234375,6932.41748046875,9458.859375,18858.91015625,6273.587890625,-3112.1572265625,7435.48046875,5546.4111328125,25227.865234375,5743.50341796875,11950.333984375,-7352.8291015625,-9977.8173828125,7292.4296875,3879.0703125,8209.5458984375,5478.85888671875,5563.10009765625,5248.3876953125,2630.551513671875,8773.8037109375,7649.2626953125,7442.63330078125,-14197.826171875,-0.0,-0.0,9890.3974609375,6287.09814453125,-2992.153076171875,0.0,12107.689453125
-4790.6240234375,-10508.6962890625,6633.599609375,9534.359375,14865.3984375,15184.0849609375,13225.873046875,12180.0107421875,12957.2548828125,9076.595703125,16616.185546875,0.0,12188.751953125,0.0,11982.123046875,15877.0888671875,26516.119140625,12338.9560546875,7683.43603515625,5571.84228515625,4033.24755859375,14780.3623046875,12658.4365234375,9313.423828125,0.0,1485.3477783203125,6171.06787109375,4194.57763671875,-827.3125,-6968.97509765625,13249.71484375,3712.971923828125,9262.5615234375,15254.0205078125,9613.8310546875,15587.0126953125,5666.41455078125,9459.6552734375,4882.8125,-0.0,5110.8994140625,12071.9267578125,6934.8017578125,9459.6552734375,18865.267578125,6277.56103515625,-3112.1572265625,7432.3017578125,5542.43701171875,25225.48046875,5750.65625,11950.333984375,-7353.6240234375,-10003.2490234375,7294.8134765625,3877.480712890625,8211.9306640625,5476.474609375,5573.431640625,5246.00341796875,2636.11474609375,8772.2138671875,7654.03125,7459.322265625,-14194.6474609375,-0.0,-0.0,9882.4501953125,6312.529296875,-2995.33203125,0.0,12106.8955078125
-4788.23974609375,-10545.25390625,6616.11572265625,9525.6162109375,14850.298828125,15163.421875,13213.9521484375,12162.5263671875,12954.076171875,9066.263671875,16582.806640625,0.0,12175.2421875,0.0,11978.943359375,15857.2197265625,26499.4296875,12322.2666015625,7669.92578125,5562.3056640625,4018.14794921875,14762.87890625,12644.9267578125,9296.734375,0.0,1465.4794921875,6160.736328125,4173.1201171875,-844.0017700195312,-6991.2275390625,13234.615234375,3697.8720703125,9245.8720703125,15239.7158203125,9597.9375,15571.1171875,5654.49365234375,9444.5546875,4861.35498046875,-0.0,5096.59423828125,12055.2373046875,6923.67578125,9442.169921875,18856.525390625,6263.255859375,-3143.151611328125,7422.76513671875,5527.33740234375,25204.0234375,5745.8876953125,11931.259765625,-7362.36572265625,-10091.4638671875,7274.15087890625,3851.254638671875,8201.599609375,5455.81201171875,5571.04736328125,5232.4931640625,2604.325439453125,8750.755859375,7643.69970703125,7444.22314453125,-14230.41015625,-0.0,-0.0,9861.787109375,6335.57666015625,-3008.842529296875,0.0,12100.537109375
-4760.42431640625,-10531.7431640625,6645.5205078125,9538.3330078125,14859.8359375,15172.1640625,13217.1318359375,12170.4736328125,12937.38671875,9057.521484375,16608.23828125,0.0,12175.2421875,0.0,11979.7392578125,15876.29296875,26515.326171875,12332.5986328125,7670.720703125,5548.79541015625,4031.658203125,14776.388671875,12651.2841796875,9303.0927734375,0.0,1473.4267578125,6161.53076171875,4187.42529296875,-834.4650268554688,-6986.45947265625,13247.3310546875,3718.53515625,9264.9462890625,15253.2265625,9609.0634765625,15579.859375,5657.6728515625,9450.1181640625,4848.63916015625,-0.0,5114.87353515625,12067.1591796875,6927.64892578125,9451.70703125,18853.345703125,6262.46142578125,-3139.97265625,7433.09619140625,5532.900390625,25216.73828125,5744.29833984375,11940.001953125,-7347.265625,-10002.4541015625,7263.8193359375,3862.380859375,8197.625,5470.1171875,5558.33203125,5233.28759765625,2610.683349609375,8752.345703125,7642.1103515625,7427.53369140625,-14226.4365234375,-0.0,-0.0,9867.3505859375,6298.22412109375,-3011.2265625,0.0,12105.3056640625
-4751.68212890625,-10520.6171875,6657.44140625,9551.8427734375,14873.345703125,15189.6474609375,13228.2568359375,12186.3681640625,12944.5390625,9062.2900390625,16628.900390625,0.0,12180.0107421875,0.0,11998.8125,15903.314453125,26534.3984375,12345.314453125,7683.43603515625,5555.15283203125,4046.758056640625,14790.6943359375,12664.0009765625,9316.603515625,0.0,1489.3214111328125,6175.8359375,4211.26708984375,-831.2861328125,-6966.5908203125,13260.841796875,3738.4033203125,9281.6357421875,15269.1201171875,9622.57421875,15594.1650390625,5668.798828125,9464.4228515625,4904.27001953125,-0.0,5127.5888671875,12082.2587890625,6940.36474609375,9468.396484375,18862.8828125,6275.1767578125,-3106.593994140625,7447.4013671875,5542.43701171875,25236.607421875,5757.013671875,11963.0498046875,-7317.86083984375,-9936.4921875,7255.8720703125,3883.838623046875,8209.5458984375,5493.1640625,5559.12646484375,5248.3876953125,2628.962158203125,8763.47265625,7652.44140625,7431.50732421875,-14193.0576171875,-0.0,-0.0,9878.4765625,6285.5087890625,-3014.405517578125,0.0,12091.7958984375
-4777.11328125,-10522.2060546875,6648.69921875,9546.2802734375,14871.7568359375,15188.853515625,13233.025390625,12187.9580078125,12960.43359375,9072.62109375,16624.1328125,0.0,12182.39453125,0.0,11998.8125,15899.33984375,26527.24609375,12344.51953125,7688.2041015625,5569.4580078125,4041.98974609375,14789.1044921875,12666.384765625,9317.3984375,0.0,1488.5267333984375,6178.22021484375,4208.8828125,-829.6966552734375,-6965.7958984375,13259.251953125,3720.12451171875,9272.0986328125,15262.7626953125,9620.984375,15594.958984375,5673.5673828125,9467.6015625,4901.09130859375,-0.0,5125.20458984375,12077.4912109375,6942.7490234375,9466.01171875,18867.650390625,6279.150390625,-3078.778564453125,7442.63330078125,5544.8212890625,25233.427734375,5760.19287109375,11964.638671875,-7356.0078125,-9979.4072265625,7284.482421875,3880.659912109375,8207.95703125,5489.1904296875,5566.27880859375,5246.7978515625,2652.00927734375,8763.47265625,7659.59423828125,7446.60693359375,-14181.13671875,-0.0,-0.0,9882.4501953125,6299.81396484375,-3004.07421875,0.0,12091.0009765625
-4742.9404296875,-10566.7109375,6634.39404296875,9532.76953125,14862.2197265625,15179.31640625,13229.8466796875,12178.4208984375,12962.818359375,9074.2109375,16619.36328125,0.0,12178.4208984375,0.0,11980.533203125,15871.5244140625,26514.529296875,12336.5712890625,7683.43603515625,5570.2529296875,4030.86328125,14777.18359375,12656.84765625,9307.861328125,0.0,1479.78466796875,6169.47802734375,4193.78271484375,-835.259765625,-6976.92236328125,13248.1259765625,3704.22998046875,9260.9716796875,15250.841796875,9611.447265625,15583.8330078125,5667.20947265625,9458.859375,4855.79150390625,-0.0,5111.6943359375,12067.9541015625,6936.39111328125,9454.88671875,18867.650390625,6273.587890625,-3099.44140625,7430.71240234375,5540.052734375,25218.328125,5752.24560546875,11950.333984375,-7390.18115234375,-9990.533203125,7295.6083984375,3865.559814453125,8196.8310546875,5474.0908203125,5586.1474609375,5238.85107421875,2652.80419921875,8754.73046875,7655.62060546875,7450.58056640625,-14193.0576171875,-0.0,-0.0,9884.0400390625,6318.09228515625,-2996.126953125,0.0,12100.537109375
-4720.68798828125,-10533.3330078125,6634.39404296875,9540.716796875,14862.2197265625,15177.7265625,13226.66796875,12171.2685546875,12946.9228515625,9067.8525390625,16619.36328125,0.0,12180.0107421875,0.0,11979.7392578125,15853.2470703125,26520.09375,12335.77734375,7679.46240234375,5554.35791015625,4032.453125,14780.3623046875,12653.66796875,9307.0673828125,0.0,1482.963623046875,6166.29931640625,4189.0146484375,-832.8755493164062,-6966.5908203125,13249.71484375,3718.53515625,9263.3564453125,15256.4052734375,9611.447265625,15583.0380859375,5661.646484375,9454.0908203125,4897.91259765625,-0.0,5110.8994140625,12071.9267578125,6932.41748046875,9452.501953125,18860.498046875,6266.43505859375,-3104.2099609375,7435.48046875,5538.46337890625,25223.09765625,5749.06689453125,11935.234375,-7338.52392578125,-10010.4013671875,7292.4296875,3871.123046875,8202.3935546875,5459.78564453125,5572.63720703125,5235.671875,2651.214599609375,8751.5517578125,7647.67333984375,7437.86474609375,-14206.568359375,-0.0,-0.0,9881.6552734375,6306.96630859375,-3002.484619140625,0.0,12097.3583984375
-4710.3564453125,-10483.2646484375,6637.5732421875,9548.6640625,14868.5771484375,15188.853515625,13230.6416015625,12183.189453125,12946.9228515625,9071.8271484375,16621.748046875,0.0,12185.5732421875,0.0,11984.5078125,15885.830078125,26527.24609375,12342.1357421875,7685.02587890625,5558.33203125,4038.810791015625,14787.5146484375,12660.0263671875,9315.013671875,0.0,1497.2686767578125,6171.8623046875,4204.1142578125,-820.159912109375,-6948.3125,13256.0732421875,3723.303466796875,9268.125,15261.9677734375,9616.2158203125,15590.1904296875,5668.00439453125,9463.6279296875,4912.2177734375,-0.0,5115.66796875,12082.2587890625,6937.185546875,9466.01171875,18864.47265625,6276.76611328125,-3114.541259765625,7445.81201171875,5544.8212890625,25238.1953125,5752.24560546875,11951.923828125,-7320.2451171875,-9995.30078125,7301.171875,3886.222900390625,8208.751953125,5479.65380859375,5564.689453125,5247.5927734375,2646.4462890625,8753.140625,7653.236328125,7448.1962890625,-14192.263671875,-0.0,-0.0,9895.9609375,6299.81396484375,-2993.74267578125,0.0,12107.689453125
-4711.94580078125,-10441.1435546875,6630.4208984375,9541.51171875,14861.4248046875,15186.46875,13224.2841796875,12183.189453125,12944.5390625,9068.6484375,16628.900390625,0.0,12176.037109375,0.0,11974.17578125,15900.134765625,26517.708984375,12336.5712890625,7679.46240234375,5554.35791015625,4030.86328125,14783.5419921875,12654.4638671875,9310.2451171875,0.0,1494.0897216796875,6163.9150390625,4204.90869140625,-824.133544921875,-6948.3125,13250.509765625,3707.408935546875,9260.9716796875,15257.19921875,9609.8583984375,15585.4228515625,5664.8251953125,9460.44921875,4894.7333984375,-0.0,5108.51513671875,12076.6953125,6932.41748046875,9463.6279296875,18858.91015625,6275.1767578125,-3105.004638671875,7438.65966796875,5534.490234375,25233.427734375,5744.29833984375,11957.486328125,-7355.21337890625,-9951.591796875,7292.4296875,3875.0966796875,8200.009765625,5496.34326171875,5559.92138671875,5248.3876953125,2626.578125,8742.8095703125,7648.4677734375,7440.2490234375,-14190.673828125,-0.0,-0.0,9887.21875,6304.58203125,-3000.895263671875,0.0,12110.07421875
-4735.7880859375,-10441.1435546875,6651.08349609375,9559.791015625,14869.3720703125,15203.158203125,13227.462890625,12199.083984375,12941.3603515625,9075.005859375,16643.205078125,0.0,12191.13671875,0.0,11975.765625,15912.8515625,26529.630859375,12349.2880859375,7688.2041015625,5553.5634765625,4043.5791015625,14798.6416015625,12664.794921875,9323.755859375,0.0,1513.9580078125,6166.29931640625,4226.36669921875,-811.4179077148438,-6926.8544921875,13263.2255859375,3718.53515625,9275.27734375,15271.5048828125,9620.984375,15600.5224609375,5672.77294921875,9473.1650390625,4905.06494140625,-0.0,5123.615234375,12094.1796875,6937.98046875,9479.5224609375,18862.08984375,6285.5087890625,-3085.93115234375,7456.9384765625,5536.87451171875,25254.091796875,5743.50341796875,11974.17578125,-7355.21337890625,-9930.1337890625,7294.01904296875,3902.912109375,8202.3935546875,5526.54248046875,5555.94775390625,5269.845703125,2633.730712890625,8752.345703125,7656.41552734375,7432.3017578125,-14191.4677734375,-0.0,-0.0,9905.4970703125,6289.48193359375,-2987.384765625,0.0,12111.6640625
-4695.2568359375,-10459.4228515625,6666.18359375,9567.7373046875,14882.8818359375,15219.84765625,13237.0,12214.18359375,12940.56640625,9087.7216796875,16651.94921875,0.0,12195.904296875,0.0,11980.533203125,15923.9765625,26547.908203125,12362.0029296875,7700.919921875,5556.7421875,4059.4736328125,14812.15234375,12675.921875,9337.265625,0.0,1529.057861328125,6172.6572265625,4243.8505859375,-805.8547973632812,-6915.72802734375,13278.3251953125,3743.96630859375,9291.966796875,15288.193359375,9634.4951171875,15613.23828125,5682.3095703125,9486.6748046875,4913.80712890625,-0.0,5140.3046875,12109.279296875,6947.517578125,9494.6220703125,18870.03515625,6298.22412109375,-3093.083740234375,7464.0908203125,5549.58984375,25271.57421875,5749.06689453125,11988.48046875,-7305.93994140625,-9915.8291015625,7308.32421875,3930.7275390625,8207.95703125,5546.4111328125,5570.2529296875,5292.09765625,2668.698486328125,8757.9091796875,7665.9521484375,7429.123046875,-14174.779296875,-0.0,-0.0,9942.0546875,6284.7138671875,-2958.774658203125,0.0,12119.6103515625
-4696.05126953125,-10461.8076171875,6666.18359375,9555.81640625,14880.498046875,15214.2841796875,13234.615234375,12210.2099609375,12935.7978515625,9084.5419921875,16632.875,0.0,12188.751953125,0.0,11975.765625,15920.796875,26542.345703125,12357.2353515625,7699.33056640625,5557.537109375,4056.294921875,14807.3837890625,12672.7421875,9331.703125,0.0,1517.931640625,6171.8623046875,4238.28759765625,-819.3651733398438,-6926.0595703125,13273.556640625,3735.224365234375,9289.58203125,15281.8369140625,9630.5205078125,15606.8798828125,5679.92529296875,9484.291015625,4893.14404296875,-0.0,5140.3046875,12101.3330078125,6944.33837890625,9490.6494140625,18868.447265625,6295.83984375,-3132.820068359375,7452.96484375,5551.17919921875,25267.6015625,5748.27197265625,11986.0966796875,-7289.2509765625,-9919.0068359375,7313.88720703125,3917.21728515625,8202.3935546875,5538.46337890625,5564.689453125,5284.150390625,2663.93017578125,8746.783203125,7661.97802734375,7443.42822265625,-14169.2158203125,-0.0,-0.0,9946.0283203125,6275.1767578125,-2955.595703125,0.0,12131.53125
-4740.55615234375,-10485.6494140625,6650.2890625,9535.1533203125,14867.7822265625,15198.3896484375,13224.2841796875,12197.494140625,12927.849609375,9073.4169921875,16608.23828125,0.0,12174.447265625,0.0,11970.2021484375,15909.671875,26526.451171875,12341.33984375,7687.40966796875,5545.6162109375,4041.19482421875,14788.3095703125,12657.642578125,9315.80859375,0.0,1498.0634765625,6162.3251953125,4222.39306640625,-840.8228759765625,-6941.15966796875,13258.45703125,3713.766845703125,9275.27734375,15262.7626953125,9614.626953125,15592.5751953125,5666.41455078125,9471.576171875,4898.70703125,-0.0,5126.79443359375,12083.0537109375,6933.21240234375,9476.34375,18856.525390625,6285.5087890625,-3170.17236328125,7434.68603515625,5540.052734375,25252.5,5737.9404296875,11974.970703125,-7317.06640625,-9922.9814453125,7293.22412109375,3902.117431640625,8193.65234375,5520.18505859375,5549.58984375,5269.845703125,2651.214599609375,8731.6826171875,7650.05712890625,7437.0703125,-14186.7001953125,-0.0,-0.0,9926.16015625,6270.40869140625,-2968.311279296875,0.0,12126.763671875
-4754.06640625,-10476.1123046875,6646.31494140625,9524.822265625,14866.1923828125,15192.826171875,13226.66796875,12196.7001953125,12940.56640625,9082.953125,16630.4921875,0.0,12184.779296875,0.0,11971.791015625,15904.9033203125,26522.478515625,12342.1357421875,7686.615234375,5552.7685546875,4038.015869140625,14785.130859375,12659.232421875,9315.013671875,0.0,1491.70556640625,6165.50439453125,4215.240234375,-830.4913940429688,-6941.15966796875,13255.2783203125,3707.408935546875,9271.3037109375,15257.19921875,9613.8310546875,15587.806640625,5668.00439453125,9469.19140625,4914.6015625,-0.0,5120.43603515625,12075.9013671875,6935.5966796875,9472.3701171875,18862.08984375,6286.30322265625,-3093.083740234375,7425.1494140625,5539.25830078125,25246.142578125,5743.50341796875,11970.2021484375,-7321.03955078125,-9946.0283203125,7301.96630859375,3893.37548828125,8197.625,5510.6484375,5561.5107421875,5267.46142578125,2644.06201171875,8733.2724609375,7654.03125,7450.58056640625,-14179.546875,-0.0,-0.0,9917.4189453125,6286.30322265625,-2969.10595703125,0.0,12138.6845703125
-4811.287109375,-10503.1328125,6639.95751953125,9516.875,14861.4248046875,15180.111328125,13227.462890625,12183.9833984375,12954.87109375,9086.9267578125,16639.232421875,0.0,12178.4208984375,0.0,11971.791015625,15885.830078125,26514.529296875,12334.1875,7684.23095703125,5562.3056640625,4031.658203125,14774.7998046875,12656.052734375,9306.271484375,0.0,1473.4267578125,6166.29931640625,4194.57763671875,-836.0545043945312,-6974.5380859375,13244.15234375,3697.077392578125,9261.767578125,15245.2783203125,9608.2685546875,15578.26953125,5664.8251953125,9459.6552734375,4893.14404296875,-0.0,5116.462890625,12062.390625,6934.00732421875,9458.0654296875,18863.677734375,6279.150390625,-3093.87841796875,7411.638671875,5539.25830078125,25221.505859375,5747.47705078125,11955.1015625,-7367.92919921875,-9976.2275390625,7285.27685546875,3863.175537109375,8194.4462890625,5479.65380859375,5573.431640625,5252.361328125,2633.730712890625,8730.888671875,7654.82568359375,7464.8857421875,-14189.083984375,-0.0,-0.0,9876.8876953125,6314.11865234375,-2976.258544921875,0.0,12145.8369140625
-4779.49755859375,-10547.6376953125,6626.447265625,9504.9541015625,14853.4775390625,15161.83203125,13221.900390625,12170.4736328125,12954.87109375,9085.337890625,16623.337890625,0.0,12164.91015625,0.0,11969.4072265625,15864.3720703125,26503.404296875,12323.8564453125,7675.48876953125,5563.10009765625,4019.7373046875,14760.494140625,12647.3115234375,9293.556640625,0.0,1453.55859375,6159.14697265625,4171.5302734375,-847.9754028320312,-7018.248046875,13233.8212890625,3685.156494140625,9250.640625,15234.947265625,9598.732421875,15564.7587890625,5656.08349609375,9446.9384765625,4875.66015625,-0.0,5106.92578125,12046.49609375,6926.0595703125,9439.7861328125,18858.91015625,6271.20361328125,-3130.43603515625,7401.3076171875,5530.51611328125,25196.076171875,5743.50341796875,11936.0283203125,-7390.18115234375,-9971.458984375,7271.7666015625,3836.94970703125,8188.8837890625,5452.6328125,5571.84228515625,5236.466796875,2612.27294921875,8722.94140625,7649.2626953125,7468.859375,-14201.0048828125,-0.0,-0.0,9852.25,6319.681640625,-2984.2060546875,0.0,12140.2744140625
-4717.5087890625,-10557.96875,6622.47314453125,9511.3115234375,14852.6826171875,15163.421875,13221.900390625,12168.884765625,12950.1025390625,9078.9794921875,16610.623046875,0.0,12171.2685546875,0.0,11971.791015625,15861.1923828125,26506.58203125,12325.4462890625,7673.8994140625,5560.71630859375,4022.121337890625,14762.87890625,12646.515625,9297.5302734375,0.0,1456.737548828125,6159.14697265625,4175.50439453125,-845.5912475585938,-7004.73779296875,13237.0,3693.103759765625,9249.8466796875,15238.9208984375,9599.5263671875,15567.1435546875,5656.8779296875,9447.7333984375,4861.35498046875,-0.0,5106.130859375,12052.0595703125,6925.2646484375,9440.5810546875,18857.3203125,6269.61376953125,-3124.078125,7406.87060546875,5528.9267578125,25201.638671875,5741.9140625,11932.849609375,-7375.8759765625,-9957.94921875,7272.5615234375,3846.486328125,8195.2412109375,5459.78564453125,5568.6630859375,5235.671875,2626.578125,8727.7099609375,7645.2890625,7461.70654296875,-14206.568359375,-0.0,-0.0,9860.9921875,6310.14501953125,-2990.563720703125,0.0,12125.96875
-4707.177734375,-10527.7705078125,6619.29443359375,9509.72265625,14851.8876953125,15165.8056640625,13223.4892578125,12172.8583984375,12947.71875,9068.6484375,16606.6484375,0.0,12173.65234375,0.0,11974.17578125,15871.5244140625,26506.58203125,12327.03515625,7674.69384765625,5559.12646484375,4020.5322265625,14765.2626953125,12645.7216796875,9299.119140625,0.0,1460.711181640625,6159.94140625,4183.451171875,-846.385986328125,-6994.40625,13237.7939453125,3694.693359375,9249.05078125,15239.7158203125,9599.5263671875,15570.3232421875,5658.4677734375,9450.912109375,4860.56005859375,-0.0,5103.7470703125,12053.6494140625,6924.47021484375,9445.349609375,18858.11328125,6270.40869140625,-3135.9990234375,7403.69189453125,5528.9267578125,25207.201171875,5740.32470703125,11940.796875,-7377.4658203125,-9973.048828125,7277.330078125,3852.84423828125,8197.625,5471.70654296875,5565.484375,5242.82470703125,2644.06201171875,8732.478515625,7646.083984375,7452.169921875,-14210.5419921875,-0.0,-0.0,9866.5556640625,6308.5556640625,-2995.33203125,0.0,12114.0478515625
-4722.27734375,-10480.880859375,6635.18896484375,9521.6435546875,14859.8359375,15177.7265625,13233.8212890625,12187.1630859375,12962.0234375,9080.5693359375,16613.005859375,0.0,12180.0107421875,0.0,11985.3017578125,15896.162109375,26514.529296875,12338.1611328125,7685.8203125,5568.6630859375,4028.47900390625,14774.0048828125,12657.642578125,9309.451171875,0.0,1471.83740234375,6169.47802734375,4200.935546875,-840.8228759765625,-6982.4853515625,13246.5361328125,3701.845947265625,9259.3828125,15246.8681640625,9608.2685546875,15579.064453125,5669.59375,9461.2431640625,4861.35498046875,-0.0,5114.07861328125,12063.98046875,6931.623046875,9458.0654296875,18870.830078125,6283.9189453125,-3146.33056640625,7417.2021484375,5536.87451171875,25218.328125,5752.24560546875,11959.076171875,-7362.36572265625,-9992.123046875,7281.30322265625,3859.2021484375,8206.3671875,5493.958984375,5576.6103515625,5262.69287109375,2654.3935546875,8743.603515625,7658.0048828125,7462.50146484375,-14207.36328125,-0.0,-0.0,9880.06640625,6329.21826171875,-2988.974365234375,0.0,12118.021484375
-4760.42431640625,-10503.1328125,6654.2626953125,9539.921875,14870.1669921875,15184.87890625,13239.3837890625,12191.13671875,12962.818359375,9085.337890625,16622.54296875,0.0,12180.0107421875,0.0,11991.66015625,15899.33984375,26524.861328125,12349.2880859375,7691.38330078125,5569.4580078125,4040.400146484375,14784.3359375,12665.5888671875,9315.80859375,0.0,1482.1688232421875,6178.22021484375,4208.087890625,-835.259765625,-6963.41162109375,13256.8671875,3714.5615234375,9270.5087890625,15257.19921875,9619.3955078125,15587.0126953125,5674.3623046875,9466.8076171875,4857.38134765625,-0.0,5125.99951171875,12075.1064453125,6939.56982421875,9463.6279296875,18874.802734375,6283.9189453125,-3122.48876953125,7437.86474609375,5547.20556640625,25226.275390625,5759.39794921875,11963.8447265625,-7351.23974609375,-10016.7587890625,7294.01904296875,3859.996826171875,8205.5732421875,5500.31640625,5578.19970703125,5259.513671875,2640.08837890625,8753.140625,7661.18359375,7458.52783203125,-14197.826171875,-0.0,-0.0,9893.576171875,6329.21826171875,-2985.795166015625,0.0,12123.5849609375
