-3312.4287109375,-8900.166015625,7952.849609375,11407.5341796875,16321.3408203125,17147.064453125,14690.55859375,14434.6552734375,14153.3212890625,10708.9677734375,18659.43359375,0.0,13624.0322265625,0.0,13751.9833984375,17690.658203125,28261.34375,13867.21875,9695.689453125,7547.537109375,5687.078125,16285.578125,14445.78125,11184.2158203125,0.0,3221.034912109375,7878.14404296875,6132.1259765625,695.3875122070312,-7602.37353515625,14553.0703125,4967.0537109375,10621.5478515625,17148.65234375,10790.0302734375,17224.154296875,7762.9091796875,11482.23828125,6135.3046875,-0.0,6963.41162109375,14075.4384765625,8487.701171875,11768.3408203125,20753.541015625,8331.9345703125,-1711.0506591796875,9235.541015625,7343.2919921875,27019.181640625,7542.76904296875,14143.7841796875,-5033.81103515625,-8153.12109375,9116.33203125,4977.38525390625,9885.62890625,7116.79443359375,7096.92626953125,7402.10205078125,4333.65478515625,10655.720703125,9777.5458984375,8987.5859375,-13000.96484375,-0.0,0.0,11274.814453125,7612.705078125,-750.2238159179688,0.0,14100.869140625
-3298.91845703125,-8802.4140625,7956.822265625,11407.5341796875,16324.5205078125,17150.244140625,14689.7626953125,14429.88671875,14145.3740234375,10712.94140625,18686.453125,0.0,13632.7744140625,0.0,13757.546875,17676.353515625,28264.5234375,13866.4248046875,9694.099609375,7546.74267578125,5690.2568359375,16287.9619140625,14444.9873046875,11184.2158203125,0.0,3232.9560546875,7882.1181640625,6130.53662109375,704.9242553710938,-7607.14208984375,14555.4541015625,4971.02734375,10623.1376953125,17150.244140625,10790.8251953125,17225.7421875,7762.9091796875,11480.6494140625,6139.2783203125,-0.0,6967.3857421875,14079.4111328125,8489.291015625,11769.1357421875,20751.953125,8329.55078125,-1705.487548828125,9234.74609375,7344.88134765625,27026.333984375,7543.56396484375,14133.453125,-5048.1162109375,-8157.88916015625,9117.126953125,4992.48486328125,9893.576171875,7104.87353515625,7092.95263671875,7395.744140625,4333.65478515625,10653.3369140625,9775.9560546875,8988.380859375,-12986.66015625,-0.0,0.0,11273.224609375,7606.34765625,-754.9921875,0.0,14096.1005859375
-3238.51904296875,-8699.8935546875,7939.3388671875,11401.1767578125,16320.546875,17153.421875,14689.7626953125,14429.0927734375,14144.580078125,10726.4521484375,18669.763671875,0.0,13636.748046875,0.0,13755.162109375,17667.611328125,28258.166015625,13868.0146484375,9694.8935546875,7552.3056640625,5686.283203125,16287.9619140625,14445.78125,11185.8056640625,0.0,3239.313720703125,7881.32373046875,6128.15234375,719.2293701171875,-7615.08935546875,14551.48046875,4965.46435546875,10612.8056640625,17144.6796875,10789.2353515625,17228.126953125,7761.31982421875,11481.4443359375,6117.02587890625,-0.0,6955.46484375,14080.20703125,8488.49609375,11770.7255859375,20753.541015625,8335.908203125,-1725.355712890625,9230.7734375,7341.703125,27029.513671875,7541.974609375,14125.5068359375,-5026.65869140625,-8162.65771484375,9125.869140625,5015.5322265625,9891.1923828125,7102.4892578125,7086.59521484375,7406.076171875,4328.09228515625,10655.720703125,9779.1357421875,8998.7119140625,-12935.7978515625,-0.0,0.0,11285.94140625,7586.47900390625,-744.6607055664062,0.0,14103.2529296875
-3214.677001953125,-8717.3779296875,7938.54443359375,11399.5869140625,16320.546875,17151.83203125,14688.173828125,14432.271484375,14138.2216796875,10714.53125,18661.021484375,0.0,13631.9794921875,0.0,13750.3935546875,17683.505859375,28258.166015625,13870.3984375,9694.8935546875,7545.1533203125,5684.69384765625,16287.9619140625,14445.78125,11186.599609375,0.0,3225.803466796875,7879.73388671875,6128.94677734375,721.6135864257812,-7591.24755859375,14552.275390625,4961.49072265625,10612.8056640625,17144.6796875,10791.619140625,17228.126953125,7762.1142578125,11482.23828125,6113.05224609375,-0.0,6957.05419921875,14075.4384765625,8488.49609375,11769.1357421875,20749.568359375,8334.3193359375,-1734.8924560546875,9229.18359375,7346.47119140625,27022.361328125,7538.00048828125,14135.04296875,-5013.94287109375,-8165.0419921875,9126.6630859375,5006.7900390625,9884.0400390625,7108.84716796875,7077.05810546875,7407.6650390625,4321.73388671875,10661.2841796875,9774.3671875,8988.380859375,-12932.6181640625,-0.0,0.0,11301.041015625,7572.96875,-737.5081176757812,0.0,14105.6376953125
-3242.49267578125,-8761.8828125,7941.72265625,11396.408203125,16320.546875,17143.091796875,14684.9951171875,14427.5029296875,14141.400390625,10708.9677734375,18668.173828125,0.0,13623.2373046875,0.0,13749.599609375,17677.1484375,28254.19140625,13868.0146484375,9693.3046875,7543.56396484375,5684.69384765625,16282.400390625,14444.1923828125,11181.037109375,0.0,3217.856201171875,7878.14404296875,6123.3837890625,701.745361328125,-7585.68408203125,14549.095703125,4954.337890625,10612.0107421875,17140.70703125,10787.646484375,17221.76953125,7759.72998046875,11478.2646484375,6119.41015625,-0.0,6960.2333984375,14070.669921875,8486.111328125,11763.572265625,20746.388671875,8325.5771484375,-1713.434814453125,9226.0048828125,7348.060546875,27016.798828125,7539.59033203125,14128.6845703125,-5031.4267578125,-8181.7314453125,9115.537109375,4981.35888671875,9880.06640625,7108.84716796875,7080.23681640625,7395.744140625,4316.9658203125,10662.0791015625,9771.1875,8986.791015625,-12956.4599609375,-0.0,0.0,11295.4775390625,7594.4267578125,-740.6870727539062,0.0,14102.458984375
-3229.777099609375,-8788.9033203125,7948.0810546875,11395.61328125,16322.1357421875,17139.1171875,14689.7626953125,14422.734375,14154.9111328125,10717.7099609375,18672.1484375,0.0,13623.2373046875,0.0,13755.9580078125,17662.84375,28253.396484375,13867.21875,9692.509765625,7553.1005859375,5683.89892578125,16279.220703125,14443.3974609375,11179.447265625,0.0,3214.677001953125,7879.73388671875,6116.2314453125,687.4402465820312,-7597.60546875,14549.095703125,4958.3115234375,10614.3955078125,17138.322265625,10789.2353515625,17220.177734375,7759.72998046875,11475.880859375,6117.02587890625,-0.0,6961.822265625,14069.875,8489.291015625,11758.8046875,20751.158203125,8323.1923828125,-1689.593017578125,9225.208984375,7350.44482421875,27013.62109375,7543.56396484375,14119.1484375,-5021.09521484375,-8132.45751953125,9125.869140625,4972.61669921875,9882.4501953125,7103.2841796875,7090.568359375,7389.38671875,4320.939453125,10660.4892578125,9775.162109375,9005.0693359375,-12965.9970703125,-0.0,0.0,11289.1201171875,7607.14208984375,-742.2764892578125,0.0,14104.048828125
-3221.82958984375,-8819.8974609375,7936.95458984375,11380.513671875,16315.7783203125,17130.375,14689.7626953125,14417.9658203125,14167.6259765625,10724.0673828125,18654.6640625,0.0,13618.46875,0.0,13757.546875,17657.279296875,28244.654296875,13860.861328125,9690.9208984375,7565.021484375,5674.3623046875,16270.4794921875,14438.62890625,11173.884765625,0.0,3202.756103515625,7879.73388671875,6107.4892578125,689.0296630859375,-7608.73193359375,14540.3544921875,4951.1591796875,10605.65234375,17129.580078125,10781.2880859375,17213.025390625,7758.935546875,11474.2919921875,6078.08447265625,-0.0,6952.28564453125,14059.5439453125,8486.9072265625,11753.2412109375,20755.1328125,8327.9609375,-1716.61376953125,9210.904296875,7343.2919921875,26999.314453125,7545.9482421875,14112.7900390625,-5020.30029296875,-8159.47802734375,9121.89453125,4966.2587890625,9881.6552734375,7092.15771484375,7097.72119140625,7396.5390625,4309.81298828125,10655.720703125,9778.3408203125,9022.5537109375,-12961.228515625,-0.0,0.0,11274.814453125,7615.88427734375,-747.0448608398438,0.0,14104.8427734375
-3252.823974609375,-8786.51953125,7936.16015625,11371.771484375,16315.7783203125,17131.169921875,14688.173828125,14421.939453125,14166.83203125,10724.0673828125,18646.716796875,0.0,13620.05859375,0.0,13757.546875,17673.173828125,28243.064453125,13861.65625,9692.509765625,7561.0478515625,5675.1572265625,16270.4794921875,14439.423828125,11174.6787109375,0.0,3198.78271484375,7878.14404296875,6110.66796875,709.692626953125,-7621.447265625,14539.5595703125,4950.36474609375,10604.8583984375,17129.580078125,10781.2880859375,17210.642578125,7758.935546875,11474.2919921875,6082.85302734375,-0.0,6949.9013671875,14058.7490234375,8485.3173828125,11754.830078125,20755.92578125,8330.3447265625,-1725.355712890625,9202.95703125,7338.52392578125,26997.724609375,7544.35888671875,14121.5322265625,-5019.505859375,-8141.99462890625,9111.5634765625,4965.46435546875,9882.4501953125,7092.15771484375,7096.1318359375,7392.5654296875,4313.787109375,10654.9267578125,9778.3408203125,9010.6328125,-12954.076171875,-0.0,0.0,11262.099609375,7616.6787109375,-756.5816040039062,0.0,14100.0751953125
-3263.950439453125,-8753.140625,7960.79638671875,11405.150390625,16329.2880859375,17154.216796875,14692.1474609375,14434.6552734375,14143.7841796875,10714.53125,18668.173828125,0.0,13632.7744140625,0.0,13753.5732421875,17692.248046875,28267.701171875,13879.1396484375,9698.8681640625,7544.35888671875,5696.61474609375,16295.1142578125,14450.5498046875,11191.3681640625,0.0,3234.54541015625,7882.1181640625,6133.71533203125,718.4346313476562,-7600.7841796875,14561.8125,4976.5908203125,10627.90625,17153.421875,10798.771484375,17230.509765625,7764.498046875,11484.623046875,6142.45751953125,-0.0,6974.5380859375,14085.76953125,8492.4697265625,11775.4931640625,20750.365234375,8331.1396484375,-1702.30859375,9235.541015625,7350.44482421875,27027.92578125,7542.76904296875,14141.400390625,-4982.9482421875,-8104.64208984375,9116.33203125,5002.02197265625,9888.0126953125,7119.1787109375,7083.416015625,7390.97607421875,4336.833984375,10671.615234375,9775.162109375,8978.048828125,-12943.7451171875,-0.0,0.0,11284.3515625,7588.068359375,-752.6079711914062,0.0,14102.458984375
-3256.7978515625,-8724.5302734375,7979.86962890625,11425.8125,16344.388671875,17166.13671875,14700.8896484375,14437.8349609375,14144.580078125,10720.09375,18677.7109375,0.0,13644.6953125,0.0,13759.9306640625,17689.86328125,28281.2109375,13891.060546875,9706.814453125,7545.9482421875,5711.71435546875,16308.6259765625,14459.2919921875,11200.9052734375,0.0,3256.003173828125,7893.24462890625,6140.0732421875,716.0504760742188,-7584.8896484375,14576.1171875,4990.10107421875,10643.005859375,17167.7265625,10810.6923828125,17243.2265625,7771.65087890625,11491.775390625,6142.45751953125,-0.0,6994.40625,14099.2802734375,8504.390625,11784.236328125,20758.310546875,8335.11328125,-1695.1561279296875,9255.4091796875,7367.13427734375,27043.0234375,7551.51123046875,14142.990234375,-5000.4326171875,-8141.99462890625,9132.2255859375,5014.73779296875,9893.576171875,7130.3046875,7086.59521484375,7393.3603515625,4354.318359375,10682.7421875,9781.51953125,8984.40625,-12955.666015625,-0.0,0.0,11303.4248046875,7592.04248046875,-743.0712280273438,0.0,14111.201171875
-3259.181884765625,-8749.9619140625,7960.79638671875,11417.8662109375,16326.904296875,17148.65234375,14692.1474609375,14426.7080078125,14147.7587890625,10724.8623046875,18665.791015625,0.0,13631.1845703125,0.0,13755.162109375,17673.96875,28266.90625,13878.345703125,9698.8681640625,7550.71630859375,5695.81982421875,16292.73046875,14449.755859375,11190.5732421875,0.0,3225.0087890625,7885.296875,6124.17822265625,713.666259765625,-7597.60546875,14562.6064453125,4972.61669921875,10626.31640625,17153.421875,10796.3876953125,17230.509765625,7762.1142578125,11481.4443359375,6109.87353515625,-0.0,6972.94873046875,14083.3857421875,8494.0595703125,11769.1357421875,20755.92578125,8328.755859375,-1712.64013671875,9245.8720703125,7354.41845703125,27027.130859375,7545.1533203125,14125.5068359375,-5040.1689453125,-8192.0625,9129.0478515625,4997.25341796875,9885.62890625,7119.1787109375,7088.1845703125,7390.97607421875,4336.833984375,10671.615234375,9779.1357421875,8998.7119140625,-12971.560546875,-0.0,0.0,11292.2978515625,7601.5791015625,-739.892333984375,0.0,14116.763671875
-3263.15576171875,-8802.4140625,7943.3125,11403.560546875,16311.8037109375,17139.912109375,14684.2001953125,14421.1455078125,14139.8115234375,10717.7099609375,18662.611328125,0.0,13620.853515625,0.0,13748.009765625,17671.5859375,28254.986328125,13868.80859375,9690.125,7545.1533203125,5681.5146484375,16280.8095703125,14437.0390625,11180.2412109375,0.0,3212.29296875,7874.17138671875,6119.41015625,712.87158203125,-7607.93701171875,14549.8916015625,4957.51708984375,10611.216796875,17143.091796875,10784.466796875,17219.384765625,7753.3720703125,11473.49609375,6109.0791015625,-0.0,6953.08056640625,14069.875,8482.9326171875,11760.39453125,20747.98046875,8323.9873046875,-1722.9715576171875,9230.7734375,7339.31884765625,27012.029296875,7537.2060546875,14121.5322265625,-5032.22119140625,-8177.75732421875,9118.7158203125,4984.53759765625,9877.681640625,7109.64208984375,7080.23681640625,7380.64453125,4309.81298828125,10664.462890625,9771.1875,8993.943359375,-12962.0234375,-0.0,0.0,11274.0205078125,7594.4267578125,-745.4554443359375,0.0,14108.8173828125
-3275.07666015625,-8796.8515625,7950.46533203125,11404.35546875,16320.546875,17143.884765625,14690.55859375,14423.529296875,14145.3740234375,10733.6044921875,18678.5078125,0.0,13629.595703125,0.0,13751.189453125,17665.228515625,28262.138671875,13875.9609375,9695.689453125,7556.27978515625,5687.87255859375,16288.7578125,14444.9873046875,11185.8056640625,0.0,3217.061279296875,7880.5283203125,6119.41015625,712.87158203125,-7612.705078125,14557.0439453125,4964.669921875,10616.779296875,17146.26953125,10791.619140625,17227.33203125,7760.52490234375,11480.6494140625,6123.3837890625,-0.0,6961.822265625,14072.2587890625,8487.701171875,11763.572265625,20752.748046875,8331.9345703125,-1695.1561279296875,9233.951171875,7349.64990234375,27011.236328125,7541.974609375,14120.73828125,-5001.22705078125,-8114.1787109375,9125.869140625,4981.35888671875,9883.244140625,7099.310546875,7082.62109375,7390.18115234375,4312.197265625,10676.3837890625,9779.9296875,9010.6328125,-12946.12890625,-0.0,0.0,11275.609375,7583.30029296875,-734.3292236328125,0.0,14126.30078125
-3279.050048828125,-8821.4873046875,7952.849609375,11401.1767578125,16321.3408203125,17142.294921875,14689.7626953125,14428.2978515625,14145.3740234375,10740.7568359375,18675.328125,0.0,13627.2119140625,0.0,13753.5732421875,17670.7890625,28263.7265625,13876.755859375,9698.8681640625,7563.43212890625,5690.2568359375,16287.9619140625,14447.37109375,11187.39453125,0.0,3213.087890625,7880.5283203125,6118.61572265625,709.692626953125,-7617.4736328125,14555.4541015625,4965.46435546875,10619.1630859375,17145.474609375,10794.00390625,17228.921875,7762.1142578125,11482.23828125,6107.4892578125,-0.0,6963.41162109375,14070.669921875,8489.291015625,11763.572265625,20752.748046875,8337.498046875,-1694.361328125,9233.1572265625,7345.67626953125,27010.44140625,7543.56396484375,14124.7109375,-4987.716796875,-8134.04736328125,9121.89453125,4976.5908203125,9881.6552734375,7100.10546875,7083.416015625,7398.12841796875,4312.9921875,10680.3583984375,9783.904296875,9018.580078125,-12954.076171875,-0.0,0.0,11270.8408203125,7580.12158203125,-734.3292236328125,0.0,14136.6318359375
-3258.38720703125,-8881.091796875,7952.05419921875,11401.970703125,16322.1357421875,17140.70703125,14689.7626953125,14425.1181640625,14142.990234375,10735.1943359375,18657.841796875,0.0,13617.6748046875,0.0,13755.162109375,17666.81640625,28262.93359375,13876.755859375,9698.0732421875,7561.0478515625,5690.2568359375,16286.373046875,14445.78125,11185.009765625,0.0,3219.445556640625,7881.32373046875,6113.05224609375,704.1295166015625,-7621.447265625,14557.0439453125,4963.875,10620.7529296875,17146.26953125,10792.4150390625,17227.33203125,7761.31982421875,11480.6494140625,6125.76806640625,-0.0,6962.6171875,14073.0546875,8490.0859375,11763.572265625,20751.158203125,8335.11328125,-1715.0242919921875,9229.9775390625,7347.265625,27006.46875,7545.1533203125,14122.3271484375,-4995.6640625,-8173.783203125,9117.9208984375,4975.7958984375,9878.4765625,7085.00537109375,7082.62109375,7396.5390625,4308.2236328125,10682.7421875,9781.51953125,9002.685546875,-12963.6123046875,-0.0,0.0,11266.072265625,7587.27392578125,-741.4818115234375,0.0,14125.5068359375
-3244.876953125,-8792.0830078125,7957.61767578125,11394.0234375,16326.109375,17140.70703125,14692.9423828125,14423.529296875,14147.7587890625,10731.220703125,18663.40625,0.0,13620.05859375,0.0,13756.751953125,17659.6640625,28262.93359375,13879.935546875,9702.046875,7557.869140625,5691.05126953125,16287.1689453125,14448.166015625,11186.599609375,0.0,3209.114013671875,7885.296875,6112.25732421875,714.4609985351562,-7599.9892578125,14559.427734375,4963.875,10621.5478515625,17146.26953125,10796.3876953125,17226.537109375,7762.9091796875,11480.6494140625,6117.82080078125,-0.0,6966.5908203125,14072.2587890625,8494.0595703125,11762.7783203125,20753.541015625,8334.3193359375,-1683.235107421875,9221.236328125,7352.0341796875,27004.083984375,7545.1533203125,14116.763671875,-4992.48486328125,-8182.525390625,9117.126953125,4973.41162109375,9881.6552734375,7084.2109375,7077.8525390625,7398.12841796875,4317.76025390625,10686.71484375,9781.51953125,8994.73828125,-12967.5869140625,-0.0,0.0,11254.9462890625,7591.24755859375,-748.6343383789062,0.0,14106.4326171875
-3242.49267578125,-8736.451171875,7956.02783203125,11398.7919921875,16326.109375,17146.26953125,14694.53125,14428.2978515625,14158.08984375,10716.9150390625,18662.611328125,0.0,13620.853515625,0.0,13757.546875,17673.173828125,28261.34375,13880.7294921875,9704.4306640625,7558.6640625,5689.46240234375,16288.7578125,14451.3447265625,11192.162109375,0.0,3215.471923828125,7886.09228515625,6125.76806640625,714.4609985351562,-7592.04248046875,14558.6328125,4964.669921875,10619.9580078125,17146.26953125,10797.9775390625,17230.509765625,7766.087890625,11486.212890625,6116.2314453125,-0.0,6967.3857421875,14076.232421875,8494.853515625,11769.1357421875,20758.310546875,8334.3193359375,-1691.1824951171875,9228.388671875,7351.23974609375,27017.59375,7542.76904296875,14126.30078125,-4993.27978515625,-8174.57861328125,9110.7685546875,4986.12744140625,9879.271484375,7111.2314453125,7088.1845703125,7399.7177734375,4321.73388671875,10687.5107421875,9783.1083984375,9001.8916015625,-12965.9970703125,-0.0,0.0,11255.7412109375,7603.96337890625,-766.1183471679688,0.0,14081.7958984375
-3246.46630859375,-8767.4453125,7938.54443359375,11392.4345703125,16314.1884765625,17137.52734375,14684.9951171875,14423.529296875,14152.52734375,10693.8681640625,18643.537109375,0.0,13614.4951171875,0.0,13751.189453125,17674.763671875,28247.833984375,13867.21875,9692.509765625,7545.9482421875,5676.74658203125,16277.6318359375,14441.013671875,11181.8310546875,0.0,3210.70361328125,7874.9658203125,6122.5888671875,703.3348388671875,-7607.14208984375,14544.328125,4950.36474609375,10606.4482421875,17132.759765625,10785.26171875,17220.177734375,7757.345703125,11478.2646484375,6106.69482421875,-0.0,6953.875,14067.490234375,8484.5224609375,11762.7783203125,20749.568359375,8322.3984375,-1715.0242919921875,9221.236328125,7338.52392578125,27012.82421875,7535.6162109375,14126.30078125,-5039.3740234375,-8175.373046875,9116.33203125,4973.41162109375,9869.734375,7109.64208984375,7087.3896484375,7380.64453125,4297.89208984375,10670.8212890625,9773.572265625,8989.1748046875,-12971.560546875,-0.0,0.0,11256.53515625,7605.552734375,-782.8076782226562,0.0,14057.1591796875
-3248.8505859375,-8787.314453125,7944.9013671875,11402.7666015625,16325.3154296875,17147.064453125,14691.3525390625,14430.6826171875,14154.1162109375,10711.3525390625,18671.353515625,0.0,13627.2119140625,0.0,13758.341796875,17673.173828125,28257.369140625,13874.37109375,9700.4580078125,7551.51123046875,5685.48828125,16287.1689453125,14449.755859375,11189.7783203125,0.0,3223.419189453125,7882.91259765625,6126.5625,712.87158203125,-7602.37353515625,14553.8642578125,4959.1064453125,10615.189453125,17143.091796875,10792.4150390625,17226.537109375,7766.88232421875,11485.4169921875,6121.0,-0.0,6965.00146484375,14077.822265625,8491.67578125,11769.9306640625,20755.1328125,8331.9345703125,-1707.0770263671875,9232.361328125,7348.85546875,27020.7734375,7543.56396484375,14129.4794921875,-5044.93701171875,-8170.6044921875,9129.0478515625,4980.56396484375,9883.244140625,7108.052734375,7088.1845703125,7390.97607421875,4295.5078125,10672.41015625,9780.724609375,8986.791015625,-12965.9970703125,-0.0,0.0,11285.1455078125,7602.37353515625,-747.0448608398438,0.0,14092.1279296875
-3237.724365234375,-8773.009765625,7963.1806640625,11425.0185546875,16341.208984375,17158.189453125,14704.068359375,14436.2451171875,14153.3212890625,10737.578125,18691.220703125,0.0,13645.4892578125,0.0,13767.0830078125,17660.458984375,28274.85546875,13887.8818359375,9711.5830078125,7562.63720703125,5702.177734375,16303.0625,14464.060546875,11198.5205078125,0.0,3238.51904296875,7894.83349609375,6126.5625,730.3555908203125,-7584.8896484375,14570.5537109375,4975.0009765625,10632.673828125,17162.1640625,10807.5146484375,17240.84375,7778.0087890625,11495.7490234375,6132.1259765625,-0.0,6981.69091796875,14093.716796875,8505.185546875,11777.0830078125,20763.875,8345.4443359375,-1703.8980712890625,9254.615234375,7364.75,27028.71875,7554.68994140625,14123.1220703125,-5012.353515625,-8153.91552734375,9142.5576171875,4980.56396484375,9900.7294921875,7106.462890625,7089.7734375,7416.4072265625,4312.9921875,10681.15234375,9790.26171875,8999.5068359375,-12941.3603515625,-0.0,0.0,11307.3984375,7588.86328125,-710.4873657226562,0.0,14131.0693359375
-3253.618896484375,-8786.51953125,7953.6435546875,11409.9189453125,16333.26171875,17143.884765625,14697.7109375,14424.32421875,14145.3740234375,10724.0673828125,18672.1484375,0.0,13639.9267578125,0.0,13778.2099609375,17649.33203125,28260.548828125,13874.37109375,9701.251953125,7550.71630859375,5688.66748046875,16288.7578125,14452.9345703125,11184.2158203125,0.0,3215.471923828125,7894.0390625,6113.84716796875,721.6135864257812,-7611.11572265625,14556.2490234375,4961.49072265625,10620.7529296875,17146.26953125,10796.3876953125,17226.537109375,7768.47216796875,11483.033203125,6099.5419921875,-0.0,6972.154296875,14076.232421875,8498.828125,11761.9833984375,20755.92578125,8334.3193359375,-1713.434814453125,9240.3095703125,7359.9814453125,27010.44140625,7553.8955078125,14108.8173828125,-5020.30029296875,-8190.47265625,9125.869140625,4965.46435546875,9908.67578125,7083.416015625,7077.8525390625,7408.4599609375,4318.55517578125,10668.4365234375,9779.1357421875,8995.533203125,-12942.1552734375,-0.0,0.0,11296.2724609375,7591.24755859375,-724.79248046875,0.0,14121.5322265625
-3275.871337890625,-8776.982421875,7956.02783203125,11405.9453125,16333.26171875,17143.884765625,14697.7109375,14425.9140625,14146.1689453125,10720.888671875,18671.353515625,0.0,13637.54296875,0.0,13773.44140625,17657.279296875,28264.5234375,13875.1669921875,9701.251953125,7549.126953125,5690.2568359375,16287.9619140625,14453.728515625,11185.8056640625,0.0,3216.2666015625,7894.0390625,6111.462890625,715.2557373046875,-7616.6787109375,14557.0439453125,4967.84814453125,10623.931640625,17148.65234375,10797.1826171875,17227.33203125,7766.88232421875,11482.23828125,6105.89990234375,-0.0,6971.359375,14073.0546875,8498.0322265625,11762.7783203125,20756.720703125,8332.7294921875,-1714.2296142578125,9233.1572265625,7357.59716796875,27009.64453125,7554.68994140625,14116.763671875,-5002.81689453125,-8172.98876953125,9124.279296875,4986.921875,9903.11328125,7086.59521484375,7084.2109375,7404.486328125,4339.21826171875,10663.6689453125,9779.9296875,8991.55859375,-12947.71875,-0.0,0.0,11292.2978515625,7595.22119140625,-735.918701171875,0.0,14116.763671875
-3277.460693359375,-8782.5458984375,7945.69677734375,11397.2021484375,16326.904296875,17142.294921875,14694.53125,14428.2978515625,14158.884765625,10731.220703125,18665.791015625,0.0,13624.0322265625,0.0,13745.6259765625,17662.84375,28260.548828125,13871.193359375,9701.251953125,7559.45849609375,5685.48828125,16285.578125,14450.5498046875,11185.8056640625,0.0,3207.524658203125,7882.91259765625,6111.462890625,708.8978881835938,-7619.06298828125,14553.8642578125,4971.822265625,10619.9580078125,17148.65234375,10793.208984375,17224.947265625,7766.087890625,11484.623046875,6123.3837890625,-0.0,6962.6171875,14069.875,8492.4697265625,11763.572265625,20761.490234375,8339.087890625,-1723.766357421875,9225.208984375,7348.060546875,27012.82421875,7544.35888671875,14122.3271484375,-5006.7900390625,-8175.373046875,9121.1005859375,4992.48486328125,9884.833984375,7100.10546875,7102.4892578125,7407.6650390625,4351.13916015625,10659.6943359375,9786.2880859375,9008.248046875,-12955.666015625,-0.0,0.0,11275.609375,7609.5263671875,-733.5344848632812,0.0,14126.30078125
-3267.924072265625,-8785.724609375,7931.3916015625,11382.1025390625,16315.7783203125,17134.34765625,14685.7900390625,14419.5556640625,14153.3212890625,10716.9150390625,18646.716796875,0.0,13608.1376953125,0.0,13742.447265625,17666.021484375,28247.833984375,13858.4775390625,9692.509765625,7549.126953125,5671.18310546875,16274.4521484375,14438.62890625,11175.4736328125,0.0,3204.345703125,7872.58154296875,6112.25732421875,698.56640625,-7625.4208984375,14541.943359375,4955.92724609375,10604.8583984375,17135.142578125,10781.2880859375,17215.41015625,7756.55126953125,11477.470703125,6102.720703125,-0.0,6947.517578125,14061.927734375,8482.138671875,11756.419921875,20754.337890625,8327.9609375,-1731.713623046875,9210.904296875,7333.75537109375,27007.26171875,7538.79541015625,14119.1484375,-5025.86376953125,-8167.42626953125,9106.794921875,4964.669921875,9872.9130859375,7100.900390625,7096.1318359375,7388.591796875,4314.58154296875,10644.5947265625,9777.5458984375,9000.3017578125,-12963.6123046875,-0.0,0.0,11256.53515625,7616.6787109375,-762.1447143554688,0.0,14103.2529296875
-3274.28173828125,-8781.7509765625,7937.7490234375,11382.8974609375,16317.3671875,17136.732421875,14684.9951171875,14421.939453125,14146.1689453125,10707.3779296875,18656.25390625,0.0,13614.4951171875,0.0,13748.8046875,17676.353515625,28248.62890625,13859.2724609375,9692.509765625,7541.1796875,5672.77294921875,16274.4521484375,14440.21875,11176.2685546875,0.0,3207.524658203125,7874.17138671875,6116.2314453125,705.718994140625,-7617.4736328125,14544.328125,4951.9541015625,10608.037109375,17134.34765625,10782.8779296875,17216.205078125,7756.55126953125,11477.470703125,6099.5419921875,-0.0,6953.08056640625,14065.9013671875,8484.5224609375,11759.5986328125,20751.158203125,8324.7822265625,-1709.461181640625,9210.904296875,7339.31884765625,27010.44140625,7538.79541015625,14123.1220703125,-5017.12158203125,-8148.3525390625,9122.689453125,4962.28564453125,9877.681640625,7103.2841796875,7087.3896484375,7385.41259765625,4285.97119140625,10643.005859375,9774.3671875,8981.2275390625,-12953.28125,-0.0,0.0,11262.8935546875,7599.9892578125,-771.6814575195312,0.0,14084.1796875
-3272.6923828125,-8767.4453125,7952.849609375,11394.818359375,16327.69921875,17144.6796875,14693.7373046875,14425.9140625,14142.990234375,10712.94140625,18667.37890625,0.0,13630.390625,0.0,13757.546875,17672.380859375,28259.75390625,13868.0146484375,9698.8681640625,7541.974609375,5684.69384765625,16286.373046875,14447.37109375,11181.8310546875,0.0,3220.240234375,7886.09228515625,6123.3837890625,705.718994140625,-7610.3212890625,14553.0703125,4962.28564453125,10619.9580078125,17145.474609375,10793.208984375,17225.7421875,7763.70361328125,11483.828125,6110.66796875,-0.0,6966.5908203125,14075.4384765625,8493.2646484375,11766.7509765625,20755.92578125,8330.3447265625,-1690.3876953125,9222.0302734375,7351.23974609375,27019.181640625,7546.74267578125,14127.095703125,-5001.22705078125,-8134.841796875,9129.841796875,4989.30615234375,9889.6025390625,7107.2578125,7093.74755859375,7392.5654296875,4293.91845703125,10647.7734375,9778.3408203125,8972.4853515625,-12954.87109375,-0.0,0.0,11271.6357421875,7588.86328125,-757.3763427734375,0.0,14093.716796875
-3250.43994140625,-8773.8037109375,7962.38623046875,11405.150390625,16336.44140625,17146.26953125,14702.4794921875,14427.5029296875,14150.142578125,10723.2734375,18680.095703125,0.0,13641.5166015625,0.0,13767.87890625,17654.099609375,28266.90625,13873.5771484375,9706.0205078125,7550.71630859375,5693.435546875,16291.1416015625,14455.318359375,11185.8056640625,0.0,3223.419189453125,7897.2177734375,6118.61572265625,704.1295166015625,-7600.7841796875,14559.427734375,4967.0537109375,10627.1103515625,17153.421875,10801.15625,17231.306640625,7770.8564453125,11487.8017578125,6124.97314453125,-0.0,6976.12744140625,14081.7958984375,8500.4169921875,11769.1357421875,20763.078125,8336.703125,-1690.3876953125,9232.361328125,7359.9814453125,27019.978515625,7558.6640625,14118.353515625,-4996.45849609375,-8138.81591796875,9125.869140625,4998.8427734375,9896.7548828125,7096.1318359375,7107.2578125,7406.87060546875,4322.52880859375,10653.3369140625,9787.0830078125,8984.40625,-12951.69140625,-0.0,0.0,11282.76171875,7592.8369140625,-743.865966796875,0.0,14101.6640625
-3236.9296875,-8786.51953125,7961.5908203125,11401.1767578125,16335.6455078125,17146.26953125,14705.658203125,14427.5029296875,14166.83203125,10724.8623046875,18689.6328125,0.0,13639.1328125,0.0,13774.2353515625,17654.896484375,28262.138671875,13871.9873046875,9707.6103515625,7560.2529296875,5691.05126953125,16287.9619140625,14456.11328125,11186.599609375,0.0,3217.061279296875,7898.8076171875,6117.82080078125,704.1295166015625,-7605.552734375,14555.4541015625,4966.2587890625,10626.31640625,17151.83203125,10800.361328125,17228.126953125,7772.44580078125,11489.3916015625,6123.3837890625,-0.0,6975.33251953125,14080.20703125,8503.5966796875,11767.546875,20768.642578125,8339.087890625,-1700.71923828125,9230.7734375,7362.36572265625,27019.978515625,7565.021484375,14119.1484375,-5005.9951171875,-8165.0419921875,9115.537109375,4991.68994140625,9899.93359375,7086.59521484375,7115.205078125,7406.076171875,4325.7080078125,10653.3369140625,9790.26171875,9001.095703125,-12960.43359375,-0.0,0.0,11274.0205078125,7626.21533203125,-753.4027099609375,0.0,14094.51171875
-3260.771484375,-8863.6083984375,7951.259765625,11409.9189453125,16329.2880859375,17147.859375,14701.68359375,14429.88671875,14166.83203125,10720.09375,18672.1484375,0.0,13628.005859375,0.0,13770.2626953125,17662.84375,28258.958984375,13869.603515625,9705.2255859375,7558.6640625,5686.283203125,16287.1689453125,14451.3447265625,11184.2158203125,0.0,3225.0087890625,7892.44921875,6121.0,708.1031494140625,-7599.9892578125,14553.0703125,4963.875,10620.7529296875,17151.037109375,10797.1826171875,17226.537109375,7767.67724609375,11489.3916015625,6108.2841796875,-0.0,6968.18017578125,14082.5908203125,8497.23828125,11767.546875,20765.462890625,8337.498046875,-1719.792724609375,9238.7197265625,7354.41845703125,27019.181640625,7559.45849609375,14124.7109375,-5022.6845703125,-8196.8310546875,9109.1796875,4992.48486328125,9891.9873046875,7093.74755859375,7102.4892578125,7413.228515625,4312.9921875,10653.3369140625,9787.876953125,8998.7119140625,-12969.970703125,-0.0,0.0,11272.4306640625,7626.21533203125,-764.5289306640625,0.0,14084.9755859375
-3262.36083984375,-8897.78125,7948.87548828125,11417.8662109375,16326.109375,17147.064453125,14694.53125,14433.06640625,14157.294921875,10713.736328125,18663.40625,0.0,13621.6474609375,0.0,13766.2890625,17674.763671875,28260.548828125,13869.603515625,9701.251953125,7547.537109375,5685.48828125,16290.345703125,14448.9599609375,11184.2158203125,0.0,3219.445556640625,7886.88671875,6122.5888671875,708.8978881835938,-7599.19482421875,14553.0703125,4967.0537109375,10619.1630859375,17152.62890625,10795.59375,17228.126953125,7764.498046875,11488.5966796875,6107.4892578125,-0.0,6962.6171875,14083.3857421875,8493.2646484375,11768.3408203125,20759.10546875,8339.8818359375,-1717.4085693359375,9247.4619140625,7352.8291015625,27017.59375,7553.1005859375,14135.837890625,-5017.12158203125,-8187.2939453125,9117.9208984375,4981.35888671875,9891.1923828125,7103.2841796875,7086.59521484375,7426.73876953125,4304.25,10654.1318359375,9783.904296875,8976.4599609375,-12963.6123046875,-0.0,0.0,11280.376953125,7622.2421875,-757.3763427734375,0.0,14088.154296875
-3243.287353515625,-8745.98828125,7963.1806640625,11424.2236328125,16336.44140625,17161.369140625,14695.3271484375,14443.3974609375,14144.580078125,10712.94140625,18668.173828125,0.0,13639.1328125,0.0,13755.162109375,17691.453125,28272.470703125,13881.5244140625,9706.814453125,7538.00048828125,5697.4091796875,16303.857421875,14457.703125,11196.9306640625,0.0,3232.161376953125,7886.88671875,6140.86767578125,720.0241088867188,-7583.30029296875,14565.78515625,4979.76904296875,10631.87890625,17162.1640625,10805.9248046875,17240.84375,7768.47216796875,11495.7490234375,6114.6416015625,-0.0,6977.716796875,14096.1005859375,8498.0322265625,11783.4404296875,20759.10546875,8342.265625,-1701.513916015625,9253.025390625,7356.80224609375,27036.666015625,7546.74267578125,14148.552734375,-5001.22705078125,-8169.01513671875,9138.583984375,4987.716796875,9894.37109375,7123.15234375,7084.2109375,7421.17529296875,4310.60791015625,10662.0791015625,9783.904296875,8962.154296875,-12944.5390625,-0.0,0.0,11293.09375,7592.8369140625,-741.4818115234375,0.0,14096.1005859375
-3240.903076171875,-8675.2578125,7958.412109375,11417.0712890625,16334.8525390625,17161.369140625,14696.12109375,14442.603515625,14141.400390625,10710.556640625,18661.818359375,0.0,13641.5166015625,0.0,13756.751953125,17699.400390625,28272.470703125,13883.908203125,9707.6103515625,7537.2060546875,5695.81982421875,16302.2666015625,14457.703125,11199.3154296875,0.0,3237.724365234375,7885.296875,6144.046875,723.2030029296875,-7576.1474609375,14566.5810546875,4981.35888671875,10631.083984375,17160.57421875,10803.5400390625,17240.84375,7769.2666015625,11496.5439453125,6129.74169921875,-0.0,6973.74365234375,14093.716796875,8498.0322265625,11785.0302734375,20758.310546875,8338.2919921875,-1703.1033935546875,9242.6943359375,7349.64990234375,27038.255859375,7545.9482421875,14148.552734375,-4995.6640625,-8133.251953125,9132.2255859375,4999.6376953125,9891.1923828125,7129.51025390625,7087.3896484375,7398.92333984375,4322.52880859375,10663.6689453125,9783.904296875,8966.1279296875,-12938.181640625,-0.0,0.0,11300.24609375,7592.8369140625,-736.71337890625,0.0,14103.2529296875
-3265.539794921875,-8724.5302734375,7945.69677734375,11401.970703125,16322.1357421875,17151.83203125,14689.7626953125,14433.06640625,14137.427734375,10710.556640625,18657.048828125,0.0,13615.291015625,0.0,13762.314453125,17693.04296875,28258.958984375,13873.5771484375,9699.662109375,7538.79541015625,5681.5146484375,16289.552734375,14447.37109375,11186.599609375,0.0,3228.1875,7881.32373046875,6134.51025390625,713.666259765625,-7600.7841796875,14553.0703125,4963.080078125,10617.57421875,17144.6796875,10793.208984375,17228.921875,7761.31982421875,11487.8017578125,6101.92626953125,-0.0,6960.2333984375,14080.20703125,8490.8798828125,11773.904296875,20751.953125,8334.3193359375,-1700.71923828125,9228.388671875,7345.67626953125,27029.513671875,7543.56396484375,14134.248046875,-5013.94287109375,-8145.1728515625,9114.7421875,4986.12744140625,9876.091796875,7121.56298828125,7078.6474609375,7397.33349609375,4306.63427734375,10658.900390625,9779.1357421875,8972.4853515625,-12962.0234375,-0.0,0.0,11287.5302734375,7584.09521484375,-750.2238159179688,0.0,14100.0751953125
-3256.7978515625,-8771.419921875,7944.10693359375,11401.1767578125,16319.751953125,17143.884765625,14683.40625,14421.939453125,14123.9169921875,10706.583984375,18672.943359375,0.0,13611.31640625,0.0,13754.3681640625,17673.96875,28256.57421875,13868.80859375,9692.509765625,7533.232421875,5679.92529296875,16283.9892578125,14441.8076171875,11179.447265625,0.0,3221.034912109375,7877.349609375,6121.79443359375,709.692626953125,-7611.91015625,14549.8916015625,4961.49072265625,10615.189453125,17142.294921875,10789.2353515625,17223.357421875,7756.55126953125,11477.470703125,6109.0791015625,-0.0,6959.4384765625,14075.4384765625,8486.111328125,11764.3671875,20743.2109375,8322.3984375,-1707.871826171875,9229.9775390625,7344.0869140625,27019.181640625,7536.4111328125,14120.73828125,-5009.96923828125,-8179.34716796875,9119.5107421875,4967.84814453125,9872.9130859375,7108.84716796875,7069.90576171875,7385.41259765625,4311.40283203125,10653.3369140625,9771.1875,8970.1015625,-12951.69140625,-0.0,0.0,11268.4560546875,7571.37939453125,-759.7605590820312,0.0,14092.1279296875
-3240.1083984375,-8785.724609375,7941.72265625,11392.4345703125,16318.1630859375,17135.939453125,14676.2529296875,14414.787109375,14124.7109375,10709.7626953125,18674.53125,0.0,13607.3427734375,0.0,13726.5517578125,17653.306640625,28252.6015625,13865.6298828125,9688.537109375,7532.43798828125,5677.541015625,16277.6318359375,14437.8349609375,11175.4736328125,0.0,3205.140380859375,7865.4287109375,6109.87353515625,709.692626953125,-7603.16845703125,14545.123046875,4956.72216796875,10611.216796875,17138.322265625,10784.466796875,17217.0,7751.78271484375,11472.7021484375,6129.74169921875,-0.0,6958.6435546875,14067.490234375,8479.7548828125,11756.419921875,20738.443359375,8318.423828125,-1729.3294677734375,9221.236328125,7338.52392578125,27004.083984375,7525.28515625,14109.611328125,-5014.73779296875,-8196.8310546875,9121.1005859375,4973.41162109375,9857.8134765625,7097.72119140625,7068.31591796875,7382.23388671875,4306.63427734375,10646.9794921875,9766.4189453125,8971.69140625,-12942.9501953125,-0.0,0.0,11271.6357421875,7565.81640625,-758.1710815429688,0.0,14095.306640625
-3238.51904296875,-8776.982421875,7936.16015625,11392.4345703125,16314.9833984375,17135.939453125,14678.6376953125,14413.9931640625,14144.580078125,10722.4775390625,18642.744140625,0.0,13607.3427734375,0.0,13732.1162109375,17650.921875,28251.806640625,13865.6298828125,9691.71484375,7544.35888671875,5674.3623046875,16279.220703125,14439.423828125,11174.6787109375,0.0,3208.3193359375,7866.22314453125,6108.2841796875,710.4873657226562,-7607.14208984375,14543.533203125,4955.92724609375,10607.2421875,17137.52734375,10783.671875,17217.0,7754.96142578125,11475.0859375,6109.0791015625,-0.0,6953.08056640625,14068.2861328125,8479.7548828125,11755.6259765625,20747.98046875,8325.5771484375,-1738.8662109375,9219.646484375,7332.96044921875,27006.46875,7530.0537109375,14107.2275390625,-5024.2744140625,-8157.88916015625,9115.537109375,4970.232421875,9868.14453125,7093.74755859375,7082.62109375,7388.591796875,4294.71337890625,10647.7734375,9773.572265625,8982.0224609375,-12961.228515625,-0.0,0.0,11272.4306640625,7607.93701171875,-751.0185546875,0.0,14103.2529296875
-3244.876953125,-8760.29296875,7953.6435546875,11409.123046875,16329.2880859375,17149.44921875,14688.96875,14425.9140625,14147.7587890625,10720.09375,18647.51171875,0.0,13623.2373046875,0.0,13746.4208984375,17661.25390625,28266.111328125,13879.935546875,9701.251953125,7545.1533203125,5689.46240234375,16292.73046875,14451.3447265625,11186.599609375,0.0,3231.366455078125,7880.5283203125,6122.5888671875,714.4609985351562,-7593.6318359375,14557.0439453125,4970.232421875,10620.7529296875,17151.037109375,10796.3876953125,17232.099609375,7763.70361328125,11485.4169921875,6101.13134765625,-0.0,6966.5908203125,14084.1796875,8490.8798828125,11768.3408203125,20756.720703125,8331.9345703125,-1693.566650390625,9237.92578125,7350.44482421875,27023.15625,7541.974609375,14118.353515625,-5017.916015625,-8165.0419921875,9126.6630859375,4985.33251953125,9885.62890625,7110.43701171875,7086.59521484375,7395.744140625,4309.81298828125,10662.873046875,9779.1357421875,8976.4599609375,-12962.0234375,-0.0,0.0,11281.966796875,7596.01611328125,-748.6343383789062,0.0,14095.306640625
-3289.3818359375,-8780.162109375,7954.43798828125,11397.2021484375,16329.2880859375,17146.26953125,14690.55859375,14424.32421875,14144.580078125,10715.3251953125,18671.353515625,0.0,13628.005859375,0.0,13748.8046875,17668.40625,28261.34375,13879.1396484375,9700.4580078125,7541.1796875,5687.87255859375,16287.9619140625,14451.3447265625,11186.599609375,0.0,3225.0087890625,7882.91259765625,6123.3837890625,710.4873657226562,-7596.81103515625,14554.66015625,4963.875,10619.1630859375,17144.6796875,10796.3876953125,17228.921875,7762.1142578125,11483.828125,6113.84716796875,-0.0,6964.20654296875,14077.822265625,8490.0859375,11767.546875,20754.337890625,8328.755859375,-1695.1561279296875,9223.6201171875,7352.0341796875,27022.361328125,7542.76904296875,14119.9423828125,-5017.12158203125,-8219.0830078125,9130.63671875,4988.51171875,9887.21875,7115.205078125,7086.59521484375,7397.33349609375,4301.8662109375,10666.052734375,9777.5458984375,8972.4853515625,-12952.4873046875,-0.0,0.0,11285.94140625,7592.04248046875,-751.813232421875,0.0,14088.9482421875
-3290.17626953125,-8785.724609375,7963.1806640625,11412.302734375,16334.8525390625,17155.8046875,14700.0947265625,14432.271484375,14158.884765625,10719.298828125,18685.66015625,0.0,13636.748046875,0.0,13759.9306640625,17679.533203125,28270.0859375,13886.2919921875,9708.404296875,7552.3056640625,5695.02490234375,16297.4990234375,14457.703125,11192.9580078125,0.0,3231.366455078125,7891.65478515625,6133.71533203125,722.4083251953125,-7584.8896484375,14561.8125,4970.232421875,10625.521484375,17154.216796875,10801.15625,17236.07421875,7769.2666015625,11491.775390625,6135.3046875,-0.0,6972.94873046875,14087.359375,8498.0322265625,11775.4931640625,20763.875,8335.908203125,-1701.513916015625,9240.3095703125,7356.80224609375,27034.283203125,7553.1005859375,14129.4794921875,-5002.81689453125,-8190.47265625,9135.4052734375,5005.20068359375,9893.576171875,7127.1259765625,7104.07861328125,7400.5126953125,4299.48193359375,10674.7939453125,9786.2880859375,8982.0224609375,-12946.9228515625,-0.0,0.0,11292.2978515625,7626.21533203125,-758.1710815429688,0.0,14081.7958984375
-3286.20263671875,-8827.0498046875,7954.43798828125,11405.9453125,16322.931640625,17144.6796875,14689.7626953125,14419.5556640625,14154.9111328125,10705.7890625,18685.66015625,0.0,13625.6220703125,0.0,13755.9580078125,17662.84375,28257.369140625,13871.9873046875,9695.689453125,7543.56396484375,5684.69384765625,16285.578125,14444.9873046875,11181.037109375,0.0,3228.982177734375,7882.91259765625,6121.79443359375,712.87158203125,-7607.93701171875,14549.095703125,4957.51708984375,10614.3955078125,17139.912109375,10789.2353515625,17224.154296875,7756.55126953125,11478.2646484375,6118.61572265625,-0.0,6964.20654296875,14078.6171875,8488.49609375,11764.3671875,20755.1328125,8320.80859375,-1708.66650390625,9234.74609375,7344.0869140625,27025.541015625,7546.74267578125,14115.173828125,-5017.12158203125,-8158.68359375,9109.9736328125,4995.6640625,9888.0126953125,7113.61572265625,7100.10546875,7380.64453125,4297.89208984375,10660.4892578125,9774.3671875,8973.28125,-12973.9443359375,-0.0,0.0,11270.0458984375,7638.13623046875,-781.2182006835938,0.0,14064.3115234375
-3253.618896484375,-8826.255859375,7967.154296875,11417.8662109375,16334.056640625,17157.396484375,14692.1474609375,14429.88671875,14146.1689453125,10706.583984375,18709.501953125,0.0,13628.80078125,0.0,13752.7783203125,17680.326171875,28272.470703125,13883.1142578125,9702.841796875,7541.974609375,5698.2041015625,16299.08984375,14452.9345703125,11190.5732421875,0.0,3240.1083984375,7885.296875,6135.3046875,708.8978881835938,-7608.73193359375,14562.6064453125,4978.974609375,10628.7001953125,17155.8046875,10800.361328125,17235.279296875,7761.31982421875,11488.5966796875,6129.74169921875,-0.0,6978.51171875,14092.1279296875,8494.853515625,11776.2880859375,20755.1328125,8326.37109375,-1680.8509521484375,9245.078125,7356.80224609375,27039.845703125,7547.537109375,14127.890625,-4996.45849609375,-8128.48388671875,9124.279296875,5011.55859375,9887.21875,7127.1259765625,7089.7734375,7382.23388671875,4315.37646484375,10671.615234375,9775.9560546875,8966.9228515625,-12975.533203125,-0.0,0.0,11279.5830078125,7599.19482421875,-769.2973022460938,0.0,14081.7958984375
-3234.54541015625,-8783.3408203125,7975.89599609375,11413.09765625,16345.1826171875,17160.57421875,14695.3271484375,14442.603515625,14135.837890625,10720.888671875,18701.552734375,0.0,13646.28515625,0.0,13748.8046875,17708.9375,28285.185546875,13894.240234375,9710.7890625,7545.1533203125,5707.74072265625,16305.4462890625,14460.880859375,11199.3154296875,0.0,3221.82958984375,7892.44921875,6147.22607421875,720.0241088867188,-7568.20068359375,14572.9375,4999.6376953125,10640.62109375,17166.93359375,10811.48828125,17243.2265625,7769.2666015625,11500.517578125,6144.046875,-0.0,6985.66455078125,14089.7431640625,8502.80078125,11784.236328125,20757.517578125,8339.087890625,-1672.1090087890625,9241.1044921875,7365.544921875,27035.87109375,7545.9482421875,14147.7587890625,-4990.10107421875,-8132.45751953125,9151.2998046875,5012.353515625,9890.3974609375,7143.0205078125,7077.8525390625,7401.3076171875,4330.47607421875,10681.9462890625,9784.6982421875,8969.306640625,-12926.2607421875,-0.0,0.0,11308.193359375,7541.1796875,-736.71337890625,0.0,14108.021484375
-3245.671630859375,-8804.00390625,7958.412109375,11405.9453125,16334.056640625,17154.216796875,14690.55859375,14435.4501953125,14142.1953125,10726.4521484375,18671.353515625,0.0,13631.9794921875,0.0,13750.3935546875,17694.630859375,28270.0859375,13884.7041015625,9704.4306640625,7549.126953125,5691.84619140625,16294.3212890625,14452.9345703125,11192.162109375,0.0,3219.445556640625,7888.4765625,6137.68896484375,714.4609985351562,-7580.916015625,14559.427734375,4981.35888671875,10623.931640625,17153.421875,10801.15625,17233.689453125,7762.1142578125,11490.185546875,6117.02587890625,-0.0,6969.77001953125,14079.4111328125,8496.443359375,11775.4931640625,20753.541015625,8335.908203125,-1693.566650390625,9233.1572265625,7356.0078125,27026.333984375,7543.56396484375,14136.6318359375,-5025.06884765625,-8168.220703125,9140.173828125,5006.7900390625,9888.0126953125,7136.6630859375,7081.82666015625,7401.3076171875,4328.09228515625,10674.7939453125,9783.1083984375,8981.2275390625,-12925.4658203125,-0.0,0.0,11295.4775390625,7559.45849609375,-739.0975952148438,0.0,14110.40625
-3267.924072265625,-8820.693359375,7949.669921875,11405.150390625,16324.5205078125,17143.091796875,14688.96875,14424.32421875,14150.9375,10721.68359375,18661.021484375,0.0,13619.263671875,0.0,13750.3935546875,17668.40625,28258.166015625,13875.1669921875,9698.8681640625,7551.51123046875,5683.89892578125,16283.193359375,14445.78125,11181.8310546875,0.0,3213.88232421875,7883.7080078125,6121.79443359375,705.718994140625,-7585.68408203125,14549.8916015625,4963.875,10612.0107421875,17142.294921875,10790.8251953125,17224.154296875,7757.345703125,11482.23828125,6095.568359375,-0.0,6961.822265625,14073.8486328125,8490.0859375,11765.162109375,20752.748046875,8331.1396484375,-1711.845458984375,9233.951171875,7349.64990234375,27016.00390625,7542.76904296875,14117.55859375,-5025.06884765625,-8187.2939453125,9123.484375,4992.48486328125,9884.0400390625,7114.41015625,7090.568359375,7398.92333984375,4306.63427734375,10669.2314453125,9779.1357421875,8982.8173828125,-12941.3603515625,-0.0,0.0,11281.1728515625,7599.19482421875,-752.6079711914062,0.0,14100.869140625
-3286.20263671875,-8770.625,7948.0810546875,11407.5341796875,16323.724609375,17145.474609375,14689.7626953125,14427.5029296875,14153.3212890625,10715.3251953125,18663.40625,0.0,13620.05859375,0.0,13755.162109375,17676.353515625,28256.57421875,13875.9609375,9698.8681640625,7553.1005859375,5683.89892578125,16286.373046875,14446.576171875,11185.009765625,0.0,3219.445556640625,7882.91259765625,6126.5625,713.666259765625,-7575.35302734375,14548.3017578125,4962.28564453125,10611.216796875,17141.5,10788.4404296875,17226.537109375,7759.72998046875,11487.0068359375,6100.33642578125,-0.0,6959.4384765625,14075.4384765625,8490.0859375,11769.1357421875,20756.720703125,8334.3193359375,-1718.2032470703125,9235.541015625,7347.265625,27023.15625,7545.9482421875,14124.7109375,-5013.14794921875,-8181.7314453125,9107.58984375,4992.48486328125,9886.423828125,7115.99951171875,7095.3369140625,7408.4599609375,4294.71337890625,10670.8212890625,9780.724609375,8981.2275390625,-12942.1552734375,-0.0,0.0,11274.814453125,7614.29443359375,-756.5816040039062,0.0,14098.4853515625
-3285.407958984375,-8726.1201171875,7944.10693359375,11394.818359375,16319.751953125,17142.294921875,14681.81640625,14426.7080078125,14141.400390625,10708.1728515625,18666.5859375,0.0,13618.46875,0.0,13747.21484375,17680.326171875,28253.396484375,13871.9873046875,9696.4833984375,7542.76904296875,5682.3095703125,16284.7841796875,14442.603515625,11183.4208984375,0.0,3213.88232421875,7877.349609375,6125.76806640625,712.0768432617188,-7581.7109375,14545.91796875,4960.69580078125,10609.626953125,17136.732421875,10787.646484375,17223.357421875,7754.96142578125,11483.828125,6116.2314453125,-0.0,6959.4384765625,14068.2861328125,8484.5224609375,11766.7509765625,20751.158203125,8332.7294921875,-1722.9715576171875,9222.0302734375,7343.2919921875,27019.978515625,7538.79541015625,14127.890625,-5011.55859375,-8170.6044921875,9102.02734375,4984.53759765625,9879.271484375,7116.79443359375,7083.416015625,7414.81787109375,4300.2763671875,10667.6416015625,9774.3671875,8969.306640625,-12954.87109375,-0.0,0.0,11253.357421875,7587.27392578125,-762.939453125,0.0,14092.1279296875
-3294.94482421875,-8744.3994140625,7952.05419921875,11395.61328125,16326.109375,17146.26953125,14688.173828125,14429.88671875,14146.9638671875,10720.888671875,18665.791015625,0.0,13627.2119140625,0.0,13747.21484375,17683.505859375,28255.78125,13875.9609375,9699.662109375,7550.71630859375,5687.87255859375,16285.578125,14446.576171875,11185.8056640625,0.0,3218.65087890625,7882.91259765625,6128.15234375,719.2293701171875,-7610.3212890625,14549.8916015625,4962.28564453125,10615.189453125,17139.912109375,10792.4150390625,17226.537109375,7757.345703125,11487.0068359375,6121.79443359375,-0.0,6967.3857421875,14069.875,8488.49609375,11769.9306640625,20754.337890625,8335.11328125,-1719.792724609375,9223.6201171875,7348.85546875,27019.978515625,7542.76904296875,14131.0693359375,-5012.353515625,-8158.68359375,9123.484375,4987.716796875,9882.4501953125,7116.79443359375,7085.00537109375,7406.87060546875,4305.83935546875,10674.7939453125,9778.3408203125,8981.2275390625,-12950.1025390625,-0.0,0.0,11263.6884765625,7581.7109375,-742.2764892578125,0.0,14111.99609375
-3293.355224609375,-8788.9033203125,7949.669921875,11392.4345703125,16320.546875,17139.912109375,14684.9951171875,14421.939453125,14142.990234375,10718.5048828125,18651.486328125,0.0,13624.8271484375,0.0,13745.6259765625,17659.6640625,28251.013671875,13868.80859375,9693.3046875,7546.74267578125,5679.13037109375,16278.4248046875,14440.21875,11179.447265625,0.0,3215.471923828125,7879.73388671875,6116.2314453125,716.84521484375,-7636.546875,14545.123046875,4955.92724609375,10610.4208984375,17135.142578125,10785.26171875,17220.974609375,7751.78271484375,11479.060546875,6111.462890625,-0.0,6960.2333984375,14066.6962890625,8485.3173828125,11759.5986328125,20751.158203125,8327.9609375,-1723.766357421875,9222.0302734375,7344.0869140625,27012.029296875,7539.59033203125,14115.173828125,-5025.86376953125,-8190.47265625,9125.0732421875,4986.12744140625,9880.8603515625,7103.2841796875,7084.2109375,7392.5654296875,4299.48193359375,10663.6689453125,9772.77734375,8983.6123046875,-12954.87109375,-0.0,0.0,11276.404296875,7584.09521484375,-739.0975952148438,0.0,14112.7900390625
-3267.924072265625,-8804.00390625,7942.51708984375,11373.3603515625,16308.6259765625,17120.837890625,14677.841796875,14407.634765625,14140.60546875,10720.09375,18642.744140625,0.0,13624.8271484375,0.0,13743.2412109375,17643.76953125,28240.681640625,13855.2978515625,9685.357421875,7544.35888671875,5668.00439453125,16264.1201171875,14432.271484375,11165.9365234375,0.0,3185.272216796875,7870.99169921875,6097.15771484375,712.87158203125,-7634.9580078125,14532.4072265625,4949.56982421875,10600.08984375,17124.017578125,10772.5458984375,17204.28515625,7743.83544921875,11468.728515625,6072.52099609375,-0.0,6947.517578125,14048.4169921875,8474.986328125,11746.0888671875,20744.80078125,8321.6025390625,-1720.58740234375,9200.5732421875,7330.57666015625,26990.572265625,7533.232421875,14099.2802734375,-5036.98974609375,-8195.2412109375,9117.126953125,4953.54296875,9877.681640625,7086.59521484375,7081.03173828125,7387.00244140625,4285.97119140625,10644.5947265625,9768.0087890625,8987.5859375,-12966.7919921875,-0.0,0.0,11289.9140625,7582.505859375,-737.5081176757812,0.0,14112.7900390625
-3280.6396484375,-8805.5927734375,7929.8017578125,11379.71875,16301.4736328125,17114.48046875,14672.279296875,14398.892578125,14137.427734375,10708.1728515625,18646.716796875,0.0,13606.5478515625,0.0,13740.857421875,17643.76953125,28234.32421875,13849.7353515625,9677.41015625,7537.2060546875,5660.85205078125,16258.55859375,14425.1181640625,11157.9892578125,0.0,3181.298583984375,7867.0185546875,6090.7998046875,703.3348388671875,-7634.9580078125,14525.25390625,4943.2119140625,10590.5537109375,17116.865234375,10765.3935546875,17197.927734375,7739.86181640625,11460.78125,6084.4423828125,-0.0,6941.9541015625,14045.23828125,8469.421875,11738.140625,20740.03125,8313.65625,-1736.4820556640625,9206.1357421875,7326.60302734375,26984.21484375,7528.4638671875,14092.921875,-5045.73193359375,-8221.466796875,9106.794921875,4946.390625,9875.2978515625,7080.23681640625,7081.03173828125,7377.4658203125,4276.4345703125,10635.05859375,9761.6513671875,8974.0751953125,-12969.1767578125,-0.0,0.0,11280.376953125,7597.60546875,-754.9921875,0.0,14088.9482421875
-3275.07666015625,-8775.3935546875,7937.7490234375,11385.28125,16311.8037109375,17126.40234375,14681.021484375,14412.4033203125,14149.3486328125,10714.53125,18663.40625,0.0,13600.1904296875,0.0,13749.599609375,17662.048828125,28242.26953125,13858.4775390625,9686.947265625,7544.35888671875,5668.798828125,16266.50390625,14433.8603515625,11167.5263671875,0.0,3197.98779296875,7874.9658203125,6105.10498046875,699.3611450195312,-7632.57373046875,14533.99609375,4947.98046875,10600.08984375,17124.810546875,10775.7255859375,17208.2578125,7749.39892578125,11471.1123046875,6094.77392578125,-0.0,6953.08056640625,14057.1591796875,8478.958984375,11749.267578125,20749.568359375,8324.7822265625,-1746.018798828125,9214.083984375,7339.31884765625,26997.724609375,7537.2060546875,14108.8173828125,-5033.01611328125,-8211.1357421875,9115.537109375,4954.337890625,9879.271484375,7096.92626953125,7091.36328125,7387.796875,4287.56103515625,10640.62109375,9770.3935546875,8980.43359375,-12958.0498046875,-0.0,0.0,11285.94140625,7616.6787109375,-751.813232421875,0.0,14095.306640625
-3258.38720703125,-8769.03515625,7933.77587890625,11383.6923828125,16314.1884765625,17131.962890625,14686.583984375,14417.9658203125,14156.5009765625,10721.68359375,18659.43359375,0.0,13604.1640625,0.0,13755.162109375,17668.40625,28245.44921875,13860.861328125,9690.125,7551.51123046875,5670.388671875,16268.888671875,14439.423828125,11172.294921875,0.0,3204.345703125,7878.939453125,6113.05224609375,706.5137329101562,-7625.4208984375,14534.791015625,4951.9541015625,10600.08984375,17127.990234375,10777.314453125,17213.025390625,7753.3720703125,11476.67578125,6103.515625,-0.0,6950.6962890625,14061.1337890625,8482.138671875,11754.0361328125,20752.748046875,8327.9609375,-1739.660888671875,9212.494140625,7341.703125,27004.083984375,7542.76904296875,14114.3798828125,-5014.73779296875,-8190.47265625,9113.9482421875,4961.49072265625,9883.244140625,7100.10546875,7096.92626953125,7392.5654296875,4289.9453125,10640.62109375,9776.751953125,8989.1748046875,-12946.9228515625,-0.0,0.0,11285.1455078125,7625.4208984375,-742.2764892578125,0.0,14107.2275390625
-3251.23486328125,-8784.134765625,7928.21240234375,11375.7451171875,16307.8310546875,17127.1953125,14679.431640625,14415.58203125,14145.3740234375,10712.94140625,18654.6640625,0.0,13605.75390625,0.0,13748.009765625,17673.173828125,28235.912109375,13854.50390625,9684.5625,7543.56396484375,5663.236328125,16264.1201171875,14432.271484375,11165.9365234375,0.0,3203.551025390625,7872.58154296875,6115.4365234375,708.1031494140625,-7627.01025390625,14527.638671875,4939.23828125,10593.7314453125,17119.25,10769.3671875,17208.2578125,7746.2197265625,11471.1123046875,6114.6416015625,-0.0,6941.9541015625,14056.365234375,8474.986328125,11753.2412109375,20747.98046875,8322.3984375,-1720.58740234375,9203.751953125,7333.75537109375,27002.4921875,7533.232421875,14119.1484375,-5024.2744140625,-8184.90966796875,9109.1796875,4971.02734375,9878.4765625,7101.69482421875,7084.2109375,7383.8232421875,4265.30859375,10633.46875,9768.8037109375,8981.2275390625,-12949.3076171875,-0.0,0.0,11273.224609375,7600.7841796875,-751.0185546875,0.0,14106.4326171875
-3258.38720703125,-8757.9091796875,7934.5703125,11382.8974609375,16313.39453125,17139.1171875,14680.2265625,14426.7080078125,14141.400390625,10709.7626953125,18661.818359375,0.0,13618.46875,0.0,13748.009765625,17693.04296875,28242.26953125,13861.65625,9690.125,7541.1796875,5668.798828125,16274.4521484375,14437.0390625,11174.6787109375,0.0,3212.29296875,7875.76025390625,6131.3310546875,711.2821044921875,-7615.08935546875,14535.5859375,4948.77490234375,10598.5,17128.78515625,10774.9296875,17215.41015625,7749.39892578125,11477.470703125,6107.4892578125,-0.0,6948.3125,14065.1064453125,8479.7548828125,11765.95703125,20749.568359375,8325.5771484375,-1711.845458984375,9213.2880859375,7340.11328125,27021.56640625,7536.4111328125,14133.453125,-5020.30029296875,-8151.53125,9116.33203125,5000.4326171875,9882.4501953125,7119.9736328125,7081.82666015625,7385.41259765625,4295.5078125,10639.8271484375,9771.1875,8974.0751953125,-12946.9228515625,-0.0,0.0,11264.4833984375,7588.068359375,-759.7605590820312,0.0,14100.869140625
-3275.07666015625,-8763.47265625,7929.8017578125,11361.439453125,16306.2421875,17127.1953125,14678.6376953125,14417.171875,14142.990234375,10708.9677734375,18656.25390625,0.0,13621.6474609375,0.0,13749.599609375,17672.380859375,28235.912109375,13853.708984375,9685.357421875,7539.59033203125,5662.44140625,16263.326171875,14431.4765625,11165.1416015625,0.0,3190.835205078125,7874.9658203125,6116.2314453125,700.9506225585938,-7615.88427734375,14527.638671875,4943.2119140625,10590.5537109375,17119.25,10768.5732421875,17206.66796875,7745.4248046875,11470.3173828125,6089.21044921875,-0.0,6942.7490234375,14047.623046875,8474.1904296875,11754.830078125,20747.185546875,8321.6025390625,-1718.2032470703125,9191.0361328125,7336.1396484375,27008.8515625,7537.2060546875,14120.73828125,-5029.04248046875,-8153.91552734375,9109.9736328125,4974.20654296875,9883.244140625,7100.10546875,7085.00537109375,7376.6708984375,4294.71337890625,10634.2626953125,9768.0087890625,8976.4599609375,-12965.2021484375,-0.0,0.0,11248.5888671875,7599.19482421875,-761.3499755859375,0.0,14100.869140625
-3269.513427734375,-8788.1083984375,7932.18603515625,11356.6708984375,16307.8310546875,17117.658203125,14677.841796875,14404.4560546875,14144.580078125,10709.7626953125,18666.5859375,0.0,13625.6220703125,0.0,13748.8046875,17643.76953125,28231.939453125,13848.9404296875,9681.3837890625,7538.79541015625,5660.85205078125,16257.7626953125,14429.88671875,11157.1953125,0.0,3178.914306640625,7875.76025390625,6096.36328125,706.5137329101562,-7635.75244140625,14523.6650390625,4937.64892578125,10590.5537109375,17114.48046875,10766.9833984375,17200.3125,7744.63037109375,11465.5498046875,6089.21044921875,-0.0,6945.13330078125,14039.67578125,8474.986328125,11742.115234375,20744.80078125,8317.6298828125,-1722.1768798828125,9183.8837890625,7339.31884765625,26993.751953125,7538.00048828125,14100.869140625,-5020.30029296875,-8188.08837890625,9114.7421875,4949.56982421875,9882.4501953125,7073.08447265625,7084.2109375,7378.26025390625,4281.20263671875,10630.2900390625,9765.625,8981.2275390625,-12961.228515625,-0.0,0.0,11248.5888671875,7596.01611328125,-758.1710815429688,0.0,14103.2529296875
-3276.666015625,-8811.951171875,7925.828125,11363.029296875,16299.8828125,17113.685546875,14669.8955078125,14400.482421875,14134.248046875,10704.2001953125,18656.25390625,0.0,13611.31640625,0.0,13736.8837890625,17649.33203125,28227.96484375,13841.7880859375,9674.2314453125,7533.232421875,5656.8779296875,16252.19921875,14422.734375,11154.015625,0.0,3179.709228515625,7865.4287109375,6091.5947265625,704.9242553710938,-7643.69970703125,14519.69140625,4933.67529296875,10586.5791015625,17111.30078125,10761.419921875,17196.3359375,7737.4775390625,11458.396484375,6084.4423828125,-0.0,6937.185546875,14039.67578125,8468.6279296875,11738.140625,20735.263671875,8312.06640625,-1730.9189453125,9188.65234375,7330.57666015625,26985.802734375,7526.87451171875,14098.4853515625,-5030.6318359375,-8202.3935546875,9104.4111328125,4941.6220703125,9864.1708984375,7078.6474609375,7072.2900390625,7382.23388671875,4272.4609375,10622.341796875,9758.47265625,8970.896484375,-12970.7646484375,-0.0,0.0,11255.7412109375,7576.1474609375,-764.5289306640625,0.0,14093.716796875
-3267.129150390625,-8811.951171875,7940.92822265625,11387.666015625,16309.419921875,17132.759765625,14676.2529296875,14421.1455078125,14135.04296875,10711.3525390625,18666.5859375,0.0,13614.4951171875,0.0,13743.2412109375,17680.326171875,28243.859375,13856.09375,9685.357421875,7538.00048828125,5668.798828125,16269.68359375,14433.06640625,11172.294921875,0.0,3209.90869140625,7870.197265625,6117.82080078125,716.84521484375,-7635.75244140625,14534.791015625,4945.59619140625,10600.884765625,17127.990234375,10774.1357421875,17213.822265625,7747.0146484375,11472.7021484375,6102.720703125,-0.0,6950.6962890625,14061.927734375,8477.3701171875,11757.21484375,20741.62109375,8326.37109375,-1715.8189697265625,9216.4677734375,7333.75537109375,27011.236328125,7532.43798828125,14128.6845703125,-5016.3271484375,-8188.08837890625,9108.3837890625,4978.1796875,9874.5029296875,7109.64208984375,7072.2900390625,7399.7177734375,4287.56103515625,10634.2626953125,9768.0087890625,8972.4853515625,-12975.533203125,-0.0,0.0,11270.8408203125,7568.20068359375,-757.3763427734375,0.0,14101.6640625
-3266.33447265625,-8815.9248046875,7948.0810546875,11404.35546875,16318.9560546875,17140.70703125,14684.9951171875,14429.0927734375,14146.1689453125,10722.4775390625,18660.2265625,0.0,13628.005859375,0.0,13756.751953125,17682.7109375,28252.6015625,13865.6298828125,9694.8935546875,7549.126953125,5679.13037109375,16280.8095703125,14442.603515625,11179.447265625,0.0,3215.471923828125,7882.1181640625,6125.76806640625,716.0504760742188,-7622.2421875,14542.7392578125,4955.92724609375,10611.216796875,17138.322265625,10782.8779296875,17222.5625,7755.75634765625,11483.828125,6113.05224609375,-0.0,6957.84912109375,14073.0546875,8485.3173828125,11765.95703125,20754.337890625,8337.498046875,-1713.434814453125,9233.951171875,7342.49755859375,27018.388671875,7545.9482421875,14135.837890625,-4998.8427734375,-8182.525390625,9111.5634765625,4971.822265625,9891.9873046875,7108.84716796875,7085.80029296875,7411.638671875,4301.8662109375,10644.5947265625,9778.3408203125,8976.4599609375,-12964.408203125,-0.0,0.0,11277.9931640625,7584.8896484375,-747.0448608398438,0.0,14108.8173828125
-3307.660400390625,-8874.734375,7948.87548828125,11394.818359375,16314.9833984375,17130.375,14684.2001953125,14413.9931640625,14144.580078125,10714.53125,18634.796875,0.0,13619.263671875,0.0,13755.9580078125,17654.896484375,28251.806640625,13860.861328125,9688.537109375,7544.35888671875,5674.3623046875,16273.6572265625,14439.423828125,11171.5,0.0,3197.98779296875,7878.939453125,6107.4892578125,701.745361328125,-7607.14208984375,14540.3544921875,4961.49072265625,10611.216796875,17139.912109375,10779.6982421875,17215.41015625,7750.98779296875,11473.49609375,6090.7998046875,-0.0,6957.05419921875,14064.3115234375,8482.9326171875,11753.2412109375,20751.158203125,8325.5771484375,-1712.64013671875,9225.208984375,7340.908203125,26999.314453125,7542.76904296875,14111.201171875,-5017.12158203125,-8206.3671875,9106.794921875,4965.46435546875,9890.3974609375,7099.310546875,7085.80029296875,7394.94921875,4309.0185546875,10638.2373046875,9771.9833984375,8974.8701171875,-12963.6123046875,-0.0,0.0,11276.404296875,7593.6318359375,-754.1974487304688,0.0,14096.896484375
-3315.607666015625,-8896.19140625,7950.46533203125,11392.4345703125,16317.3671875,17130.375,14686.583984375,14413.197265625,14145.3740234375,10713.736328125,18655.458984375,0.0,13628.005859375,0.0,13759.1357421875,17658.076171875,28254.19140625,13861.65625,9688.537109375,7544.35888671875,5675.95166015625,16274.4521484375,14440.21875,11171.5,0.0,3199.577392578125,7883.7080078125,6108.2841796875,704.1295166015625,-7616.6787109375,14539.5595703125,4963.080078125,10612.0107421875,17139.912109375,10781.2880859375,17213.822265625,7750.98779296875,11473.49609375,6113.84716796875,-0.0,6959.4384765625,14061.927734375,8486.111328125,11754.830078125,20750.365234375,8324.7822265625,-1708.66650390625,9221.236328125,7348.060546875,26999.314453125,7542.76904296875,14111.201171875,-5020.30029296875,-8245.30859375,9129.0478515625,4976.5908203125,9898.3447265625,7104.07861328125,7088.1845703125,7390.97607421875,4302.66064453125,10638.2373046875,9771.1875,8974.0751953125,-12955.666015625,-0.0,0.0,11281.1728515625,7597.60546875,-751.813232421875,0.0,14098.4853515625
-3273.487060546875,-8787.314453125,7953.6435546875,11421.0439453125,16324.5205078125,17143.884765625,14692.9423828125,14419.5556640625,14150.9375,10711.3525390625,18686.453125,0.0,13637.54296875,0.0,13766.2890625,17666.81640625,28258.958984375,13870.3984375,9694.8935546875,7542.76904296875,5683.10400390625,16283.9892578125,14445.78125,11180.2412109375,0.0,3229.777099609375,7890.8603515625,6117.02587890625,719.2293701171875,-7611.91015625,14547.5068359375,4962.28564453125,10614.3955078125,17147.859375,10790.0302734375,17222.5625,7754.96142578125,11478.2646484375,6120.205078125,-0.0,6965.7958984375,14078.6171875,8492.4697265625,11763.572265625,20755.1328125,8327.9609375,-1708.66650390625,9251.435546875,7356.80224609375,27017.59375,7549.92138671875,14120.73828125,-5018.7109375,-8199.21484375,9135.4052734375,5008.37939453125,9903.11328125,7104.87353515625,7096.92626953125,7392.5654296875,4298.68701171875,10650.9521484375,9775.9560546875,8971.69140625,-12938.9765625,-0.0,0.0,11274.0205078125,7605.552734375,-757.3763427734375,0.0,14093.716796875
-3235.340087890625,-8721.3515625,7936.16015625,11396.408203125,16313.39453125,17135.939453125,14684.9951171875,14417.9658203125,14146.1689453125,10717.7099609375,18676.123046875,0.0,13624.0322265625,0.0,13755.9580078125,17667.611328125,28241.4765625,13864.0400390625,9687.7412109375,7545.9482421875,5670.388671875,16272.068359375,14437.8349609375,11172.294921875,0.0,3213.087890625,7879.73388671875,6114.6416015625,715.2557373046875,-7602.37353515625,14536.380859375,4944.80126953125,10599.2958984375,17129.580078125,10778.904296875,17213.025390625,7749.39892578125,11475.880859375,6096.36328125,-0.0,6953.08056640625,14065.1064453125,8481.34375,11758.009765625,20748.7734375,8327.9609375,-1730.9189453125,9227.59375,7344.88134765625,27015.208984375,7542.76904296875,14119.9423828125,-5035.400390625,-8191.26806640625,9117.9208984375,4997.25341796875,9889.6025390625,7108.84716796875,7089.7734375,7394.15478515625,4289.150390625,10645.3896484375,9774.3671875,8980.43359375,-12947.71875,-0.0,0.0,11273.224609375,7600.7841796875,-748.6343383789062,0.0,14101.6640625
-3249.645263671875,-8720.5576171875,7925.03369140625,11367.00390625,16302.2666015625,17123.22265625,14679.431640625,14413.9931640625,14147.7587890625,10727.24609375,18658.638671875,0.0,13611.31640625,0.0,13749.599609375,17666.81640625,28227.96484375,13855.2978515625,9685.357421875,7553.1005859375,5658.4677734375,16259.3515625,14429.88671875,11165.1416015625,0.0,3188.451171875,7872.58154296875,6109.0791015625,698.56640625,-7601.5791015625,14524.4599609375,4935.2646484375,10585.78515625,17112.890625,10767.77734375,17202.6953125,7743.04052734375,11471.1123046875,6081.26318359375,-0.0,6939.56982421875,14046.033203125,8471.806640625,11749.267578125,20747.185546875,8331.1396484375,-1757.1448974609375,9196.5986328125,7332.166015625,27000.109375,7537.2060546875,14115.9697265625,-5035.400390625,-8203.9833984375,9105.205078125,4973.41162109375,9876.8876953125,7108.052734375,7090.568359375,7395.744140625,4274.84521484375,10639.8271484375,9774.3671875,8989.9697265625,-12963.6123046875,-0.0,0.0,11280.376953125,7610.3212890625,-738.3028564453125,0.0,14116.763671875
-3272.6923828125,-8747.578125,7927.41796875,11368.591796875,16301.4736328125,17121.6328125,14677.0478515625,14409.224609375,14145.3740234375,10722.4775390625,18654.6640625,0.0,13616.8798828125,0.0,13751.189453125,17659.6640625,28230.34765625,13854.50390625,9682.97265625,7547.537109375,5660.05712890625,16259.3515625,14428.2978515625,11162.7578125,0.0,3188.451171875,7873.3759765625,6103.515625,700.1558837890625,-7603.16845703125,14524.4599609375,4932.88037109375,10588.9638671875,17114.48046875,10768.5732421875,17201.900390625,7741.451171875,11467.93359375,6087.62109375,-0.0,6942.7490234375,14044.4443359375,8473.396484375,11746.0888671875,20744.80078125,8326.37109375,-1750.787109375,9198.9833984375,7334.55029296875,26996.134765625,7536.4111328125,14107.2275390625,-5021.09521484375,-8206.3671875,9110.7685546875,4974.20654296875,9880.06640625,7097.72119140625,7090.568359375,7394.15478515625,4276.4345703125,10639.8271484375,9771.9833984375,8977.25390625,-12961.228515625,-0.0,0.0,11276.404296875,7615.88427734375,-742.2764892578125,0.0,14109.611328125
-3283.02392578125,-8749.1669921875,7944.9013671875,11388.4609375,16311.8037109375,17137.52734375,14679.431640625,14417.171875,14133.453125,10704.994140625,18674.53125,0.0,13620.05859375,0.0,13746.4208984375,17669.99609375,28250.216796875,13867.21875,9687.7412109375,7536.4111328125,5673.5673828125,16274.4521484375,14434.6552734375,11173.884765625,0.0,3204.345703125,7874.17138671875,6117.02587890625,716.84521484375,-7596.01611328125,14538.7646484375,4956.72216796875,10608.037109375,17133.5546875,10780.494140625,17214.6171875,7744.63037109375,11475.0859375,6124.97314453125,-0.0,6957.05419921875,14062.72265625,8478.958984375,11758.8046875,20743.2109375,8327.1669921875,-1718.2032470703125,9218.056640625,7341.703125,27012.82421875,7533.232421875,14116.763671875,-5000.4326171875,-8160.2734375,9125.869140625,4979.76904296875,9880.06640625,7107.2578125,7077.05810546875,7402.89697265625,4293.91845703125,10650.158203125,9768.0087890625,8965.3330078125,-12949.3076171875,-0.0,0.0,11276.404296875,7573.76318359375,-754.9921875,0.0,14090.5380859375
-3272.6923828125,-8746.783203125,7938.54443359375,11388.4609375,16309.419921875,17140.70703125,14677.0478515625,14421.1455078125,14132.6591796875,10705.7890625,18669.763671875,0.0,13616.0849609375,0.0,13747.21484375,17677.1484375,28249.421875,13866.4248046875,9688.537109375,7538.00048828125,5672.77294921875,16276.8359375,14433.8603515625,11175.4736328125,0.0,3215.471923828125,7874.17138671875,6121.79443359375,708.1031494140625,-7602.37353515625,14538.7646484375,4958.3115234375,10607.2421875,17133.5546875,10778.904296875,17216.205078125,7746.2197265625,11476.67578125,6120.205078125,-0.0,6950.6962890625,14065.9013671875,8476.5751953125,11760.39453125,20743.2109375,8329.55078125,-1719.792724609375,9216.4677734375,7339.31884765625,27016.798828125,7534.02734375,14124.7109375,-5005.20068359375,-8189.67822265625,9119.5107421875,4977.38525390625,9877.681640625,7114.41015625,7077.8525390625,7407.6650390625,4278.81884765625,10650.158203125,9766.4189453125,8970.1015625,-12949.3076171875,-0.0,0.0,11273.224609375,7580.12158203125,-761.3499755859375,0.0,14080.20703125
-3251.23486328125,-8775.3935546875,7929.8017578125,11381.30859375,16304.6513671875,17127.1953125,14676.2529296875,14411.6083984375,14139.0166015625,10701.8154296875,18657.841796875,0.0,13611.31640625,0.0,13757.546875,17664.431640625,28239.091796875,13856.8876953125,9681.3837890625,7538.79541015625,5664.03076171875,16264.9150390625,14428.2978515625,11165.9365234375,0.0,3209.114013671875,7874.9658203125,6109.87353515625,702.5401000976562,-7619.85791015625,14530.0224609375,4944.00634765625,10597.7060546875,17123.22265625,10771.7509765625,17206.66796875,7743.04052734375,11467.1396484375,6093.18408203125,-0.0,6945.13330078125,14056.365234375,8472.6015625,11750.0615234375,20742.416015625,8317.6298828125,-1722.1768798828125,9209.3154296875,7334.55029296875,27007.26171875,7535.6162109375,14114.3798828125,-5007.5849609375,-8234.18359375,9109.9736328125,4979.76904296875,9880.8603515625,7104.87353515625,7079.4423828125,7380.64453125,4274.05029296875,10645.3896484375,9763.2412109375,8975.6650390625,-12959.6396484375,-0.0,0.0,11258.919921875,7611.11572265625,-773.2709350585938,0.0,14083.3857421875
-3264.7451171875,-8782.5458984375,7932.98046875,11386.0771484375,16307.8310546875,17127.990234375,14677.841796875,14411.6083984375,14141.400390625,10699.431640625,18640.359375,0.0,13616.0849609375,0.0,13759.1357421875,17671.5859375,28239.091796875,13860.861328125,9682.97265625,7539.59033203125,5666.41455078125,16265.7109375,14431.4765625,11169.1162109375,0.0,3200.3720703125,7879.73388671875,6113.84716796875,706.5137329101562,-7605.552734375,14533.2021484375,4948.77490234375,10595.3212890625,17128.78515625,10773.3408203125,17209.84765625,7745.4248046875,11470.3173828125,6056.626953125,-0.0,6948.3125,14056.365234375,8475.7802734375,11752.4462890625,20742.416015625,8321.6025390625,-1739.660888671875,9214.083984375,7340.11328125,27007.26171875,7538.00048828125,14115.9697265625,-5021.09521484375,-8187.2939453125,9115.537109375,4986.921875,9882.4501953125,7111.2314453125,7076.263671875,7387.00244140625,4289.150390625,10648.568359375,9764.8310546875,8969.306640625,-12954.076171875,-0.0,0.0,11270.8408203125,7600.7841796875,-770.88671875,0.0,14081.0009765625
-3286.99755859375,-8769.830078125,7938.54443359375,11392.4345703125,16312.599609375,17137.52734375,14681.81640625,14421.1455078125,14151.732421875,10717.7099609375,18643.537109375,0.0,13620.853515625,0.0,13750.3935546875,17681.12109375,28247.037109375,13868.0146484375,9690.125,7550.71630859375,5671.97802734375,16274.4521484375,14438.62890625,11177.857421875,0.0,3210.70361328125,7880.5283203125,6125.76806640625,704.9242553710938,-7601.5791015625,14538.7646484375,4958.3115234375,10601.6796875,17135.142578125,10780.494140625,17217.794921875,7752.5771484375,11480.6494140625,6065.36865234375,-0.0,6955.46484375,14063.517578125,8479.7548828125,11761.1884765625,20751.158203125,8332.7294921875,-1744.42919921875,9219.646484375,7344.0869140625,27014.4140625,7540.384765625,14124.7109375,-5011.55859375,-8143.58447265625,9120.3046875,4994.07421875,9883.244140625,7115.205078125,7091.36328125,7403.69189453125,4301.8662109375,10657.310546875,9774.3671875,8970.896484375,-12957.2548828125,-0.0,0.0,11292.2978515625,7611.11572265625,-750.2238159179688,0.0,14089.7431640625
-3253.618896484375,-8741.2197265625,7958.412109375,11405.9453125,16326.904296875,17155.8046875,14692.9423828125,14436.2451171875,14153.3212890625,10728.8359375,18672.943359375,0.0,13631.1845703125,0.0,13748.8046875,17692.248046875,28266.90625,13887.8818359375,9702.046875,7557.07421875,5691.05126953125,16292.73046875,14452.1396484375,11193.751953125,0.0,3229.777099609375,7888.4765625,6146.43115234375,728.76611328125,-7596.01611328125,14558.6328125,4976.5908203125,10621.5478515625,17151.83203125,10797.1826171875,17236.07421875,7763.70361328125,11492.5703125,6133.71533203125,-0.0,6972.94873046875,14082.5908203125,8492.4697265625,11778.671875,20759.10546875,8343.060546875,-1728.53466796875,9235.541015625,7358.39208984375,27031.103515625,7543.56396484375,14139.0166015625,-4994.869140625,-8120.53662109375,9142.5576171875,5007.5849609375,9885.62890625,7125.53662109375,7092.95263671875,7410.04931640625,4316.17138671875,10677.9736328125,9786.2880859375,8972.4853515625,-12941.3603515625,-0.0,0.0,11305.80859375,7590.45263671875,-732.73974609375,0.0,14104.8427734375
-3237.724365234375,-8749.9619140625,7960.79638671875,11414.6875,16330.083984375,17162.1640625,14693.7373046875,14436.2451171875,14150.142578125,10722.4775390625,18688.837890625,0.0,13634.3642578125,0.0,13755.162109375,17688.2734375,28272.470703125,13893.4453125,9704.4306640625,7554.68994140625,5698.9990234375,16299.08984375,14455.318359375,11196.9306640625,0.0,3242.49267578125,7891.65478515625,6146.43115234375,733.5344848632812,-7579.32666015625,14565.78515625,4980.56396484375,10629.4951171875,17158.189453125,10798.771484375,17242.431640625,7765.29296875,11493.365234375,6136.09912109375,-0.0,6972.94873046875,14092.921875,8497.23828125,11783.4404296875,20759.10546875,8338.2919921875,-1694.361328125,9244.283203125,7361.57080078125,27046.998046875,7546.74267578125,14132.6591796875,-5007.5849609375,-8123.71533203125,9142.5576171875,5017.12158203125,9885.62890625,7138.25244140625,7088.1845703125,7400.5126953125,4308.2236328125,10685.9208984375,9785.4931640625,8975.6650390625,-12938.9765625,-0.0,0.0,11305.80859375,7580.12158203125,-740.6870727539062,0.0,14095.306640625
-3271.8974609375,-8815.9248046875,7944.9013671875,11383.6923828125,16314.9833984375,17139.1171875,14682.6103515625,14415.58203125,14139.0166015625,10709.7626953125,18682.48046875,0.0,13617.6748046875,0.0,13754.3681640625,17670.7890625,28250.216796875,13874.37109375,9690.125,7545.9482421875,5678.33544921875,16276.8359375,14440.21875,11176.2685546875,0.0,3209.90869140625,7879.73388671875,6115.4365234375,711.2821044921875,-7584.8896484375,14543.533203125,4956.72216796875,10609.626953125,17133.5546875,10782.8779296875,17220.974609375,7750.193359375,11474.2919921875,6106.69482421875,-0.0,6957.84912109375,14065.9013671875,8481.34375,11758.8046875,20747.185546875,8324.7822265625,-1686.4140625,9212.494140625,7344.88134765625,27023.951171875,7538.00048828125,14111.201171875,-5044.93701171875,-8170.6044921875,9115.537109375,4978.974609375,9879.271484375,7127.1259765625,7080.23681640625,7382.23388671875,4280.408203125,10670.025390625,9770.3935546875,8974.8701171875,-12962.818359375,-0.0,0.0,11289.9140625,7584.09521484375,-757.3763427734375,0.0,14081.0009765625
-3286.20263671875,-8832.6142578125,7937.7490234375,11369.3876953125,16311.0107421875,17128.78515625,14684.2001953125,14412.4033203125,14139.0166015625,10708.9677734375,18653.07421875,0.0,13610.5224609375,0.0,13759.9306640625,17666.81640625,28245.44921875,13868.0146484375,9685.357421875,7549.92138671875,5671.18310546875,16267.2998046875,14437.8349609375,11171.5,0.0,3190.04052734375,7879.73388671875,6108.2841796875,700.9506225585938,-7619.06298828125,14537.1748046875,4955.1328125,10600.884765625,17126.40234375,10778.109375,17213.025390625,7747.80908203125,11470.3173828125,6088.41552734375,-0.0,6952.28564453125,14054.775390625,8478.958984375,11750.857421875,20748.7734375,8323.1923828125,-1734.8924560546875,9198.1884765625,7340.908203125,27005.671875,7542.76904296875,14110.40625,-5041.75830078125,-8184.115234375,9102.8212890625,4966.2587890625,9882.4501953125,7108.052734375,7088.97900390625,7375.08154296875,4270.07666015625,10666.052734375,9768.8037109375,8984.40625,-12965.2021484375,-0.0,0.0,11273.224609375,7582.505859375,-767.7078247070312,0.0,14084.9755859375
-3277.460693359375,-8835.79296875,7941.72265625,11379.71875,16314.1884765625,17128.78515625,14686.583984375,14412.4033203125,14134.248046875,10703.404296875,18651.486328125,0.0,13608.9326171875,0.0,13755.9580078125,17673.173828125,28251.013671875,13871.9873046875,9688.537109375,7544.35888671875,5675.1572265625,16272.068359375,14441.013671875,11173.884765625,0.0,3190.04052734375,7883.7080078125,6106.69482421875,697.771728515625,-7628.599609375,14541.1494140625,4959.1064453125,10605.65234375,17130.375,10781.2880859375,17216.205078125,7750.98779296875,11473.49609375,6082.85302734375,-0.0,6953.875,14057.9541015625,8483.7275390625,11752.4462890625,20749.568359375,8320.80859375,-1730.1241455078125,9210.109375,7345.67626953125,27000.904296875,7545.9482421875,14115.173828125,-5035.400390625,-8200.009765625,9104.4111328125,4967.84814453125,9879.271484375,7104.07861328125,7092.95263671875,7371.90234375,4277.2294921875,10669.2314453125,9768.8037109375,8967.716796875,-12967.5869140625,-0.0,0.0,11262.099609375,7572.96875,-777.2445678710938,0.0,14076.232421875
-3275.871337890625,-8804.00390625,7940.92822265625,11395.61328125,16320.546875,17135.939453125,14690.55859375,14417.9658203125,14138.2216796875,10704.994140625,18661.021484375,0.0,13612.111328125,0.0,13753.5732421875,17675.55859375,28255.78125,13878.345703125,9694.8935546875,7543.56396484375,5679.13037109375,16280.015625,14445.78125,11180.2412109375,0.0,3205.140380859375,7884.50244140625,6115.4365234375,696.9769897460938,-7631.77880859375,14549.8916015625,4957.51708984375,10609.626953125,17137.52734375,10786.8505859375,17221.76953125,7754.1669921875,11479.060546875,6109.87353515625,-0.0,6958.6435546875,14068.2861328125,8487.701171875,11760.39453125,20751.953125,8323.9873046875,-1721.382080078125,9225.208984375,7349.64990234375,27009.64453125,7545.9482421875,14119.9423828125,-5020.30029296875,-8192.8564453125,9114.7421875,4977.38525390625,9872.119140625,7111.2314453125,7088.1845703125,7376.6708984375,4286.76611328125,10671.615234375,9772.77734375,8960.564453125,-12968.380859375,-0.0,0.0,11262.8935546875,7582.505859375,-768.5025634765625,0.0,14081.7958984375
-3290.17626953125,-8789.6982421875,7937.7490234375,11394.0234375,16314.1884765625,17139.912109375,14684.9951171875,14419.5556640625,14139.0166015625,10702.6103515625,18661.818359375,0.0,13618.46875,0.0,13755.162109375,17670.7890625,28252.6015625,13873.5771484375,9690.9208984375,7541.974609375,5677.541015625,16280.015625,14441.8076171875,11179.447265625,0.0,3218.65087890625,7879.73388671875,6121.79443359375,696.1822509765625,-7635.75244140625,14546.7119140625,4955.1328125,10607.2421875,17139.1171875,10782.0830078125,17220.974609375,7750.98779296875,11478.2646484375,6116.2314453125,-0.0,6953.875,14071.46484375,8482.138671875,11761.9833984375,20750.365234375,8321.6025390625,-1706.2822265625,9222.0302734375,7340.908203125,27022.361328125,7543.56396484375,14118.353515625,-5021.89013671875,-8174.57861328125,9114.7421875,4984.53759765625,9880.06640625,7115.205078125,7076.263671875,7379.05517578125,4295.5078125,10662.873046875,9770.3935546875,8965.3330078125,-12976.3291015625,-0.0,0.0,11273.224609375,7593.6318359375,-761.3499755859375,0.0,14087.359375
-3286.99755859375,-8759.4990234375,7941.72265625,11396.408203125,16318.1630859375,17148.65234375,14685.7900390625,14430.6826171875,14147.7587890625,10724.8623046875,18672.943359375,0.0,13618.46875,0.0,13760.7255859375,17681.12109375,28254.19140625,13875.1669921875,9695.689453125,7555.48486328125,5679.92529296875,16283.193359375,14443.3974609375,11182.6259765625,0.0,3232.9560546875,7884.50244140625,6128.94677734375,704.1295166015625,-7618.2685546875,14546.7119140625,4960.69580078125,10607.2421875,17140.70703125,10782.8779296875,17224.154296875,7754.1669921875,11483.828125,6112.25732421875,-0.0,6956.25927734375,14078.6171875,8483.7275390625,11769.1357421875,20753.541015625,8335.11328125,-1702.30859375,9224.4150390625,7346.47119140625,27031.8984375,7545.1533203125,14129.4794921875,-5026.65869140625,-8184.115234375,9121.1005859375,4992.48486328125,9887.21875,7133.48388671875,7069.90576171875,7406.076171875,4297.89208984375,10662.873046875,9779.9296875,8982.8173828125,-12969.1767578125,-0.0,0.0,11300.24609375,7594.4267578125,-733.5344848632812,0.0,14113.5859375
-3278.25537109375,-8740.4248046875,7948.87548828125,11397.998046875,16322.1357421875,17146.26953125,14688.173828125,14432.271484375,14146.1689453125,10733.6044921875,18676.916015625,0.0,13625.6220703125,0.0,13763.1103515625,17686.685546875,28258.958984375,13878.345703125,9698.0732421875,7558.6640625,5683.89892578125,16283.193359375,14447.37109375,11181.8310546875,0.0,3213.087890625,7888.4765625,6128.15234375,721.6135864257812,-7592.04248046875,14550.685546875,4968.64306640625,10614.3955078125,17144.6796875,10786.8505859375,17224.947265625,7756.55126953125,11485.4169921875,6109.87353515625,-0.0,6962.6171875,14073.0546875,8487.701171875,11768.3408203125,20754.337890625,8339.087890625,-1698.3350830078125,9225.208984375,7352.0341796875,27024.74609375,7545.1533203125,14132.6591796875,-5015.5322265625,-8188.08837890625,9129.0478515625,5001.22705078125,9891.1923828125,7134.27880859375,7077.05810546875,7415.61279296875,4300.2763671875,10666.84765625,9782.314453125,8988.380859375,-12948.5126953125,-0.0,0.0,11313.755859375,7575.35302734375,-714.4609985351562,0.0,14129.4794921875
-3300.5078125,-8765.8564453125,7936.16015625,11382.1025390625,16308.6259765625,17127.990234375,14679.431640625,14413.197265625,14139.8115234375,10721.68359375,18664.99609375,0.0,13615.291015625,0.0,13743.2412109375,17655.69140625,28246.244140625,13865.6298828125,9685.357421875,7551.51123046875,5671.18310546875,16265.7109375,14434.6552734375,11166.7314453125,0.0,3197.193115234375,7874.17138671875,6104.310546875,715.2557373046875,-7613.5,14535.5859375,4951.9541015625,10601.6796875,17127.1953125,10774.1357421875,17208.2578125,7747.0146484375,11470.3173828125,6095.568359375,-0.0,6948.3125,14055.5693359375,8474.986328125,11749.267578125,20745.595703125,8324.7822265625,-1717.4085693359375,9210.904296875,7340.908203125,27002.4921875,7531.64306640625,14108.8173828125,-5026.65869140625,-8189.67822265625,9119.5107421875,4982.1533203125,9878.4765625,7096.1318359375,7087.3896484375,7393.3603515625,4278.81884765625,10650.158203125,9770.3935546875,8993.943359375,-12945.333984375,-0.0,0.0,11287.5302734375,7588.068359375,-730.3555908203125,0.0,14120.73828125
-3296.5341796875,-8788.1083984375,7927.41796875,11376.5400390625,16301.4736328125,17123.22265625,14673.07421875,14402.8662109375,14139.8115234375,10708.1728515625,18653.07421875,0.0,13608.9326171875,0.0,13736.8837890625,17642.974609375,28234.32421875,13856.09375,9677.41015625,7546.74267578125,5662.44140625,16258.55859375,14425.9140625,11159.5791015625,0.0,3197.193115234375,7867.0185546875,6093.97900390625,704.1295166015625,-7634.9580078125,14526.84375,4940.033203125,10590.5537109375,17117.658203125,10765.3935546875,17201.10546875,7739.86181640625,11462.37109375,6094.77392578125,-0.0,6937.98046875,14050.8017578125,8467.833984375,11742.115234375,20741.62109375,8317.6298828125,-1732.50830078125,9205.341796875,7331.37109375,26998.51953125,7526.87451171875,14099.2802734375,-5030.6318359375,-8192.0625,9109.1796875,4978.1796875,9868.939453125,7081.03173828125,7084.2109375,7381.439453125,4271.666015625,10640.62109375,9764.03515625,8986.791015625,-12952.4873046875,-0.0,0.0,11262.8935546875,7612.705078125,-760.5552978515625,0.0,14092.921875
-3298.12353515625,-8829.4345703125,7919.470703125,11359.0556640625,16299.08984375,17115.275390625,14676.2529296875,14401.2763671875,14151.732421875,10709.7626953125,18648.306640625,0.0,13613.701171875,0.0,13748.009765625,17643.76953125,28226.375,13852.119140625,9676.615234375,7553.1005859375,5655.28857421875,16252.19921875,14425.9140625,11154.810546875,0.0,3181.298583984375,7872.58154296875,6088.41552734375,704.1295166015625,-7639.72607421875,14521.28125,4924.93310546875,10580.2216796875,17108.12109375,10762.21484375,17195.54296875,7739.86181640625,11461.5751953125,6086.826171875,-0.0,6934.8017578125,14038.8798828125,8470.2177734375,11737.3466796875,20747.185546875,8316.0400390625,-1742.0450439453125,9187.0625,7332.166015625,26988.1875,7534.02734375,14097.6904296875,-5041.75830078125,-8211.9306640625,9104.4111328125,4959.9013671875,9874.5029296875,7077.8525390625,7088.1845703125,7378.26025390625,4265.30859375,10635.8525390625,9766.4189453125,8991.55859375,-12953.28125,-0.0,0.0,11249.3828125,7630.189453125,-770.092041015625,0.0,14087.359375
-3297.328857421875,-8804.00390625,7931.3916015625,11370.181640625,16311.0107421875,17126.40234375,14687.37890625,14412.4033203125,14164.4482421875,10720.888671875,18657.841796875,0.0,13624.8271484375,0.0,13757.546875,17657.279296875,28235.912109375,13863.24609375,9690.125,7559.45849609375,5667.20947265625,16262.53125,14437.0390625,11167.5263671875,0.0,3191.630126953125,7882.1181640625,6100.33642578125,708.8978881835938,-7631.77880859375,14532.4072265625,4932.88037109375,10591.34765625,17118.453125,10773.3408203125,17206.66796875,7752.5771484375,11471.9072265625,6091.5947265625,-0.0,6945.13330078125,14050.0068359375,8482.138671875,11749.267578125,20758.310546875,8326.37109375,-1733.3031005859375,9198.1884765625,7343.2919921875,26995.33984375,7546.74267578125,14109.611328125,-5039.3740234375,-8206.3671875,9113.9482421875,4963.875,9886.423828125,7089.7734375,7099.310546875,7383.8232421875,4281.20263671875,10644.5947265625,9778.3408203125,8989.1748046875,-12943.7451171875,-0.0,0.0,11259.71484375,7627.01025390625,-754.1974487304688,0.0,14101.6640625
-3279.050048828125,-8767.4453125,7938.54443359375,11378.12890625,16318.9560546875,17138.322265625,14694.53125,14424.32421875,14176.369140625,10727.24609375,18663.40625,0.0,13628.80078125,0.0,13763.1103515625,17671.5859375,28244.654296875,13871.193359375,9698.8681640625,7567.40576171875,5676.74658203125,16274.4521484375,14446.576171875,11178.65234375,0.0,3206.72998046875,7886.88671875,6113.05224609375,716.0504760742188,-7620.65283203125,14541.943359375,4943.2119140625,10600.884765625,17128.78515625,10782.0830078125,17217.794921875,7762.1142578125,11482.23828125,6097.9521484375,-0.0,6952.28564453125,14061.927734375,8488.49609375,11761.1884765625,20767.84765625,8334.3193359375,-1727.739990234375,9207.7255859375,7348.85546875,27009.64453125,7552.3056640625,14123.1220703125,-5029.04248046875,-8204.77734375,9121.89453125,4981.35888671875,9888.80859375,7104.87353515625,7105.66845703125,7392.5654296875,4288.35546875,10654.1318359375,9786.2880859375,8989.9697265625,-12942.9501953125,-0.0,0.0,11267.662109375,7623.03662109375,-751.0185546875,0.0,14104.8427734375
-3276.666015625,-8775.3935546875,7936.95458984375,11378.12890625,16316.572265625,17139.912109375,14692.9423828125,14427.5029296875,14178.7529296875,10735.1943359375,18665.791015625,0.0,13624.8271484375,0.0,13762.314453125,17681.12109375,28243.859375,13872.7822265625,9700.4580078125,7573.76318359375,5673.5673828125,16275.248046875,14446.576171875,11180.2412109375,0.0,3208.3193359375,7885.296875,6119.41015625,712.0768432617188,-7621.447265625,14540.3544921875,4941.6220703125,10600.08984375,17127.1953125,10779.6982421875,17217.0,7761.31982421875,11485.4169921875,6097.9521484375,-0.0,6952.28564453125,14061.1337890625,8486.9072265625,11762.7783203125,20767.84765625,8341.4716796875,-1726.1505126953125,9206.9306640625,7347.265625,27012.82421875,7552.3056640625,14130.2744140625,-5020.30029296875,-8208.751953125,9119.5107421875,4982.9482421875,9884.0400390625,7111.2314453125,7109.64208984375,7401.3076171875,4292.3291015625,10652.5419921875,9788.6728515625,8997.9169921875,-12948.5126953125,-0.0,0.0,11274.0205078125,7627.01025390625,-742.2764892578125,0.0,14106.4326171875
-3282.229248046875,-8766.6513671875,7936.16015625,11386.87109375,16314.9833984375,17141.5,14687.37890625,14428.2978515625,14157.294921875,10733.6044921875,18666.5859375,0.0,13620.05859375,0.0,13751.9833984375,17688.2734375,28246.244140625,13870.3984375,9696.4833984375,7559.45849609375,5673.5673828125,16276.041015625,14441.8076171875,11180.2412109375,0.0,3213.087890625,7879.73388671875,6128.15234375,710.4873657226562,-7606.34765625,14539.5595703125,4946.390625,10598.5,17129.580078125,10778.109375,17219.384765625,7756.55126953125,11483.033203125,6099.5419921875,-0.0,6952.28564453125,14065.9013671875,8482.138671875,11765.95703125,20757.517578125,8339.8818359375,-1730.1241455078125,9214.8779296875,7342.49755859375,27019.978515625,7543.56396484375,14134.248046875,-5023.4794921875,-8186.49951171875,9117.9208984375,4991.68994140625,9873.7080078125,7122.35791015625,7093.74755859375,7406.076171875,4293.12353515625,10652.5419921875,9780.724609375,8983.6123046875,-12950.1025390625,-0.0,0.0,11289.1201171875,7603.16845703125,-733.5344848632812,0.0,14113.5859375
-3287.792236328125,-8776.1875,7925.828125,11372.56640625,16303.0625,17128.78515625,14674.6630859375,14410.8134765625,14131.0693359375,10707.3779296875,18654.6640625,0.0,13610.5224609375,0.0,13740.0625,17666.021484375,28231.939453125,13858.4775390625,9681.3837890625,7533.232421875,5664.03076171875,16262.53125,14427.5029296875,11165.9365234375,0.0,3201.166748046875,7869.40283203125,6110.66796875,704.1295166015625,-7609.5263671875,14528.43359375,4935.2646484375,10588.1689453125,17116.865234375,10768.5732421875,17205.873046875,7742.24609375,11466.34375,6085.23681640625,-0.0,6941.9541015625,14053.98046875,8469.421875,11751.6513671875,20741.62109375,8318.423828125,-1742.0450439453125,9201.3671875,7328.9873046875,27009.64453125,7528.4638671875,14111.201171875,-5031.4267578125,-8203.9833984375,9108.3837890625,4973.41162109375,9864.1708984375,7108.052734375,7073.87939453125,7389.38671875,4272.4609375,10642.2109375,9761.6513671875,8960.564453125,-12950.8974609375,-0.0,0.0,11286.7353515625,7590.45263671875,-750.2238159179688,0.0,14100.0751953125
-3296.5341796875,-8789.6982421875,7921.0595703125,11366.2080078125,16299.8828125,17120.837890625,14672.279296875,14405.2509765625,14135.04296875,10694.6630859375,18650.689453125,0.0,13606.5478515625,0.0,13742.447265625,17654.896484375,28225.580078125,13853.708984375,9677.41015625,7531.64306640625,5658.4677734375,16256.173828125,14422.734375,11160.3740234375,0.0,3191.630126953125,7867.0185546875,6102.720703125,700.9506225585938,-7604.7578125,14522.0751953125,4928.11181640625,10581.0166015625,17110.505859375,10763.0087890625,17199.515625,7737.4775390625,11460.78125,6078.08447265625,-0.0,6937.98046875,14046.033203125,8466.244140625,11742.115234375,20739.236328125,8311.271484375,-1745.2239990234375,9196.5986328125,7325.80810546875,26997.724609375,7528.4638671875,14103.2529296875,-5036.1953125,-8210.341796875,9103.6162109375,4970.232421875,9863.376953125,7103.2841796875,7079.4423828125,7380.64453125,4265.30859375,10637.4423828125,9756.8828125,8962.154296875,-12949.3076171875,-0.0,0.0,11280.376953125,7611.91015625,-767.7078247070312,0.0,14077.02734375
-3302.097412109375,-8791.287109375,7925.03369140625,11374.15625,16302.2666015625,17124.810546875,14673.07421875,14410.8134765625,14138.2216796875,10693.8681640625,18649.1015625,0.0,13605.75390625,0.0,13741.65234375,17662.84375,28228.759765625,13856.09375,9679.7939453125,7536.4111328125,5661.646484375,16260.1474609375,14425.9140625,11164.34765625,0.0,3195.603515625,7867.81298828125,6111.462890625,706.5137329101562,-7597.60546875,14523.6650390625,4930.49609375,10584.990234375,17116.865234375,10765.3935546875,17202.6953125,7739.06689453125,11464.7548828125,6082.85302734375,-0.0,6941.15966796875,14050.8017578125,8470.2177734375,11748.4736328125,20741.62109375,8317.6298828125,-1741.2503662109375,9202.95703125,7329.7822265625,27001.69921875,7530.0537109375,14114.3798828125,-5035.400390625,-8207.162109375,9094.8740234375,4982.9482421875,9863.376953125,7112.8212890625,7077.8525390625,7393.3603515625,4268.4873046875,10640.62109375,9762.4462890625,8972.4853515625,-12949.3076171875,-0.0,0.0,11278.7880859375,7603.96337890625,-762.1447143554688,0.0,14081.7958984375
-3277.460693359375,-8773.8037109375,7944.10693359375,11399.5869140625,16314.9833984375,17147.859375,14679.431640625,14433.06640625,14135.04296875,10704.994140625,18666.5859375,0.0,13618.46875,0.0,13737.6787109375,17697.015625,28248.62890625,13873.5771484375,9690.9208984375,7541.1796875,5678.33544921875,16281.6044921875,14438.62890625,11181.8310546875,0.0,3225.803466796875,7874.17138671875,6137.68896484375,720.0241088867188,-7596.81103515625,14543.533203125,4950.36474609375,10603.2685546875,17136.732421875,10780.494140625,17223.357421875,7747.80908203125,11481.4443359375,6101.92626953125,-0.0,6959.4384765625,14076.232421875,8479.7548828125,11773.109375,20746.388671875,8337.498046875,-1722.1768798828125,9229.18359375,7341.703125,27028.71875,7532.43798828125,14142.990234375,-5011.55859375,-8201.599609375,9101.2314453125,5000.4326171875,9867.3505859375,7135.8681640625,7068.31591796875,7427.53369140625,4292.3291015625,10658.1044921875,9771.9833984375,8979.6376953125,-12936.591796875,-0.0,0.0,11291.50390625,7557.07421875,-748.6343383789062,0.0,14100.869140625
-3245.671630859375,-8771.419921875,7957.61767578125,11405.150390625,16324.5205078125,17155.8046875,14691.3525390625,14442.603515625,14152.52734375,10730.42578125,18682.48046875,0.0,13630.390625,0.0,13752.7783203125,17712.1171875,28254.986328125,13880.7294921875,9701.251953125,7557.869140625,5684.69384765625,16286.373046875,14446.576171875,11188.189453125,0.0,3233.75048828125,7885.296875,6144.841796875,729.5608520507812,-7593.6318359375,14550.685546875,4960.69580078125,10612.8056640625,17139.1171875,10786.8505859375,17228.921875,7756.55126953125,11490.9814453125,6103.515625,-0.0,6968.97509765625,14081.7958984375,8487.701171875,11779.4677734375,20757.517578125,8347.8291015625,-1713.434814453125,9234.74609375,7351.23974609375,27035.87109375,7542.76904296875,14154.9111328125,-5011.55859375,-8199.21484375,9122.689453125,5005.20068359375,9881.6552734375,7139.841796875,7083.416015625,7426.73876953125,4306.63427734375,10666.84765625,9783.1083984375,8999.5068359375,-12930.234375,-0.0,0.0,11301.041015625,7582.505859375,-739.0975952148438,0.0,14119.1484375
-3257.592529296875,-8768.2412109375,7957.61767578125,11404.35546875,16331.6728515625,17153.421875,14700.8896484375,14443.3974609375,14164.4482421875,10742.3466796875,18678.5078125,0.0,13647.8740234375,0.0,13771.8515625,17707.34765625,28259.75390625,13887.087890625,9706.814453125,7568.9951171875,5687.87255859375,16287.1689453125,14454.5244140625,11192.162109375,0.0,3227.392822265625,7898.8076171875,6144.841796875,728.76611328125,-7590.45263671875,14553.0703125,4964.669921875,10614.3955078125,17143.884765625,10793.208984375,17230.509765625,7765.29296875,11493.365234375,6105.10498046875,-0.0,6971.359375,14079.4111328125,8498.828125,11777.8779296875,20768.642578125,8349.4189453125,-1718.2032470703125,9233.951171875,7365.544921875,27037.462890625,7557.869140625,14153.3212890625,-5017.916015625,-8177.75732421875,9138.583984375,5012.353515625,9906.2919921875,7144.60986328125,7097.72119140625,7405.28125,4312.197265625,10675.58984375,9790.26171875,9001.8916015625,-12927.849609375,-0.0,0.0,11307.3984375,7611.11572265625,-728.76611328125,0.0,14132.6591796875
-3283.818603515625,-8772.2138671875,7948.87548828125,11397.998046875,16327.69921875,17147.859375,14699.2998046875,14430.6826171875,14157.294921875,10732.8095703125,18672.943359375,0.0,13648.6689453125,0.0,13779.00390625,17685.095703125,28254.986328125,13883.1142578125,9703.6357421875,7559.45849609375,5685.48828125,16283.193359375,14452.9345703125,11185.8056640625,0.0,3217.856201171875,7900.3974609375,6131.3310546875,732.73974609375,-7592.04248046875,14549.095703125,4953.54296875,10608.037109375,17140.70703125,10789.2353515625,17224.947265625,7762.9091796875,11486.212890625,6106.69482421875,-0.0,6964.20654296875,14073.8486328125,8496.443359375,11769.1357421875,20763.078125,8339.087890625,-1722.1768798828125,9226.0048828125,7363.16064453125,27027.92578125,7559.45849609375,14135.04296875,-5017.916015625,-8182.525390625,9144.146484375,5002.81689453125,9913.4443359375,7134.27880859375,7093.74755859375,7388.591796875,4290.73974609375,10673.205078125,9783.904296875,8986.791015625,-12929.439453125,-0.0,0.0,11309.783203125,7609.5263671875,-726.3819580078125,0.0,14127.095703125
-3283.818603515625,-8780.9560546875,7940.13330078125,11384.4873046875,16314.9833984375,17133.5546875,14683.40625,14413.9931640625,14132.6591796875,10715.3251953125,18670.55859375,0.0,13627.2119140625,0.0,13759.1357421875,17667.611328125,28246.244140625,13871.193359375,9687.7412109375,7538.00048828125,5675.95166015625,16272.86328125,14437.8349609375,11171.5,0.0,3202.756103515625,7880.5283203125,6116.2314453125,735.918701171875,-7596.01611328125,14537.970703125,4933.67529296875,10600.08984375,17127.990234375,10776.51953125,17213.822265625,7747.80908203125,11471.9072265625,6101.92626953125,-0.0,6954.669921875,14061.1337890625,8482.9326171875,11756.419921875,20742.416015625,8322.3984375,-1722.9715576171875,9212.494140625,7349.64990234375,27015.208984375,7539.59033203125,14114.3798828125,-5020.30029296875,-8203.1884765625,9135.4052734375,4994.07421875,9889.6025390625,7121.56298828125,7072.2900390625,7375.8759765625,4277.2294921875,10658.900390625,9765.625,8965.3330078125,-12933.4130859375,-0.0,0.0,11298.65625,7572.173828125,-739.892333984375,0.0,14103.2529296875
-3297.328857421875,-8796.8515625,7922.6494140625,11374.15625,16295.1142578125,17114.48046875,14658.7685546875,14391.740234375,14104.8427734375,10689.099609375,18651.486328125,0.0,13598.6015625,0.0,13727.34765625,17641.38671875,28232.732421875,13855.2978515625,9665.4892578125,7513.3642578125,5659.26220703125,16256.9677734375,14415.58203125,11153.220703125,0.0,3191.630126953125,7854.30224609375,6095.568359375,707.3084716796875,-7605.552734375,14520.486328125,4914.6015625,10584.1953125,17113.685546875,10759.0361328125,17198.720703125,7724.76171875,11451.244140625,6084.4423828125,-0.0,6937.185546875,14048.4169921875,8459.0908203125,11738.140625,20719.369140625,8299.3505859375,-1738.0714111328125,9202.95703125,7324.21875,26997.724609375,7512.5693359375,14089.7431640625,-5044.93701171875,-8228.619140625,9108.3837890625,4981.35888671875,9850.6611328125,7101.69482421875,7044.47412109375,7362.36572265625,4270.87158203125,10641.416015625,9741.783203125,8938.3125,-12951.69140625,-0.0,0.0,11268.4560546875,7535.6162109375,-773.2709350585938,0.0,14066.6962890625
-3296.5341796875,-8819.8974609375,7932.98046875,11382.8974609375,16303.0625,17124.810546875,14665.126953125,14399.6875,14115.9697265625,10692.279296875,18657.841796875,0.0,13601.7802734375,0.0,13733.7041015625,17652.51171875,28238.296875,13864.8349609375,9672.6416015625,7522.10595703125,5667.20947265625,16264.9150390625,14423.529296875,11162.7578125,0.0,3201.96142578125,7862.25048828125,6105.89990234375,697.771728515625,-7597.60546875,14531.6123046875,4920.16455078125,10591.34765625,17123.22265625,10768.5732421875,17206.66796875,7731.11962890625,11457.6025390625,6089.21044921875,-0.0,6945.13330078125,14057.9541015625,8465.44921875,11746.8837890625,20728.90625,8307.2978515625,-1726.9453125,9212.494140625,7330.57666015625,27007.26171875,7519.72216796875,14099.2802734375,-5043.34765625,-8234.18359375,9113.9482421875,4986.921875,9852.25,7115.205078125,7054.0107421875,7369.51806640625,4276.4345703125,10651.748046875,9749.73046875,8942.2861328125,-12953.28125,-0.0,0.0,11267.662109375,7554.68994140625,-763.7341918945312,0.0,14074.6435546875
-3308.455322265625,-8827.845703125,7937.7490234375,11383.6923828125,16308.6259765625,17129.580078125,14671.4853515625,14404.4560546875,14123.9169921875,10685.9208984375,18656.25390625,0.0,13610.5224609375,0.0,13742.447265625,17657.279296875,28243.064453125,13869.603515625,9678.2041015625,7524.490234375,5671.97802734375,16270.4794921875,14429.0927734375,11166.7314453125,0.0,3205.935302734375,7869.40283203125,6109.0791015625,696.9769897460938,-7619.85791015625,14535.5859375,4922.548828125,10596.1162109375,17126.40234375,10773.3408203125,17211.4375,7735.88818359375,11460.78125,6093.97900390625,-0.0,6951.49072265625,14059.5439453125,8471.806640625,11748.4736328125,20735.263671875,8307.2978515625,-1725.355712890625,9213.2880859375,7340.11328125,27009.64453125,7528.4638671875,14104.048828125,-5048.1162109375,-8213.5205078125,9116.33203125,4988.51171875,9857.0185546875,7114.41015625,7065.13720703125,7361.57080078125,4271.666015625,10661.2841796875,9753.7041015625,8947.849609375,-12966.7919921875,-0.0,0.0,11270.0458984375,7577.7373046875,-763.7341918945312,0.0,14071.46484375
-3320.376220703125,-8790.4931640625,7931.3916015625,11378.9248046875,16302.2666015625,17124.810546875,14670.689453125,14402.072265625,14127.095703125,10691.4833984375,18634.796875,0.0,13612.111328125,0.0,13748.8046875,17649.33203125,28235.912109375,13865.6298828125,9675.0263671875,7527.66943359375,5665.6201171875,16266.50390625,14426.7080078125,11161.9638671875,0.0,3195.603515625,7868.607421875,6103.515625,708.8978881835938,-7634.1630859375,14530.0224609375,4914.6015625,10588.9638671875,17120.837890625,10768.5732421875,17205.873046875,7736.68310546875,11459.19140625,6078.87890625,-0.0,6944.33837890625,14053.98046875,8470.2177734375,11743.705078125,20736.05859375,8307.2978515625,-1738.0714111328125,9206.1357421875,7332.166015625,27003.2890625,7529.2587890625,14097.6904296875,-5041.75830078125,-8215.109375,9105.205078125,4977.38525390625,9861.787109375,7108.84716796875,7068.31591796875,7363.16064453125,4254.9765625,10658.1044921875,9752.9091796875,8952.6171875,-12965.2021484375,-0.0,0.0,11273.224609375,7581.7109375,-766.9130859375,0.0,14069.875
-3310.83935546875,-8795.26171875,7934.5703125,11383.6923828125,16305.4462890625,17129.580078125,14673.869140625,14407.634765625,14132.6591796875,10706.583984375,18624.46484375,0.0,13614.4951171875,0.0,13751.189453125,17658.869140625,28239.091796875,13867.21875,9679.0,7538.79541015625,5668.00439453125,16270.4794921875,14430.6826171875,11167.5263671875,0.0,3203.551025390625,7873.3759765625,6109.87353515625,711.2821044921875,-7621.447265625,14531.6123046875,4915.39599609375,10589.7587890625,17124.017578125,10771.7509765625,17209.84765625,7742.24609375,11465.5498046875,6055.83203125,-0.0,6945.92822265625,14060.337890625,8474.986328125,11750.0615234375,20741.62109375,8317.6298828125,-1734.8924560546875,9213.2880859375,7334.55029296875,27011.236328125,7535.6162109375,14105.6376953125,-5040.9638671875,-8207.162109375,9106.0,4982.9482421875,9869.734375,7115.99951171875,7071.4951171875,7378.26025390625,4262.92431640625,10662.0791015625,9762.4462890625,8965.3330078125,-12973.9443359375,-0.0,0.0,11285.94140625,7573.76318359375,-750.2238159179688,0.0,14097.6904296875
-3310.04443359375,-8818.30859375,7936.95458984375,11376.5400390625,16305.4462890625,17121.6328125,14671.4853515625,14402.8662109375,14135.837890625,10718.5048828125,18634.796875,0.0,13608.1376953125,0.0,13737.6787109375,17645.359375,28238.296875,13864.8349609375,9679.7939453125,7547.537109375,5668.00439453125,16265.7109375,14430.6826171875,11165.1416015625,0.0,3194.014404296875,7870.99169921875,6094.77392578125,707.3084716796875,-7632.57373046875,14532.4072265625,4914.6015625,10590.5537109375,17120.837890625,10770.95703125,17205.873046875,7740.65625,11463.9599609375,6078.87890625,-0.0,6949.10693359375,14055.5693359375,8473.396484375,11742.9091796875,20742.416015625,8320.80859375,-1726.1505126953125,9208.51953125,7339.31884765625,26995.33984375,7530.84814453125,14097.6904296875,-5068.77880859375,-8210.341796875,9106.794921875,4960.69580078125,9868.14453125,7093.74755859375,7073.08447265625,7390.18115234375,4268.4873046875,10663.6689453125,9765.625,8982.0224609375,-12969.970703125,-0.0,0.0,11285.1455078125,7572.96875,-737.5081176757812,0.0,14125.5068359375
-3317.991943359375,-8812.7451171875,7932.98046875,11362.2353515625,16302.2666015625,17114.48046875,14670.689453125,14401.2763671875,14138.2216796875,10720.888671875,18644.33203125,0.0,13606.5478515625,0.0,13737.6787109375,17643.76953125,28232.732421875,13861.65625,9678.2041015625,7551.51123046875,5665.6201171875,16259.3515625,14427.5029296875,11159.5791015625,0.0,3183.6826171875,7870.197265625,6090.00537109375,692.2086181640625,-7654.03125,14528.43359375,4910.6279296875,10588.1689453125,17112.890625,10769.3671875,17201.10546875,7739.06689453125,11460.78125,6087.62109375,-0.0,6947.517578125,14043.6484375,8471.806640625,11736.5517578125,20742.416015625,8320.013671875,-1735.687255859375,9191.8310546875,7341.703125,26985.802734375,7530.84814453125,14096.896484375,-5076.7265625,-8215.904296875,9112.3583984375,4950.36474609375,9870.529296875,7073.08447265625,7075.46875,7387.796875,4260.5400390625,10661.2841796875,9765.625,8993.1484375,-12969.1767578125,-0.0,0.0,11281.966796875,7588.068359375,-731.945068359375,0.0,14131.86328125
-3313.2236328125,-8800.029296875,7925.828125,11357.466796875,16301.4736328125,17114.48046875,14671.4853515625,14406.83984375,14142.1953125,10713.736328125,18661.818359375,0.0,13607.3427734375,0.0,13742.447265625,17657.279296875,28231.939453125,13861.65625,9678.2041015625,7554.68994140625,5664.03076171875,16257.7626953125,14426.7080078125,11159.5791015625,0.0,3179.709228515625,7870.99169921875,6096.36328125,698.56640625,-7661.18359375,14526.0498046875,4911.4228515625,10582.6064453125,17110.505859375,10767.77734375,17199.515625,7738.27197265625,11464.7548828125,6092.3896484375,-0.0,6943.5439453125,14039.67578125,8470.2177734375,11741.3203125,20744.80078125,8320.80859375,-1743.634521484375,9187.0625,7338.52392578125,26984.21484375,7534.02734375,14106.4326171875,-5053.67919921875,-8219.8779296875,9117.9208984375,4947.185546875,9868.14453125,7075.46875,7081.82666015625,7388.591796875,4262.12939453125,10662.0791015625,9767.21484375,8997.9169921875,-12958.0498046875,-0.0,0.0,11279.5830078125,7609.5263671875,-737.5081176757812,0.0,14123.9169921875
-3302.097412109375,-8796.0556640625,7932.18603515625,11370.9765625,16304.6513671875,17123.22265625,14671.4853515625,14412.4033203125,14139.0166015625,10704.2001953125,18676.916015625,0.0,13615.291015625,0.0,13744.037109375,17667.611328125,28241.4765625,13867.21875,9679.7939453125,7548.33203125,5670.388671875,16267.2998046875,14427.5029296875,11165.1416015625,0.0,3186.86181640625,7871.787109375,6101.92626953125,708.1031494140625,-7637.341796875,14533.99609375,4921.75439453125,10592.142578125,17120.837890625,10771.7509765625,17207.46484375,7740.65625,11468.728515625,6093.97900390625,-0.0,6948.3125,14050.0068359375,8472.6015625,11748.4736328125,20744.005859375,8322.3984375,-1729.3294677734375,9200.5732421875,7339.31884765625,26992.162109375,7531.64306640625,14112.7900390625,-5025.86376953125,-8222.2626953125,9122.689453125,4955.92724609375,9864.966796875,7088.1845703125,7079.4423828125,7393.3603515625,4259.7451171875,10667.6416015625,9765.625,8980.43359375,-12938.9765625,-0.0,0.0,11275.609375,7604.7578125,-752.6079711914062,0.0,14102.458984375
-3297.328857421875,-8812.7451171875,7930.59619140625,11378.12890625,16302.2666015625,17123.22265625,14668.3056640625,14405.2509765625,14132.6591796875,10697.841796875,18657.841796875,0.0,13614.4951171875,0.0,13746.4208984375,17655.69140625,28238.296875,13865.6298828125,9674.2314453125,7538.79541015625,5668.798828125,16266.50390625,14425.9140625,11162.7578125,0.0,3196.3984375,7870.99169921875,6102.720703125,701.745361328125,-7630.98388671875,14531.6123046875,4918.5751953125,10592.142578125,17119.25,10769.3671875,17205.080078125,7735.09375,11461.5751953125,6098.7470703125,-0.0,6945.92822265625,14054.775390625,8470.2177734375,11746.0888671875,20739.236328125,8312.06640625,-1730.9189453125,9207.7255859375,7336.9345703125,26995.33984375,7529.2587890625,14104.8427734375,-5041.75830078125,-8215.904296875,9106.0,4969.43798828125,9864.1708984375,7091.36328125,7073.08447265625,7375.08154296875,4273.255859375,10666.052734375,9759.2666015625,8968.5126953125,-12945.333984375,-0.0,0.0,11269.251953125,7599.9892578125,-768.5025634765625,0.0,14080.20703125
-3283.818603515625,-8799.2353515625,7948.0810546875,11386.0771484375,16314.9833984375,17131.169921875,14676.2529296875,14410.8134765625,14141.400390625,10710.556640625,18672.1484375,0.0,13623.2373046875,0.0,13750.3935546875,17655.69140625,28244.654296875,13874.37109375,9682.97265625,7548.33203125,5679.13037109375,16274.4521484375,14436.2451171875,11168.3203125,0.0,3202.756103515625,7878.14404296875,6114.6416015625,705.718994140625,-7612.705078125,14538.7646484375,4921.75439453125,10600.884765625,17127.1953125,10778.904296875,17213.025390625,7742.24609375,11467.93359375,6105.89990234375,-0.0,6961.822265625,14061.1337890625,8481.34375,11754.0361328125,20746.388671875,8318.423828125,-1722.1768798828125,9216.4677734375,7350.44482421875,27002.4921875,7536.4111328125,14109.611328125,-5020.30029296875,-8211.9306640625,9115.537109375,4988.51171875,9871.3232421875,7096.1318359375,7077.05810546875,7378.26025390625,4297.09765625,10671.615234375,9768.0087890625,8978.84375,-12950.1025390625,-0.0,0.0,11278.7880859375,7590.45263671875,-752.6079711914062,0.0,14093.716796875
-3284.61328125,-8758.7041015625,7940.92822265625,11382.8974609375,16311.8037109375,17131.962890625,14676.2529296875,14412.4033203125,14142.1953125,10719.298828125,18676.123046875,0.0,13616.0849609375,0.0,13747.21484375,17666.81640625,28243.064453125,13872.7822265625,9684.5625,7553.1005859375,5674.3623046875,16271.2724609375,14436.2451171875,11169.1162109375,0.0,3200.3720703125,7874.9658203125,6117.02587890625,722.4083251953125,-7612.705078125,14534.791015625,4918.5751953125,10598.5,17126.40234375,10776.51953125,17213.822265625,7743.04052734375,11470.3173828125,6100.33642578125,-0.0,6955.46484375,14057.9541015625,8476.5751953125,11754.0361328125,20747.98046875,8321.6025390625,-1722.9715576171875,9212.494140625,7345.67626953125,27004.083984375,7534.82177734375,14113.5859375,-5011.55859375,-8208.751953125,9116.33203125,4971.822265625,9869.734375,7098.51611328125,7076.263671875,7376.6708984375,4293.12353515625,10665.2578125,9769.5986328125,8987.5859375,-12943.7451171875,-0.0,0.0,11284.3515625,7582.505859375,-747.839599609375,0.0,14107.2275390625
-3298.91845703125,-8754.73046875,7929.8017578125,11382.8974609375,16307.03515625,17135.142578125,14672.279296875,14413.9931640625,14135.837890625,10704.994140625,18663.40625,0.0,13609.7265625,0.0,13740.0625,17688.2734375,28237.501953125,13868.80859375,9682.97265625,7543.56396484375,5670.388671875,16270.4794921875,14432.271484375,11167.5263671875,0.0,3202.756103515625,7871.787109375,6112.25732421875,711.2821044921875,-7621.447265625,14531.6123046875,4913.80712890625,10592.142578125,17124.810546875,10771.7509765625,17213.822265625,7740.65625,11469.5234375,6081.26318359375,-0.0,6945.13330078125,14059.5439453125,8471.01171875,11755.6259765625,20744.005859375,8320.013671875,-1736.4820556640625,9211.69921875,7338.52392578125,27012.82421875,7530.0537109375,14125.5068359375,-5026.65869140625,-8193.65234375,9114.7421875,4968.64306640625,9867.3505859375,7115.205078125,7070.7001953125,7381.439453125,4284.3818359375,10654.9267578125,9767.21484375,8982.8173828125,-12949.3076171875,-0.0,0.0,11282.76171875,7571.37939453125,-764.5289306640625,0.0,14098.4853515625
-3304.4814453125,-8776.1875,7942.51708984375,11390.0498046875,16314.9833984375,17147.064453125,14678.6376953125,14426.7080078125,14140.60546875,10704.994140625,18658.638671875,0.0,13616.0849609375,0.0,13744.037109375,17700.990234375,28245.44921875,13876.755859375,9691.71484375,7541.974609375,5679.92529296875,16280.015625,14440.21875,11177.0625,0.0,3225.0087890625,7878.14404296875,6128.94677734375,705.718994140625,-7615.08935546875,14539.5595703125,4920.95947265625,10600.08984375,17132.759765625,10782.0830078125,17222.5625,7747.80908203125,11479.060546875,6084.4423828125,-0.0,6959.4384765625,14073.8486328125,8478.958984375,11769.1357421875,20748.7734375,8331.1396484375,-1746.8134765625,9219.646484375,7345.67626953125,27027.130859375,7534.82177734375,14141.400390625,-5025.86376953125,-8192.0625,9123.484375,4994.869140625,9870.529296875,7127.92041015625,7074.67431640625,7400.5126953125,4289.9453125,10658.1044921875,9772.77734375,8967.716796875,-12946.9228515625,-0.0,0.0,11278.7880859375,7574.55810546875,-769.2973022460938,0.0,14084.1796875
-3317.991943359375,-8806.3876953125,7931.3916015625,11383.6923828125,16311.0107421875,17139.1171875,14677.841796875,14417.171875,14143.7841796875,10708.1728515625,18648.306640625,0.0,13617.6748046875,0.0,13748.8046875,17673.96875,28237.501953125,13869.603515625,9687.7412109375,7542.76904296875,5671.97802734375,16274.4521484375,14435.4501953125,11171.5,0.0,3211.498291015625,7875.76025390625,6121.0,706.5137329101562,-7614.29443359375,14533.2021484375,4916.19091796875,10592.9375,17124.810546875,10777.314453125,17215.41015625,7744.63037109375,11472.7021484375,6091.5947265625,-0.0,6951.49072265625,14066.6962890625,8476.5751953125,11761.9833984375,20747.98046875,8323.9873046875,-1748.4029541015625,9211.69921875,7340.11328125,27021.56640625,7534.82177734375,14125.5068359375,-5035.400390625,-8197.625,9115.537109375,4990.8955078125,9873.7080078125,7117.58935546875,7077.05810546875,7381.439453125,4282.79248046875,10649.36328125,9769.5986328125,8966.1279296875,-12951.69140625,-0.0,0.0,11274.814453125,7587.27392578125,-764.5289306640625,0.0,14083.3857421875
-3296.5341796875,-8783.3408203125,7926.62353515625,11362.2353515625,16309.419921875,17125.607421875,14676.2529296875,14410.0185546875,14147.7587890625,10720.09375,18666.5859375,0.0,13623.2373046875,0.0,13753.5732421875,17658.869140625,28227.96484375,13862.4501953125,9682.1787109375,7548.33203125,5664.8251953125,16262.53125,14433.06640625,11163.552734375,0.0,3182.09326171875,7874.9658203125,6111.462890625,696.1822509765625,-7605.552734375,14525.25390625,4907.44921875,10587.375,17112.890625,10770.162109375,17205.080078125,7743.83544921875,11468.728515625,6078.08447265625,-0.0,6945.92822265625,14048.4169921875,8473.396484375,11750.0615234375,20749.568359375,8322.3984375,-1734.8924560546875,9188.65234375,7337.72900390625,27008.8515625,7537.2060546875,14109.611328125,-5036.98974609375,-8227.0302734375,9114.7421875,4973.41162109375,9875.2978515625,7104.07861328125,7079.4423828125,7375.8759765625,4276.4345703125,10641.416015625,9769.5986328125,8979.6376953125,-12962.818359375,-0.0,0.0,11286.7353515625,7597.60546875,-746.2501220703125,0.0,14102.458984375
-3287.792236328125,-8764.2666015625,7920.26513671875,11363.029296875,16305.4462890625,17126.40234375,14673.869140625,14407.634765625,14146.1689453125,10723.2734375,18657.841796875,0.0,13621.6474609375,0.0,13755.162109375,17657.279296875,28227.171875,13858.4775390625,9680.5888671875,7546.74267578125,5660.85205078125,16261.736328125,14428.2978515625,11160.3740234375,0.0,3194.014404296875,7874.17138671875,6106.69482421875,708.1031494140625,-7609.5263671875,14523.6650390625,4905.06494140625,10583.400390625,17112.890625,10767.77734375,17205.080078125,7741.451171875,11467.1396484375,6069.34228515625,-0.0,6940.36474609375,14050.0068359375,8471.01171875,11749.267578125,20747.98046875,8321.6025390625,-1744.42919921875,9190.2421875,7336.1396484375,27008.8515625,7535.6162109375,14104.8427734375,-5035.400390625,-8226.2353515625,9114.7421875,4971.822265625,9874.5029296875,7097.72119140625,7076.263671875,7378.26025390625,4272.4609375,10637.4423828125,9768.8037109375,8979.6376953125,-12935.7978515625,-0.0,0.0,11282.76171875,7591.24755859375,-747.0448608398438,0.0,14101.6640625
-3306.071044921875,-8769.830078125,7913.9072265625,11368.591796875,16299.08984375,17122.427734375,14669.8955078125,14400.482421875,14142.1953125,10716.9150390625,18646.716796875,0.0,13611.31640625,0.0,13747.21484375,17638.20703125,28225.580078125,13855.2978515625,9676.615234375,7540.384765625,5656.08349609375,16258.55859375,14422.734375,11156.3994140625,0.0,3204.345703125,7869.40283203125,6093.97900390625,706.5137329101562,-7628.599609375,14520.486328125,4905.06494140625,10579.4267578125,17112.890625,10763.0087890625,17199.515625,7737.4775390625,11460.78125,6073.31591796875,-0.0,6934.8017578125,14051.5966796875,8467.0380859375,11742.115234375,20740.828125,8316.833984375,-1754.7607421875,9197.39453125,7328.9873046875,26998.51953125,7529.2587890625,14093.716796875,-5046.5263671875,-8201.599609375,9106.794921875,4978.1796875,9868.939453125,7087.3896484375,7075.46875,7379.05517578125,4261.3349609375,10631.87890625,9764.8310546875,8973.28125,-12940.56640625,-0.0,0.0,11266.072265625,7592.8369140625,-758.9658203125,0.0,14091.33203125
