-3219.445556640625,-8718.9677734375,8031.52734375,11506.0810546875,16434.193359375,17238.458984375,14767.646484375,14477.5703125,14235.1787109375,10797.1826171875,18773.078125,0.0,13687.6103515625,0.0,13836.224609375,17755.03125,28405.984375,13949.87109375,9776.751953125,7661.97802734375,5842.8447265625,16380.9453125,14538.7646484375,11262.099609375,0.0,3378.391357421875,7975.1015625,6211.5986328125,708.1031494140625,-7701.71484375,14639.6953125,5074.34228515625,10686.71484375,17225.7421875,10905.265625,17309.984375,7854.30224609375,11557.73828125,6205.24072265625,-0.0,7095.3369140625,14212.1318359375,8552.869140625,11856.5556640625,20859.2421875,8423.328125,-1691.9771728515625,9339.650390625,7458.52783203125,27130.4453125,7656.41552734375,14228.0263671875,-4899.501953125,-8103.84765625,9199.7783203125,5102.95263671875,9954.7705078125,7190.7041015625,7146.19970703125,7540.384765625,4397.2333984375,10754.267578125,9882.4501953125,9045.6005859375,-12888.1142578125,-0.0,0.0,11339.1875,7558.6640625,-638.9617919921875,0.0,14262.19921875
-3226.59814453125,-8769.03515625,7993.38037109375,11479.8544921875,16404.787109375,17203.490234375,14750.95703125,14457.703125,14235.1787109375,10780.494140625,18743.673828125,0.0,13664.5634765625,0.0,13828.27734375,17743.111328125,28373.400390625,13922.0556640625,9756.8828125,7658.7998046875,5811.0556640625,16346.7734375,14514.9228515625,11236.66796875,0.0,3297.328857421875,7957.61767578125,6194.90966796875,685.0560302734375,-7723.1728515625,14609.49609375,5040.1689453125,10654.1318359375,17193.953125,10876.6552734375,17278.990234375,7835.22900390625,11537.869140625,6166.29931640625,-0.0,7061.16357421875,14165.2421875,8531.4111328125,11829.53515625,20846.525390625,8409.8173828125,-1729.3294677734375,9311.0400390625,7430.71240234375,27097.06640625,7642.90478515625,14212.1318359375,-4932.08544921875,-8164.24658203125,9176.7314453125,5123.615234375,9942.849609375,7161.29931640625,7142.2255859375,7527.66943359375,4363.85498046875,10728.0419921875,9869.734375,9051.1640625,-12902.4189453125,-0.0,0.0,11318.5244140625,7568.9951171875,-669.1614990234375,0.0,14224.052734375
-3209.114013671875,-8726.1201171875,7996.55908203125,11480.6494140625,16406.376953125,17197.927734375,14754.931640625,14458.4970703125,14246.3046875,10780.494140625,18738.904296875,0.0,13664.5634765625,0.0,13835.4296875,17736.75390625,28365.453125,13920.466796875,9759.2666015625,7664.3623046875,5808.67138671875,16342.0048828125,14515.7177734375,11231.8994140625,0.0,3263.15576171875,7961.5908203125,6192.525390625,681.0823974609375,-7696.94677734375,14606.31640625,5035.400390625,10651.748046875,17188.390625,10874.271484375,17274.220703125,7836.81884765625,11537.0751953125,6132.1259765625,-0.0,7060.369140625,14155.705078125,8533.0009765625,11825.5615234375,20851.29296875,8412.9970703125,-1725.355712890625,9313.423828125,7431.50732421875,27085.939453125,7649.2626953125,14212.92578125,-4930.49609375,-8172.1943359375,9173.552734375,5102.15771484375,9944.4384765625,7156.53076171875,7155.736328125,7533.232421875,4374.98095703125,10726.4521484375,9871.3232421875,9057.521484375,-12898.4453125,-0.0,0.0,11313.755859375,7601.5791015625,-678.6982421875,0.0,14202.5947265625
-3198.78271484375,-8700.6884765625,8016.42724609375,11490.9814453125,16423.861328125,17217.794921875,14763.6728515625,14465.6494140625,14238.357421875,10786.056640625,18747.6484375,0.0,13672.5107421875,0.0,13841.7880859375,17720.857421875,28389.294921875,13938.744140625,9768.8037109375,7658.0048828125,5826.9501953125,16361.078125,14527.638671875,11248.5888671875,0.0,3298.12353515625,7973.51171875,6208.419921875,696.1822509765625,-7695.35693359375,14624.595703125,5063.2158203125,10674.0,17208.2578125,10891.7548828125,17292.5,7846.35546875,11546.611328125,6180.6044921875,-0.0,7082.62109375,14179.546875,8547.3056640625,11842.2509765625,20856.0625,8416.17578125,-1720.58740234375,9323.755859375,7445.81201171875,27115.345703125,7658.0048828125,14208.1572265625,-4884.40185546875,-8161.06787109375,9173.552734375,5098.978515625,9948.4130859375,7167.6572265625,7158.12060546875,7541.974609375,4395.6435546875,10740.7568359375,9875.2978515625,9033.6796875,-12889.703125,-0.0,0.0,11328.8564453125,7588.068359375,-665.1878662109375,0.0,14212.92578125
-3213.087890625,-8699.099609375,8023.57958984375,11487.8017578125,16428.62890625,17216.205078125,14763.6728515625,14461.6767578125,14215.310546875,10775.7255859375,18761.953125,0.0,13682.0478515625,0.0,13841.7880859375,17716.08984375,28395.65234375,13942.71875,9766.4189453125,7641.3154296875,5834.1025390625,16365.05078125,14530.0224609375,11248.5888671875,0.0,3287.792236328125,7973.51171875,6215.572265625,717.639892578125,-7705.6884765625,14629.3642578125,5075.13671875,10680.3583984375,17213.025390625,10897.318359375,17295.6796875,7844.765625,11543.43359375,6196.4990234375,-0.0,7088.97900390625,14182.7265625,8546.51171875,11841.4560546875,20851.29296875,8405.8447265625,-1717.4085693359375,9319.7822265625,7451.37548828125,27101.0390625,7656.41552734375,14199.416015625,-4862.14990234375,-8157.09423828125,9193.419921875,5115.66796875,9953.181640625,7157.32568359375,7149.37841796875,7523.6953125,4401.20703125,10743.1416015625,9864.966796875,9015.4013671875,-12890.498046875,-0.0,0.0,11331.240234375,7553.1005859375,-669.9561767578125,0.0,14215.310546875
-3223.419189453125,-8700.6884765625,8019.6064453125,11492.5703125,16424.65625,17205.873046875,14756.5205078125,14452.9345703125,14206.568359375,10774.9296875,18757.978515625,0.0,13676.484375,0.0,13835.4296875,17712.1171875,28393.26953125,13940.333984375,9759.2666015625,7638.93115234375,5830.92333984375,16360.283203125,14523.6650390625,11240.6416015625,0.0,3283.818603515625,7965.56494140625,6193.31982421875,708.8978881835938,-7708.07275390625,14628.5693359375,5069.57373046875,10676.3837890625,17213.025390625,10893.3447265625,17290.91015625,7838.40869140625,11536.2802734375,6175.041015625,-0.0,7082.62109375,14181.931640625,8540.9482421875,11829.53515625,20842.552734375,8401.076171875,-1695.1561279296875,9323.755859375,7448.1962890625,27075.609375,7648.4677734375,14189.8798828125,-4913.80712890625,-8146.7626953125,9198.1884765625,5086.26318359375,9950.001953125,7151.7626953125,7130.3046875,7519.72216796875,4394.84912109375,10743.1416015625,9859.40234375,9017.78515625,-12892.8828125,-0.0,0.0,11320.1142578125,7528.4638671875,-677.1087646484375,0.0,14206.568359375
-3217.856201171875,-8753.140625,8025.16943359375,11514.02734375,16433.396484375,17216.205078125,14763.6728515625,14458.4970703125,14219.2841796875,10782.8779296875,18765.130859375,0.0,13687.6103515625,0.0,13843.376953125,17724.83203125,28398.83203125,13951.4609375,9768.8037109375,7652.44140625,5837.28173828125,16367.435546875,14530.818359375,11250.1787109375,0.0,3325.14453125,7973.51171875,6182.98876953125,698.56640625,-7695.35693359375,14635.7216796875,5067.189453125,10680.3583984375,17220.177734375,10899.703125,17299.65234375,7845.56103515625,11542.6376953125,6205.24072265625,-0.0,7089.7734375,14189.083984375,8547.3056640625,11835.892578125,20851.29296875,8409.8173828125,-1689.593017578125,9344.4189453125,7453.759765625,27105.80859375,7657.2099609375,14198.62109375,-4922.548828125,-8120.53662109375,9207.7255859375,5098.18408203125,9960.333984375,7185.93603515625,7131.099609375,7534.02734375,4404.38623046875,10756.65234375,9871.3232421875,9038.4482421875,-12884.9345703125,-0.0,0.0,11335.2138671875,7545.9482421875,-661.2141723632812,0.0,14227.2314453125
-3193.219482421875,-8748.3720703125,8021.1953125,11523.564453125,16433.396484375,17229.71484375,14764.4677734375,14472.8017578125,14228.0263671875,10782.8779296875,18770.6953125,0.0,13681.2529296875,0.0,13840.9931640625,17743.111328125,28402.009765625,13956.2294921875,9775.162109375,7660.38916015625,5841.25537109375,16376.1767578125,14533.2021484375,11260.509765625,0.0,3363.29150390625,7973.51171875,6210.80419921875,704.9242553710938,-7700.919921875,14639.6953125,5067.189453125,10681.9462890625,17224.154296875,10904.4716796875,17308.392578125,7847.14990234375,11553.7646484375,6206.83056640625,-0.0,7088.1845703125,14201.0048828125,8548.8955078125,11851.787109375,20852.884765625,8420.9443359375,-1704.69287109375,9353.955078125,7449.78564453125,27128.85546875,7656.41552734375,14220.8740234375,-4885.19677734375,-8130.07373046875,9200.5732421875,5115.66796875,9953.9755859375,7201.0361328125,7127.1259765625,7553.8955078125,4405.1806640625,10766.9833984375,9877.681640625,9040.83203125,-12878.5771484375,-0.0,0.0,11344.75,7557.869140625,-653.2669067382812,0.0,14230.41015625
-3181.298583984375,-8714.19921875,8022.78515625,11525.9482421875,16436.576171875,17240.046875,14767.646484375,14487.90234375,14250.2783203125,10803.5400390625,18767.515625,0.0,13674.099609375,0.0,13841.7880859375,17759.80078125,28409.162109375,13963.3818359375,9784.6982421875,7681.8466796875,5846.818359375,16385.712890625,14540.3544921875,11269.251953125,0.0,3364.086181640625,7975.1015625,6226.6982421875,710.4873657226562,-7700.125,14646.84765625,5083.87890625,10687.5107421875,17233.689453125,10910.0341796875,17317.13671875,7855.09765625,11564.095703125,6195.7041015625,-0.0,7092.15771484375,14210.5419921875,8552.869140625,11862.9140625,20864.8046875,8436.0439453125,-1705.487548828125,9357.9296875,7452.96484375,27135.212890625,7654.82568359375,14239.15234375,-4870.0966796875,-8142.7890625,9195.8046875,5136.3310546875,9949.20703125,7209.77783203125,7135.8681640625,7568.20068359375,4407.564453125,10772.5458984375,9891.1923828125,9058.31640625,-12872.21875,-0.0,0.0,11351.9033203125,7570.5849609375,-641.345947265625,0.0,14230.41015625
-3186.06689453125,-8682.41015625,8028.34814453125,11495.7490234375,16434.98828125,17220.974609375,14764.4677734375,14475.9814453125,14246.3046875,10798.771484375,18766.72265625,0.0,13678.07421875,0.0,13848.1455078125,17743.90625,28398.037109375,13954.6396484375,9776.751953125,7677.873046875,5842.8447265625,16369.8193359375,14535.5859375,11258.919921875,0.0,3314.81298828125,7976.69140625,6213.18798828125,706.5137329101562,-7679.46240234375,14635.7216796875,5073.54736328125,10683.5361328125,17217.0,10903.67578125,17305.216796875,7850.32958984375,11555.3544921875,6178.22021484375,-0.0,7093.74755859375,14185.9052734375,8552.07421875,11849.4033203125,20860.830078125,8424.91796875,-1704.69287109375,9326.140625,7457.7333984375,27112.9609375,7654.82568359375,14223.2578125,-4856.58642578125,-8157.88916015625,9197.39453125,5119.6416015625,9953.9755859375,7193.08837890625,7136.6630859375,7544.35888671875,4412.3330078125,10765.3935546875,9885.62890625,9054.3427734375,-12884.1396484375,-0.0,0.0,11346.33984375,7565.81640625,-655.651123046875,0.0,14214.515625
-3195.603515625,-8652.2099609375,8030.73193359375,11487.0068359375,16430.21875,17213.822265625,14757.3154296875,14456.908203125,14209.7470703125,10768.5732421875,18759.568359375,0.0,13682.841796875,0.0,13834.6357421875,17724.037109375,28397.2421875,13950.6650390625,9763.2412109375,7642.1103515625,5838.87109375,16364.255859375,14526.84375,11250.1787109375,0.0,3281.434326171875,7970.3330078125,6195.7041015625,706.5137329101562,-7672.31005859375,14630.9541015625,5068.77880859375,10681.15234375,17211.4375,10899.703125,17298.0625,7840.79248046875,11540.25390625,6192.525390625,-0.0,7092.15771484375,14180.3427734375,8542.5380859375,11838.27734375,20844.140625,8400.28125,-1702.30859375,9317.3984375,7455.34912109375,27101.8359375,7646.083984375,14199.416015625,-4856.58642578125,-8142.7890625,9207.7255859375,5119.6416015625,9948.4130859375,7174.81005859375,7131.89453125,7513.3642578125,4430.6123046875,10759.0361328125,9864.1708984375,9009.837890625,-12891.29296875,-0.0,0.0,11344.75,7529.2587890625,-673.1351318359375,0.0,14194.6474609375
-3213.88232421875,-8677.6416015625,8022.78515625,11494.16015625,16424.65625,17226.537109375,14751.751953125,14452.9345703125,14195.4423828125,10767.77734375,18761.953125,0.0,13679.6640625,0.0,13821.125,17723.2421875,28394.064453125,13949.076171875,9758.47265625,7632.57373046875,5831.71826171875,16369.8193359375,14521.28125,11249.3828125,0.0,3263.950439453125,7962.38623046875,6194.90966796875,707.3084716796875,-7692.97265625,14629.3642578125,5062.42138671875,10674.0,17211.4375,10895.7294921875,17302.037109375,7832.8447265625,11535.4853515625,6189.34619140625,-0.0,7087.3896484375,14195.4423828125,8537.76953125,11841.4560546875,20836.98828125,8397.896484375,-1690.3876953125,9325.3447265625,7450.58056640625,27105.80859375,7639.72607421875,14194.6474609375,-4902.6806640625,-8128.48388671875,9205.341796875,5111.6943359375,9942.849609375,7169.24658203125,7134.27880859375,7508.595703125,4405.9755859375,10755.8564453125,9857.0185546875,9008.248046875,-12892.8828125,-0.0,0.0,11336.8037109375,7523.6953125,-672.3403930664062,0.0,14205.7734375
-3232.161376953125,-8738.8349609375,8010.06982421875,11498.927734375,16422.271484375,17221.76953125,14753.341796875,14460.880859375,14209.7470703125,10781.2880859375,18763.54296875,0.0,13670.9208984375,0.0,13828.27734375,17731.189453125,28386.912109375,13943.5126953125,9761.6513671875,7651.64697265625,5823.77099609375,16364.255859375,14520.486328125,11247.7939453125,0.0,3313.2236328125,7960.79638671875,6200.47216796875,709.692626953125,-7699.33056640625,14623.80078125,5049.70556640625,10665.2578125,17207.46484375,10890.9609375,17299.65234375,7834.4345703125,11541.84375,6179.8095703125,-0.0,7077.05810546875,14194.6474609375,8536.974609375,11840.6611328125,20844.140625,8409.0234375,-1701.513916015625,9331.703125,7443.42822265625,27105.80859375,7643.69970703125,14203.3896484375,-4930.49609375,-8169.81005859375,9181.4990234375,5066.39501953125,9939.6708984375,7175.6044921875,7127.92041015625,7519.72216796875,4378.95458984375,10751.8837890625,9865.7607421875,9039.2431640625,-12888.908203125,-0.0,0.0,11331.240234375,7545.1533203125,-666.7772827148438,0.0,14221.66796875
-3221.82958984375,-8743.603515625,8006.095703125,11490.185546875,16417.50390625,17193.953125,14752.546875,14462.470703125,14220.078125,10786.056640625,18751.62109375,0.0,13661.384765625,0.0,13822.71484375,17742.314453125,28378.16796875,13935.56640625,9760.8564453125,7658.7998046875,5817.4130859375,16346.7734375,14518.8974609375,11239.8466796875,0.0,3346.602294921875,7956.822265625,6198.08837890625,702.5401000976562,-7698.5361328125,14614.2646484375,5043.34765625,10661.2841796875,17197.927734375,10884.6025390625,17282.16796875,7836.0244140625,11541.048828125,6186.9619140625,-0.0,7074.67431640625,14162.0634765625,8536.1796875,11828.740234375,20845.732421875,8415.3818359375,-1707.871826171875,9322.9609375,7438.65966796875,27095.4765625,7641.3154296875,14211.3369140625,-4924.93310546875,-8246.8984375,9162.42578125,5115.66796875,9930.9287109375,7177.98876953125,7123.947265625,7540.384765625,4392.46533203125,10743.935546875,9870.529296875,9041.626953125,-12894.470703125,-0.0,0.0,11337.59765625,7557.869140625,-654.8563842773438,0.0,14235.1787109375
-3224.2138671875,-8698.3037109375,7997.353515625,11484.623046875,16412.734375,17201.900390625,14750.95703125,14465.6494140625,14221.66796875,10786.056640625,18731.751953125,0.0,13659.794921875,0.0,13813.97265625,17745.494140625,28373.400390625,13933.181640625,9762.4462890625,7655.62060546875,5812.64501953125,16346.7734375,14515.7177734375,11241.435546875,0.0,3319.581298828125,7953.6435546875,6201.26708984375,706.5137329101562,-7707.27783203125,14611.8798828125,5042.552734375,10654.9267578125,17194.748046875,10881.423828125,17283.7578125,7834.4345703125,11542.6376953125,6168.68359375,-0.0,7069.90576171875,14165.2421875,8530.6171875,11833.5087890625,20844.140625,8416.17578125,-1729.3294677734375,9317.3984375,7433.89111328125,27097.06640625,7635.75244140625,14216.10546875,-4926.52294921875,-8218.2880859375,9167.9892578125,5100.568359375,9925.365234375,7178.783203125,7129.51025390625,7543.56396484375,4390.0810546875,10741.5517578125,9870.529296875,9032.8857421875,-12902.4189453125,-0.0,0.0,11339.1875,7555.48486328125,-659.624755859375,0.0,14227.2314453125
-3240.1083984375,-8672.873046875,8003.7119140625,11498.1337890625,16419.091796875,17214.6171875,14756.5205078125,14466.4453125,14228.8203125,10779.6982421875,18730.958984375,0.0,13666.947265625,0.0,13819.53515625,17745.494140625,28381.34765625,13940.333984375,9767.21484375,7654.82568359375,5820.59228515625,16356.3095703125,14523.6650390625,11247.7939453125,0.0,3321.965576171875,7958.412109375,6205.24072265625,707.3084716796875,-7703.30419921875,14619.033203125,5052.884765625,10659.6943359375,17203.490234375,10887.7822265625,17293.294921875,7838.40869140625,11548.201171875,6164.70947265625,-0.0,7077.05810546875,14179.546875,8536.1796875,11840.6611328125,20849.705078125,8412.2021484375,-1733.3031005859375,9330.9091796875,7440.2490234375,27108.98828125,7640.5205078125,14217.6943359375,-4891.55419921875,-8177.75732421875,9174.3466796875,5094.2099609375,9930.9287109375,7183.5517578125,7135.8681640625,7521.3115234375,4398.02783203125,10747.115234375,9872.119140625,9030.5009765625,-12883.345703125,-0.0,0.0,11341.572265625,7555.48486328125,-677.1087646484375,0.0,14205.7734375
-3232.161376953125,-8689.5625,7999.73779296875,11485.4169921875,16419.88671875,17208.2578125,14763.6728515625,14462.470703125,14244.7158203125,10769.3671875,18734.13671875,0.0,13670.9208984375,0.0,13834.6357421875,17742.314453125,28377.375,13937.1552734375,9766.4189453125,7661.18359375,5819.79736328125,16351.5419921875,14522.8701171875,11243.8203125,0.0,3295.739501953125,7967.154296875,6198.08837890625,694.5927734375,-7709.662109375,14615.853515625,5049.70556640625,10656.515625,17196.3359375,10884.6025390625,17289.3203125,7841.5869140625,11542.6376953125,6166.29931640625,-0.0,7074.67431640625,14173.984375,8540.9482421875,11835.892578125,20855.267578125,8405.0498046875,-1769.06591796875,9315.80859375,7445.81201171875,27097.06640625,7651.64697265625,14211.3369140625,-4889.17041015625,-8114.97412109375,9198.9833984375,5089.44189453125,9938.8759765625,7173.22021484375,7152.5576171875,7493.49609375,4389.2861328125,10743.1416015625,9872.9130859375,9036.064453125,-12892.0869140625,-0.0,0.0,11312.9619140625,7603.16845703125,-701.745361328125,0.0,14178.7529296875
-3215.471923828125,-8701.4833984375,7987.0224609375,11456.0126953125,16413.53125,17204.28515625,14762.083984375,14460.880859375,14251.8681640625,10782.0830078125,18743.673828125,0.0,13667.7431640625,0.0,13839.404296875,17736.75390625,28362.2734375,13926.8232421875,9763.2412109375,7666.74658203125,5806.287109375,16341.208984375,14518.1015625,11238.2578125,0.0,3288.5869140625,7965.56494140625,6199.677734375,696.1822509765625,-7710.45703125,14603.1376953125,5033.01611328125,10643.005859375,17181.23828125,10874.271484375,17281.373046875,7839.203125,11541.048828125,6147.22607421875,-0.0,7061.16357421875,14164.4482421875,8536.974609375,11834.3037109375,20859.2421875,8409.0234375,-1750.787109375,9287.9931640625,7437.0703125,27096.271484375,7650.85205078125,14212.1318359375,-4917.7802734375,-8166.630859375,9183.8837890625,5078.31591796875,9937.2861328125,7171.630859375,7157.32568359375,7507.00634765625,4364.6494140625,10735.1943359375,9875.2978515625,9049.5751953125,-12899.2392578125,-0.0,0.0,11313.755859375,7619.85791015625,-696.9769897460938,0.0,14191.4677734375
-3205.140380859375,-8695.919921875,8006.095703125,11493.365234375,16425.451171875,17220.974609375,14767.646484375,14472.8017578125,14239.947265625,10784.466796875,18769.8984375,0.0,13670.9208984375,0.0,13838.6083984375,17742.314453125,28382.142578125,13943.5126953125,9772.77734375,7661.97802734375,5822.9765625,16359.4873046875,14530.0224609375,11251.767578125,0.0,3335.475830078125,7970.3330078125,6213.98291015625,710.4873657226562,-7679.46240234375,14620.6220703125,5052.08984375,10663.6689453125,17204.28515625,10888.576171875,17297.267578125,7847.9453125,11552.9697265625,6183.783203125,-0.0,7077.05810546875,14186.7001953125,8545.7158203125,11847.8134765625,20860.830078125,8416.970703125,-1724.56103515625,9326.140625,7444.22314453125,27118.525390625,7652.44140625,14220.8740234375,-4909.03857421875,-8145.96826171875,9186.267578125,5106.130859375,9948.4130859375,7190.7041015625,7149.37841796875,7530.0537109375,4382.92822265625,10745.525390625,9880.06640625,9030.5009765625,-12879.3720703125,-0.0,0.0,11346.33984375,7592.04248046875,-673.9298706054688,0.0,14197.826171875
-3211.498291015625,-8704.662109375,8016.42724609375,11510.0546875,16431.80859375,17224.947265625,14767.646484375,14477.5703125,14223.2578125,10769.3671875,18767.515625,0.0,13679.6640625,0.0,13833.8408203125,17752.646484375,28393.26953125,13950.6650390625,9775.162109375,7649.2626953125,5831.71826171875,16367.435546875,14533.99609375,11257.3310546875,0.0,3348.19140625,7972.71728515625,6220.3408203125,716.84521484375,-7666.74658203125,14629.3642578125,5064.8056640625,10674.7939453125,17216.205078125,10895.7294921875,17302.037109375,7848.73974609375,11553.7646484375,6195.7041015625,-0.0,7086.59521484375,14185.9052734375,8549.6904296875,11853.376953125,20854.47265625,8417.765625,-1692.77197265625,9341.240234375,7451.37548828125,27125.677734375,7648.4677734375,14225.642578125,-4901.8857421875,-8149.94140625,9191.8310546875,5101.36279296875,9960.333984375,7193.08837890625,7131.89453125,7538.00048828125,4402.79638671875,10747.115234375,9876.8876953125,9012.22265625,-12880.166015625,-0.0,0.0,11354.287109375,7530.0537109375,-677.1087646484375,0.0,14182.7265625
-3193.219482421875,-8710.2255859375,8032.32177734375,11528.3330078125,16447.703125,17240.046875,14777.18359375,14493.4658203125,14221.66796875,10778.904296875,18782.615234375,0.0,13692.37890625,0.0,13840.1982421875,17775.693359375,28409.162109375,13964.970703125,9787.876953125,7650.85205078125,5846.818359375,16381.740234375,14546.7119140625,11272.4306640625,0.0,3351.37060546875,7983.84375,6242.59326171875,728.76611328125,-7646.083984375,14646.0537109375,5077.52099609375,10689.89453125,17230.509765625,10913.212890625,17318.7265625,7860.66064453125,11568.8642578125,6198.08837890625,-0.0,7105.66845703125,14204.1845703125,8560.81640625,11869.271484375,20862.421875,8431.275390625,-1677.6719970703125,9359.5185546875,7468.06494140625,27134.41796875,7658.0048828125,14249.484375,-4877.2490234375,-8140.40478515625,9208.51953125,5095.7998046875,9970.6650390625,7208.1884765625,7131.099609375,7557.07421875,4435.38037109375,10755.8564453125,9885.62890625,9008.248046875,-12853.9404296875,-0.0,0.0,11375.7451171875,7503.82763671875,-659.624755859375,0.0,14192.263671875
-3166.993408203125,-8687.1787109375,8037.09033203125,11518.7958984375,16448.498046875,17242.431640625,14779.5673828125,14493.4658203125,14228.8203125,10789.2353515625,18773.875,0.0,13688.4052734375,0.0,13840.1982421875,17764.568359375,28406.779296875,13964.970703125,9789.466796875,7659.59423828125,5848.40771484375,16380.9453125,14547.5068359375,11272.4306640625,0.0,3353.754638671875,7983.04833984375,6248.15625,724.79248046875,-7672.31005859375,14644.4638671875,5074.34228515625,10689.099609375,17228.921875,10914.802734375,17319.521484375,7862.25048828125,11570.4541015625,6197.2939453125,-0.0,7108.052734375,14205.7734375,8561.611328125,11870.06640625,20866.39453125,8436.0439453125,-1707.871826171875,9349.1865234375,7466.47509765625,27143.955078125,7661.18359375,14245.509765625,-4869.30224609375,-8112.58984375,9211.69921875,5136.3310546875,9961.9228515625,7212.162109375,7135.8681640625,7564.2265625,4410.74365234375,10755.0625,9887.21875,9026.52734375,-12854.7353515625,-0.0,0.0,11374.9501953125,7518.92724609375,-647.7037963867188,0.0,14214.515625
-3186.86181640625,-8695.1259765625,8017.22216796875,11492.5703125,16432.603515625,17220.974609375,14768.44140625,14474.3916015625,14230.41015625,10789.2353515625,18750.826171875,0.0,13674.099609375,0.0,13838.6083984375,17737.546875,28386.115234375,13948.28125,9774.3671875,7656.41552734375,5829.33447265625,16362.6669921875,14533.99609375,11254.1513671875,0.0,3326.73388671875,7970.3330078125,6206.03564453125,707.3084716796875,-7685.8203125,14626.9794921875,5057.65283203125,10670.8212890625,17209.052734375,10896.5234375,17298.857421875,7849.5341796875,11553.7646484375,6161.53076171875,-0.0,7087.3896484375,14184.3154296875,8547.3056640625,11846.224609375,20858.4453125,8420.9443359375,-1737.2767333984375,9322.9609375,7451.37548828125,27123.29296875,7653.236328125,14220.078125,-4885.19677734375,-8130.8681640625,9199.7783203125,5108.51513671875,9942.849609375,7197.06201171875,7135.8681640625,7542.76904296875,4381.33837890625,10740.7568359375,9878.4765625,9030.5009765625,-12877.7822265625,-0.0,0.0,11349.5185546875,7547.537109375,-657.2405395507812,0.0,14214.515625
-3214.677001953125,-8716.5830078125,8001.32763671875,11482.23828125,16420.68359375,17203.490234375,14758.904296875,14456.11328125,14223.2578125,10779.6982421875,18744.46875,0.0,13668.537109375,0.0,13838.6083984375,17724.83203125,28378.16796875,13936.3603515625,9764.03515625,7649.2626953125,5819.00244140625,16350.74609375,14522.0751953125,11239.0517578125,0.0,3310.83935546875,7963.1806640625,6184.578125,697.771728515625,-7711.251953125,14615.853515625,5051.294921875,10658.900390625,17200.3125,10885.3974609375,17284.55078125,7838.40869140625,11537.869140625,6161.53076171875,-0.0,7074.67431640625,14170.8056640625,8536.1796875,11828.740234375,20849.705078125,8403.4609375,-1739.660888671875,9313.423828125,7434.68603515625,27097.06640625,7648.4677734375,14201.0048828125,-4886.7861328125,-8152.32568359375,9182.2939453125,5108.51513671875,9936.4921875,7180.37255859375,7127.92041015625,7511.7744140625,4384.517578125,10732.8095703125,9868.939453125,9033.6796875,-12896.060546875,-0.0,0.0,11315.345703125,7551.51123046875,-674.724609375,0.0,14212.1318359375
-3226.59814453125,-8722.146484375,8010.06982421875,11486.212890625,16427.041015625,17211.4375,14766.056640625,14464.060546875,14227.2314453125,10789.2353515625,18756.388671875,0.0,13679.6640625,0.0,13840.1982421875,17735.162109375,28382.142578125,13941.12890625,9768.8037109375,7657.2099609375,5825.36083984375,16356.3095703125,14527.638671875,11245.41015625,0.0,3302.097412109375,7968.7431640625,6199.677734375,700.1558837890625,-7704.09912109375,14619.033203125,5050.50048828125,10665.2578125,17201.10546875,10888.576171875,17290.115234375,7844.765625,11545.0224609375,6188.55126953125,-0.0,7081.82666015625,14174.779296875,8541.7431640625,11839.072265625,20855.267578125,8411.4072265625,-1715.0242919921875,9316.603515625,7441.0439453125,27110.576171875,7653.236328125,14210.5419921875,-4896.32275390625,-8149.94140625,9199.7783203125,5101.36279296875,9942.849609375,7183.5517578125,7139.04736328125,7510.97998046875,4379.74951171875,10736.783203125,9875.2978515625,9043.216796875,-12889.703125,-0.0,0.0,11313.755859375,7561.0478515625,-670.7509155273438,0.0,14213.7216796875
-3223.419189453125,-8750.755859375,8019.6064453125,11492.5703125,16427.8359375,17226.537109375,14769.236328125,14473.59765625,14227.2314453125,10799.5673828125,18755.59375,0.0,13672.5107421875,0.0,13836.224609375,17736.75390625,28386.115234375,13946.6923828125,9772.77734375,7663.56787109375,5830.12890625,16364.255859375,14531.6123046875,11254.1513671875,0.0,3316.40234375,7965.56494140625,6223.52001953125,702.5401000976562,-7719.99365234375,14623.80078125,5049.70556640625,10669.2314453125,17205.873046875,10892.55078125,17298.857421875,7847.9453125,11552.9697265625,6182.98876953125,-0.0,7085.80029296875,14185.111328125,8544.1279296875,11852.58203125,20858.4453125,8419.3544921875,-1709.461181640625,9323.755859375,7447.4013671875,27144.75,7652.44140625,14217.6943359375,-4889.17041015625,-8150.73681640625,9191.8310546875,5083.87890625,9943.64453125,7182.7568359375,7142.2255859375,7525.28515625,4367.828125,10740.7568359375,9880.06640625,9045.6005859375,-12883.345703125,-0.0,0.0,11327.2666015625,7552.3056640625,-662.0089111328125,0.0,14220.078125
-3210.70361328125,-8766.6513671875,8006.095703125,11477.470703125,16424.65625,17215.41015625,14762.87890625,14472.0078125,14224.052734375,10800.361328125,18746.056640625,0.0,13674.8955078125,0.0,13836.224609375,17733.57421875,28378.962890625,13940.333984375,9768.8037109375,7658.7998046875,5822.181640625,16354.71875,14526.0498046875,11248.5888671875,0.0,3300.5078125,7963.97509765625,6227.4931640625,701.745361328125,-7741.451171875,14617.443359375,5045.73193359375,10659.6943359375,17197.927734375,10886.1923828125,17290.115234375,7843.1767578125,11550.5859375,6166.29931640625,-0.0,7078.6474609375,14173.984375,8540.1533203125,11847.01953125,20855.267578125,8420.1494140625,-1723.766357421875,9308.6552734375,7445.017578125,27117.728515625,7650.85205078125,14216.8994140625,-4898.70703125,-8161.8623046875,9186.267578125,5079.11083984375,9944.4384765625,7181.16748046875,7131.099609375,7536.4111328125,4387.69677734375,10735.1943359375,9876.8876953125,9038.4482421875,-12884.1396484375,-0.0,0.0,11341.572265625,7537.2060546875,-656.44580078125,0.0,14227.2314453125
-3228.982177734375,-8761.8828125,8016.42724609375,11490.185546875,16428.62890625,17210.642578125,14767.646484375,14468.0341796875,14235.1787109375,10800.361328125,18750.826171875,0.0,13688.4052734375,0.0,13836.224609375,17736.75390625,28387.705078125,13943.5126953125,9771.1875,7665.1572265625,5831.71826171875,16359.4873046875,14529.228515625,11248.5888671875,0.0,3289.3818359375,7969.53857421875,6194.11474609375,706.5137329101562,-7700.125,14624.595703125,5063.2158203125,10669.2314453125,17208.2578125,10892.55078125,17293.294921875,7847.14990234375,11548.99609375,6151.994140625,-0.0,7088.1845703125,14175.57421875,8544.1279296875,11839.072265625,20860.037109375,8420.9443359375,-1705.487548828125,9320.5771484375,7448.1962890625,27087.529296875,7653.236328125,14212.1318359375,-4909.03857421875,-8179.34716796875,9195.8046875,5138.71533203125,9948.4130859375,7191.4990234375,7142.2255859375,7541.1796875,4407.564453125,10739.962890625,9881.6552734375,9039.2431640625,-12882.5498046875,-0.0,0.0,11353.4931640625,7560.2529296875,-650.8826904296875,0.0,14235.1787109375
-3248.0556640625,-8770.625,8010.06982421875,11489.3916015625,16422.271484375,17223.357421875,14763.6728515625,14460.880859375,14234.3837890625,10766.1884765625,18754.005859375,0.0,13672.5107421875,0.0,13834.6357421875,17733.57421875,28381.34765625,13941.923828125,9765.625,7650.85205078125,5826.1552734375,16358.6943359375,14524.4599609375,11247.7939453125,0.0,3292.560546875,7964.7705078125,6179.8095703125,699.3611450195312,-7710.45703125,14619.8271484375,5048.1162109375,10664.462890625,17203.490234375,10886.1923828125,17295.6796875,7840.79248046875,11544.2275390625,6185.373046875,-0.0,7079.4423828125,14182.7265625,8538.5634765625,11842.2509765625,20855.267578125,8408.228515625,-1707.0770263671875,9319.7822265625,7441.8388671875,27084.3515625,7649.2626953125,14207.36328125,-4917.7802734375,-8204.77734375,9183.0888671875,5072.75244140625,9942.0546875,7173.22021484375,7146.19970703125,7528.4638671875,4393.259765625,10736.783203125,9872.119140625,9019.375,-12907.9814453125,-0.0,0.0,11321.7041015625,7598.39990234375,-691.4138793945312,0.0,14198.62109375
-3197.193115234375,-8674.4619140625,8025.16943359375,11501.3125,16439.755859375,17241.63671875,14775.59375,14491.0810546875,14235.9736328125,10774.1357421875,18778.642578125,0.0,13682.841796875,0.0,13836.224609375,17786.025390625,28402.8046875,13960.998046875,9783.904296875,7655.62060546875,5842.8447265625,16379.3564453125,14541.1494140625,11268.4560546875,0.0,3360.112548828125,7975.1015625,6236.2353515625,720.81884765625,-7669.92578125,14638.900390625,5067.189453125,10683.5361328125,17223.357421875,10904.4716796875,17315.546875,7857.48193359375,11566.4794921875,6210.80419921875,-0.0,7094.5419921875,14206.568359375,8552.869140625,11867.6826171875,20864.8046875,8427.302734375,-1684.8245849609375,9333.29296875,7456.9384765625,27124.880859375,7656.41552734375,14253.45703125,-4877.2490234375,-8127.689453125,9195.009765625,5073.54736328125,9952.3857421875,7219.314453125,7146.19970703125,7548.33203125,4417.1015625,10754.267578125,9885.62890625,9022.5537109375,-12881.755859375,-0.0,0.0,11339.982421875,7565.81640625,-685.8507690429688,0.0,14191.4677734375
-3179.709228515625,-8644.263671875,8027.5537109375,11510.8486328125,16446.11328125,17229.71484375,14776.388671875,14491.0810546875,14231.9990234375,10789.2353515625,18784.205078125,0.0,13682.0478515625,0.0,13835.4296875,17784.4375,28404.39453125,13963.3818359375,9786.2880859375,7662.77294921875,5845.228515625,16378.560546875,14543.533203125,11267.662109375,0.0,3355.343994140625,7977.48583984375,6238.619140625,727.1766357421875,-7651.64697265625,14641.28515625,5072.75244140625,10685.9208984375,17224.154296875,10907.650390625,17312.369140625,7859.07080078125,11566.4794921875,6205.24072265625,-0.0,7101.69482421875,14201.80078125,8553.6640625,11859.734375,20866.39453125,8427.302734375,-1684.0299072265625,9342.0341796875,7464.0908203125,27145.544921875,7657.2099609375,14253.45703125,-4847.8447265625,-8103.84765625,9198.9833984375,5161.76220703125,9952.3857421875,7230.4404296875,7142.2255859375,7533.232421875,4431.40673828125,10761.419921875,9887.21875,9032.8857421875,-12860.2978515625,-0.0,0.0,11355.876953125,7540.384765625,-665.1878662109375,0.0,14212.1318359375
-3205.935302734375,-8679.23046875,7997.353515625,11465.5498046875,16422.271484375,17200.3125,14762.87890625,14460.0869140625,14235.9736328125,10789.2353515625,18728.57421875,0.0,13662.974609375,0.0,13831.4560546875,17721.65234375,28364.658203125,13937.1552734375,9765.625,7666.74658203125,5814.234375,16342.0048828125,14522.0751953125,11239.0517578125,0.0,3292.560546875,7963.1806640625,6190.935546875,688.2349853515625,-7684.23095703125,14607.1123046875,5031.4267578125,10650.158203125,17181.23828125,10879.0400390625,17281.373046875,7839.203125,11541.048828125,6134.51025390625,-0.0,7074.67431640625,14160.4736328125,8535.384765625,11826.35546875,20856.0625,8412.2021484375,-1742.0450439453125,9295.9404296875,7444.22314453125,27102.62890625,7649.2626953125,14203.3896484375,-4889.96484375,-8192.0625,9179.91015625,5070.3681640625,9935.6962890625,7162.09423828125,7143.8154296875,7522.90087890625,4374.18603515625,10738.373046875,9873.7080078125,9047.9853515625,-12903.2138671875,-0.0,0.0,11333.625,7570.5849609375,-671.545654296875,0.0,14213.7216796875
-3252.823974609375,-8704.662109375,8004.50634765625,11486.212890625,16426.244140625,17220.974609375,14767.646484375,14460.880859375,14246.3046875,10789.2353515625,18707.1171875,0.0,13669.33203125,0.0,13833.8408203125,17700.990234375,28375.783203125,13945.1025390625,9771.9833984375,7675.48876953125,5819.79736328125,16357.8984375,14529.228515625,11248.5888671875,0.0,3344.218017578125,7969.53857421875,6187.7568359375,689.0296630859375,-7725.556640625,14617.443359375,5035.400390625,10655.720703125,17193.953125,10885.3974609375,17294.8828125,7844.765625,11546.611328125,6161.53076171875,-0.0,7077.8525390625,14187.4951171875,8541.7431640625,11836.6884765625,20862.421875,8418.5595703125,-1740.45556640625,9317.3984375,7448.9912109375,27134.41796875,7654.03125,14191.4677734375,-4909.03857421875,-8209.5458984375,9193.419921875,5064.0107421875,9935.6962890625,7150.17333984375,7149.37841796875,7549.126953125,4374.18603515625,10748.7041015625,9882.4501953125,9064.6748046875,-12905.59765625,-0.0,0.0,11316.140625,7575.35302734375,-677.1087646484375,0.0,14206.568359375
-3323.554931640625,-8714.9931640625,8018.0166015625,11491.775390625,16435.78125,17222.5625,14774.0048828125,14476.7763671875,14240.7421875,10798.771484375,18757.978515625,0.0,13682.841796875,0.0,13838.6083984375,17735.162109375,28388.5,13956.2294921875,9779.1357421875,7672.31005859375,5834.1025390625,16363.462890625,14537.1748046875,11258.919921875,0.0,3320.376220703125,7976.69140625,6215.572265625,707.3084716796875,-7713.6357421875,14629.3642578125,5052.08984375,10670.025390625,17205.080078125,10894.9345703125,17302.83203125,7853.5078125,11556.943359375,6202.06201171875,-0.0,7091.36328125,14185.111328125,8551.2802734375,11850.1982421875,20864.8046875,8424.91796875,-1693.566650390625,9323.755859375,7459.322265625,27124.0859375,7658.0048828125,14219.2841796875,-4928.90673828125,-8162.65771484375,9202.95703125,5094.2099609375,9946.8232421875,7199.4462890625,7146.19970703125,7557.869140625,4394.84912109375,10759.830078125,9887.21875,9040.83203125,-12880.166015625,-0.0,0.0,11346.33984375,7563.43212890625,-653.2669067382812,0.0,14216.8994140625
-3253.618896484375,-8711.0205078125,8024.375,11490.185546875,16438.166015625,17213.025390625,14770.8251953125,14477.5703125,14224.8466796875,10794.00390625,18792.947265625,0.0,13682.0478515625,0.0,13837.01953125,17743.111328125,28397.2421875,13957.0234375,9776.751953125,7656.41552734375,5840.46044921875,16364.255859375,14536.380859375,11258.919921875,0.0,3303.686767578125,7975.89599609375,6241.00341796875,706.5137329101562,-7689.7939453125,14631.748046875,5065.60009765625,10677.1787109375,17210.642578125,10898.11328125,17300.447265625,7851.91845703125,11554.55859375,6213.98291015625,-0.0,7097.72119140625,14177.9580078125,8550.484375,11849.4033203125,20860.037109375,8420.1494140625,-1673.698486328125,9322.9609375,7457.7333984375,27084.3515625,7655.62060546875,14223.2578125,-4929.701171875,-8118.15283203125,9184.677734375,5108.51513671875,9946.8232421875,7212.162109375,7138.25244140625,7544.35888671875,4390.0810546875,10763.8046875,9878.4765625,9004.275390625,-12867.451171875,-0.0,0.0,11367.7978515625,7557.07421875,-641.345947265625,0.0,14221.66796875
-3165.404052734375,-8656.978515625,8021.1953125,11487.0068359375,16436.576171875,17225.7421875,14769.236328125,14477.5703125,14217.6943359375,10774.9296875,18782.615234375,0.0,13682.841796875,0.0,13837.01953125,17735.958984375,28395.65234375,13959.408203125,9775.9560546875,7645.2890625,5838.076171875,16367.435546875,14534.791015625,11262.8935546875,0.0,3302.89208984375,7971.12744140625,6261.6669921875,708.8978881835938,-7708.07275390625,14634.1328125,5064.8056640625,10671.615234375,17212.232421875,10898.11328125,17304.419921875,7848.73974609375,11554.55859375,6193.31982421875,-0.0,7092.95263671875,14182.7265625,8546.51171875,11858.9404296875,20855.267578125,8416.970703125,-1691.9771728515625,9320.5771484375,7454.55419921875,27083.5546875,7654.03125,14218.4892578125,-4896.32275390625,-8171.39892578125,9177.525390625,5112.4892578125,9946.8232421875,7154.146484375,7130.3046875,7534.02734375,4383.72265625,10766.1884765625,9872.119140625,9002.685546875,-12876.9873046875,-0.0,0.0,11347.9296875,7548.33203125,-661.2141723632812,0.0,14203.3896484375
-3160.6357421875,-8654.5947265625,8019.6064453125,11509.2587890625,16441.345703125,17255.94140625,14770.8251953125,14491.0810546875,14217.6943359375,10780.494140625,18784.205078125,0.0,13684.431640625,0.0,13835.4296875,17754.236328125,28399.625,13969.7392578125,9782.314453125,7650.85205078125,5842.8447265625,16384.919921875,14542.7392578125,11276.404296875,0.0,3270.308349609375,7973.51171875,6257.69287109375,706.5137329101562,-7713.6357421875,14643.6689453125,5065.60009765625,10674.7939453125,17221.76953125,10904.4716796875,17322.69921875,7855.09765625,11564.890625,6190.14111328125,-0.0,7093.74755859375,14210.5419921875,8550.484375,11878.013671875,20857.65234375,8425.712890625,-1715.0242919921875,9339.650390625,7457.7333984375,27116.140625,7654.82568359375,14236.767578125,-4862.9443359375,-8224.646484375,9179.91015625,5168.9150390625,9940.46484375,7177.1943359375,7127.1259765625,7551.51123046875,4407.564453125,10776.51953125,9880.8603515625,9016.1962890625,-12877.7822265625,-0.0,0.0,11345.5458984375,7528.4638671875,-657.2405395507812,0.0,14213.7216796875
-3189.245849609375,-8707.046875,8022.78515625,11514.8232421875,16440.55078125,17276.60546875,14770.03125,14496.6435546875,14223.2578125,10786.056640625,18778.642578125,0.0,13674.8955078125,0.0,13833.0458984375,17774.900390625,28398.037109375,13970.5341796875,9784.6982421875,7660.38916015625,5844.43408203125,16392.865234375,14541.943359375,11283.556640625,0.0,3270.308349609375,7971.12744140625,6261.6669921875,699.3611450195312,-7771.65087890625,14646.0537109375,5062.42138671875,10674.0,17222.5625,10906.060546875,17333.03125,7857.48193359375,11568.0693359375,6154.37841796875,-0.0,7092.15771484375,14226.4365234375,8552.07421875,11886.755859375,20860.830078125,8428.8916015625,-1713.434814453125,9345.2138671875,7456.14404296875,27151.90234375,7654.82568359375,14246.3046875,-4878.0439453125,-8207.162109375,9194.21484375,5114.07861328125,9942.849609375,7220.109375,7133.48388671875,7553.1005859375,4407.564453125,10778.109375,9884.0400390625,9032.8857421875,-12867.451171875,-0.0,0.0,11338.3935546875,7533.232421875,-659.624755859375,0.0,14218.4892578125
-3216.2666015625,-8709.4306640625,8010.06982421875,11498.927734375,16428.62890625,17226.537109375,14766.056640625,14475.9814453125,14221.66796875,10775.7255859375,18756.388671875,0.0,13671.7158203125,0.0,13833.8408203125,17747.083984375,28382.935546875,13952.2548828125,9771.9833984375,7653.236328125,5828.53955078125,16364.255859375,14530.0224609375,11258.919921875,0.0,3309.25,7969.53857421875,6237.0302734375,709.692626953125,-7692.17822265625,14627.7744140625,5049.70556640625,10660.4892578125,17202.6953125,10891.7548828125,17302.83203125,7847.14990234375,11554.55859375,6162.3251953125,-0.0,7081.82666015625,14185.111328125,8544.921875,11858.1455078125,20857.65234375,8412.2021484375,-1715.0242919921875,9330.9091796875,7448.9912109375,27110.576171875,7652.44140625,14225.642578125,-4910.6279296875,-8141.2001953125,9191.0361328125,5057.65283203125,9946.8232421875,7158.9150390625,7142.2255859375,7523.6953125,4385.3125,10760.625,9873.7080078125,9027.322265625,-12870.62890625,-0.0,0.0,11313.755859375,7549.126953125,-682.671875,0.0,14201.0048828125
-3221.82958984375,-8693.5361328125,8010.06982421875,11493.365234375,16430.21875,17210.642578125,14770.8251953125,14456.11328125,14223.2578125,10770.162109375,18751.62109375,0.0,13680.4580078125,0.0,13848.1455078125,17724.83203125,28381.34765625,13946.6923828125,9766.4189453125,7647.67333984375,5828.53955078125,16356.3095703125,14529.228515625,11246.9990234375,0.0,3360.9072265625,7974.30712890625,6182.19384765625,710.4873657226562,-7671.51513671875,14623.005859375,5040.9638671875,10661.2841796875,17200.3125,10891.7548828125,17292.5,7846.35546875,11542.6376953125,6190.14111328125,-0.0,7084.2109375,14174.779296875,8548.1005859375,11839.8662109375,20860.037109375,8400.28125,-1732.50830078125,9325.3447265625,7456.14404296875,27125.677734375,7661.97802734375,14197.826171875,-4898.70703125,-8175.373046875,9193.419921875,5072.75244140625,9953.181640625,7202.62548828125,7154.146484375,7499.853515625,4390.0810546875,10757.4462890625,9867.3505859375,9023.3486328125,-12873.80859375,-0.0,0.0,11326.47265625,7561.84228515625,-685.8507690429688,0.0,14189.8798828125
-3178.914306640625,-8668.8994140625,8021.99072265625,11490.9814453125,16446.11328125,17205.873046875,14781.9521484375,14456.11328125,14231.205078125,10778.904296875,18765.92578125,0.0,13703.505859375,0.0,13860.861328125,17724.83203125,28394.857421875,13955.43359375,9776.751953125,7658.0048828125,5842.05029296875,16365.05078125,14539.5595703125,11250.1787109375,0.0,3354.54931640625,7990.99658203125,6171.8623046875,735.1239624023438,-7661.18359375,14632.54296875,5059.2421875,10674.0,17211.4375,10904.4716796875,17298.857421875,7856.6865234375,11546.611328125,6190.14111328125,-0.0,7097.72119140625,14181.13671875,8560.021484375,11832.7138671875,20866.39453125,8405.0498046875,-1715.8189697265625,9322.9609375,7471.2431640625,27138.390625,7675.48876953125,14196.236328125,-4859.765625,-8145.96826171875,9213.2880859375,5107.720703125,9972.2548828125,7206.5986328125,7158.9150390625,7496.6748046875,4401.20703125,10763.8046875,9877.681640625,9039.2431640625,-12857.9140625,-0.0,0.0,11347.9296875,7565.021484375,-668.3667602539062,0.0,14206.568359375
-3183.6826171875,-8669.6943359375,8025.16943359375,11481.4443359375,16452.470703125,17201.10546875,14786.720703125,14463.265625,14239.15234375,10792.4150390625,18779.435546875,0.0,13714.630859375,0.0,13867.21875,17742.314453125,28395.65234375,13954.6396484375,9781.51953125,7668.33642578125,5845.228515625,16361.8720703125,14541.943359375,11250.1787109375,0.0,3320.376220703125,7998.14892578125,6180.6044921875,745.4554443359375,-7661.18359375,14632.54296875,5067.98388671875,10675.58984375,17211.4375,10906.85546875,17297.267578125,7860.66064453125,11549.7900390625,6177.42529296875,-0.0,7104.07861328125,14173.984375,8564.7900390625,11832.7138671875,20871.162109375,8416.17578125,-1680.8509521484375,9314.2197265625,7479.19091796875,27101.0390625,7679.46240234375,14205.7734375,-4860.56005859375,-8113.38427734375,9219.646484375,5118.8466796875,9988.9443359375,7199.4462890625,7151.7626953125,7518.1328125,4409.154296875,10759.0361328125,9887.21875,9054.3427734375,-12857.9140625,-0.0,0.0,11362.2353515625,7569.7900390625,-653.2669067382812,0.0,14224.052734375
-3200.3720703125,-8691.1513671875,8025.16943359375,11480.6494140625,16446.908203125,17217.0,14783.5419921875,14473.59765625,14243.1259765625,10803.5400390625,18784.205078125,0.0,13701.916015625,0.0,13854.50390625,17754.236328125,28390.884765625,13954.6396484375,9780.724609375,7673.8994140625,5842.8447265625,16363.462890625,14541.1494140625,11255.7412109375,0.0,3328.3232421875,7988.6123046875,6206.83056640625,721.6135864257812,-7693.767578125,14631.748046875,5066.39501953125,10674.7939453125,17211.4375,10902.0869140625,17301.240234375,7856.6865234375,11556.1484375,6172.6572265625,-0.0,7101.69482421875,14181.13671875,8560.021484375,11846.224609375,20867.982421875,8424.91796875,-1684.8245849609375,9314.2197265625,7472.0380859375,27120.11328125,7670.720703125,14218.4892578125,-4906.654296875,-8125.30517578125,9210.904296875,5106.92578125,9971.458984375,7216.1357421875,7139.841796875,7539.59033203125,4412.3330078125,10756.65234375,9888.80859375,9060.7001953125,-12865.861328125,-0.0,0.0,11359.8505859375,7566.61083984375,-637.372314453125,0.0,14235.9736328125
-3213.88232421875,-8709.4306640625,8009.2744140625,11480.6494140625,16426.244140625,17206.66796875,14761.2890625,14455.318359375,14228.0263671875,10787.646484375,18754.80078125,0.0,13674.8955078125,0.0,13824.3037109375,17719.26953125,28374.990234375,13939.5400390625,9762.4462890625,7656.41552734375,5825.36083984375,16352.3349609375,14522.8701171875,11241.435546875,0.0,3333.091796875,7961.5908203125,6190.935546875,696.1822509765625,-7726.35107421875,14616.6484375,5046.5263671875,10657.310546875,17196.3359375,10885.3974609375,17290.115234375,7838.40869140625,11541.84375,6166.29931640625,-0.0,7078.6474609375,14174.779296875,8539.359375,11831.1240234375,20850.5,8409.8173828125,-1734.8924560546875,9311.8349609375,7445.81201171875,27114.548828125,7642.90478515625,14198.62109375,-4927.3173828125,-8176.16748046875,9187.0625,5098.18408203125,9938.0810546875,7194.677734375,7125.53662109375,7526.87451171875,4367.828125,10741.5517578125,9872.119140625,9039.2431640625,-12888.908203125,-0.0,0.0,11332.8291015625,7553.1005859375,-653.2669067382812,0.0,14225.642578125
-3204.345703125,-8739.630859375,8002.1220703125,11478.2646484375,16423.06640625,17190.775390625,14755.7255859375,14445.78125,14218.4892578125,10770.95703125,18756.388671875,0.0,13667.7431640625,0.0,13829.072265625,17713.705078125,28369.42578125,13931.591796875,9754.498046875,7642.1103515625,5819.00244140625,16344.388671875,14515.7177734375,11229.5146484375,0.0,3300.5078125,7960.001953125,6170.27294921875,691.4138793945312,-7695.35693359375,14607.90625,5037.78466796875,10653.3369140625,17190.775390625,10882.21875,17278.1953125,7832.05029296875,11530.716796875,6179.0146484375,-0.0,7074.67431640625,14163.6533203125,8533.0009765625,11816.8193359375,20844.140625,8398.6923828125,-1712.64013671875,9308.6552734375,7442.63330078125,27078.787109375,7641.3154296875,14189.8798828125,-4896.32275390625,-8219.0830078125,9183.8837890625,5074.34228515625,9932.517578125,7170.8359375,7122.35791015625,7515.74853515625,4358.29150390625,10730.42578125,9861.787109375,9015.4013671875,-12903.2138671875,-0.0,0.0,11332.8291015625,7547.537109375,-668.3667602539062,0.0,14213.7216796875
-3229.777099609375,-8713.404296875,8006.095703125,11483.033203125,16423.861328125,17201.10546875,14758.1103515625,14456.11328125,14220.078125,10778.109375,18745.263671875,0.0,13659.794921875,0.0,13833.0458984375,17733.57421875,28370.22265625,13932.3876953125,9760.0625,7648.4677734375,5820.59228515625,16349.951171875,14518.8974609375,11235.873046875,0.0,3278.25537109375,7960.001953125,6187.7568359375,696.9769897460938,-7688.2041015625,14611.0849609375,5031.4267578125,10652.5419921875,17193.158203125,10883.013671875,17283.7578125,7838.40869140625,11537.869140625,6162.3251953125,-0.0,7073.87939453125,14173.984375,8533.794921875,11826.35546875,20848.115234375,8406.638671875,-1712.64013671875,9313.423828125,7441.0439453125,27089.9140625,7643.69970703125,14205.7734375,-4910.6279296875,-8215.109375,9175.9365234375,5090.23681640625,9934.107421875,7186.73095703125,7127.92041015625,7526.07958984375,4384.517578125,10729.630859375,9866.5556640625,9022.5537109375,-12906.392578125,-0.0,0.0,11339.982421875,7544.35888671875,-657.2405395507812,0.0,14215.310546875
-3263.950439453125,-8738.8349609375,7992.5849609375,11478.2646484375,16419.88671875,17203.490234375,14758.904296875,14457.703125,14231.205078125,10778.904296875,18724.599609375,0.0,13660.58984375,0.0,13822.71484375,17727.216796875,28367.837890625,13932.3876953125,9762.4462890625,7653.236328125,5816.61865234375,16348.3623046875,14518.1015625,11236.66796875,0.0,3286.99755859375,7956.02783203125,6194.11474609375,703.3348388671875,-7708.07275390625,14610.291015625,5029.8369140625,10645.3896484375,17189.18359375,10880.6298828125,17285.34765625,7840.79248046875,11538.6650390625,6164.70947265625,-0.0,7065.931640625,14175.57421875,8532.2060546875,11830.330078125,20854.47265625,8405.8447265625,-1745.2239990234375,9310.2451171875,7435.48046875,27096.271484375,7642.1103515625,14205.7734375,-4916.19091796875,-8207.95703125,9171.962890625,5070.3681640625,9934.90234375,7193.88330078125,7146.19970703125,7521.3115234375,4382.13330078125,10725.6572265625,9874.5029296875,9033.6796875,-12904.0078125,-0.0,0.0,11332.8291015625,7565.81640625,-677.1087646484375,0.0,14197.0322265625
-3261.566162109375,-8722.146484375,7990.201171875,11461.5751953125,16419.88671875,17192.36328125,14760.494140625,14451.3447265625,14232.794921875,10770.95703125,18727.779296875,0.0,13663.7685546875,0.0,13827.4833984375,17713.705078125,28363.0703125,13930.0029296875,9760.8564453125,7650.85205078125,5813.43994140625,16336.44140625,14518.8974609375,11233.4892578125,0.0,3302.89208984375,7959.20654296875,6186.9619140625,704.9242553710938,-7709.662109375,14606.31640625,5031.4267578125,10643.005859375,17184.416015625,10877.4501953125,17278.990234375,7841.5869140625,11537.869140625,6176.63037109375,-0.0,7064.34228515625,14158.08984375,8533.794921875,11823.177734375,20852.884765625,8401.87109375,-1757.939697265625,9291.171875,7436.275390625,27090.70703125,7646.87890625,14194.6474609375,-4904.27001953125,-8179.34716796875,9178.3212890625,5091.03173828125,9938.0810546875,7190.7041015625,7150.17333984375,7512.5693359375,4397.2333984375,10720.09375,9872.9130859375,9032.8857421875,-12888.908203125,-0.0,0.0,11327.2666015625,7578.53173828125,-692.2086181640625,0.0,14181.931640625
-3252.029296875,-8699.099609375,7996.55908203125,11471.1123046875,16423.06640625,17198.720703125,14760.494140625,14455.318359375,14222.462890625,10767.77734375,18746.056640625,0.0,13666.1533203125,0.0,13831.4560546875,17722.44921875,28368.630859375,13933.181640625,9763.2412109375,7642.90478515625,5818.2080078125,16342.7978515625,14524.4599609375,11236.66796875,0.0,3315.607666015625,7962.38623046875,6194.11474609375,704.1295166015625,-7704.8935546875,14611.8798828125,5036.1953125,10648.568359375,17187.595703125,10879.833984375,17283.7578125,7842.38134765625,11539.458984375,6170.27294921875,-0.0,7069.11083984375,14161.26953125,8535.384765625,11827.9453125,20852.884765625,8401.076171875,-1767.4764404296875,9303.0927734375,7444.22314453125,27097.06640625,7647.67333984375,14200.2109375,-4885.19677734375,-8157.09423828125,9192.6259765625,5112.4892578125,9938.0810546875,7190.7041015625,7138.25244140625,7512.5693359375,4389.2861328125,10726.4521484375,9869.734375,9017.78515625,-12868.2451171875,-0.0,0.0,11320.1142578125,7565.021484375,-684.2613525390625,0.0,14196.236328125
-3249.645263671875,-8697.509765625,8002.91748046875,11483.033203125,16425.451171875,17211.4375,14762.083984375,14463.265625,14216.8994140625,10768.5732421875,18759.568359375,0.0,13669.33203125,0.0,13837.01953125,17740.7265625,28374.990234375,13939.5400390625,9766.4189453125,7641.3154296875,5823.77099609375,16352.3349609375,14527.638671875,11243.8203125,0.0,3319.581298828125,7963.97509765625,6206.83056640625,705.718994140625,-7709.662109375,14618.2373046875,5042.552734375,10657.310546875,17199.515625,10884.6025390625,17292.5,7843.1767578125,11544.2275390625,6163.9150390625,-0.0,7076.263671875,14175.57421875,8539.359375,11838.27734375,20852.08984375,8405.0498046875,-1722.9715576171875,9315.80859375,7446.60693359375,27108.98828125,7648.4677734375,14211.3369140625,-4881.22314453125,-8172.1943359375,9192.6259765625,5105.33642578125,9939.6708984375,7197.06201171875,7133.48388671875,7514.95361328125,4390.87548828125,10728.8359375,9869.734375,9018.580078125,-12872.21875,-0.0,0.0,11324.8828125,7552.3056640625,-681.0823974609375,0.0,14208.953125
-3222.62451171875,-8681.615234375,8006.89013671875,11491.775390625,16429.423828125,17217.0,14766.8525390625,14468.8291015625,14220.078125,10784.466796875,18762.74609375,0.0,13677.279296875,0.0,13842.5830078125,17750.263671875,28378.962890625,13942.71875,9768.8037109375,7647.67333984375,5826.9501953125,16355.5146484375,14528.43359375,11247.7939453125,0.0,3299.713134765625,7970.3330078125,6212.39306640625,715.2557373046875,-7713.6357421875,14621.4169921875,5048.1162109375,10658.900390625,17204.28515625,10887.7822265625,17294.8828125,7846.35546875,11548.99609375,6175.8359375,-0.0,7080.23681640625,14179.546875,8542.5380859375,11843.8408203125,20854.47265625,8412.9970703125,-1692.77197265625,9326.140625,7448.1962890625,27112.166015625,7652.44140625,14218.4892578125,-4887.5810546875,-8152.32568359375,9192.6259765625,5100.568359375,9949.20703125,7207.3935546875,7134.27880859375,7526.07958984375,4403.59130859375,10728.0419921875,9874.5029296875,9029.7060546875,-12878.5771484375,-0.0,0.0,11347.134765625,7549.92138671875,-658.0352783203125,0.0,14225.642578125
-3191.630126953125,-8683.9990234375,8020.40087890625,11484.623046875,16439.755859375,17227.33203125,14779.5673828125,14475.9814453125,14231.205078125,10800.361328125,18766.72265625,0.0,13690.7890625,0.0,13848.1455078125,17744.69921875,28387.705078125,13953.0498046875,9779.1357421875,7660.38916015625,5837.28173828125,16365.8466796875,14539.5595703125,11257.3310546875,0.0,3307.660400390625,7980.6640625,6211.5986328125,730.3555908203125,-7697.7412109375,14628.5693359375,5050.50048828125,10669.2314453125,17209.052734375,10896.5234375,17303.625,7856.6865234375,11557.73828125,6188.55126953125,-0.0,7092.95263671875,14187.4951171875,8552.07421875,11850.9931640625,20866.39453125,8423.328125,-1683.235107421875,9316.603515625,7459.322265625,27119.318359375,7664.3623046875,14220.078125,-4883.607421875,-8172.98876953125,9204.546875,5077.52099609375,9963.5126953125,7194.677734375,7153.35205078125,7535.6162109375,4380.5439453125,10735.98828125,9885.62890625,9047.1904296875,-12859.50390625,-0.0,0.0,11346.33984375,7557.869140625,-643.7301635742188,0.0,14245.509765625
-3188.451171875,-8689.5625,8020.40087890625,11475.0859375,16442.140625,17217.0,14782.74609375,14477.5703125,14235.9736328125,10801.15625,18768.310546875,0.0,13693.173828125,0.0,13852.9140625,17741.521484375,28384.52734375,13952.2548828125,9783.1083984375,7665.9521484375,5838.87109375,16359.4873046875,14542.7392578125,11254.9462890625,0.0,3318.78662109375,7983.84375,6212.39306640625,731.1503295898438,-7692.97265625,14627.7744140625,5036.98974609375,10670.025390625,17205.080078125,10899.703125,17300.447265625,7859.8662109375,11557.73828125,6184.578125,-0.0,7094.5419921875,14178.7529296875,8555.2529296875,11847.01953125,20871.162109375,8423.328125,-1700.71923828125,9305.4775390625,7462.50146484375,27105.80859375,7670.720703125,14216.8994140625,-4875.66015625,-8193.65234375,9210.109375,5064.8056640625,9961.1279296875,7201.0361328125,7163.68359375,7540.384765625,4373.3916015625,10737.578125,9890.3974609375,9060.7001953125,-12853.1455078125,-0.0,0.0,11350.314453125,7574.55810546875,-648.49853515625,0.0,14244.7158203125
-3194.80908203125,-8710.2255859375,7994.1748046875,11478.2646484375,16423.06640625,17200.3125,14763.6728515625,14460.0869140625,14225.642578125,10782.8779296875,18753.2109375,0.0,13665.3583984375,0.0,13843.376953125,17725.626953125,28366.248046875,13932.3876953125,9766.4189453125,7652.44140625,5816.61865234375,16345.1826171875,14522.0751953125,11237.4619140625,0.0,3320.376220703125,7964.7705078125,6197.2939453125,695.3875122070312,-7718.404296875,14611.8798828125,5020.30029296875,10646.18359375,17189.98046875,10879.0400390625,17284.55078125,7843.97119140625,11541.048828125,6153.58349609375,-0.0,7071.4951171875,14169.2158203125,8538.5634765625,11829.53515625,20856.0625,8409.0234375,-1739.660888671875,9307.861328125,7441.8388671875,27100.244140625,7656.41552734375,14201.80078125,-4906.654296875,-8169.01513671875,9183.8837890625,5089.44189453125,9938.8759765625,7187.525390625,7148.583984375,7524.490234375,4362.26513671875,10720.09375,9876.091796875,9047.1904296875,-12884.9345703125,-0.0,0.0,11328.0615234375,7586.47900390625,-669.9561767578125,0.0,14221.66796875
-3217.061279296875,-8737.24609375,7979.86962890625,11457.6025390625,16408.76171875,17182.826171875,14750.1630859375,14443.3974609375,14217.6943359375,10764.5986328125,18754.80078125,0.0,13648.6689453125,0.0,13832.251953125,17708.142578125,28350.353515625,13919.6708984375,9752.1142578125,7638.93115234375,5800.72412109375,16329.2880859375,14506.9765625,11222.3623046875,0.0,3284.61328125,7952.849609375,6178.22021484375,674.724609375,-7720.78857421875,14594.3955078125,5009.17431640625,10629.4951171875,17173.291015625,10861.5556640625,17271.837890625,7828.87158203125,11526.744140625,6097.9521484375,-0.0,7057.18994140625,14150.9375,8522.669921875,11812.845703125,20841.755859375,8393.1279296875,-1743.634521484375,9288.7880859375,7425.94384765625,27077.994140625,7642.1103515625,14186.7001953125,-4943.2119140625,-8182.525390625,9166.400390625,5070.3681640625,9931.7236328125,7169.24658203125,7131.89453125,7507.80126953125,4360.67578125,10704.994140625,9860.1982421875,9024.1435546875,-12897.650390625,-0.0,0.0,11319.3193359375,7579.32666015625,-689.0296630859375,0.0,14191.4677734375
-3241.697998046875,-8737.24609375,7996.55908203125,11471.9072265625,16420.68359375,17203.490234375,14760.494140625,14461.6767578125,14231.9990234375,10763.0087890625,18757.978515625,0.0,13659.794921875,0.0,13833.8408203125,17735.958984375,28363.86328125,13935.56640625,9766.4189453125,7649.2626953125,5815.82421875,16345.9775390625,14520.486328125,11239.8466796875,0.0,3303.686767578125,7960.001953125,6199.677734375,691.4138793945312,-7705.6884765625,14609.49609375,5018.7109375,10643.7998046875,17188.390625,10876.6552734375,17286.142578125,7838.40869140625,11542.6376953125,6147.22607421875,-0.0,7067.521484375,14168.421875,8532.2060546875,11832.7138671875,20853.677734375,8405.0498046875,-1719.792724609375,9303.0927734375,7435.48046875,27100.244140625,7648.4677734375,14208.953125,-4930.49609375,-8189.67822265625,9170.373046875,5085.46826171875,9934.90234375,7187.525390625,7133.48388671875,7521.3115234375,4374.18603515625,10724.0673828125,9872.119140625,9032.8857421875,-12882.5498046875,-0.0,0.0,11328.8564453125,7584.09521484375,-684.2613525390625,0.0,14195.4423828125
-3232.9560546875,-8730.09375,8018.0166015625,11494.9541015625,16433.396484375,17228.126953125,14771.62109375,14487.107421875,14232.794921875,10765.3935546875,18772.283203125,0.0,13672.5107421875,0.0,13837.814453125,17774.10546875,28380.552734375,13955.43359375,9780.724609375,7647.67333984375,5836.48681640625,16367.435546875,14534.791015625,11260.509765625,0.0,3332.297119140625,7967.94873046875,6230.67236328125,709.692626953125,-7693.767578125,14628.5693359375,5032.22119140625,10662.873046875,17207.46484375,10892.55078125,17307.599609375,7851.1240234375,11560.9169921875,6195.7041015625,-0.0,7085.00537109375,14193.0576171875,8544.921875,11858.1455078125,20862.421875,8425.712890625,-1708.66650390625,9328.5244140625,7447.4013671875,27124.880859375,7654.82568359375,14243.919921875,-4883.607421875,-8218.2880859375,9190.2421875,5097.38916015625,9942.849609375,7209.77783203125,7130.3046875,7557.869140625,4391.67041015625,10744.73046875,9883.244140625,9014.6064453125,-12861.0927734375,-0.0,0.0,11355.876953125,7562.63720703125,-675.519287109375,0.0,14184.3154296875
-3219.445556640625,-8747.578125,8008.47998046875,11493.365234375,16432.603515625,17219.384765625,14771.62109375,14475.9814453125,14234.3837890625,10774.1357421875,18755.59375,0.0,13674.099609375,0.0,13845.76171875,17750.263671875,28375.783203125,13950.6650390625,9777.5458984375,7650.05712890625,5832.51318359375,16361.8720703125,14532.4072265625,11253.357421875,0.0,3317.991943359375,7972.71728515625,6220.3408203125,710.4873657226562,-7680.25732421875,14626.185546875,5025.86376953125,10656.515625,17203.490234375,10890.166015625,17302.037109375,7851.91845703125,11556.1484375,6190.935546875,-0.0,7080.23681640625,14185.111328125,8545.7158203125,11849.4033203125,20861.625,8416.970703125,-1746.018798828125,9328.5244140625,7447.4013671875,27115.345703125,7658.0048828125,14230.41015625,-4866.91796875,-8240.5400390625,9187.857421875,5091.826171875,9950.001953125,7203.419921875,7138.25244140625,7535.6162109375,4388.4912109375,10742.3466796875,9880.06640625,9029.7060546875,-12865.06640625,-0.0,0.0,11351.9033203125,7575.35302734375,-672.3403930664062,0.0,14192.263671875
-3199.577392578125,-8724.5302734375,8006.095703125,11502.90234375,16437.373046875,17220.177734375,14775.59375,14469.6240234375,14248.6884765625,10794.00390625,18753.2109375,0.0,13680.4580078125,0.0,13846.556640625,17727.216796875,28378.962890625,13953.8447265625,9779.1357421875,7669.130859375,5834.1025390625,16365.05078125,14535.5859375,11253.357421875,0.0,3319.581298828125,7977.48583984375,6211.5986328125,712.0768432617188,-7677.078125,14628.5693359375,5033.81103515625,10658.900390625,17208.2578125,10893.3447265625,17303.625,7854.30224609375,11556.943359375,6177.42529296875,-0.0,7082.62109375,14189.083984375,8549.6904296875,11847.01953125,20868.77734375,8417.765625,-1719.792724609375,9337.265625,7452.169921875,27120.11328125,7660.38916015625,14215.310546875,-4893.9384765625,-8175.373046875,9193.419921875,5108.51513671875,9954.7705078125,7198.65185546875,7154.146484375,7521.3115234375,4379.74951171875,10746.3193359375,9888.80859375,9062.2900390625,-12873.80859375,-0.0,0.0,11351.1083984375,7586.47900390625,-662.8036499023438,0.0,14224.8466796875
-3203.551025390625,-8695.919921875,8008.47998046875,11490.9814453125,16437.373046875,17224.154296875,14773.2099609375,14471.212890625,14237.5634765625,10795.59375,18760.36328125,0.0,13685.2265625,0.0,13837.01953125,17735.162109375,28377.375,13955.43359375,9779.1357421875,7662.77294921875,5831.71826171875,16362.6669921875,14536.380859375,11255.7412109375,0.0,3321.1708984375,7974.30712890625,6217.95654296875,713.666259765625,-7665.1572265625,14626.185546875,5033.81103515625,10658.900390625,17202.6953125,10894.9345703125,17303.625,7851.91845703125,11554.55859375,6164.70947265625,-0.0,7084.2109375,14187.4951171875,8546.51171875,11851.787109375,20862.421875,8417.765625,-1714.2296142578125,9321.3720703125,7453.759765625,27137.59765625,7657.2099609375,14210.5419921875,-4897.91259765625,-8200.009765625,9181.4990234375,5087.8525390625,9952.3857421875,7187.525390625,7146.994140625,7523.6953125,4382.13330078125,10749.4990234375,9884.833984375,9040.83203125,-12869.8349609375,-0.0,0.0,11360.6455078125,7567.40576171875,-657.2405395507812,0.0,14232.794921875
-3198.78271484375,-8685.5888671875,8020.40087890625,11488.5966796875,16441.345703125,17227.33203125,14767.646484375,14476.7763671875,14215.310546875,10781.2880859375,18778.642578125,0.0,13680.4580078125,0.0,13822.71484375,17758.2109375,28381.34765625,13957.818359375,9775.162109375,7646.87890625,5838.076171875,16365.8466796875,14534.791015625,11260.509765625,0.0,3325.939208984375,7967.94873046875,6226.6982421875,711.2821044921875,-7681.0517578125,14630.158203125,5044.93701171875,10666.052734375,17204.28515625,10898.9072265625,17306.8046875,7848.73974609375,11554.55859375,6171.06787109375,-0.0,7092.15771484375,14189.083984375,8546.51171875,11857.3505859375,20853.677734375,8415.3818359375,-1722.1768798828125,9318.98828125,7459.322265625,27137.59765625,7650.05712890625,14224.8466796875,-4883.607421875,-8216.6982421875,9180.705078125,5052.884765625,9943.64453125,7182.7568359375,7130.3046875,7525.28515625,4398.02783203125,10755.8564453125,9876.8876953125,9017.78515625,-12865.06640625,-0.0,0.0,11356.6708984375,7534.02734375,-662.0089111328125,0.0,14223.2578125
-3201.96142578125,-8710.2255859375,8022.78515625,11494.9541015625,16445.318359375,17229.71484375,14771.62109375,14481.544921875,14208.953125,10767.77734375,18772.283203125,0.0,13682.841796875,0.0,13831.4560546875,17780.462890625,28388.5,13961.7919921875,9777.5458984375,7640.5205078125,5842.8447265625,16370.615234375,14540.3544921875,11262.8935546875,0.0,3333.886474609375,7972.71728515625,6229.87744140625,713.666259765625,-7718.404296875,14633.337890625,5054.4736328125,10669.2314453125,17211.4375,10902.8818359375,17310.77734375,7851.91845703125,11558.533203125,6175.8359375,-0.0,7092.15771484375,14193.8525390625,8549.6904296875,11858.9404296875,20856.0625,8416.970703125,-1700.71923828125,9326.140625,7463.29638671875,27129.650390625,7654.82568359375,14241.5361328125,-4885.99169921875,-8201.599609375,9209.3154296875,5091.826171875,9946.8232421875,7217.72509765625,7129.51025390625,7540.384765625,4405.1806640625,10762.21484375,9877.681640625,9016.1962890625,-12861.8876953125,-0.0,0.0,11370.181640625,7522.90087890625,-657.2405395507812,0.0,14207.36328125
-3198.78271484375,-8716.5830078125,8030.73193359375,11506.875,16453.265625,17228.126953125,14784.3359375,14482.3388671875,14224.052734375,10767.77734375,18780.232421875,0.0,13671.7158203125,0.0,13857.6826171875,17774.900390625,28396.447265625,13967.3544921875,9784.6982421875,7646.87890625,5849.20263671875,16377.767578125,14548.3017578125,11265.2783203125,0.0,3346.602294921875,7986.22802734375,6222.72509765625,715.2557373046875,-7705.6884765625,14640.490234375,5062.42138671875,10676.3837890625,17219.384765625,10907.650390625,17315.546875,7859.8662109375,11562.5068359375,6189.34619140625,-0.0,7099.310546875,14201.0048828125,8560.021484375,11856.5556640625,20866.39453125,8421.73828125,-1681.645751953125,9338.0615234375,7471.2431640625,27112.166015625,7668.33642578125,14238.357421875,-4878.8388671875,-8150.73681640625,9211.69921875,5113.28369140625,9962.7177734375,7222.49365234375,7140.63623046875,7557.07421875,4398.02783203125,10766.9833984375,9884.0400390625,9024.9375,-12865.861328125,-0.0,0.0,11374.15625,7552.3056640625,-661.2141723632812,0.0,14194.6474609375
-3206.72998046875,-8695.1259765625,8026.75927734375,11506.0810546875,16448.498046875,17228.921875,14781.1572265625,14473.59765625,14220.8740234375,10757.4462890625,18778.642578125,0.0,13655.822265625,0.0,13857.6826171875,17750.263671875,28390.884765625,13963.3818359375,9777.5458984375,7639.72607421875,5845.228515625,16375.3837890625,14543.533203125,11261.3037109375,0.0,3351.37060546875,7986.22802734375,6212.39306640625,698.56640625,-7723.96728515625,14637.310546875,5056.06298828125,10669.2314453125,17215.41015625,10903.67578125,17313.162109375,7855.09765625,11557.73828125,6177.42529296875,-0.0,7099.310546875,14203.3896484375,8556.048828125,11853.376953125,20861.625,8415.3818359375,-1687.208740234375,9337.265625,7468.06494140625,27123.29296875,7665.9521484375,14227.2314453125,-4889.96484375,-8143.58447265625,9198.1884765625,5129.97314453125,9966.69140625,7196.267578125,7135.0732421875,7536.4111328125,4375.77587890625,10765.3935546875,9876.091796875,9018.580078125,-12901.6240234375,-0.0,0.0,11350.314453125,7553.8955078125,-677.9035034179688,0.0,14177.1630859375
-3232.161376953125,-8728.50390625,8012.4541015625,11479.060546875,16428.62890625,17202.6953125,14763.6728515625,14450.5498046875,14216.8994140625,10763.0087890625,18764.337890625,0.0,13678.07421875,0.0,13829.072265625,17705.759765625,28368.630859375,13942.71875,9762.4462890625,7639.72607421875,5826.1552734375,16348.3623046875,14526.84375,11240.6416015625,0.0,3277.460693359375,7967.154296875,6182.98876953125,699.3611450195312,-7702.50927734375,14615.853515625,5034.60546875,10650.9521484375,17191.568359375,10885.3974609375,17290.91015625,7839.9970703125,11539.458984375,6151.19921875,-0.0,7080.23681640625,14169.2158203125,8539.359375,11828.740234375,20850.5,8400.28125,-1718.9979248046875,9310.2451171875,7446.60693359375,27073.224609375,7645.2890625,14191.4677734375,-4914.6015625,-8200.009765625,9187.857421875,5096.59423828125,9934.90234375,7162.88916015625,7129.51025390625,7509.39013671875,4351.93408203125,10748.7041015625,9864.966796875,9020.96484375,-12903.2138671875,-0.0,0.0,11332.8291015625,7545.1533203125,-678.6982421875,0.0,14189.083984375
-3225.803466796875,-8691.1513671875,8006.095703125,11488.5966796875,16428.62890625,17220.974609375,14770.8251953125,14458.4970703125,14237.5634765625,10786.8505859375,18746.853515625,0.0,13680.4580078125,0.0,13828.27734375,17695.427734375,28374.990234375,13949.87109375,9771.1875,7660.38916015625,5825.36083984375,16361.078125,14530.0224609375,11250.1787109375,0.0,3280.6396484375,7970.3330078125,6204.4462890625,711.2821044921875,-7723.1728515625,14622.2119140625,5040.9638671875,10652.5419921875,17199.515625,10886.986328125,17302.037109375,7847.14990234375,11548.201171875,6179.0146484375,-0.0,7073.87939453125,14185.111328125,8541.7431640625,11841.4560546875,20861.625,8409.0234375,-1728.53466796875,9316.603515625,7442.63330078125,27080.376953125,7653.236328125,14187.4951171875,-4901.09130859375,-8196.8310546875,9188.65234375,5075.13671875,9929.33984375,7144.60986328125,7146.19970703125,7513.3642578125,4378.95458984375,10756.65234375,9879.271484375,9048.779296875,-12864.2724609375,-0.0,0.0,11324.8828125,7572.96875,-665.9825439453125,0.0,14219.2841796875
-3225.0087890625,-8671.2841796875,8009.2744140625,11461.5751953125,16433.396484375,17227.33203125,14773.2099609375,14471.212890625,14241.5361328125,10801.951171875,18754.005859375,0.0,13698.7373046875,0.0,13831.4560546875,17719.26953125,28374.990234375,13952.2548828125,9778.3408203125,7669.92578125,5828.53955078125,16361.078125,14533.99609375,11257.3310546875,0.0,3241.697998046875,7971.9228515625,6236.2353515625,717.639892578125,-7758.935546875,14623.80078125,5041.75830078125,10654.9267578125,17197.1328125,10893.3447265625,17306.8046875,7851.91845703125,11556.1484375,6184.578125,-0.0,7081.03173828125,14180.3427734375,8544.921875,11849.4033203125,20867.982421875,8420.1494140625,-1737.2767333984375,9292.76171875,7452.169921875,27098.65625,7658.0048828125,14206.568359375,-4887.5810546875,-8208.751953125,9194.21484375,5080.69970703125,9942.849609375,7128.71533203125,7151.7626953125,7525.28515625,4394.84912109375,10760.625,9887.21875,9061.49609375,-12857.119140625,-0.0,0.0,11331.240234375,7579.32666015625,-655.651123046875,0.0,14236.767578125
-3245.671630859375,-8686.3828125,8019.6064453125,11459.19140625,16435.78125,17213.822265625,14774.0048828125,14471.212890625,14242.3310546875,10814.6669921875,18777.84765625,0.0,13705.0947265625,0.0,13837.814453125,17738.341796875,28377.375,13953.0498046875,9779.9296875,7677.078125,5831.71826171875,16354.71875,14534.791015625,11254.9462890625,0.0,3283.818603515625,7968.7431640625,6210.00927734375,720.81884765625,-7724.76171875,14622.2119140625,5045.73193359375,10659.6943359375,17196.3359375,10894.1396484375,17300.447265625,7852.71337890625,11556.943359375,6161.53076171875,-0.0,7087.3896484375,14170.0107421875,8545.7158203125,11845.4296875,20867.982421875,8427.302734375,-1737.2767333984375,9290.3779296875,7460.912109375,27085.939453125,7655.62060546875,14212.92578125,-4875.66015625,-8185.7041015625,9200.5732421875,5032.22119140625,9948.4130859375,7166.0673828125,7147.7890625,7538.79541015625,4396.4384765625,10759.0361328125,9888.0126953125,9070.2373046875,-12857.119140625,-0.0,0.0,11357.466796875,7577.7373046875,-644.52490234375,0.0,14243.1259765625
-3231.366455078125,-8707.8408203125,8013.24853515625,11473.49609375,16433.396484375,17188.390625,14772.4150390625,14460.880859375,14240.7421875,10817.05078125,18767.515625,0.0,13693.96875,0.0,13842.5830078125,17738.341796875,28377.375,13946.6923828125,9776.751953125,7678.66748046875,5828.53955078125,16349.1572265625,14533.99609375,11243.8203125,0.0,3333.091796875,7969.53857421875,6171.8623046875,720.81884765625,-7685.02587890625,14619.033203125,5048.91064453125,10658.900390625,17196.3359375,10889.37109375,17290.115234375,7850.32958984375,11548.99609375,6179.8095703125,-0.0,7082.62109375,14164.4482421875,8543.33203125,11826.35546875,20867.189453125,8424.91796875,-1707.0770263671875,9303.8876953125,7456.14404296875,27113.755859375,7655.62060546875,14205.7734375,-4888.3759765625,-8169.01513671875,9195.8046875,5112.4892578125,9950.796875,7238.38818359375,7144.60986328125,7541.1796875,4381.33837890625,10749.4990234375,9885.62890625,9067.8525390625,-12854.7353515625,-0.0,0.0,11378.9248046875,7567.40576171875,-627.0408935546875,0.0,14255.046875
-3198.78271484375,-8696.7158203125,8018.0166015625,11471.1123046875,16442.140625,17216.205078125,14777.9775390625,14474.3916015625,14243.919921875,10818.640625,18765.92578125,0.0,13691.5849609375,0.0,13840.9931640625,17745.494140625,28382.935546875,13955.43359375,9783.904296875,7677.873046875,5836.48681640625,16362.6669921875,14538.7646484375,11256.53515625,0.0,3294.94482421875,7976.69140625,6202.8564453125,716.0504760742188,-7676.283203125,14627.7744140625,5052.08984375,10666.052734375,17202.6953125,10897.318359375,17305.216796875,7857.48193359375,11559.3271484375,6207.625,-0.0,7091.36328125,14181.13671875,8548.8955078125,11845.4296875,20871.162109375,8432.865234375,-1693.566650390625,9303.0927734375,7462.50146484375,27120.11328125,7658.7998046875,14216.10546875,-4889.96484375,-8176.16748046875,9203.751953125,5106.130859375,9953.9755859375,7229.64599609375,7150.17333984375,7551.51123046875,4374.98095703125,10754.267578125,9891.1923828125,9060.7001953125,-12854.7353515625,-0.0,0.0,11382.1025390625,7566.61083984375,-619.8883056640625,0.0,14259.8154296875
-3216.2666015625,-8700.6884765625,8012.4541015625,11474.2919921875,16438.166015625,17219.384765625,14777.18359375,14479.16015625,14243.919921875,10811.48828125,18745.263671875,0.0,13689.9951171875,0.0,13837.814453125,17752.646484375,28376.580078125,13953.8447265625,9782.314453125,7674.69384765625,5831.71826171875,16362.6669921875,14536.380859375,11258.125,0.0,3310.83935546875,7973.51171875,6211.5986328125,715.2557373046875,-7688.2041015625,14626.185546875,5042.552734375,10658.900390625,17201.900390625,10893.3447265625,17305.216796875,7856.6865234375,11560.1220703125,6179.8095703125,-0.0,7086.59521484375,14186.7001953125,8544.921875,11849.4033203125,20871.95703125,8432.0703125,-1716.61376953125,9306.271484375,7460.912109375,27126.470703125,7658.7998046875,14221.66796875,-4890.759765625,-8188.8837890625,9203.751953125,5114.07861328125,9953.181640625,7223.2880859375,7151.7626953125,7551.51123046875,4394.05419921875,10751.087890625,9890.3974609375,9058.31640625,-12853.9404296875,-0.0,0.0,11369.3876953125,7572.173828125,-637.372314453125,0.0,14250.2783203125
-3221.82958984375,-8676.0517578125,8007.685546875,11467.93359375,16429.423828125,17201.900390625,14768.44140625,14463.265625,14226.4365234375,10782.0830078125,18746.853515625,0.0,13683.63671875,0.0,13830.662109375,17736.75390625,28370.22265625,13941.923828125,9770.3935546875,7649.2626953125,5826.9501953125,16350.74609375,14526.84375,11245.41015625,0.0,3304.4814453125,7963.97509765625,6199.677734375,727.1766357421875,-7685.8203125,14618.2373046875,5037.78466796875,10654.1318359375,17194.748046875,10885.3974609375,17290.91015625,7846.35546875,11548.201171875,6133.71533203125,-0.0,7081.82666015625,14167.6259765625,8536.974609375,11835.0986328125,20859.2421875,8414.5859375,-1732.50830078125,9300.708984375,7448.9912109375,27105.80859375,7651.64697265625,14208.953125,-4905.859375,-8180.1416015625,9195.009765625,5091.03173828125,9946.8232421875,7205.80419921875,7140.63623046875,7529.2587890625,4394.84912109375,10738.373046875,9874.5029296875,9018.580078125,-12849.966796875,-0.0,0.0,11350.314453125,7560.2529296875,-662.8036499023438,0.0,14212.1318359375
-3219.445556640625,-8679.23046875,8003.7119140625,11463.1650390625,16423.861328125,17197.1328125,14757.3154296875,14447.37109375,14208.1572265625,10754.267578125,18765.130859375,0.0,13688.4052734375,0.0,13821.919921875,17720.857421875,28366.248046875,13934.771484375,9760.0625,7626.21533203125,5822.181640625,16344.388671875,14518.1015625,11235.078125,0.0,3307.660400390625,7959.20654296875,6191.73046875,720.0241088867188,-7688.9990234375,14612.6748046875,5033.81103515625,10649.36328125,17188.390625,10881.423828125,17283.7578125,7834.4345703125,11537.869140625,6164.70947265625,-0.0,7077.05810546875,14158.08984375,8529.822265625,11827.1513671875,20844.935546875,8393.923828125,-1727.739990234375,9295.1455078125,7443.42822265625,27098.65625,7642.1103515625,14193.0576171875,-4914.6015625,-8179.34716796875,9192.6259765625,5081.49462890625,9935.6962890625,7182.7568359375,7125.53662109375,7502.23779296875,4389.2861328125,10729.630859375,9858.6083984375,8995.533203125,-12861.8876953125,-0.0,0.0,11323.29296875,7536.4111328125,-689.8244018554688,0.0,14176.369140625
-3225.0087890625,-8711.814453125,8004.50634765625,11458.396484375,16423.861328125,17190.775390625,14758.1103515625,14449.755859375,14221.66796875,10751.8837890625,18765.130859375,0.0,13676.484375,0.0,13826.6875,17728.009765625,28364.658203125,13933.181640625,9761.6513671875,7634.9580078125,5822.181640625,16339.6201171875,14519.69140625,11231.8994140625,0.0,3303.686767578125,7960.001953125,6194.90966796875,705.718994140625,-7704.09912109375,14610.291015625,5028.248046875,10649.36328125,17183.623046875,10879.833984375,17280.578125,7837.61328125,11537.0751953125,6185.373046875,-0.0,7077.05810546875,14149.3486328125,8529.02734375,11827.1513671875,20848.91015625,8395.5126953125,-1711.0506591796875,9288.7880859375,7445.017578125,27098.65625,7642.90478515625,14196.236328125,-4900.296875,-8193.65234375,9194.21484375,5081.49462890625,9930.1337890625,7171.630859375,7133.48388671875,7492.701171875,4378.95458984375,10727.24609375,9861.787109375,9019.375,-12877.7822265625,-0.0,0.0,11305.0146484375,7555.48486328125,-708.1031494140625,0.0,14170.0107421875
-3217.061279296875,-8729.298828125,8018.81103515625,11473.49609375,16433.396484375,17213.025390625,14772.4150390625,14472.0078125,14238.357421875,10775.7255859375,18776.2578125,0.0,13678.07421875,0.0,13841.7880859375,17751.8515625,28376.580078125,13947.4873046875,9777.5458984375,7654.82568359375,5834.1025390625,16355.5146484375,14531.6123046875,11250.97265625,0.0,3317.991943359375,7971.12744140625,6221.1357421875,711.2821044921875,-7731.11962890625,14620.6220703125,5038.57958984375,10660.4892578125,17197.1328125,10890.166015625,17298.0625,7851.91845703125,11552.9697265625,6182.98876953125,-0.0,7090.568359375,14171.6005859375,8540.9482421875,11848.609375,20866.39453125,8418.5595703125,-1691.1824951171875,9304.6826171875,7455.34912109375,27123.29296875,7656.41552734375,14223.2578125,-4871.6865234375,-8184.90966796875,9198.1884765625,5086.26318359375,9946.8232421875,7185.93603515625,7149.37841796875,7521.3115234375,4382.13330078125,10740.7568359375,9880.06640625,9044.806640625,-12871.4248046875,-0.0,0.0,11320.1142578125,7576.9423828125,-683.4666137695312,0.0,14202.5947265625
-3214.677001953125,-8734.0673828125,8014.04296875,11487.8017578125,16432.603515625,17210.642578125,14774.0048828125,14467.2392578125,14228.0263671875,10779.6982421875,18772.283203125,0.0,13686.81640625,0.0,13849.7353515625,17743.90625,28376.580078125,13945.8974609375,9774.3671875,7648.4677734375,5831.71826171875,16355.5146484375,14532.4072265625,11247.7939453125,0.0,3300.5078125,7972.71728515625,6202.8564453125,722.4083251953125,-7730.3251953125,14619.8271484375,5039.3740234375,10657.310546875,17198.720703125,10888.576171875,17295.6796875,7851.1240234375,11549.7900390625,6167.888671875,-0.0,7086.59521484375,14175.57421875,8542.5380859375,11842.2509765625,20862.421875,8417.765625,-1723.766357421875,9317.3984375,7458.52783203125,27105.80859375,7661.97802734375,14219.2841796875,-4871.6865234375,-8208.751953125,9203.751953125,5091.03173828125,9956.359375,7181.96240234375,7151.7626953125,7530.0537109375,4383.72265625,10732.8095703125,9876.091796875,9028.9111328125,-12861.0927734375,-0.0,0.0,11332.8291015625,7561.0478515625,-670.7509155273438,0.0,14204.1845703125
-3205.140380859375,-8710.2255859375,8019.6064453125,11483.828125,16440.55078125,17209.052734375,14779.5673828125,14464.85546875,14229.615234375,10790.8251953125,18761.953125,0.0,13702.7099609375,0.0,13859.2724609375,17721.65234375,28382.935546875,13949.076171875,9778.3408203125,7654.82568359375,5836.48681640625,16359.4873046875,14538.7646484375,11249.3828125,0.0,3297.328857421875,7981.45947265625,6188.55126953125,734.3292236328125,-7717.609375,14623.005859375,5048.1162109375,10662.873046875,17203.490234375,10893.3447265625,17298.857421875,7856.6865234375,11552.9697265625,6169.47802734375,-0.0,7092.15771484375,14177.1630859375,8549.6904296875,11837.482421875,20867.982421875,8417.765625,-1717.4085693359375,9315.013671875,7466.47509765625,27089.9140625,7670.720703125,14205.7734375,-4877.2490234375,-8238.15625,9224.4150390625,5079.9052734375,9969.8701171875,7180.37255859375,7158.12060546875,7533.232421875,4394.84912109375,10734.3984375,9880.8603515625,9039.2431640625,-12840.4306640625,-0.0,0.0,11351.9033203125,7553.8955078125,-650.0880126953125,0.0,14226.4365234375
-3214.677001953125,-8704.662109375,8016.42724609375,11483.828125,16438.9609375,17213.822265625,14777.18359375,14466.4453125,14224.8466796875,10794.00390625,18765.130859375,0.0,13683.63671875,0.0,13854.50390625,17724.83203125,28379.759765625,13949.87109375,9775.162109375,7652.44140625,5834.1025390625,16358.6943359375,14537.1748046875,11251.767578125,0.0,3316.40234375,7977.48583984375,6206.03564453125,724.79248046875,-7754.96142578125,14622.2119140625,5042.552734375,10662.0791015625,17200.3125,10890.9609375,17298.857421875,7852.71337890625,11552.1748046875,6174.24609375,-0.0,7092.95263671875,14179.546875,8546.51171875,11842.2509765625,20864.8046875,8419.3544921875,-1711.0506591796875,9313.423828125,7464.0908203125,27111.37109375,7666.74658203125,14206.568359375,-4886.7861328125,-8198.4208984375,9207.7255859375,5076.7265625,9965.1025390625,7200.2412109375,7147.7890625,7536.4111328125,4380.5439453125,10732.0146484375,9879.271484375,9033.6796875,-12853.1455078125,-0.0,0.0,11361.439453125,7553.8955078125,-644.52490234375,0.0,14231.9990234375
-3231.366455078125,-8742.8095703125,8013.24853515625,11490.185546875,16435.78125,17212.232421875,14771.62109375,14457.703125,14219.2841796875,10780.494140625,18781.02734375,0.0,13669.33203125,0.0,13848.1455078125,17716.884765625,28374.1953125,13945.1025390625,9768.8037109375,7641.3154296875,5830.92333984375,16357.8984375,14530.818359375,11246.9990234375,0.0,3329.912841796875,7971.12744140625,6202.8564453125,710.4873657226562,-7754.1669921875,14620.6220703125,5036.1953125,10654.1318359375,17198.720703125,10887.7822265625,17297.267578125,7847.14990234375,11545.8173828125,6183.783203125,-0.0,7090.568359375,14181.931640625,8540.1533203125,11838.27734375,20856.0625,8410.61328125,-1700.71923828125,9321.3720703125,7459.322265625,27130.4453125,7658.7998046875,14196.236328125,-4897.91259765625,-8194.4462890625,9176.7314453125,5082.2890625,9958.744140625,7187.525390625,7131.89453125,7523.6953125,4380.5439453125,10725.6572265625,9872.9130859375,9022.5537109375,-12877.7822265625,-0.0,0.0,11337.59765625,7555.48486328125,-665.9825439453125,0.0,14213.7216796875
-3234.54541015625,-8761.8828125,8000.533203125,11479.8544921875,16423.861328125,17198.720703125,14766.056640625,14450.5498046875,14229.615234375,10779.6982421875,18779.435546875,0.0,13668.537109375,0.0,13840.9931640625,17712.912109375,28365.453125,13935.56640625,9764.03515625,7646.083984375,5822.9765625,16348.3623046875,14524.4599609375,11236.66796875,0.0,3313.2236328125,7967.154296875,6185.373046875,708.8978881835938,-7705.6884765625,14612.6748046875,5026.65869140625,10645.3896484375,17190.775390625,10878.2451171875,17288.52734375,7843.97119140625,11539.458984375,6168.68359375,-0.0,7077.05810546875,14171.6005859375,8533.794921875,11825.5615234375,20855.267578125,8405.0498046875,-1710.2559814453125,9312.6298828125,7449.78564453125,27093.88671875,7651.64697265625,14189.083984375,-4920.16455078125,-8221.466796875,9175.9365234375,5087.8525390625,9945.2333984375,7166.8623046875,7131.099609375,7518.92724609375,4366.2392578125,10717.7099609375,9871.3232421875,9035.26953125,-12865.06640625,-0.0,0.0,11320.908203125,7573.76318359375,-674.724609375,0.0,14208.953125
-3227.392822265625,-8712.609375,7993.38037109375,11452.833984375,16415.119140625,17183.623046875,14758.904296875,14447.37109375,14235.9736328125,10781.2880859375,18765.130859375,0.0,13663.7685546875,0.0,13828.27734375,17715.294921875,28356.7109375,13926.029296875,9760.8564453125,7650.05712890625,5813.43994140625,16335.6455078125,14518.1015625,11227.92578125,0.0,3279.844970703125,7955.2333984375,6179.8095703125,695.3875122070312,-7698.5361328125,14599.958984375,5021.89013671875,10636.6474609375,17177.263671875,10870.2978515625,17275.015625,7839.9970703125,11534.6904296875,6149.60986328125,-0.0,7067.521484375,14150.9375,8526.642578125,11817.6142578125,20852.08984375,8404.2548828125,-1728.53466796875,9284.01953125,7438.65966796875,27068.45703125,7642.1103515625,14189.083984375,-4920.16455078125,-8252.4619140625,9180.705078125,5071.9580078125,9930.9287109375,7170.04150390625,7141.43115234375,7517.337890625,4352.728515625,10712.94140625,9870.529296875,9040.0380859375,-12870.62890625,-0.0,0.0,11324.8828125,7583.30029296875,-678.6982421875,0.0,14205.7734375
-3201.166748046875,-8672.873046875,8008.47998046875,11463.9599609375,16424.65625,17201.10546875,14759.7001953125,14454.5244140625,14223.2578125,10771.7509765625,18777.84765625,0.0,13666.947265625,0.0,13825.8935546875,17721.65234375,28368.630859375,13937.1552734375,9764.03515625,7637.341796875,5824.56591796875,16345.9775390625,14523.6650390625,11238.2578125,0.0,3295.739501953125,7956.02783203125,6198.8828125,711.2821044921875,-7706.4833984375,14611.0849609375,5034.60546875,10647.7734375,17189.98046875,10879.0400390625,17286.142578125,7839.9970703125,11539.458984375,6163.1201171875,-0.0,7079.4423828125,14163.6533203125,8529.02734375,11831.919921875,20849.705078125,8403.4609375,-1719.792724609375,9294.3505859375,7448.1962890625,27097.06640625,7640.5205078125,14200.2109375,-4882.8125,-8228.619140625,9184.677734375,5074.34228515625,9930.9287109375,7181.96240234375,7137.45751953125,7521.3115234375,4364.6494140625,10725.6572265625,9868.14453125,9009.0439453125,-12869.0400390625,-0.0,0.0,11333.625,7553.1005859375,-679.492919921875,0.0,14198.62109375
-3198.78271484375,-8700.6884765625,8011.65869140625,11468.728515625,16429.423828125,17203.490234375,14758.1103515625,14456.908203125,14205.7734375,10760.625,18772.283203125,0.0,13671.7158203125,0.0,13822.71484375,17731.189453125,28372.60546875,13940.333984375,9762.4462890625,7623.03662109375,5826.9501953125,16348.3623046875,14522.0751953125,11241.435546875,0.0,3295.739501953125,7957.61767578125,6206.03564453125,727.1766357421875,-7687.40966796875,14614.2646484375,5036.98974609375,10652.5419921875,17192.36328125,10881.423828125,17290.115234375,7838.40869140625,11538.6650390625,6170.27294921875,-0.0,7084.2109375,14166.037109375,8528.232421875,11832.7138671875,20842.552734375,8399.486328125,-1702.30859375,9299.119140625,7457.7333984375,27091.50390625,7636.546875,14204.1845703125,-4882.017578125,-8184.90966796875,9185.4736328125,5083.083984375,9933.3125,7183.5517578125,7120.76806640625,7518.1328125,4375.77587890625,10731.220703125,9860.9921875,8991.55859375,-12868.2451171875,-0.0,0.0,11336.0087890625,7524.490234375,-676.3140258789062,0.0,14195.4423828125
-3198.78271484375,-8711.814453125,8014.83837890625,11480.6494140625,16432.603515625,17209.84765625,14761.2890625,14456.908203125,14211.3369140625,10759.0361328125,18784.205078125,0.0,13678.07421875,0.0,13829.8671875,17728.009765625,28372.60546875,13941.12890625,9764.03515625,7628.599609375,5829.33447265625,16353.92578125,14523.6650390625,11243.025390625,0.0,3318.78662109375,7960.001953125,6198.8828125,723.9977416992188,-7703.30419921875,14615.05859375,5035.400390625,10654.9267578125,17193.953125,10881.423828125,17293.294921875,7839.9970703125,11538.6650390625,6165.50439453125,-0.0,7088.1845703125,14177.9580078125,8529.822265625,11835.892578125,20846.525390625,8397.896484375,-1688.79833984375,9312.6298828125,7459.322265625,27111.37109375,7640.5205078125,14203.3896484375,-4902.6806640625,-8184.115234375,9198.9833984375,5036.1953125,9938.8759765625,7189.115234375,7127.1259765625,7511.7744140625,4375.77587890625,10735.1943359375,9862.58203125,9008.248046875,-12861.8876953125,-0.0,0.0,11325.6767578125,7538.79541015625,-685.0560302734375,0.0,14183.521484375
-3217.856201171875,-8697.509765625,8013.24853515625,11495.7490234375,16427.8359375,17233.689453125,14762.87890625,14460.880859375,14212.1318359375,10761.419921875,18773.875,0.0,13665.3583984375,0.0,13831.4560546875,17725.626953125,28377.375,13947.4873046875,9766.4189453125,7631.77880859375,5828.53955078125,16367.435546875,14526.0498046875,11252.5625,0.0,3370.444091796875,7961.5908203125,6210.00927734375,729.5608520507812,-7750.193359375,14619.8271484375,5038.57958984375,10654.1318359375,17201.10546875,10883.80859375,17305.216796875,7839.9970703125,11543.43359375,6162.3251953125,-0.0,7084.2109375,14203.3896484375,8528.232421875,11849.4033203125,20850.5,8401.076171875,-1720.58740234375,9327.7294921875,7449.78564453125,27158.259765625,7642.1103515625,14204.1845703125,-4907.44921875,-8176.16748046875,9199.7783203125,5040.1689453125,9942.849609375,7206.5986328125,7129.51025390625,7511.7744140625,4372.5966796875,10741.5517578125,9864.966796875,9009.0439453125,-12846.787109375,-0.0,0.0,11320.908203125,7546.74267578125,-689.8244018554688,0.0,14176.369140625
-3209.90869140625,-8694.3310546875,8015.6328125,11481.4443359375,16431.80859375,17219.384765625,14766.8525390625,14461.6767578125,14217.6943359375,10771.7509765625,18761.953125,0.0,13646.28515625,0.0,13839.404296875,17731.984375,28382.142578125,13950.6650390625,9769.5986328125,7642.1103515625,5831.71826171875,16365.05078125,14531.6123046875,11252.5625,0.0,3326.73388671875,7971.12744140625,6206.03564453125,727.9713745117188,-7715.22509765625,14623.005859375,5051.294921875,10658.900390625,17204.28515625,10886.986328125,17301.240234375,7843.97119140625,11546.611328125,6179.0146484375,-0.0,7084.2109375,14189.083984375,8535.384765625,11843.8408203125,20854.47265625,8408.228515625,-1730.1241455078125,9311.0400390625,7454.55419921875,27112.166015625,7648.4677734375,14208.1572265625,-4881.22314453125,-8184.90966796875,9201.3671875,5095.7998046875,9955.5654296875,7202.62548828125,7131.89453125,7514.15869140625,4395.6435546875,10745.525390625,9871.3232421875,9020.96484375,-12838.8408203125,-0.0,0.0,11322.498046875,7543.56396484375,-679.492919921875,0.0,14201.80078125
-3209.90869140625,-8671.2841796875,8018.0166015625,11482.23828125,16440.55078125,17210.642578125,14774.7998046875,14465.6494140625,14228.0263671875,10783.671875,18773.078125,0.0,13683.63671875,0.0,13848.9404296875,17743.111328125,28382.935546875,13951.4609375,9775.162109375,7657.2099609375,5835.69189453125,16361.8720703125,14537.1748046875,11254.1513671875,0.0,3293.355224609375,7979.0751953125,6202.8564453125,716.0504760742188,-7737.4775390625,14625.3896484375,5056.06298828125,10662.0791015625,17205.873046875,10890.9609375,17299.65234375,7847.9453125,11551.3798828125,6173.45166015625,-0.0,7090.568359375,14178.7529296875,8542.5380859375,11840.6611328125,20861.625,8414.5859375,-1714.2296142578125,9311.8349609375,7466.47509765625,27096.271484375,7656.41552734375,14213.7216796875,-4862.9443359375,-8174.57861328125,9205.341796875,5134.7412109375,9961.9228515625,7192.29345703125,7141.43115234375,7521.3115234375,4404.38623046875,10750.2939453125,9879.271484375,9043.216796875,-12838.0458984375,-0.0,0.0,11327.2666015625,7564.2265625,-669.9561767578125,0.0,14225.642578125
-3196.3984375,-8664.92578125,8018.81103515625,11489.3916015625,16442.140625,17225.7421875,14776.388671875,14473.59765625,14235.1787109375,10792.4150390625,18783.41015625,0.0,13716.220703125,0.0,13843.376953125,17747.87890625,28388.5,13957.818359375,9781.51953125,7665.1572265625,5841.25537109375,16366.6396484375,14540.3544921875,11260.509765625,0.0,3294.94482421875,7977.48583984375,6219.5458984375,737.5081176757812,-7723.96728515625,14631.748046875,5059.2421875,10665.2578125,17209.84765625,10895.7294921875,17309.984375,7853.5078125,11559.3271484375,6183.783203125,-0.0,7094.5419921875,14186.7001953125,8542.5380859375,11854.171875,20864.8046875,8424.123046875,-1721.382080078125,9320.5771484375,7470.44873046875,27108.193359375,7657.2099609375,14221.66796875,-4858.17578125,-8182.525390625,9212.494140625,5127.5888671875,9951.591796875,7182.7568359375,7143.0205078125,7530.0537109375,4401.20703125,10760.625,9884.0400390625,9046.3955078125,-12822.1513671875,-0.0,0.0,11336.0087890625,7565.021484375,-661.2141723632812,0.0,14224.052734375
-3193.219482421875,-8680.0263671875,8017.22216796875,11463.9599609375,16443.728515625,17220.177734375,14777.9775390625,14478.3662109375,14239.947265625,10793.208984375,18773.875,0.0,13708.2734375,0.0,13848.1455078125,17742.314453125,28382.142578125,13959.408203125,9785.4931640625,7668.33642578125,5841.25537109375,16359.4873046875,14541.1494140625,11263.6884765625,0.0,3281.434326171875,7979.86962890625,6228.2880859375,735.918701171875,-7708.86767578125,14626.9794921875,5046.5263671875,10661.2841796875,17199.515625,10894.9345703125,17305.216796875,7857.48193359375,11563.30078125,6187.7568359375,-0.0,7094.5419921875,14171.6005859375,8544.1279296875,11857.3505859375,20867.982421875,8431.275390625,-1746.018798828125,9295.9404296875,7474.42236328125,27099.451171875,7662.77294921875,14224.8466796875,-4865.328125,-8223.8515625,9207.7255859375,5060.83154296875,9957.94921875,7186.73095703125,7145.40478515625,7545.1533203125,4390.0810546875,10763.8046875,9890.3974609375,9049.5751953125,-12833.27734375,-0.0,0.0,11349.5185546875,7565.81640625,-662.8036499023438,0.0,14220.8740234375
-3198.78271484375,-8690.357421875,8018.0166015625,11456.0126953125,16438.166015625,17196.3359375,14772.4150390625,14457.703125,14232.794921875,10777.314453125,18777.84765625,0.0,13696.3525390625,0.0,13848.9404296875,17720.857421875,28374.990234375,13951.4609375,9773.572265625,7655.62060546875,5834.1025390625,16351.5419921875,14533.2021484375,11246.9990234375,0.0,3280.6396484375,7975.89599609375,6178.22021484375,717.639892578125,-7700.125,14619.033203125,5039.3740234375,10656.515625,17191.568359375,10888.576171875,17292.5,7847.9453125,11547.40625,6186.9619140625,-0.0,7090.568359375,14167.6259765625,8538.5634765625,11829.53515625,20861.625,8415.3818359375,-1704.69287109375,9288.7880859375,7465.6806640625,27088.32421875,7659.59423828125,14201.0048828125,-4865.328125,-8215.109375,9210.904296875,5084.67333984375,9952.3857421875,7190.7041015625,7139.841796875,7544.35888671875,4394.84912109375,10756.65234375,9879.271484375,9032.8857421875,-12848.376953125,-0.0,0.0,11347.9296875,7576.1474609375,-672.3403930664062,0.0,14204.1845703125
-3194.014404296875,-8680.0263671875,8018.0166015625,11466.34375,16435.78125,17217.794921875,14769.236328125,14453.728515625,14221.66796875,10764.5986328125,18772.283203125,0.0,13670.126953125,0.0,13838.6083984375,17715.294921875,28378.962890625,13955.43359375,9769.5986328125,7646.87890625,5834.8974609375,16366.6396484375,14531.6123046875,11252.5625,0.0,3256.7978515625,7975.1015625,6182.19384765625,717.639892578125,-7721.5830078125,14625.3896484375,5043.34765625,10659.6943359375,17200.3125,10889.37109375,17304.419921875,7844.765625,11545.0224609375,6168.68359375,-0.0,7086.59521484375,14197.826171875,8533.794921875,11838.27734375,20853.677734375,8404.2548828125,-1695.9508056640625,9297.5302734375,7456.9384765625,27106.603515625,7653.236328125,14194.6474609375,-4869.30224609375,-8193.65234375,9206.1357421875,5072.75244140625,9939.6708984375,7185.14111328125,7133.48388671875,7516.54296875,4404.38623046875,10763.8046875,9869.734375,9022.5537109375,-12851.5556640625,-0.0,0.0,11335.2138671875,7559.45849609375,-681.0823974609375,0.0,14189.8798828125
-3194.014404296875,-8679.23046875,8018.0166015625,11499.72265625,16440.55078125,17257.53125,14772.4150390625,14473.59765625,14228.0263671875,10781.2880859375,18767.515625,0.0,13674.099609375,0.0,13829.072265625,17731.984375,28391.6796875,13967.3544921875,9779.1357421875,7658.0048828125,5844.43408203125,16391.27734375,14538.7646484375,11275.609375,0.0,3323.554931640625,7971.12744140625,6244.9775390625,717.639892578125,-7775.62451171875,14639.6953125,5055.2685546875,10665.2578125,17220.974609375,10896.5234375,17329.8515625,7852.71337890625,11560.9169921875,6162.3251953125,-0.0,7087.3896484375,14239.947265625,8536.974609375,11872.451171875,20860.830078125,8413.7919921875,-1694.361328125,9330.11328125,7461.70654296875,27119.318359375,7652.44140625,14216.10546875,-4874.07080078125,-8186.49951171875,9192.6259765625,5110.8994140625,9941.2607421875,7169.24658203125,7139.841796875,7520.51708984375,4407.564453125,10778.109375,9880.06640625,9032.08984375,-12854.7353515625,-0.0,0.0,11333.625,7549.126953125,-675.519287109375,0.0,14197.826171875
-3194.80908203125,-8702.2783203125,8008.47998046875,11463.1650390625,16426.244140625,17196.3359375,14762.87890625,14464.060546875,14228.8203125,10787.646484375,18768.310546875,0.0,13693.96875,0.0,13827.4833984375,17731.189453125,28372.60546875,13945.8974609375,9768.0087890625,7661.18359375,5826.9501953125,16346.7734375,14526.84375,11250.1787109375,0.0,3280.6396484375,7958.412109375,6238.619140625,720.0241088867188,-7692.17822265625,14617.443359375,5043.34765625,10651.748046875,17193.158203125,10881.423828125,17292.5,7843.1767578125,11548.201171875,6178.22021484375,-0.0,7075.46875,14156.5009765625,8525.0537109375,11843.044921875,20858.4453125,8412.2021484375,-1704.69287109375,9291.966796875,7458.52783203125,27048.587890625,7645.2890625,14210.5419921875,-4880.42822265625,-8217.494140625,9197.39453125,5060.037109375,9945.2333984375,7162.88916015625,7137.45751953125,7524.490234375,4392.46533203125,10757.4462890625,9876.8876953125,9044.806640625,-12842.814453125,-0.0,0.0,11340.77734375,7545.1533203125,-672.3403930664062,0.0,14204.978515625
-3201.96142578125,-8705.45703125,8008.47998046875,11463.1650390625,16421.4765625,17185.2109375,14757.3154296875,14442.603515625,14223.2578125,10770.95703125,18762.74609375,0.0,13682.841796875,0.0,13825.0986328125,17712.912109375,28369.42578125,13938.744140625,9758.47265625,7650.05712890625,5822.9765625,16339.6201171875,14519.69140625,11235.078125,0.0,3303.686767578125,7956.02783203125,6164.70947265625,726.3819580078125,-7704.09912109375,14613.46875,5036.1953125,10651.748046875,17188.390625,10876.6552734375,17283.7578125,7836.0244140625,11532.306640625,6190.14111328125,-0.0,7077.05810546875,14148.552734375,8517.9013671875,11818.4091796875,20849.705078125,8397.896484375,-1718.9979248046875,9295.9404296875,7452.169921875,27100.244140625,7641.3154296875,14185.9052734375,-4876.45458984375,-8251.6669921875,9202.1630859375,5110.10498046875,9934.107421875,7199.4462890625,7132.68896484375,7508.595703125,4374.18603515625,10747.9091796875,9864.1708984375,9024.9375,-12844.4033203125,-0.0,0.0,11337.59765625,7552.3056640625,-681.0823974609375,0.0,14191.4677734375
-3211.498291015625,-8689.5625,8011.65869140625,11465.5498046875,16421.4765625,17208.2578125,14749.3681640625,14437.8349609375,14204.1845703125,10758.240234375,18760.36328125,0.0,13668.537109375,0.0,13816.3564453125,17703.375,28370.22265625,13939.5400390625,9753.7041015625,7632.57373046875,5825.36083984375,16348.3623046875,14514.12890625,11234.283203125,0.0,3239.313720703125,7948.87548828125,6160.736328125,716.84521484375,-7749.39892578125,14615.05859375,5038.57958984375,10653.3369140625,17190.775390625,10875.861328125,17290.91015625,7828.87158203125,11527.5380859375,6184.578125,-0.0,7080.23681640625,14164.4482421875,8513.927734375,11827.1513671875,20837.783203125,8387.5654296875,-1712.64013671875,9297.5302734375,7448.9912109375,27091.50390625,7632.57373046875,14177.9580078125,-4873.27587890625,-8200.8046875,9198.1884765625,5106.92578125,9928.5439453125,7173.22021484375,7120.76806640625,7501.443359375,4367.828125,10744.73046875,9851.4560546875,8999.5068359375,-12848.376953125,-0.0,0.0,11323.29296875,7540.384765625,-681.0823974609375,0.0,14197.826171875
-3217.856201171875,-8676.8466796875,8015.6328125,11479.060546875,16427.041015625,17220.974609375,14756.5205078125,14454.5244140625,14211.3369140625,10767.77734375,18774.66796875,0.0,13674.8955078125,0.0,13825.0986328125,17725.626953125,28376.580078125,13945.8974609375,9760.8564453125,7642.90478515625,5830.12890625,16358.6943359375,14518.8974609375,11245.41015625,0.0,3294.94482421875,7956.822265625,6195.7041015625,712.0768432617188,-7726.35107421875,14620.6220703125,5048.1162109375,10655.720703125,17197.927734375,10883.013671875,17298.857421875,7835.22900390625,11540.25390625,6178.22021484375,-0.0,7082.62109375,14176.369140625,8521.080078125,11841.4560546875,20844.935546875,8399.486328125,-1700.71923828125,9311.0400390625,7455.34912109375,27109.78125,7639.72607421875,14197.0322265625,-4874.865234375,-8163.4521484375,9204.546875,5013.94287109375,9942.849609375,7192.29345703125,7126.33154296875,7513.3642578125,4393.259765625,10747.9091796875,9860.9921875,9024.9375,-12851.5556640625,-0.0,0.0,11318.5244140625,7538.00048828125,-681.8771362304688,0.0,14212.1318359375
-3195.603515625,-8691.947265625,8011.65869140625,11484.623046875,16423.06640625,17189.98046875,14754.931640625,14455.318359375,14210.5419921875,10759.0361328125,18776.2578125,0.0,13677.279296875,0.0,13829.072265625,17739.931640625,28371.810546875,13936.3603515625,9756.8828125,7639.72607421875,5824.56591796875,16347.56640625,14514.12890625,11236.66796875,0.0,3346.602294921875,7960.001953125,6206.83056640625,712.87158203125,-7708.86767578125,14612.6748046875,5048.1162109375,10650.9521484375,17193.158203125,10876.6552734375,17283.7578125,7831.255859375,11534.6904296875,6172.6572265625,-0.0,7078.6474609375,14165.2421875,8519.490234375,11831.1240234375,20844.140625,8399.486328125,-1701.513916015625,9318.1923828125,7452.96484375,27116.140625,7640.5205078125,14206.568359375,-4869.30224609375,-8200.8046875,9202.1630859375,5095.7998046875,9943.64453125,7214.54638671875,7121.56298828125,7520.51708984375,4408.359375,10739.1669921875,9858.6083984375,9020.1689453125,-12844.4033203125,-0.0,0.0,11316.935546875,7542.76904296875,-693.798095703125,0.0,14194.6474609375
-3180.50390625,-8699.8935546875,8030.73193359375,11499.72265625,16440.55078125,17232.89453125,14767.646484375,14475.9814453125,14220.078125,10779.6982421875,18781.02734375,0.0,13686.81640625,0.0,13843.376953125,17755.826171875,28387.705078125,13954.6396484375,9775.162109375,7652.44140625,5842.8447265625,16373.79296875,14533.2021484375,11258.919921875,0.0,3372.033447265625,7971.9228515625,6226.6982421875,720.0241088867188,-7740.65625,14630.9541015625,5057.65283203125,10667.6416015625,17210.642578125,10892.55078125,17313.162109375,7847.14990234375,11555.3544921875,6196.4990234375,-0.0,7099.310546875,14201.80078125,8533.0009765625,11861.32421875,20856.0625,8417.765625,-1681.645751953125,9330.9091796875,7464.8857421875,27121.703125,7654.82568359375,14225.642578125,-4854.9970703125,-8221.466796875,9208.51953125,5093.41552734375,9950.796875,7212.162109375,7120.76806640625,7539.59033203125,4417.1015625,10758.240234375,9873.7080078125,9023.3486328125,-12842.814453125,-0.0,0.0,11338.3935546875,7539.59033203125,-673.9298706054688,0.0,14200.2109375
-3174.14599609375,-8667.3095703125,8029.9375,11483.033203125,16434.98828125,17183.623046875,14764.4677734375,14459.2919921875,14224.052734375,10784.466796875,18772.283203125,0.0,13684.431640625,0.0,13841.7880859375,17730.39453125,28382.142578125,13942.71875,9768.0087890625,7654.82568359375,5835.69189453125,16349.951171875,14526.0498046875,11239.0517578125,0.0,3337.860107421875,7967.94873046875,6210.00927734375,730.3555908203125,-7711.251953125,14619.033203125,5058.447265625,10663.6689453125,17198.720703125,10885.3974609375,17287.73046875,7842.38134765625,11542.6376953125,6201.26708984375,-0.0,7092.95263671875,14168.421875,8529.02734375,11825.5615234375,20856.0625,8411.4072265625,-1684.0299072265625,9312.6298828125,7458.52783203125,27072.4296875,7652.44140625,14206.568359375,-4852.61279296875,-8185.7041015625,9204.546875,5092.62109375,9953.181640625,7156.53076171875,7131.099609375,7526.87451171875,4411.53857421875,10743.935546875,9872.119140625,9030.5009765625,-12840.4306640625,-0.0,0.0,11331.240234375,7549.92138671875,-669.9561767578125,0.0,14208.1572265625
-3156.662109375,-8653.0048828125,8037.09033203125,11469.5234375,16443.728515625,17191.568359375,14770.03125,14460.0869140625,14233.5888671875,10790.0302734375,18794.537109375,0.0,13697.1474609375,0.0,13833.8408203125,17724.83203125,28386.912109375,13946.6923828125,9772.77734375,7662.77294921875,5840.46044921875,16351.5419921875,14530.818359375,11243.025390625,0.0,3297.328857421875,7972.71728515625,6200.47216796875,719.2293701171875,-7714.43017578125,14622.2119140625,5070.3681640625,10670.025390625,17200.3125,10891.7548828125,17291.705078125,7847.9453125,11546.611328125,6198.8828125,-0.0,7099.310546875,14168.421875,8533.794921875,11829.53515625,20862.421875,8415.3818359375,-1680.0562744140625,9298.32421875,7468.06494140625,27085.146484375,7654.82568359375,14204.1845703125,-4847.0498046875,-8161.8623046875,9210.904296875,5053.67919921875,9953.9755859375,7169.24658203125,7148.583984375,7526.07958984375,4429.0224609375,10745.525390625,9876.8876953125,9043.216796875,-12848.376953125,-0.0,0.0,11334.4189453125,7560.2529296875,-665.9825439453125,0.0,14215.310546875
-3159.046142578125,-8660.1572265625,8057.75341796875,11491.775390625,16462.0078125,17209.052734375,14782.74609375,14461.6767578125,14239.947265625,10781.2880859375,18827.916015625,0.0,13705.8896484375,0.0,13849.7353515625,17728.8046875,28402.009765625,13957.0234375,9782.314453125,7663.56787109375,5856.35498046875,16365.8466796875,14543.533203125,11253.357421875,0.0,3332.297119140625,7985.4326171875,6175.8359375,702.5401000976562,-7724.76171875,14634.9267578125,5083.083984375,10687.5107421875,17216.205078125,10906.85546875,17305.216796875,7859.07080078125,11552.9697265625,6216.3671875,-0.0,7122.35791015625,14181.931640625,8548.1005859375,11838.27734375,20871.162109375,8417.765625,-1671.314208984375,9322.9609375,7483.958984375,27131.23828125,7667.54150390625,14203.3896484375,-4823.2080078125,-8130.8681640625,9229.9775390625,5091.826171875,9967.486328125,7215.34130859375,7158.12060546875,7529.2587890625,4440.943359375,10752.677734375,9882.4501953125,9047.1904296875,-12865.861328125,-0.0,0.0,11333.625,7568.9951171875,-671.545654296875,0.0,14213.7216796875
-3165.404052734375,-8637.9052734375,8063.31640625,11535.4853515625,16477.107421875,17247.19921875,14794.6669921875,14493.4658203125,14235.1787109375,10781.2880859375,18833.478515625,0.0,13705.8896484375,0.0,13861.65625,17766.15625,28422.673828125,13977.6865234375,9797.4140625,7662.77294921875,5870.66015625,16393.662109375,14559.427734375,11279.5830078125,0.0,3395.875244140625,7997.353515625,6229.87744140625,735.1239624023438,-7733.50390625,14656.384765625,5098.978515625,10702.6103515625,17245.611328125,10923.544921875,17331.44140625,7872.58154296875,11575.2216796875,6233.85107421875,-0.0,7133.48388671875,14222.462890625,8561.611328125,11874.8349609375,20878.314453125,8436.0439453125,-1655.419677734375,9367.4658203125,7491.90673828125,27180.513671875,7679.46240234375,14239.947265625,-4822.4130859375,-8114.1787109375,9233.951171875,5144.27783203125,9981.791015625,7224.0830078125,7162.09423828125,7561.0478515625,4455.24853515625,10771.7509765625,9892.78125,9047.9853515625,-12826.125,-0.0,0.0,11332.8291015625,7562.63720703125,-668.3667602539062,0.0,14212.92578125
-3186.06689453125,-8614.0634765625,8048.216796875,11525.154296875,16469.16015625,17238.458984375,14786.720703125,14484.72265625,14220.078125,10770.95703125,18810.4296875,0.0,13699.53125,0.0,13860.861328125,17770.1328125,28412.341796875,13967.3544921875,9787.0830078125,7647.67333984375,5862.712890625,16384.125,14550.685546875,11270.0458984375,0.0,3360.9072265625,7990.201171875,6232.26171875,752.6079711914062,-7727.14599609375,14647.6435546875,5093.41552734375,10691.4833984375,17236.07421875,10913.212890625,17322.69921875,7863.044921875,11567.275390625,6207.625,-0.0,7125.53662109375,14210.5419921875,8551.2802734375,11867.6826171875,20867.982421875,8424.123046875,-1666.5458984375,9356.33984375,7486.34326171875,27157.46484375,7673.10498046875,14240.7421875,-4842.28125,-8161.06787109375,9204.546875,5139.509765625,9979.4072265625,7220.109375,7146.19970703125,7540.384765625,4467.96435546875,10759.0361328125,9881.6552734375,9022.5537109375,-12811.0244140625,-0.0,0.0,11328.0615234375,7557.869140625,-685.0560302734375,0.0,14183.521484375
-3145.53564453125,-8638.69921875,8051.3955078125,11508.46484375,16447.703125,17210.642578125,14772.4150390625,14469.6240234375,14214.515625,10760.625,18804.869140625,0.0,13691.5849609375,0.0,13851.3251953125,17768.541015625,28404.39453125,13953.8447265625,9771.9833984375,7632.57373046875,5853.17626953125,16369.0244140625,14537.1748046875,11251.767578125,0.0,3288.5869140625,7979.0751953125,6217.95654296875,739.0975952148438,-7669.92578125,14634.1328125,5091.826171875,10687.5107421875,17223.357421875,10898.9072265625,17303.625,7847.14990234375,11551.3798828125,6203.6513671875,-0.0,7115.205078125,14187.4951171875,8536.1796875,11844.634765625,20856.0625,8405.0498046875,-1666.5458984375,9342.0341796875,7475.21728515625,27091.50390625,7659.59423828125,14228.0263671875,-4826.38671875,-8200.8046875,9218.056640625,5110.10498046875,9965.896484375,7214.54638671875,7126.33154296875,7499.05908203125,4460.8115234375,10741.5517578125,9868.14453125,9000.3017578125,-12814.9990234375,-0.0,0.0,11314.5517578125,7541.974609375,-700.1558837890625,0.0,14175.57421875
-3125.66748046875,-8647.44140625,8047.42138671875,11518.001953125,16444.525390625,17232.89453125,14773.2099609375,14478.3662109375,14224.052734375,10785.26171875,18785.794921875,0.0,13689.9951171875,0.0,13848.9404296875,17778.873046875,28407.57421875,13960.998046875,9778.3408203125,7644.49462890625,5853.17626953125,16383.3291015625,14537.970703125,11263.6884765625,0.0,3310.83935546875,7978.2802734375,6234.64599609375,731.945068359375,-7665.1572265625,14640.490234375,5095.7998046875,10685.1259765625,17232.099609375,10901.2919921875,17317.13671875,7851.91845703125,11560.1220703125,6220.3408203125,-0.0,7102.4892578125,14212.1318359375,8535.384765625,11861.32421875,20859.2421875,8416.970703125,-1670.51953125,9350.7763671875,7468.06494140625,27122.498046875,7658.0048828125,14232.794921875,-4813.6708984375,-8161.8623046875,9210.109375,5084.67333984375,9959.5380859375,7230.4404296875,7129.51025390625,7509.39013671875,4444.9169921875,10745.525390625,9876.091796875,9011.427734375,-12795.9248046875,-0.0,0.0,11339.1875,7547.537109375,-676.3140258789062,0.0,14207.36328125
-3092.2890625,-8637.9052734375,8063.31640625,11545.0224609375,16463.59765625,17256.736328125,14785.92578125,14481.544921875,14239.15234375,10811.48828125,18789.767578125,0.0,13694.763671875,0.0,13857.6826171875,17751.05859375,28423.466796875,13977.6865234375,9789.466796875,7665.1572265625,5870.66015625,16407.171875,14552.275390625,11276.404296875,0.0,3368.8544921875,7985.4326171875,6224.314453125,731.945068359375,-7694.5625,14657.974609375,5106.92578125,10701.0205078125,17251.96875,10914.802734375,17336.2109375,7863.044921875,11569.6591796875,6230.67236328125,-0.0,7127.1259765625,14251.0732421875,8547.3056640625,11870.861328125,20871.95703125,8433.6591796875,-1660.9827880859375,9377.0029296875,7479.19091796875,27149.51953125,7668.33642578125,14221.66796875,-4790.6240234375,-8130.8681640625,9209.3154296875,5056.06298828125,9965.1025390625,7230.4404296875,7142.2255859375,7534.02734375,4474.32177734375,10761.419921875,9888.80859375,9041.626953125,-12797.5146484375,-0.0,0.0,11357.466796875,7557.07421875,-643.7301635742188,0.0,14238.357421875
-3079.573486328125,-8610.884765625,8072.85302734375,11586.3486328125,16467.5703125,17271.041015625,14791.48828125,14480.75,14246.3046875,10812.2822265625,18809.63671875,0.0,13702.7099609375,0.0,13856.8876953125,17714.5,28435.388671875,13987.2236328125,9794.2353515625,7671.51513671875,5877.01806640625,16421.4765625,14558.6328125,11282.76171875,0.0,3456.274658203125,7988.6123046875,6222.72509765625,729.5608520507812,-7730.3251953125,14667.5107421875,5114.87353515625,10708.1728515625,17267.86328125,10922.75,17348.923828125,7866.22314453125,11572.837890625,6242.59326171875,-0.0,7133.48388671875,14283.6572265625,8551.2802734375,11878.8076171875,20878.314453125,8434.455078125,-1677.6719970703125,9418.328125,7482.3701171875,27171.76953125,7669.92578125,14207.36328125,-4808.90283203125,-8135.63623046875,9236.3359375,5102.95263671875,9967.486328125,7211.3671875,7151.7626953125,7548.33203125,4488.626953125,10770.95703125,9893.576171875,9054.3427734375,-12820.5615234375,-0.0,0.0,11346.33984375,7569.7900390625,-648.49853515625,0.0,14231.9990234375
-3080.3681640625,-8577.505859375,8042.6533203125,11502.90234375,16439.755859375,17193.158203125,14772.4150390625,14456.11328125,14234.3837890625,10798.771484375,18816.7890625,0.0,13695.5576171875,0.0,13833.8408203125,17705.759765625,28400.421875,13949.87109375,9771.9833984375,7659.59423828125,5842.8447265625,16356.3095703125,14532.4072265625,11243.025390625,0.0,3306.86572265625,7969.53857421875,6188.55126953125,727.1766357421875,-7677.078125,14629.3642578125,5090.23681640625,10679.5625,17219.384765625,10892.55078125,17294.087890625,7845.56103515625,11545.0224609375,6220.3408203125,-0.0,7101.69482421875,14166.037109375,8527.4384765625,11829.53515625,20863.21484375,8415.3818359375,-1715.8189697265625,9336.4716796875,7462.50146484375,27099.451171875,7651.64697265625,14192.263671875,-4816.05517578125,-8157.88916015625,9229.18359375,5126.79443359375,9950.001953125,7190.7041015625,7142.2255859375,7533.232421875,4483.8583984375,10736.783203125,9876.8876953125,9054.3427734375,-12826.919921875,-0.0,0.0,11319.3193359375,7565.81640625,-664.3931274414062,0.0,14227.2314453125
-3083.546875,-8548.1005859375,8038.68017578125,11487.0068359375,16439.755859375,17211.4375,14767.646484375,14463.265625,14223.2578125,10785.26171875,18808.841796875,0.0,13685.2265625,0.0,13828.27734375,17731.189453125,28406.779296875,13953.8447265625,9773.572265625,7646.083984375,5845.228515625,16365.05078125,14532.4072265625,11250.1787109375,0.0,3315.607666015625,7963.97509765625,6208.419921875,723.2030029296875,-7694.5625,14636.5166015625,5101.36279296875,10682.7421875,17223.357421875,10892.55078125,17302.83203125,7847.14990234375,11548.201171875,6225.10888671875,-0.0,7098.51611328125,14173.1904296875,8525.0537109375,11843.044921875,20859.2421875,8414.5859375,-1698.3350830078125,9319.7822265625,7454.55419921875,27128.85546875,7646.083984375,14208.1572265625,-4770.755859375,-8125.30517578125,9218.8515625,5107.720703125,9938.8759765625,7208.1884765625,7129.51025390625,7530.84814453125,4508.4951171875,10740.7568359375,9872.119140625,9020.1689453125,-12831.6875,-0.0,0.0,11311.3720703125,7552.3056640625,-681.0823974609375,0.0,14210.5419921875
-3059.705078125,-8536.1796875,8053.77978515625,11519.591796875,16450.0859375,17224.947265625,14771.62109375,14472.8017578125,14214.515625,10785.26171875,18814.40625,0.0,13677.279296875,0.0,13829.072265625,17747.87890625,28425.8515625,13968.150390625,9778.3408203125,7641.3154296875,5861.91796875,16384.125,14541.1494140625,11262.099609375,0.0,3337.860107421875,7967.94873046875,6217.16162109375,743.0712280273438,-7708.07275390625,14651.6162109375,5122.02587890625,10698.6357421875,17244.01953125,10903.67578125,17317.13671875,7852.71337890625,11558.533203125,6260.8720703125,-0.0,7109.64208984375,14197.826171875,8533.794921875,11853.376953125,20858.4453125,8420.9443359375,-1648.26708984375,9353.1611328125,7464.8857421875,27132.03515625,7648.4677734375,14220.8740234375,-4754.861328125,-8081.59521484375,9230.7734375,5141.099609375,9947.6171875,7220.109375,7125.53662109375,7538.79541015625,4536.310546875,10754.267578125,9874.5029296875,9008.248046875,-12813.4091796875,-0.0,0.0,11336.8037109375,7517.337890625,-663.598388671875,0.0,14218.4892578125
-3043.015625,-8539.359375,8057.75341796875,11525.154296875,16452.470703125,17220.177734375,14777.18359375,14466.4453125,14227.2314453125,10782.8779296875,18812.021484375,0.0,13685.2265625,0.0,13836.224609375,17735.958984375,28424.263671875,13968.150390625,9778.3408203125,7647.67333984375,5864.30224609375,16382.5361328125,14541.1494140625,11258.125,0.0,3332.297119140625,7977.48583984375,6204.4462890625,726.3819580078125,-7716.814453125,14650.02734375,5119.6416015625,10698.6357421875,17242.431640625,10907.650390625,17314.751953125,7855.09765625,11554.55859375,6255.30859375,-0.0,7112.0263671875,14201.0048828125,8538.5634765625,11847.01953125,20864.8046875,8416.970703125,-1648.26708984375,9356.33984375,7474.42236328125,27108.98828125,7655.62060546875,14212.92578125,-4773.93505859375,-8036.2958984375,9230.7734375,5133.94677734375,9955.5654296875,7190.7041015625,7143.0205078125,7526.87451171875,4530.748046875,10755.0625,9878.4765625,9021.7587890625,-12811.0244140625,-0.0,0.0,11338.3935546875,7539.59033203125,-665.9825439453125,0.0,14220.8740234375
-3046.19482421875,-8567.173828125,8056.9580078125,11521.9755859375,16450.8828125,17222.5625,14778.7734375,14467.2392578125,14241.5361328125,10784.466796875,18808.841796875,0.0,13683.63671875,0.0,13844.1728515625,17743.111328125,28420.2890625,13964.970703125,9779.1357421875,7659.59423828125,5858.7392578125,16380.9453125,14539.5595703125,11258.125,0.0,3338.65478515625,7977.48583984375,6204.4462890625,717.639892578125,-7715.22509765625,14645.2587890625,5113.28369140625,10693.0732421875,17240.046875,10902.8818359375,17313.162109375,7855.09765625,11555.3544921875,6241.79833984375,-0.0,7111.2314453125,14204.978515625,8537.76953125,11848.609375,20868.77734375,8417.765625,-1650.6513671875,9350.7763671875,7471.2431640625,27116.140625,7660.38916015625,14216.10546875,-4774.7294921875,-8048.216796875,9224.4150390625,5128.3837890625,9955.5654296875,7189.90966796875,7154.146484375,7526.87451171875,4512.46875,10755.8564453125,9880.8603515625,9031.2958984375,-12807.0517578125,-0.0,0.0,11336.8037109375,7572.96875,-672.3403930664062,0.0,14201.80078125
