6968.18017578125,4898.70703125,16387.3046875,10069.2109375,19590.05859375,8069.67431640625,13136.0693359375,17889.341796875,10082.7216796875,12323.0615234375,8342.265625,10245.640625,-4260.5400390625,0.0,15014.0126953125,16798.97265625,3972.848388671875,4460.0166015625,8092.72119140625,10465.78125,6656.646484375,14456.11328125,11697.6103515625,26667.1171875,239.2133026123047,2713.998046875,9651.978515625,17588.93359375,-4090.468017578125,3874.302001953125,22492.408203125,-8698.3037109375,-1882.7120361328125,6149.60986328125,13633.568359375,14753.341796875,10561.1484375,13159.1162109375,8636.3154296875,-0.0,6566.8427734375,30848.98046875,35374.95703125,11843.8408203125,23740.1328125,18844.60546875,-256.69732666015625,-356.0384216308594,6164.70947265625,17801.919921875,13911.7236328125,17899.671875,13790.130859375,2430.280029296875,3117.720458984375,12385.8447265625,0.0,6244.1826171875,11132.5576171875,11600.6533203125,8773.009765625,14297.9619140625,14065.1064453125,20787.716796875,-10435.5810546875,5623.49951171875,13608.1376953125,6624.06298828125,7477.6015625,4760.42431640625,0.0,13371.30859375
6952.28564453125,4898.70703125,16406.376953125,10049.3427734375,19598.802734375,8070.46875,13133.685546875,17892.51953125,10079.54296875,12327.830078125,8340.6767578125,10248.8203125,-4247.02978515625,0.0,15010.0390625,16803.7421875,3974.437744140625,4462.40087890625,8092.72119140625,10468.1650390625,6661.4150390625,14456.11328125,11698.4052734375,26669.501953125,239.2133026123047,2715.587646484375,9623.3681640625,17585.75390625,-4088.083740234375,3873.50732421875,22495.587890625,-8695.1259765625,-1880.327880859375,6140.0732421875,13637.54296875,14754.1357421875,10559.55859375,13161.5,8575.916015625,-0.0,6580.3525390625,30846.595703125,35374.1640625,11843.8408203125,23736.953125,18847.783203125,-268.6182556152344,-339.34912109375,6175.8359375,17805.89453125,13906.1611328125,17902.8515625,13767.0830078125,2435.04833984375,3114.541259765625,12381.87109375,0.0,6295.04541015625,11126.2001953125,11615.7529296875,8787.314453125,14300.3466796875,14065.9013671875,20788.51171875,-10433.9912109375,5625.08935546875,13603.3701171875,6654.2626953125,7473.62744140625,4785.85595703125,0.0,13385.61328125
6946.72265625,4874.865234375,16508.8984375,10068.4169921875,19581.318359375,8064.90625,13118.5849609375,17882.982421875,10059.673828125,12320.677734375,8323.9873046875,10244.8466796875,-4262.12939453125,0.0,14985.40234375,16793.41015625,3968.87451171875,4450.47998046875,8080.80029296875,10453.064453125,6643.13671875,14454.5244140625,11684.89453125,26660.76171875,212.9872589111328,2710.8193359375,9617.0107421875,17581.78125,-4100.7998046875,3851.254638671875,22484.4609375,-8685.5888671875,-1889.8646240234375,6151.994140625,13623.2373046875,14746.189453125,10545.25390625,13150.3740234375,8696.7158203125,-0.0,6551.74267578125,30843.416015625,35358.26953125,11835.0986328125,23721.060546875,18836.65625,-262.26043701171875,-321.0703430175781,6169.47802734375,17799.53515625,13882.3193359375,17893.314453125,13732.91015625,2424.717041015625,3104.2099609375,12373.1298828125,0.0,6295.04541015625,11099.974609375,11604.626953125,8777.77734375,14287.630859375,14052.390625,20775.794921875,-10447.501953125,5609.9892578125,13576.3486328125,6645.5205078125,7442.63330078125,4788.23974609375,0.0,13386.4091796875
6930.828125,4877.2490234375,16542.27734375,9995.30078125,19567.80859375,8050.60107421875,13109.0478515625,17869.47265625,10048.548828125,12307.9619140625,8302.529296875,10230.541015625,-4293.91845703125,0.0,14981.4287109375,16779.900390625,3958.543212890625,4437.7646484375,8068.87890625,10439.5546875,6631.21533203125,14434.6552734375,11674.5634765625,26647.25,204.24525451660156,2691.745849609375,9625.7529296875,17567.4765625,-4114.3095703125,3832.97607421875,22470.951171875,-8700.6884765625,-1877.943603515625,6125.76806640625,13611.31640625,14731.8837890625,10534.126953125,13137.658203125,8596.5791015625,-0.0,6524.7216796875,30823.548828125,35351.9140625,11819.9990234375,23710.728515625,18823.146484375,-261.4656982421875,-360.0120544433594,6158.35205078125,17778.873046875,13876.755859375,17881.392578125,13732.91015625,2403.25927734375,3103.415283203125,12366.771484375,0.0,6269.61376953125,11082.490234375,11588.732421875,8762.6767578125,14274.1201171875,14038.8798828125,20765.462890625,-10457.8330078125,5598.068359375,13573.169921875,6623.26806640625,7432.3017578125,4762.013671875,0.0,13370.513671875
6878.3759765625,4862.9443359375,16487.439453125,9981.791015625,19560.65625,8049.8056640625,13105.869140625,17870.267578125,10046.1640625,12315.9091796875,8290.6083984375,10194.7783203125,-4305.83935546875,0.0,14984.607421875,16782.283203125,3949.801025390625,4436.1748046875,8065.70068359375,10443.5283203125,6633.599609375,14436.2451171875,11669.794921875,26644.865234375,197.0926971435547,2695.719482421875,9607.474609375,17561.912109375,-4123.05224609375,3830.591796875,22470.951171875,-8731.6826171875,-1873.969970703125,6111.462890625,13608.1376953125,14731.08984375,10531.7431640625,13136.86328125,8515.517578125,-0.0,6528.69580078125,30845.80078125,35342.375,11819.9990234375,23707.548828125,18825.53125,-296.43377685546875,-480.0160827636719,6148.0205078125,17772.515625,13881.5244140625,17883.77734375,13705.8896484375,2350.012451171875,3103.415283203125,12368.361328125,0.0,6257.69287109375,11078.5166015625,11598.26953125,8738.041015625,14272.5302734375,14037.2919921875,20778.974609375,-10472.138671875,5586.9423828125,13577.9384765625,6624.857421875,7424.3544921875,4782.6767578125,0.0,13399.9189453125
6861.6865234375,4804.13427734375,16440.55078125,10010.4013671875,19549.52734375,8041.064453125,13091.564453125,17858.34765625,10031.064453125,12305.5771484375,8285.83984375,10174.91015625,-4306.63427734375,0.0,14963.9443359375,16767.978515625,3935.495849609375,4422.66455078125,8053.77978515625,10432.40234375,6619.29443359375,14426.7080078125,11657.8740234375,26634.53515625,176.42974853515625,2683.798583984375,9588.400390625,17552.375,-4139.7412109375,3818.6708984375,22458.234375,-8736.451171875,-1897.8118896484375,6088.41552734375,13595.421875,14721.552734375,10517.4375,13123.3525390625,8594.990234375,-0.0,6530.28466796875,30842.623046875,35326.48046875,11808.8720703125,23691.654296875,18813.609375,-326.6334533691406,-514.984130859375,6144.046875,17765.36328125,13860.06640625,17869.47265625,13738.47265625,2350.80712890625,3080.3681640625,12351.671875,0.0,6248.951171875,11072.953125,11587.142578125,8724.5302734375,14260.609375,14024.5751953125,20765.462890625,-10480.880859375,5572.63720703125,13557.2744140625,6618.5,7394.94921875,4774.7294921875,0.0,13405.482421875
6875.19677734375,4749.2978515625,16416.70703125,10021.52734375,19551.119140625,8029.1435546875,13086.7958984375,17848.015625,10022.322265625,12288.09375,8281.0712890625,10204.3154296875,-4301.0712890625,0.0,14962.35546875,16756.05859375,3937.085693359375,4419.4853515625,8049.8056640625,10418.09765625,6615.32080078125,14416.376953125,11656.2841796875,26628.17578125,174.04556274414062,2674.26171875,9590.78515625,17538.865234375,-4138.15185546875,3813.902587890625,22454.26171875,-8729.298828125,-1903.375,6096.36328125,13594.626953125,14713.6044921875,10515.0537109375,13114.611328125,8629.9580078125,-0.0,6542.2060546875,30803.6796875,35326.48046875,11799.3359375,23685.296875,18803.27734375,-318.6861572265625,-345.7069396972656,6120.205078125,17755.03125,13857.6826171875,17859.140625,13747.21484375,2384.185791015625,3066.857666015625,12337.3671875,0.0,6254.51416015625,11067.390625,11572.837890625,8722.94140625,14255.8408203125,14018.2177734375,20731.291015625,-10487.2392578125,5568.6630859375,13556.48046875,6616.11572265625,7406.87060546875,4736.58251953125,0.0,13358.5927734375
6831.4873046875,4785.85595703125,16366.6396484375,9965.896484375,19561.44921875,8023.57958984375,13095.5380859375,17847.21875,10029.4755859375,12277.7626953125,8289.01953125,10229.7470703125,-4284.3818359375,0.0,14982.2236328125,16754.46875,3942.6484375,4425.048828125,8054.57421875,10412.5341796875,6624.857421875,14415.58203125,11663.4365234375,26630.560546875,186.76121520996094,2677.440673828125,9602.7060546875,17529.330078125,-4127.8203125,3822.64453125,22458.234375,-8719.76171875,-1900.9908447265625,6102.720703125,13603.3701171875,14715.1943359375,10523.7958984375,13116.2001953125,8579.890625,-0.0,6571.61083984375,30787.787109375,35341.578125,11795.361328125,23693.2421875,18800.099609375,-325.8387145996094,-261.4656982421875,6139.2783203125,17746.291015625,13876.755859375,17856.755859375,13729.7314453125,2426.306396484375,3058.11572265625,12337.3671875,0.0,6268.0244140625,11072.1591796875,11565.685546875,8717.3779296875,14262.19921875,14019.0126953125,20710.626953125,-10495.185546875,5582.96826171875,13573.9638671875,6616.11572265625,7429.123046875,4717.5087890625,0.0,13310.115234375
6833.87158203125,4865.328125,16420.68359375,9931.7236328125,19563.0390625,8019.6064453125,13101.8955078125,17848.810546875,10038.216796875,12278.556640625,8307.2978515625,10229.7470703125,-4285.1767578125,0.0,14994.14453125,16756.05859375,3943.443359375,4427.43310546875,8058.5478515625,10418.09765625,6633.599609375,14414.787109375,11666.615234375,26633.740234375,215.37144470214844,2671.877685546875,9597.9375,17530.91796875,-4114.3095703125,3833.770751953125,22462.208984375,-8727.7099609375,-1877.943603515625,6097.15771484375,13605.75390625,14715.1943359375,10529.3583984375,13120.96875,8528.232421875,-0.0,6538.232421875,30787.787109375,35344.76171875,11797.74609375,23701.986328125,18803.27734375,-291.6654052734375,-287.6917419433594,6171.8623046875,17739.13671875,13888.6767578125,17856.755859375,13712.2470703125,2432.6640625,3064.473388671875,12340.5458984375,0.0,6264.05078125,11087.2587890625,11560.1220703125,8730.09375,14264.583984375,14025.3701171875,20727.31640625,-10480.880859375,5591.71044921875,13583.5009765625,6604.19482421875,7433.89111328125,4719.89306640625,0.0,13304.55078125
6913.34375,4912.2177734375,16516.84375,9978.6123046875,19548.734375,8027.5537109375,13097.921875,17847.21875,10039.01171875,12271.404296875,8324.7822265625,10237.693359375,-4312.197265625,0.0,14980.6337890625,16756.853515625,3947.416748046875,4424.25390625,8057.75341796875,10414.91796875,6617.705078125,14419.5556640625,11663.4365234375,26633.740234375,225.7029266357422,2677.440673828125,9608.2685546875,17541.25,-4119.078125,3845.691650390625,22459.826171875,-8712.609375,-1896.222412109375,6110.66796875,13596.216796875,14715.9892578125,10525.3857421875,13121.7646484375,8669.6943359375,-0.0,6484.9853515625,30796.52734375,35333.6328125,11803.3095703125,23700.396484375,18800.099609375,-232.0607452392578,-316.3019714355469,6153.58349609375,17755.826171875,13876.755859375,17856.755859375,13728.9365234375,2424.717041015625,3081.95751953125,12342.1357421875,0.0,6252.1298828125,11098.384765625,11553.7646484375,8757.1142578125,14262.994140625,14026.958984375,20717.779296875,-10464.986328125,5593.2998046875,13571.580078125,6585.916015625,7425.94384765625,4695.2568359375,0.0,13283.888671875
7005.53271484375,4918.5751953125,16531.943359375,10050.1376953125,19584.498046875,8069.67431640625,13130.505859375,17884.572265625,10070.80078125,12312.7294921875,8355.7763671875,10274.2509765625,-4305.83935546875,0.0,14990.9658203125,16795.79296875,3977.61669921875,4457.63232421875,8093.51611328125,10452.2705078125,6640.75244140625,14455.318359375,11695.2255859375,26669.501953125,255.90261840820312,2716.38232421875,9640.8525390625,17583.37109375,-4109.54150390625,3878.275634765625,22489.228515625,-8683.205078125,-1897.8118896484375,6144.046875,13627.2119140625,14751.751953125,10556.3798828125,13156.7314453125,8775.3935546875,-0.0,6527.90087890625,30837.853515625,35366.21875,11843.044921875,23729.80078125,18837.451171875,-212.9872589111328,-306.7652282714844,6178.22021484375,17800.33203125,13888.6767578125,17897.287109375,13802.845703125,2428.690673828125,3120.899169921875,12381.0771484375,0.0,6268.8193359375,11117.4580078125,11594.2958984375,8815.9248046875,14296.3720703125,14061.927734375,20762.28515625,-10436.3759765625,5624.29443359375,13582.7060546875,6624.857421875,7453.759765625,4740.55615234375,0.0,13338.724609375
7023.8115234375,4920.95947265625,16542.27734375,10067.6220703125,19613.900390625,8095.900390625,13159.1162109375,17919.541015625,10097.8212890625,12354.8505859375,8368.4921875,10295.708984375,-4270.07666015625,0.0,15014.0126953125,16829.966796875,3999.868896484375,4485.4482421875,8123.71533203125,10489.623046875,6670.15673828125,14480.75,11723.0419921875,26698.11328125,278.1549987792969,2741.01904296875,9669.462890625,17615.16015625,-4086.494384765625,3903.706787109375,22513.8671875,-8653.7998046875,-1867.6121826171875,6156.7626953125,13658.2060546875,14777.9775390625,10585.78515625,13187.7255859375,8737.24609375,-0.0,6576.37939453125,30861.6953125,35396.4140625,11872.451171875,23759.20703125,18874.009765625,-195.50323486328125,-282.9233703613281,6204.4462890625,17826.556640625,13912.5185546875,17932.255859375,13809.2041015625,2445.3798828125,3149.509521484375,12408.892578125,0.0,6287.09814453125,11130.173828125,11638.0048828125,8842.9453125,14326.572265625,14092.921875,20807.583984375,-10413.3291015625,5649.7255859375,13608.1376953125,6674.92529296875,7474.42236328125,4811.287109375,0.0,13412.634765625
6988.84326171875,4889.96484375,16501.74609375,10022.322265625,19587.67578125,8066.4951171875,13132.095703125,17894.90234375,10070.80078125,12337.3671875,8341.4716796875,10258.357421875,-4281.20263671875,0.0,15002.88671875,16807.71484375,3968.080078125,4455.24853515625,8096.69482421875,10467.3701171875,6645.5205078125,14450.5498046875,11696.021484375,26670.296875,240.80276489257812,2714.79296875,9640.0576171875,17584.166015625,-4107.9521484375,3875.891357421875,22485.255859375,-8692.7412109375,-1881.9173583984375,6136.09912109375,13629.595703125,14750.1630859375,10558.7646484375,13163.08984375,8604.5263671875,-0.0,6552.53759765625,30830.701171875,35369.39453125,11844.634765625,23732.185546875,18852.552734375,-241.5974884033203,-325.04400634765625,6176.63037109375,17795.5625,13899.802734375,17910.00390625,13752.7783203125,2453.3271484375,3116.925537109375,12383.4609375,0.0,6283.9189453125,11115.8681640625,11625.2900390625,8776.1875,14301.140625,14068.2861328125,20788.51171875,-10447.501953125,5620.32080078125,13597.8056640625,6657.44140625,7439.45458984375,4818.439453125,0.0,13422.9658203125
6917.31787109375,4845.46044921875,16457.23828125,10011.990234375,19551.912109375,8034.7060546875,13098.716796875,17872.65234375,10039.806640625,12307.1669921875,8309.681640625,10213.0576171875,-4306.63427734375,0.0,14983.017578125,16783.080078125,3930.7275390625,4421.0751953125,8062.52197265625,10436.3759765625,6612.9365234375,14420.349609375,11660.2578125,26636.919921875,199.4768829345703,2683.003662109375,9594.7578125,17555.5546875,-4142.12548828125,3829.797119140625,22451.08203125,-8739.630859375,-1912.116943359375,6109.0791015625,13595.421875,14719.1689453125,10524.5908203125,13132.095703125,8505.98046875,-0.0,6507.23779296875,30808.44921875,35332.83984375,11815.23046875,23698.806640625,18822.3515625,-311.5335998535156,-378.2908020019531,6132.9208984375,17763.7734375,13879.935546875,17884.572265625,13723.373046875,2406.438232421875,3075.599609375,12354.8505859375,0.0,6267.2294921875,11092.0263671875,11604.626953125,8707.8408203125,14266.173828125,14037.2919921875,20755.92578125,-10486.443359375,5579.78955078125,13577.1435546875,6614.5263671875,7421.17529296875,4779.49755859375,0.0,13392.765625
6871.2236328125,4810.4921875,16383.3291015625,10050.9326171875,19559.859375,8041.064453125,13102.6904296875,17866.29296875,10037.421875,12282.53125,8309.681640625,10213.8515625,-4301.8662109375,0.0,14982.2236328125,16775.130859375,3941.05908203125,4427.43310546875,8064.11083984375,10422.0703125,6623.26806640625,14431.4765625,11667.4111328125,26643.275390625,205.03997802734375,2690.951171875,9608.2685546875,17554.759765625,-4133.38330078125,3823.439453125,22461.4140625,-8737.24609375,-1903.375,6118.61572265625,13604.1640625,14726.3212890625,10527.7705078125,13131.30078125,8640.2890625,-0.0,6523.13232421875,30826.7265625,35342.375,11816.0244140625,23700.396484375,18811.2265625,-309.94415283203125,-397.3642883300781,6139.2783203125,17765.36328125,13875.9609375,17875.830078125,13738.47265625,2361.933349609375,3070.03662109375,12358.029296875,0.0,6264.84521484375,11092.0263671875,11579.1962890625,8704.662109375,14270.146484375,14032.5234375,20716.986328125,-10480.880859375,5582.173828125,13574.759765625,6563.66357421875,7428.328125,4690.48828125,0.0,13309.3193359375
6877.5810546875,4784.26611328125,16380.9453125,10025.5009765625,19563.833984375,8037.09033203125,13104.279296875,17856.755859375,10037.421875,12272.994140625,8306.5029296875,10217.0302734375,-4283.5869140625,0.0,14975.0712890625,16764.798828125,3944.23828125,4427.43310546875,8063.31640625,10417.3017578125,6628.03662109375,14430.6826171875,11669.794921875,26641.6875,203.4505157470703,2686.1826171875,9608.2685546875,17547.607421875,-4124.6416015625,3825.823486328125,22462.208984375,-8734.8623046875,-1899.4013671875,6117.82080078125,13608.1376953125,14723.9375,10530.9482421875,13125.7373046875,8681.615234375,-0.0,6539.02685546875,30818.78125,35347.9375,11812.05078125,23700.396484375,18805.662109375,-254.31314086914062,-391.80120849609375,6155.9677734375,17762.98046875,13870.3984375,17865.5,13724.962890625,2381.801513671875,3061.29443359375,12357.2353515625,0.0,6251.3349609375,11088.0537109375,11555.3544921875,8727.7099609375,14268.5576171875,14030.138671875,20702.6796875,-10474.5224609375,5585.3525390625,13566.8115234375,6548.5634765625,7423.5595703125,4664.26220703125,0.0,13278.3251953125
6875.99169921875,4758.8349609375,16522.408203125,9993.712890625,19564.62890625,8033.1162109375,13102.6904296875,17849.603515625,10044.5751953125,12274.5830078125,8308.8876953125,10213.0576171875,-4276.4345703125,0.0,14967.91796875,16759.236328125,3937.880126953125,4421.86962890625,8060.93212890625,10422.8662109375,6622.47314453125,14421.939453125,11665.8212890625,26635.328125,202.65579223632812,2675.056396484375,9603.5,17545.22265625,-4127.8203125,3824.23388671875,22455.056640625,-8730.888671875,-1900.196044921875,6104.310546875,13602.57421875,14718.373046875,10527.7705078125,13122.55859375,8629.9580078125,-0.0,6525.5166015625,30809.244140625,35344.76171875,11808.078125,23703.57421875,18804.869140625,-216.1661834716797,-375.1119079589844,6157.55712890625,17759.80078125,13865.6298828125,17861.525390625,13732.91015625,2407.23291015625,3050.963134765625,12355.6455078125,0.0,6239.4140625,11091.232421875,11550.5859375,8751.5517578125,14264.583984375,14032.5234375,20716.189453125,-10468.9599609375,5586.1474609375,13560.4541015625,6554.126953125,7439.45458984375,4668.23583984375,0.0,13280.708984375
6879.96533203125,4710.3564453125,16520.0234375,10003.2490234375,19583.701171875,8053.77978515625,13126.5322265625,17867.8828125,10069.2109375,12298.4248046875,8327.9609375,10236.1044921875,-4283.5869140625,0.0,14990.1708984375,16776.720703125,3957.74853515625,4443.32763671875,8083.9794921875,10449.88671875,6647.10986328125,14440.21875,11688.0732421875,26656.78515625,210.6030731201172,2695.719482421875,9626.5478515625,17562.70703125,-4107.1572265625,3844.89697265625,22476.515625,-8703.8681640625,-1866.022705078125,6118.61572265625,13623.2373046875,14739.0361328125,10552.40625,13145.6064453125,8550.484375,-0.0,6545.384765625,30825.93359375,35363.8359375,11827.9453125,23729.005859375,18827.119140625,-228.8818359375,-336.9649353027344,6183.783203125,17782.052734375,13889.4716796875,17879.009765625,13733.7041015625,2446.174560546875,3087.5205078125,12373.1298828125,0.0,6260.8720703125,11115.07421875,11572.837890625,8768.2412109375,14286.8359375,14057.1591796875,20748.7734375,-10449.88671875,5609.1943359375,13582.7060546875,6598.63134765625,7459.322265625,4714.330078125,0.0,13312.4990234375
6941.9541015625,4839.10205078125,16481.876953125,10044.5751953125,19618.669921875,8096.69482421875,13161.5,17913.9765625,10103.384765625,12345.314453125,8367.697265625,10285.3779296875,-4266.8974609375,0.0,15021.1650390625,16824.404296875,4008.611083984375,4486.24267578125,8126.099609375,10491.2119140625,6686.0517578125,14483.9287109375,11727.015625,26701.29296875,252.72369384765625,2744.992431640625,9658.3369140625,17605.623046875,-4073.778564453125,3890.9912109375,22519.4296875,-8655.388671875,-1837.4124755859375,6166.29931640625,13663.7685546875,14780.3623046875,10588.1689453125,13188.521484375,8651.416015625,-0.0,6591.47900390625,30864.080078125,35398.80078125,11870.861328125,23762.384765625,18873.21484375,-232.85548400878906,-282.128662109375,6219.5458984375,17827.3515625,13917.287109375,17925.103515625,13746.4208984375,2485.9111328125,3162.22509765625,12417.6337890625,0.0,6304.58203125,11152.4267578125,11624.4951171875,8784.134765625,14327.3671875,14096.1005859375,20793.279296875,-10413.3291015625,5651.3154296875,13614.4951171875,6669.3623046875,7495.8798828125,4773.93505859375,0.0,13368.1298828125
6977.716796875,4948.77490234375,16539.892578125,10096.232421875,19644.1015625,8121.3310546875,13185.341796875,17940.998046875,10123.2529296875,12376.30859375,8397.896484375,10312.3984375,-4246.23486328125,0.0,15043.41796875,16852.220703125,4035.631591796875,4513.263671875,8149.94140625,10518.2333984375,6709.8935546875,14509.3603515625,11751.6513671875,26725.927734375,307.5599670410156,2772.80810546875,9686.15234375,17631.849609375,-4056.294921875,3916.42236328125,22546.44921875,-8626.7783203125,-1806.4180908203125,6194.90966796875,13687.6103515625,14806.587890625,10612.0107421875,13214.7470703125,8717.3779296875,-0.0,6616.11572265625,30891.89453125,35423.4375,11897.8818359375,23785.43359375,18901.029296875,-180.4033966064453,-267.82354736328125,6239.4140625,17851.98828125,13938.744140625,17954.5078125,13807.6142578125,2497.037109375,3191.630126953125,12441.4755859375,0.0,6330.80810546875,11165.9365234375,11655.490234375,8815.9248046875,14354.388671875,14120.73828125,20826.658203125,-10395.8447265625,5672.77294921875,13635.953125,6693.20458984375,7528.4638671875,4811.287109375,0.0,13407.0712890625
6949.9013671875,4944.80126953125,16537.5078125,10046.958984375,19602.775390625,8079.21142578125,13141.6318359375,17901.26171875,10073.9794921875,12333.3935546875,8352.59765625,10270.2783203125,-4266.8974609375,0.0,15003.681640625,16810.89453125,3985.563720703125,4467.16943359375,8105.4375,10472.93359375,6666.978515625,14462.470703125,11707.146484375,26682.21875,263.8498840332031,2730.6875,9642.44140625,17592.111328125,-4093.64697265625,3878.275634765625,22501.9453125,-8677.6416015625,-1848.5386962890625,6140.0732421875,13644.6953125,14762.083984375,10569.8896484375,13171.037109375,8630.7529296875,-0.0,6581.94189453125,30849.775390625,35379.7265625,11854.171875,23739.337890625,18857.3203125,-224.11346435546875,-337.7596435546875,6193.31982421875,17809.8671875,13899.0087890625,17912.388671875,13760.7255859375,2469.221923828125,3132.820068359375,12399.35546875,0.0,6299.01904296875,11115.07421875,11614.958984375,8794.466796875,14308.29296875,14074.6435546875,20779.767578125,-10434.787109375,5633.0361328125,13594.626953125,6641.546875,7448.1962890625,4770.755859375,0.0,13367.3349609375
6932.41748046875,4908.24365234375,16494.591796875,10004.0439453125,19553.50390625,8034.7060546875,13104.279296875,17865.5,10051.7275390625,12300.80859375,8312.06640625,10225.7724609375,-4286.76611328125,0.0,14991.759765625,16774.3359375,3939.4697265625,4421.86962890625,8068.0849609375,10448.296875,6619.29443359375,14419.5556640625,11665.8212890625,26640.095703125,210.6030731201172,2685.387939453125,9609.0634765625,17555.5546875,-4124.6416015625,3844.10205078125,22455.8515625,-8723.7353515625,-1906.5538330078125,6105.10498046875,13600.9853515625,14718.373046875,10531.7431640625,13132.8896484375,8607.705078125,-0.0,6523.92724609375,30806.859375,35336.8125,11813.640625,23709.138671875,18822.3515625,-274.1813659667969,-379.0855407714844,6138.4833984375,17760.595703125,13885.498046875,17875.830078125,13700.326171875,2427.895751953125,3074.01025390625,12358.029296875,0.0,6277.56103515625,11100.76953125,11582.375,8745.193359375,14266.9677734375,14042.0595703125,20757.517578125,-10478.49609375,5590.91552734375,13583.5009765625,6599.42626953125,7437.86474609375,4751.68212890625,0.0,13354.619140625
6931.623046875,4870.8916015625,16480.287109375,9974.638671875,19561.44921875,8041.064453125,13116.99609375,17872.65234375,10070.0068359375,12310.345703125,8304.9130859375,10231.3359375,-4272.4609375,0.0,15012.423828125,16779.900390625,3943.443359375,4431.40673828125,8076.03173828125,10462.6015625,6631.21533203125,14421.939453125,11675.357421875,26646.455078125,191.5295867919922,2689.361572265625,9622.57421875,17561.912109375,-4117.48876953125,3850.4599609375,22463.00390625,-8719.76171875,-1885.8909912109375,6096.36328125,13610.5224609375,14725.525390625,10543.6640625,13141.6318359375,8540.9482421875,-0.0,6531.8740234375,30809.244140625,35349.52734375,11819.203125,23725.033203125,18828.7109375,-290.87066650390625,-365.5751647949219,6124.17822265625,17768.541015625,13909.33984375,17881.392578125,13754.3681640625,2450.1484375,3082.752197265625,12362.7978515625,0.0,6266.43505859375,11126.2001953125,11590.3212890625,8736.451171875,14275.7099609375,14054.775390625,20769.4375,-10476.1123046875,5597.2734375,13606.5478515625,6612.9365234375,7472.0380859375,4758.8349609375,0.0,13364.15625
6894.2705078125,4849.43408203125,16425.451171875,9961.9228515625,19557.4765625,8033.1162109375,13097.921875,17848.015625,10032.654296875,12276.1728515625,8279.482421875,10221.0048828125,-4266.10302734375,0.0,14991.759765625,16758.44140625,3933.111572265625,4421.86962890625,8056.16357421875,10422.8662109375,6624.06298828125,14412.4033203125,11662.642578125,26630.560546875,162.1246337890625,2681.414306640625,9605.08984375,17544.427734375,-4115.8994140625,3841.718017578125,22452.673828125,-8746.783203125,-1898.606689453125,6082.85302734375,13601.7802734375,14713.6044921875,10523.001953125,13122.55859375,8515.517578125,-0.0,6543.794921875,30802.884765625,35339.9921875,11803.3095703125,23698.01171875,18801.689453125,-325.8387145996094,-417.2325134277344,6137.68896484375,17763.7734375,13887.8818359375,17858.34765625,13719.3994140625,2445.3798828125,3089.90478515625,12355.6455078125,0.0,6239.4140625,11082.490234375,11557.73828125,8721.3515625,14261.4052734375,14029.34375,20716.986328125,-10479.291015625,5588.53125,13586.6806640625,6593.068359375,7412.43359375,4717.5087890625,0.0,13307.73046875
6827.51318359375,4800.16064453125,16301.4736328125,9953.9755859375,19513.765625,7985.4326171875,13044.6748046875,17791.58984375,9965.1025390625,12216.568359375,8241.3359375,10177.294921875,-4313.787109375,0.0,14935.333984375,16702.017578125,3883.0439453125,4371.8017578125,8002.91748046875,10359.287109375,6574.78955078125,14369.4873046875,11613.369140625,26581.287109375,143.0511474609375,2637.7041015625,9552.6376953125,17493.56640625,-4161.99365234375,3800.39208984375,22403.3984375,-8796.8515625,-1962.1849365234375,6046.294921875,13552.5068359375,14665.126953125,10468.9599609375,13068.5166015625,8542.5380859375,-0.0,6504.853515625,30764.73828125,35290.71875,11754.0361328125,23637.61328125,18744.46875,-383.8539123535156,-477.63189697265625,6115.4365234375,17717.6796875,13830.662109375,17803.509765625,13680.4580078125,2375.443603515625,3047.7841796875,12311.935546875,0.0,6194.11474609375,11008.580078125,11498.1337890625,8680.8203125,14209.7470703125,13971.3291015625,20656.5859375,-10526.974609375,5545.6162109375,13528.6650390625,6546.17919921875,7344.0869140625,4654.7255859375,0.0,13245.7421875
6786.1875,4764.39794921875,16341.208984375,9946.8232421875,19514.560546875,7983.84375,13045.470703125,17793.974609375,9973.84375,12222.130859375,8254.845703125,10175.705078125,-4341.6025390625,0.0,14928.181640625,16705.990234375,3884.63330078125,4371.8017578125,8006.89013671875,10368.029296875,6573.2001953125,14369.4873046875,11612.57421875,26582.876953125,162.9193572998047,2636.909423828125,9559.791015625,17494.359375,-4180.2724609375,3784.49755859375,22403.3984375,-8795.26171875,-1955.8270263671875,6048.67919921875,13550.1220703125,14665.9208984375,10472.138671875,13068.5166015625,8563.9951171875,-0.0,6496.111328125,30766.328125,35289.12890625,11754.830078125,23639.201171875,18749.236328125,-355.2436828613281,-445.0480041503906,6112.25732421875,17715.294921875,13824.3037109375,17806.6875,13678.07421875,2348.423095703125,3035.86328125,12308.7568359375,0.0,6198.8828125,11019.70703125,11505.2861328125,8670.4892578125,14212.1318359375,13976.0966796875,20670.890625,-10533.3330078125,5540.84765625,13522.3076171875,6556.5107421875,7368.7236328125,4658.69921875,0.0,13252.89453125
6826.71875,4853.4072265625,16389.689453125,10029.4755859375,19594.03515625,8069.67431640625,13127.3271484375,17884.572265625,10058.8798828125,12312.7294921875,8335.11328125,10262.330078125,-4254.9765625,0.0,14984.607421875,16795.0,3977.61669921875,4459.22216796875,8093.51611328125,10457.0390625,6667.77294921875,14459.2919921875,11696.8154296875,26669.501953125,234.44493103027344,2721.945556640625,9632.1103515625,17585.75390625,-4097.62060546875,3868.73876953125,22496.380859375,-8713.404296875,-1850.9229736328125,6141.66259765625,13638.3369140625,14752.546875,10555.5849609375,13155.142578125,8584.658203125,-0.0,6602.60546875,30853.748046875,35367.01171875,11843.044921875,23723.443359375,18839.041015625,-260.6709899902344,-355.2436828613281,6152.78857421875,17801.919921875,13882.3193359375,17896.494140625,13758.341796875,2440.611572265625,3115.336181640625,12396.1767578125,0.0,6284.7138671875,11101.5634765625,11596.6796875,8739.630859375,14297.16796875,14064.3115234375,20763.078125,-10449.88671875,5633.0361328125,13578.732421875,6643.93115234375,7441.0439453125,4758.8349609375,0.0,13352.234375
6901.4228515625,4906.654296875,16452.470703125,10081.927734375,19625.029296875,8106.2314453125,13157.52734375,17924.30859375,10093.8486328125,12354.8505859375,8372.4658203125,10291.7353515625,-4210.47216796875,0.0,15010.0390625,16832.3515625,4014.96875,4492.60107421875,8129.279296875,10495.98046875,6700.35693359375,14495.849609375,11730.1943359375,26704.46875,263.05517578125,2760.092529296875,9638.46875,17623.10546875,-4060.268310546875,3907.680419921875,22529.759765625,-8671.2841796875,-1811.981201171875,6188.55126953125,13670.9208984375,14789.1044921875,10584.990234375,13192.494140625,8645.8525390625,-0.0,6626.447265625,30888.71484375,35395.62109375,11879.603515625,23756.822265625,18876.39453125,-223.31874084472656,-309.1494140625,6209.21484375,17837.68359375,13906.1611328125,17934.640625,13792.5146484375,2478.758544921875,3158.25146484375,12432.734375,0.0,6331.6025390625,11133.353515625,11638.80078125,8800.82421875,14330.5458984375,14097.6904296875,20805.994140625,-10414.91796875,5669.59375,13602.57421875,6682.87255859375,7471.2431640625,4813.6708984375,0.0,13405.482421875
6926.0595703125,4885.19677734375,16521.611328125,10011.1962890625,19582.11328125,8064.90625,13123.3525390625,17886.95703125,10058.0849609375,12319.087890625,8350.212890625,10253.5888671875,-4246.23486328125,0.0,14988.58203125,16794.205078125,3966.490234375,4451.27490234375,8091.9267578125,10459.4228515625,6645.5205078125,14448.9599609375,11692.046875,26663.14453125,240.80276489257812,2714.79296875,9614.626953125,17585.75390625,-4090.468017578125,3867.944091796875,22483.66796875,-8697.509765625,-1878.7384033203125,6142.45751953125,13626.416015625,14746.189453125,10549.2275390625,13154.34765625,8699.8935546875,-0.0,6550.1533203125,30836.263671875,35359.859375,11839.072265625,23721.060546875,18838.248046875,-235.2396697998047,-305.97052001953125,6182.19384765625,17797.15234375,13884.7041015625,17896.494140625,13769.4677734375,2442.995849609375,3117.720458984375,12392.203125,0.0,6295.83984375,11096.794921875,11603.0380859375,8783.3408203125,14290.8095703125,14059.5439453125,20770.23046875,-10436.3759765625,5625.8837890625,13581.912109375,6644.7255859375,7445.81201171875,4776.31884765625,0.0,13370.513671875
6945.13330078125,4874.07080078125,16575.654296875,9979.4072265625,19567.80859375,8051.3955078125,13113.021484375,17867.8828125,10046.1640625,12299.2197265625,8338.2919921875,10238.48828125,-4293.12353515625,0.0,14982.2236328125,16775.92578125,3949.801025390625,4437.7646484375,8076.8271484375,10444.3232421875,6626.447265625,14432.271484375,11677.7421875,26648.83984375,247.16058349609375,2702.8720703125,9615.4208984375,17571.44921875,-4103.978515625,3852.049560546875,22466.978515625,-8705.45703125,-1893.8382568359375,6101.13134765625,13609.7265625,14729.5,10537.306640625,13140.0419921875,8723.7353515625,-0.0,6517.56884765625,30829.111328125,35349.52734375,11824.767578125,23711.5234375,18822.3515625,-216.1661834716797,-340.1438293457031,6174.24609375,17786.025390625,13879.935546875,17878.21484375,13767.0830078125,2423.12744140625,3105.004638671875,12370.74609375,0.0,6247.36181640625,11087.2587890625,11583.1689453125,8765.8564453125,14277.298828125,14045.23828125,20751.953125,-10440.349609375,5606.81005859375,13576.3486328125,6624.857421875,7436.275390625,4750.0927734375,0.0,13345.08203125
6959.4384765625,4869.30224609375,16547.044921875,10020.732421875,19577.345703125,8055.369140625,13116.99609375,17871.060546875,10055.701171875,12305.5771484375,8341.4716796875,10232.130859375,-4327.29736328125,0.0,14992.5546875,16779.900390625,3954.5693359375,4441.73828125,8080.80029296875,10452.2705078125,6634.39404296875,14433.8603515625,11681.7158203125,26652.017578125,247.955322265625,2706.845458984375,9632.9052734375,17577.013671875,-4119.873046875,3856.023193359375,22471.74609375,-8704.662109375,-1886.6856689453125,6106.69482421875,13617.6748046875,14732.6787109375,10543.6640625,13141.6318359375,8592.60546875,-0.0,6531.07958984375,30825.138671875,35356.68359375,11830.330078125,23718.67578125,18830.298828125,-233.65020751953125,-355.2436828613281,6185.373046875,17796.357421875,13887.087890625,17882.189453125,13751.9833984375,2404.053955078125,3112.951904296875,12373.1298828125,0.0,6240.208984375,11103.947265625,11590.3212890625,8753.140625,14282.0673828125,14051.5966796875,20762.28515625,-10453.064453125,5608.39990234375,13584.2958984375,6634.39404296875,7443.42822265625,4753.271484375,0.0,13357.0029296875
6961.02783203125,4840.69189453125,16517.638671875,10101.0009765625,19594.03515625,8068.87890625,13129.7109375,17886.162109375,10072.390625,12319.8828125,8356.5712890625,10242.4619140625,-4306.63427734375,0.0,15002.091796875,16795.79296875,3970.464111328125,4454.4541015625,8091.13232421875,10467.3701171875,6647.10986328125,14449.755859375,11695.2255859375,26663.14453125,252.72369384765625,2719.561279296875,9640.0576171875,17591.318359375,-4107.1572265625,3864.76513671875,22484.4609375,-8703.072265625,-1879.533203125,6152.78857421875,13629.595703125,14746.9833984375,10554.7900390625,13153.552734375,8541.7431640625,-0.0,6547.76904296875,30832.291015625,35369.39453125,11843.044921875,23729.80078125,18842.220703125,-219.3450927734375,-322.6598205566406,6190.14111328125,17812.251953125,13897.4189453125,17896.494140625,13771.8515625,2404.053955078125,3103.415283203125,12393.7919921875,0.0,6256.8984375,11119.8427734375,11606.216796875,8753.935546875,14293.98828125,14066.6962890625,20774.20703125,-10444.3232421875,5622.705078125,13593.8330078125,6649.494140625,7461.70654296875,4771.55078125,0.0,13372.103515625
6995.99609375,4804.92919921875,16515.255859375,10151.068359375,19613.900390625,8103.84765625,13159.1162109375,17917.951171875,10101.0009765625,12352.466796875,8384.38671875,10282.9931640625,-4250.20849609375,0.0,15025.138671875,16827.583984375,4000.663818359375,4484.6533203125,8122.12646484375,10498.3642578125,6678.8994140625,14490.287109375,11723.0419921875,26696.5234375,274.9761047363281,2756.11865234375,9665.4892578125,17617.544921875,-4076.162841796875,3898.9384765625,22517.046875,-8683.9990234375,-1842.180908203125,6198.08837890625,13657.41015625,14780.3623046875,10584.1953125,13183.7529296875,8673.66796875,-0.0,6572.4052734375,30883.154296875,35396.4140625,11872.451171875,23760.0,18871.625,-192.32432556152344,-309.1494140625,6209.21484375,17839.2734375,13921.2607421875,17928.28125,13825.8935546875,2425.51171875,3120.1044921875,12423.9921875,0.0,6291.8662109375,11142.0947265625,11630.8525390625,8783.3408203125,14321.8037109375,14096.896484375,20804.404296875,-10409.35546875,5653.69921875,13617.6748046875,6668.56787109375,7499.05908203125,4801.75,0.0,13403.892578125
6959.4384765625,4808.90283203125,16485.849609375,10054.111328125,19594.828125,8077.62158203125,13143.2216796875,17904.439453125,10085.900390625,12333.3935546875,8362.1337890625,10264.7138671875,-4242.26123046875,0.0,15019.576171875,16815.662109375,3980.0009765625,4464.78515625,8104.64208984375,10480.880859375,6667.77294921875,14462.470703125,11707.146484375,26679.0390625,266.23406982421875,2731.482177734375,9640.8525390625,17595.291015625,-4087.289306640625,3891.785888671875,22497.97265625,-8689.5625,-1849.3333740234375,6138.4833984375,13641.5166015625,14759.7001953125,10568.30078125,13165.4736328125,8668.10546875,-0.0,6563.66357421875,30855.337890625,35379.7265625,11850.9931640625,23746.490234375,18854.9375,-223.31874084472656,-350.4753112792969,6190.935546875,17809.072265625,13915.6982421875,17915.568359375,13799.6669921875,2440.611572265625,3131.230712890625,12404.9189453125,0.0,6313.32421875,11130.96875,11619.7275390625,8795.26171875,14303.525390625,14081.0009765625,20790.099609375,-10422.8662109375,5644.16259765625,13612.111328125,6635.18896484375,7483.958984375,4774.7294921875,0.0,13385.61328125
6921.29150390625,4831.94970703125,16481.876953125,9961.1279296875,19571.78125,8037.884765625,13109.8427734375,17871.060546875,10050.1376953125,12300.80859375,8322.3984375,10231.3359375,-4264.513671875,0.0,14981.4287109375,16782.283203125,3945.827392578125,4429.8173828125,8068.0849609375,10444.3232421875,6632.8046875,14420.349609375,11674.5634765625,26638.5078125,224.90818786621094,2688.56689453125,9623.3681640625,17556.349609375,-4112.720703125,3856.81787109375,22463.00390625,-8714.19921875,-1888.275146484375,6097.9521484375,13608.1376953125,14721.552734375,10533.3330078125,13132.095703125,8613.2685546875,-0.0,6544.58984375,30805.26953125,35352.70703125,11812.845703125,23708.34375,18822.3515625,-291.6654052734375,-347.29638671875,6177.42529296875,17771.720703125,13877.55078125,17882.982421875,13767.87890625,2396.9013671875,3097.85205078125,12371.5400390625,0.0,6286.30322265625,11098.384765625,11595.8857421875,8764.2666015625,14270.94140625,14044.4443359375,20751.158203125,-10453.064453125,5607.60498046875,13573.169921875,6616.91064453125,7450.58056640625,4735.7880859375,0.0,13349.056640625
6909.37060546875,4813.6708984375,16421.4765625,9917.4189453125,19561.44921875,8013.24853515625,13088.3857421875,17840.861328125,10016.7587890625,12274.5830078125,8281.8671875,10216.236328125,-4270.87158203125,0.0,14959.17578125,16750.494140625,3921.985595703125,4408.359375,8044.24267578125,10414.91796875,6616.11572265625,14394.9189453125,11653.10546875,26614.666015625,175.63502502441406,2670.2880859375,9598.732421875,17528.533203125,-4123.05224609375,3832.97607421875,22442.341796875,-8736.451171875,-1914.501220703125,6072.52099609375,13591.44921875,14697.7109375,10513.46484375,13106.6640625,8575.916015625,-0.0,6549.3583984375,30781.427734375,35337.609375,11788.208984375,23684.501953125,18795.33203125,-310.7388916015625,-354.4489440917969,6167.09375,17746.291015625,13855.2978515625,17852.783203125,13739.2685546875,2351.601806640625,3062.089111328125,12349.2880859375,0.0,6260.0771484375,11041.1640625,11565.685546875,8728.50390625,14249.484375,14017.4228515625,20724.138671875,-10485.6494140625,5588.53125,13551.7119140625,6614.5263671875,7421.97021484375,4730.224609375,0.0,13327.5986328125
6840.22900390625,4805.7236328125,16459.623046875,9945.2333984375,19563.0390625,8016.42724609375,13096.3330078125,17846.42578125,10021.52734375,12276.966796875,8298.556640625,10228.951171875,-4273.255859375,0.0,14979.044921875,16755.26171875,3932.317138671875,4416.30712890625,8052.9853515625,10420.4814453125,6627.24169921875,14403.6611328125,11657.8740234375,26622.61328125,194.70851135253906,2674.26171875,9607.474609375,17535.685546875,-4111.92578125,3831.386474609375,22450.2890625,-8743.603515625,-1891.4541015625,6083.6474609375,13597.8056640625,14704.86328125,10523.001953125,13113.021484375,8519.490234375,-0.0,6560.484375,30783.017578125,35336.01953125,11795.361328125,23694.0390625,18799.3046875,-241.5974884033203,-336.9649353027344,6161.53076171875,17747.87890625,13878.345703125,17856.755859375,13692.37890625,2407.23291015625,3085.136474609375,12356.4404296875,0.0,6260.8720703125,11057.0595703125,11570.4541015625,8719.76171875,14255.046875,14023.78125,20728.90625,-10490.41796875,5598.86328125,13573.9638671875,6624.857421875,7404.486328125,4739.76123046875,0.0,13333.95703125
6865.66015625,4861.35498046875,16539.09765625,9983.3798828125,19578.138671875,8040.26904296875,13116.2001953125,17875.037109375,10061.263671875,12307.9619140625,8339.8818359375,10260.7412109375,-4288.35546875,0.0,15008.44921875,16786.255859375,3960.132568359375,4437.7646484375,8079.21142578125,10454.654296875,6638.3681640625,14431.4765625,11680.9208984375,26650.4296875,242.39222717285156,2699.69287109375,9638.46875,17564.296875,-4091.2626953125,3863.970458984375,22472.5390625,-8710.2255859375,-1881.9173583984375,6109.87353515625,13616.0849609375,14728.705078125,10543.6640625,13141.6318359375,8677.6416015625,-0.0,6545.384765625,30809.244140625,35356.68359375,11823.177734375,23717.083984375,18829.50390625,-191.5295867919922,-310.7388916015625,6181.39892578125,17769.3359375,13903.77734375,17886.162109375,13701.916015625,2479.55322265625,3122.48876953125,12385.8447265625,0.0,6274.38232421875,11121.4326171875,11605.421875,8755.5244140625,14280.478515625,14053.185546875,20763.875,-10448.296875,5630.65185546875,13601.7802734375,6643.93115234375,7445.81201171875,4765.1923828125,0.0,13364.951171875
6922.880859375,4872.48095703125,16504.923828125,9988.9443359375,19570.986328125,8041.064453125,13111.431640625,17871.060546875,10060.4697265625,12306.373046875,8342.265625,10257.5615234375,-4295.5078125,0.0,15000.5029296875,16780.6953125,3956.95361328125,4434.58544921875,8075.2373046875,10450.6806640625,6632.009765625,14429.88671875,11674.5634765625,26645.66015625,240.00804138183594,2702.8720703125,9618.599609375,17564.296875,-4103.978515625,3856.023193359375,22466.978515625,-8697.509765625,-1896.222412109375,6110.66796875,13610.5224609375,14727.91015625,10536.51171875,13137.658203125,8707.046875,-0.0,6527.90087890625,30811.62890625,35350.32421875,11821.587890625,23713.111328125,18827.119140625,-228.0871124267578,-326.6334533691406,6182.98876953125,17777.28515625,13895.03515625,17881.392578125,13737.6787109375,2500.21630859375,3122.48876953125,12377.1025390625,0.0,6240.208984375,11115.07421875,11597.4736328125,8768.2412109375,14277.298828125,14050.0068359375,20760.6953125,-10445.1181640625,5624.29443359375,13593.0380859375,6643.93115234375,7453.759765625,4762.80810546875,0.0,13363.361328125
6953.08056640625,4912.2177734375,16508.1015625,10017.5546875,19594.03515625,8064.11083984375,13132.095703125,17890.9296875,10078.748046875,12326.240234375,8366.90234375,10275.8408203125,-4274.84521484375,0.0,15014.0126953125,16799.767578125,3978.4111328125,4456.04345703125,8095.10498046875,10469.75390625,6656.646484375,14452.9345703125,11695.2255859375,26665.529296875,236.82911682128906,2725.9189453125,9637.673828125,17584.958984375,-4081.72607421875,3883.838623046875,22490.025390625,-8678.4365234375,-1874.7647705078125,6136.09912109375,13632.7744140625,14750.1630859375,10557.96875,13158.3212890625,8697.509765625,-0.0,6565.2529296875,30834.67578125,35370.19140625,11843.044921875,23733.7734375,18846.193359375,-256.69732666015625,-309.94415283203125,6202.8564453125,17803.509765625,13909.33984375,17899.671875,13791.720703125,2520.879150390625,3143.9462890625,12399.35546875,0.0,6264.05078125,11128.5849609375,11614.958984375,8777.77734375,14297.9619140625,14068.2861328125,20783.7421875,-10425.25,5640.1884765625,13604.1640625,6653.4677734375,7472.0380859375,4779.49755859375,0.0,13385.61328125
6916.52294921875,4918.5751953125,16500.94921875,10016.7587890625,19594.828125,8068.87890625,13131.30078125,17898.08203125,10075.5693359375,12322.2666015625,8367.697265625,10270.2783203125,-4278.0244140625,0.0,15006.0654296875,16808.509765625,3975.232666015625,4455.24853515625,8095.10498046875,10467.3701171875,6659.03076171875,14452.1396484375,11696.021484375,26666.322265625,246.36587524414062,2725.9189453125,9647.2099609375,17592.111328125,-4088.878662109375,3888.60693359375,22491.61328125,-8693.5361328125,-1867.6121826171875,6132.9208984375,13632.7744140625,14750.95703125,10558.7646484375,13159.1162109375,8680.0263671875,-0.0,6570.81591796875,30836.263671875,35370.98828125,11846.224609375,23730.595703125,18844.60546875,-259.8762512207031,-325.04400634765625,6210.00927734375,17809.072265625,13900.59765625,17909.208984375,13800.4619140625,2492.268798828125,3135.9990234375,12398.560546875,0.0,6299.81396484375,11126.9951171875,11619.7275390625,8760.29296875,14299.5517578125,14067.490234375,20779.767578125,-10429.22265625,5633.8310546875,13597.8056640625,6622.47314453125,7458.52783203125,4759.6298828125,0.0,13384.8193359375
6928.44384765625,4900.296875,16476.3125,10014.375,19599.595703125,8070.46875,13132.8896484375,17906.82421875,10073.1845703125,12319.087890625,8351.0087890625,10261.53515625,-4268.4873046875,0.0,15014.0126953125,16819.634765625,3968.87451171875,4456.04345703125,8094.310546875,10461.8076171875,6659.82568359375,14450.5498046875,11697.6103515625,26667.1171875,259.8762512207031,2721.945556640625,9647.2099609375,17600.05859375,-4095.236328125,3880.659912109375,22489.228515625,-8706.251953125,-1863.6385498046875,6126.5625,13635.158203125,14749.3681640625,10559.55859375,13159.9111328125,8646.6474609375,-0.0,6579.55810546875,30837.05859375,35374.95703125,11847.8134765625,23729.80078125,18846.98828125,-267.02880859375,-342.52801513671875,6205.24072265625,17810.6640625,13910.9296875,17918.744140625,13790.9248046875,2475.57958984375,3123.283447265625,12393.7919921875,0.0,6324.4501953125,11123.81640625,11631.6484375,8753.935546875,14300.3466796875,14066.6962890625,20765.462890625,-10444.3232421875,5625.8837890625,13606.5478515625,6607.37353515625,7464.0908203125,4750.88720703125,0.0,13364.951171875
6936.39111328125,4904.27001953125,16452.470703125,10059.673828125,19611.517578125,8075.2373046875,13140.837890625,17906.03125,10087.490234375,12334.982421875,8345.4443359375,10266.3037109375,-4254.9765625,0.0,15025.138671875,16817.251953125,3983.1796875,4468.75927734375,8102.2578125,10476.1123046875,6678.1044921875,14464.060546875,11708.736328125,26674.271484375,264.6446228027344,2728.30322265625,9648.7998046875,17598.470703125,-4088.083740234375,3877.480712890625,22504.330078125,-8699.8935546875,-1848.5386962890625,6144.046875,13648.6689453125,14759.7001953125,10567.505859375,13166.2685546875,8629.9580078125,-0.0,6609.7578125,30849.775390625,35382.90625,11851.787109375,23741.72265625,18850.16796875,-235.2396697998047,-336.9649353027344,6206.03564453125,17810.6640625,13922.0556640625,17916.361328125,13755.162109375,2481.142822265625,3133.61474609375,12388.2294921875,0.0,6342.72900390625,11146.068359375,11611.779296875,8767.4453125,14307.4990234375,14077.02734375,20782.15234375,-10435.5810546875,5629.0625,13620.05859375,6602.60546875,7487.9326171875,4790.6240234375,0.0,13387.203125
6889.501953125,4889.96484375,16397.634765625,10101.0009765625,19591.650390625,8062.52197265625,13133.685546875,17899.671875,10078.748046875,12325.4462890625,8342.265625,10250.4091796875,-4251.79833984375,0.0,15012.423828125,16809.3046875,3974.437744140625,4456.837890625,8092.72119140625,10469.75390625,6661.4150390625,14456.908203125,11696.8154296875,26663.14453125,249.54476928710938,2713.998046875,9645.62109375,17584.958984375,-4092.85205078125,3858.4072265625,22493.205078125,-8707.046875,-1869.20166015625,6136.89404296875,13636.748046875,14752.546875,10558.7646484375,13156.7314453125,8656.978515625,-0.0,6576.37939453125,30841.828125,35370.19140625,11841.4560546875,23735.365234375,18842.220703125,-225.7029266357422,-345.7069396972656,6182.19384765625,17791.58984375,13907.75,17911.591796875,13748.8046875,2443.79052734375,3121.69384765625,12358.8251953125,0.0,6326.833984375,11123.81640625,11609.3955078125,8761.087890625,14298.7568359375,14067.490234375,20772.615234375,-10440.349609375,5609.9892578125,13607.3427734375,6582.73681640625,7494.291015625,4770.755859375,0.0,13373.6923828125
6832.28173828125,4834.333984375,16438.166015625,9979.4072265625,19544.759765625,8020.40087890625,13097.126953125,17854.37109375,10028.6796875,12280.94140625,8316.0400390625,10209.8779296875,-4270.07666015625,0.0,14967.91796875,16764.005859375,3933.906494140625,4415.51220703125,8052.9853515625,10425.25,6612.9365234375,14411.6083984375,11657.0791015625,26622.61328125,210.6030731201172,2671.877685546875,9600.3212890625,17543.634765625,-4125.4365234375,3825.823486328125,22449.494140625,-8739.630859375,-1912.116943359375,6086.826171875,13591.44921875,14708.8369140625,10521.412109375,13114.611328125,8631.546875,-0.0,6497.701171875,30795.732421875,35328.0703125,11798.541015625,23694.833984375,18801.689453125,-253.5184326171875,-391.0064697265625,6128.94677734375,17745.494140625,13866.4248046875,17865.5,13728.9365234375,2396.9013671875,3080.3681640625,12331.0087890625,0.0,6282.32958984375,11064.2119140625,11562.5068359375,8732.478515625,14259.0205078125,14025.3701171875,20724.931640625,-10474.5224609375,5575.81591796875,13562.04296875,6573.2001953125,7414.81787109375,4740.55615234375,0.0,13328.392578125
6889.501953125,4804.13427734375,16471.544921875,9980.99609375,19535.22265625,8011.65869140625,13087.58984375,17841.658203125,10019.9384765625,12274.5830078125,8312.06640625,10198.751953125,-4284.3818359375,0.0,14970.302734375,16752.083984375,3926.75390625,4409.154296875,8045.037109375,10414.91796875,6604.19482421875,14404.4560546875,11648.3369140625,26614.666015625,199.4768829345703,2666.314453125,9605.08984375,17533.302734375,-4138.9462890625,3821.849853515625,22440.751953125,-8742.8095703125,-1923.2431640625,6086.826171875,13581.912109375,14701.68359375,10512.669921875,13106.6640625,8593.400390625,-0.0,6494.52197265625,30790.169921875,35319.328125,11789.00390625,23686.88671875,18793.7421875,-265.4393615722656,-406.1063232421875,6127.357421875,17735.958984375,13867.21875,17853.578125,13740.0625,2384.98046875,3085.93115234375,12341.33984375,0.0,6252.92431640625,11061.828125,11557.73828125,8726.9140625,14250.2783203125,14018.2177734375,20716.986328125,-10477.7021484375,5574.2265625,13562.8388671875,6594.65771484375,7390.18115234375,4744.52978515625,0.0,13330.77734375
6899.03857421875,4777.908203125,16444.525390625,9990.533203125,19532.044921875,8010.06982421875,13079.6435546875,17836.888671875,10021.52734375,12269.814453125,8302.529296875,10188.419921875,-4304.25,0.0,14979.044921875,16747.31640625,3923.574951171875,4405.1806640625,8039.474609375,10412.5341796875,6602.60546875,14403.6611328125,11641.9794921875,26610.693359375,194.70851135253906,2665.519775390625,9589.9892578125,17526.150390625,-4146.89404296875,3809.928955078125,22437.572265625,-8757.9091796875,-1916.090576171875,6099.5419921875,13577.1435546875,14699.2998046875,10506.3125,13102.6904296875,8527.4384765625,-0.0,6496.90625,30793.34765625,35312.17578125,11785.8251953125,23681.322265625,18790.564453125,-286.89703369140625,-450.6111145019531,6144.046875,17733.57421875,13874.37109375,17847.21875,13737.6787109375,2354.781005859375,3077.189208984375,12331.0087890625,0.0,6224.314453125,11083.28515625,11564.095703125,8706.251953125,14246.3046875,14014.244140625,20713.01171875,-10488.828125,5563.10009765625,13571.580078125,6589.0947265625,7406.87060546875,4723.072265625,0.0,13322.0361328125
6886.3232421875,4779.49755859375,16429.423828125,9895.1650390625,19521.712890625,8002.91748046875,13070.1064453125,17817.81640625,10024.70703125,12265.0458984375,8292.1982421875,10174.115234375,-4312.197265625,0.0,14972.6865234375,16725.859375,3910.859619140625,4395.6435546875,8029.1435546875,10413.3291015625,6591.47900390625,14390.9453125,11633.2373046875,26602.744140625,183.58230590820312,2653.598876953125,9580.453125,17507.87109375,-4155.6357421875,3787.676513671875,22427.240234375,-8761.8828125,-1923.2431640625,6059.80517578125,13567.6064453125,14691.3525390625,10495.98046875,13092.3583984375,8513.1328125,-0.0,6496.90625,30794.939453125,35302.640625,11773.109375,23674.96484375,18779.435546875,-291.6654052734375,-528.4945068359375,6109.0791015625,17721.65234375,13867.21875,17826.556640625,13690.7890625,2364.317626953125,3062.884033203125,12319.087890625,0.0,6185.373046875,11086.4638671875,11541.84375,8691.1513671875,14236.767578125,14009.4755859375,20716.189453125,-10501.5439453125,5548.79541015625,13569.1953125,6603.39990234375,7429.123046875,4738.96630859375,0.0,13317.267578125
6880.76025390625,4762.80810546875,16400.814453125,9927.75,19523.302734375,7994.1748046875,13067.72265625,17804.3046875,10022.322265625,12261.0732421875,8285.83984375,10167.7578125,-4323.32373046875,0.0,14970.302734375,16713.9375,3906.091064453125,4390.87548828125,8024.375,10410.1494140625,6592.27392578125,14387.7666015625,11630.8525390625,26594.00390625,174.04556274414062,2644.856689453125,9583.6328125,17498.333984375,-4166.76171875,3778.9345703125,22424.85546875,-8771.419921875,-1933.57470703125,6059.0107421875,13566.017578125,14686.583984375,10492.8017578125,13085.2060546875,8548.8955078125,-0.0,6515.97998046875,30783.8125,35301.046875,11763.572265625,23674.169921875,18771.490234375,-301.2021484375,-476.837158203125,6101.13134765625,17709.732421875,13864.8349609375,17815.431640625,13708.2734375,2357.1650390625,3054.936767578125,12312.7294921875,0.0,6163.9150390625,11081.6953125,11526.744140625,8674.4619140625,14231.205078125,14004.70703125,20711.421875,-10515.8486328125,5542.43701171875,13564.427734375,6612.9365234375,7416.4072265625,4746.9140625,0.0,13319.6513671875
6849.765625,4723.86669921875,16392.072265625,9975.43359375,19518.533203125,7983.84375,13057.3916015625,17801.919921875,10011.1962890625,12261.0732421875,8271.53515625,10164.578125,-4331.2705078125,0.0,14940.8974609375,16709.962890625,3894.96484375,4381.33837890625,8017.22216796875,10406.970703125,6580.3525390625,14381.408203125,11623.7001953125,26586.056640625,171.661376953125,2639.293701171875,9568.5322265625,17490.38671875,-4168.3515625,3790.060791015625,22415.3203125,-8783.3408203125,-1947.0850830078125,6072.52099609375,13558.8642578125,14677.0478515625,10481.6748046875,13078.8486328125,8545.7158203125,-0.0,6504.05859375,30769.505859375,35293.1015625,11756.419921875,23663.83984375,18769.8984375,-325.04400634765625,-430.7428894042969,6117.82080078125,17708.142578125,13834.6357421875,17813.046875,13710.658203125,2309.4814453125,3043.810546875,12301.6044921875,0.0,6163.1201171875,11060.23828125,11533.1015625,8662.541015625,14222.462890625,13997.5546875,20720.1640625,-10519.822265625,5536.87451171875,13530.25390625,6611.34716796875,7391.77099609375,4747.708984375,0.0,13340.3134765625
6936.39111328125,4788.23974609375,16466.775390625,10001.6591796875,19576.548828125,8047.42138671875,13120.1748046875,17871.857421875,10074.7744140625,12334.982421875,8327.1669921875,10243.2568359375,-4283.5869140625,0.0,14978.25,16782.283203125,3956.1591796875,4443.32763671875,8083.18408203125,10477.7021484375,6639.95751953125,14437.0390625,11685.689453125,26652.017578125,236.03439331054688,2701.282470703125,9622.57421875,17560.32421875,-4110.33642578125,3871.123046875,22476.515625,-8720.5576171875,-1890.6593017578125,6117.82080078125,13619.263671875,14738.2421875,10545.25390625,13147.1953125,8609.294921875,-0.0,6554.92138671875,30821.958984375,35353.5,11823.9716796875,23724.23828125,18841.42578125,-267.02880859375,-356.0384216308594,6170.27294921875,17778.078125,13873.5771484375,17882.982421875,13756.751953125,2388.9541015625,3085.136474609375,12374.71875,0.0,6248.15625,11112.6904296875,11610.1904296875,8744.3994140625,14286.8359375,14065.9013671875,20802.81640625,-10457.8330078125,5611.57861328125,13569.9912109375,6669.3623046875,7452.169921875,4806.5185546875,0.0,13439.6552734375
6954.669921875,4808.10791015625,16463.59765625,10023.9111328125,19611.517578125,8073.6474609375,13148.7841796875,17915.568359375,10094.642578125,12377.1025390625,8351.802734375,10276.634765625,-4253.3876953125,0.0,15011.6279296875,16826.787109375,3983.974365234375,4473.52734375,8114.1787109375,10507.9013671875,6671.74658203125,14461.6767578125,11714.298828125,26679.833984375,248.75006103515625,2720.35595703125,9659.9267578125,17600.85546875,-4088.083740234375,3884.63330078125,22503.53515625,-8690.357421875,-1865.22802734375,6149.60986328125,13648.6689453125,14762.87890625,10573.8642578125,13180.5732421875,8625.984375,-0.0,6592.27392578125,30837.853515625,35385.29296875,11856.5556640625,23748.875,18879.572265625,-259.8762512207031,-273.3866271972656,6193.31982421875,17803.509765625,13906.9560546875,17925.8984375,13780.59375,2441.40625,3105.79931640625,12408.892578125,0.0,6316.5029296875,11126.2001953125,11661.8466796875,8784.134765625,14314.6513671875,14098.4853515625,20821.890625,-10435.5810546875,5633.8310546875,13603.3701171875,6702.7412109375,7465.6806640625,4863.7392578125,0.0,13518.3330078125
6851.35498046875,4770.755859375,16475.51953125,9996.0966796875,19567.013671875,8029.1435546875,13105.0751953125,17874.240234375,10039.806640625,12329.4189453125,8300.9404296875,10224.978515625,-4295.5078125,0.0,14983.8134765625,16784.66796875,3936.290771484375,4425.84375,8068.0849609375,10456.244140625,6621.6787109375,14414.787109375,11667.4111328125,26634.53515625,202.65579223632812,2677.440673828125,9617.0107421875,17559.529296875,-4135.767578125,3822.64453125,22451.876953125,-8737.24609375,-1908.1434326171875,6100.33642578125,13600.9853515625,14715.1943359375,10529.3583984375,13132.095703125,8538.5634765625,-0.0,6535.84814453125,30791.759765625,35342.375,11811.2568359375,23700.396484375,18832.68359375,-294.84429931640625,-336.1701965332031,6171.8623046875,17760.595703125,13879.1396484375,17885.3671875,13705.8896484375,2404.848876953125,3083.546875,12354.8505859375,0.0,6291.0712890625,11066.595703125,11617.3427734375,8734.0673828125,14266.9677734375,14050.0068359375,20762.28515625,-10487.2392578125,5585.3525390625,13575.5537109375,6638.3681640625,7403.69189453125,4831.94970703125,0.0,13475.41796875
6816.38720703125,4793.00830078125,16450.0859375,9985.7646484375,19536.017578125,7997.353515625,13067.72265625,17840.06640625,9999.275390625,12277.7626953125,8269.9462890625,10185.2421875,-4336.0390625,0.0,14948.8447265625,16748.904296875,3903.706787109375,4393.259765625,8029.1435546875,10408.560546875,6592.27392578125,14381.408203125,11633.2373046875,26599.56640625,174.04556274414062,2645.651611328125,9574.095703125,17526.9453125,-4169.14599609375,3789.265869140625,22418.498046875,-8781.7509765625,-1919.26953125,6070.13720703125,13569.1953125,14681.021484375,10492.8017578125,13095.5380859375,8397.896484375,-0.0,6503.26416015625,30761.560546875,35307.40625,11778.671875,23663.83984375,18791.357421875,-303.5863342285156,-441.0743713378906,6144.841796875,17729.6015625,13846.556640625,17850.3984375,13670.126953125,2381.801513671875,3041.426513671875,12320.677734375,0.0,6244.9775390625,11032.421875,11575.2216796875,8687.1787109375,14232.794921875,14009.4755859375,20707.44921875,-10523.7958984375,5550.384765625,13543.7646484375,6565.2529296875,7374.28662109375,4751.68212890625,0.0,13374.48828125
6857.71337890625,4829.5654296875,16442.93359375,9937.2861328125,19529.662109375,7997.353515625,13065.337890625,17825.76171875,10000.865234375,12249.15234375,8272.330078125,10181.267578125,-4322.52880859375,0.0,14952.0234375,16735.39453125,3898.9384765625,4388.4912109375,8025.16943359375,10391.87109375,6585.916015625,14375.845703125,11628.46875,26595.591796875,174.04556274414062,2645.651611328125,9572.505859375,17521.380859375,-4167.556640625,3789.265869140625,22415.3203125,-8782.5458984375,-1935.9588623046875,6053.44775390625,13564.427734375,14677.0478515625,10489.623046875,13088.3857421875,8454.3232421875,-0.0,6497.701171875,30763.1484375,35308.19921875,11773.109375,23663.83984375,18775.462890625,-337.7596435546875,-429.94818115234375,6132.1259765625,17728.8046875,13848.9404296875,17834.505859375,13689.9951171875,2380.212158203125,3028.710693359375,12317.498046875,0.0,6203.6513671875,11048.3173828125,11548.201171875,8683.9990234375,14228.8203125,13999.939453125,20667.7109375,-10519.822265625,5548.00048828125,13546.943359375,6554.126953125,7404.486328125,4698.435546875,0.0,13269.583984375
6864.86572265625,4818.439453125,16442.93359375,9926.16015625,19541.58203125,8002.91748046875,13082.02734375,17830.529296875,10024.70703125,12257.8935546875,8277.892578125,10190.8046875,-4311.40283203125,0.0,14975.0712890625,16740.95703125,3902.912109375,4397.2333984375,8037.09033203125,10410.1494140625,6593.86279296875,14384.5869140625,11638.0048828125,26603.541015625,197.0926971435547,2658.3671875,9604.294921875,17524.560546875,-4154.04638671875,3806.75,22424.85546875,-8776.1875,-1925.6273193359375,6059.0107421875,13575.5537109375,14684.2001953125,10507.1064453125,13097.126953125,8439.2236328125,-0.0,6514.390625,30768.712890625,35320.91796875,11779.4677734375,23683.70703125,18782.615234375,-288.4864807128906,-377.49609375,6143.251953125,17735.958984375,13869.603515625,17841.658203125,13697.1474609375,2383.39111328125,3043.810546875,12331.0087890625,0.0,6212.39306640625,11071.3642578125,11541.84375,8709.4306640625,14239.947265625,14013.44921875,20698.705078125,-10503.1328125,5562.3056640625,13566.8115234375,6562.86865234375,7438.65966796875,4703.20361328125,0.0,13268.7880859375
6914.138671875,4830.3603515625,16468.3671875,10025.5009765625,19593.23828125,8066.4951171875,13133.685546875,17892.51953125,10070.80078125,12315.9091796875,8317.6298828125,10239.283203125,-4281.20263671875,0.0,15006.859375,16802.9453125,3964.106201171875,4456.837890625,8095.900390625,10464.19140625,6650.2890625,14448.9599609375,11695.2255859375,26663.14453125,246.36587524414062,2721.945556640625,9650.3896484375,17588.138671875,-4101.59423828125,3888.60693359375,22484.4609375,-8724.5302734375,-1874.7647705078125,6134.51025390625,13630.390625,14745.39453125,10561.1484375,13157.52734375,8689.5625,-0.0,6568.431640625,30833.0859375,35370.98828125,11842.2509765625,23732.98046875,18842.220703125,-230.47129821777344,-303.5863342285156,6191.73046875,17806.6875,13902.1875,17904.439453125,13757.546875,2441.40625,3107.388671875,12407.302734375,0.0,6277.56103515625,11112.6904296875,11603.83203125,8766.6513671875,14297.9619140625,14070.669921875,20754.337890625,-10448.296875,5629.0625,13597.01171875,6616.91064453125,7462.50146484375,4746.9140625,0.0,13336.3408203125
6939.56982421875,4848.63916015625,16490.6171875,10062.05859375,19597.2109375,8082.3896484375,13137.658203125,17902.8515625,10082.7216796875,12329.4189453125,8338.2919921875,10267.0986328125,-4263.71923828125,0.0,14998.1181640625,16810.099609375,3973.642822265625,4465.580078125,8103.84765625,10477.7021484375,6661.4150390625,14465.6494140625,11704.7626953125,26677.44921875,240.00804138183594,2738.634765625,9641.6474609375,17607.212890625,-4088.878662109375,3906.8857421875,22494.79296875,-8708.63671875,-1872.380615234375,6153.58349609375,13639.9267578125,14762.083984375,10563.533203125,13171.037109375,8738.041015625,-0.0,6577.96875,30854.54296875,35372.57421875,11854.171875,23736.953125,18855.73046875,-268.6182556152344,-298.8179626464844,6201.26708984375,17817.01953125,13896.625,17913.18359375,13763.904296875,2447.76416015625,3135.204345703125,12420.8134765625,0.0,6263.255859375,11137.326171875,11614.1630859375,8775.3935546875,14307.4990234375,14081.7958984375,20775.794921875,-10441.1435546875,5644.95703125,13592.2431640625,6632.8046875,7458.52783203125,4763.60302734375,0.0,13353.82421875
6917.31787109375,4827.18115234375,16450.8828125,9998.48046875,19561.44921875,8042.6533203125,13101.8955078125,17861.525390625,10058.8798828125,12293.65625,8310.4775390625,10238.48828125,-4283.5869140625,0.0,14977.455078125,16768.7734375,3935.495849609375,4427.43310546875,8068.87890625,10449.091796875,6625.65234375,14424.32421875,11669.0,26638.5078125,207.42416381835938,2696.51416015625,9607.474609375,17563.501953125,-4120.66796875,3846.486328125,22457.44140625,-8739.630859375,-1903.375,6101.13134765625,13602.57421875,14723.9375,10526.1806640625,13132.095703125,8625.189453125,-0.0,6550.1533203125,30809.244140625,35335.22265625,11816.0244140625,23704.37109375,18816.7890625,-330.6070861816406,-336.9649353027344,6153.58349609375,17778.078125,13873.5771484375,17871.060546875,13712.2470703125,2404.053955078125,3096.2626953125,12371.5400390625,0.0,6231.466796875,11116.6640625,11573.6318359375,8728.50390625,14270.94140625,14046.033203125,20746.388671875,-10480.0859375,5601.2470703125,13571.580078125,6586.71044921875,7460.912109375,4722.27734375,0.0,13330.77734375
6906.19140625,4798.5712890625,16493.001953125,10046.958984375,19578.138671875,8056.16357421875,13117.7900390625,17876.625,10069.2109375,12308.7568359375,8328.755859375,10236.8994140625,-4266.10302734375,0.0,15001.296875,16784.66796875,3956.1591796875,4442.533203125,8083.18408203125,10457.8330078125,6639.16259765625,14443.3974609375,11684.1005859375,26652.8125,227.29237365722656,2711.614013671875,9619.3955078125,17569.861328125,-4116.69384765625,3843.3076171875,22473.3359375,-8726.1201171875,-1886.6856689453125,6130.53662109375,13616.0849609375,14739.0361328125,10543.6640625,13146.400390625,8604.5263671875,-0.0,6555.7158203125,30829.111328125,35352.70703125,11829.53515625,23717.083984375,18832.68359375,-268.6182556152344,-336.9649353027344,6169.47802734375,17792.3828125,13896.625,17886.162109375,13738.47265625,2339.680908203125,3101.82568359375,12373.923828125,0.0,6285.5087890625,11121.4326171875,11597.4736328125,8726.9140625,14284.451171875,14058.7490234375,20740.828125,-10462.6015625,5608.39990234375,13593.8330078125,6632.009765625,7484.75390625,4750.88720703125,0.0,13339.51953125
6893.47607421875,4707.177734375,16492.208984375,10031.064453125,19596.41796875,8066.4951171875,13131.30078125,17876.625,10062.05859375,12307.1669921875,8351.802734375,10238.48828125,-4241.46630859375,0.0,15020.3701171875,16786.255859375,3975.232666015625,4457.63232421875,8091.13232421875,10450.6806640625,6658.23583984375,14457.703125,11696.021484375,26661.5546875,233.65020751953125,2722.740234375,9633.7001953125,17569.861328125,-4113.51513671875,3843.3076171875,22490.025390625,-8707.046875,-1866.8175048828125,6145.63623046875,13632.7744140625,14751.751953125,10557.1748046875,13151.962890625,8656.978515625,-0.0,6574.78955078125,30845.80078125,35371.78125,11835.0986328125,23724.23828125,18835.068359375,-210.6030731201172,-359.2173156738281,6198.08837890625,17794.767578125,13916.4921875,17886.95703125,13793.3095703125,2357.959716796875,3120.899169921875,12374.71875,0.0,6298.22412109375,11103.947265625,11591.1171875,8735.65625,14297.9619140625,14063.517578125,20730.49609375,-10442.7333984375,5614.75732421875,13613.701171875,6661.4150390625,7479.19091796875,4763.60302734375,0.0,13314.087890625
6878.3759765625,4726.2509765625,16402.40234375,9960.333984375,19563.0390625,8026.75927734375,13098.716796875,17840.861328125,10016.7587890625,12271.404296875,8327.9609375,10211.4677734375,-4254.18212890625,0.0,14998.9130859375,16751.2890625,3938.6748046875,4422.66455078125,8056.9580078125,10411.7392578125,6618.5,14416.376953125,11661.8466796875,26624.998046875,199.4768829345703,2684.59326171875,9616.2158203125,17537.275390625,-4121.46240234375,3813.107666015625,22453.466796875,-8732.478515625,-1906.5538330078125,6092.3896484375,13597.8056640625,14713.6044921875,10525.3857421875,13116.2001953125,8645.8525390625,-0.0,6524.7216796875,30800.5,35338.40234375,11800.1298828125,23688.474609375,18799.3046875,-226.49765014648438,-371.9329833984375,6170.27294921875,17754.236328125,13894.240234375,17852.783203125,13738.47265625,2419.15380859375,3108.18359375,12333.3935546875,0.0,6239.4140625,11059.443359375,11559.3271484375,8716.5830078125,14262.19921875,14026.1650390625,20706.654296875,-10474.5224609375,5578.19970703125,13592.2431640625,6629.6259765625,7406.87060546875,4736.58251953125,0.0,13291.8359375
6807.6455078125,4759.6298828125,16361.8720703125,9947.6171875,19508.203125,7967.94873046875,13043.880859375,17795.5625,9976.2275390625,12222.92578125,8263.587890625,10151.068359375,-4324.1181640625,0.0,14951.2294921875,16707.578125,3881.45458984375,4366.2392578125,8002.91748046875,10367.234375,6557.3056640625,14357.56640625,11605.421875,26568.5703125,160.53517150878906,2625.783203125,9568.5322265625,17486.4140625,-4181.06689453125,3763.834716796875,22394.65625,-8792.0830078125,-1964.569091796875,6036.75830078125,13541.380859375,14656.384765625,10468.1650390625,13063.748046875,8592.60546875,-0.0,6466.70654296875,30738.51171875,35281.1796875,11745.2939453125,23639.201171875,18750.826171875,-294.84429931640625,-403.7221374511719,6090.7998046875,17697.015625,13842.5830078125,17808.279296875,13634.3642578125,2372.264892578125,3049.37353515625,12276.1728515625,0.0,6192.525390625,11039.57421875,11520.3857421875,8649.826171875,14207.36328125,13976.0966796875,20665.326171875,-10540.4853515625,5513.82666015625,13544.5595703125,6555.7158203125,7361.57080078125,4679.36181640625,0.0,13257.6630859375
6726.5830078125,4808.10791015625,16400.814453125,9980.2021484375,19484.361328125,7963.97509765625,13029.5751953125,17782.845703125,9973.84375,12207.03125,8242.1298828125,10149.478515625,-4339.21826171875,0.0,14926.5927734375,16694.068359375,3878.275634765625,4354.318359375,7990.99658203125,10360.08203125,6553.33203125,14355.1826171875,11593.5009765625,26558.240234375,151.7931671142578,2621.809814453125,9552.6376953125,17472.90234375,-4190.603515625,3775.755615234375,22387.50390625,-8808.7724609375,-1965.36376953125,6057.42138671875,13528.6650390625,14648.4375,10455.44921875,13051.8271484375,8528.232421875,-0.0,6468.2958984375,30738.51171875,35264.4921875,11734.962890625,23630.4609375,18735.7265625,-325.04400634765625,-437.89544677734375,6082.05810546875,17692.248046875,13819.53515625,17793.974609375,13613.701171875,2363.522705078125,3035.86328125,12284.119140625,0.0,6208.419921875,11046.7275390625,11499.72265625,8629.1630859375,14196.236328125,13965.765625,20646.25390625,-10550.0224609375,5512.2373046875,13519.9228515625,6516.7744140625,7388.591796875,4632.47314453125,0.0,13212.36328125
6860.09716796875,4956.72216796875,16507.306640625,10024.70703125,19620.259765625,8093.51611328125,13151.1689453125,17913.9765625,10091.4638671875,12338.1611328125,8360.544921875,10286.966796875,-4256.56640625,0.0,15006.859375,16824.404296875,3998.279541015625,4482.26953125,8118.15283203125,10484.0595703125,6693.20458984375,14475.9814453125,11722.2470703125,26687.78125,268.6182556152344,2752.93994140625,9665.4892578125,17609.595703125,-4076.162841796875,3900.52783203125,22516.25,-8676.8466796875,-1829.4652099609375,6145.63623046875,13664.5634765625,14775.59375,10577.837890625,13183.7529296875,8627.57421875,-0.0,6637.5732421875,30864.873046875,35391.6484375,11867.6826171875,23748.080078125,18864.47265625,-218.5503692626953,-338.55438232421875,6218.75146484375,17824.173828125,13902.1875,17926.693359375,13750.3935546875,2516.905517578125,3139.177978515625,12418.4296875,0.0,6331.6025390625,11145.2744140625,11629.263671875,8778.572265625,14324.982421875,14092.1279296875,20779.767578125,-10431.607421875,5652.904296875,13598.6015625,6660.6201171875,7482.3701171875,4780.29248046875,0.0,13343.4931640625
6970.564453125,4968.64306640625,16576.44921875,10051.7275390625,19645.69140625,8133.251953125,13182.9580078125,17955.302734375,10122.4580078125,12381.0771484375,8412.9970703125,10330.6767578125,-4251.00341796875,0.0,15037.8544921875,16868.115234375,4034.837158203125,4516.44287109375,8154.7099609375,10520.6171875,6718.6357421875,14514.12890625,11754.0361328125,26727.517578125,305.17578125,2791.0869140625,9666.283203125,17655.69140625,-4050.731689453125,3932.317138671875,22550.423828125,-8640.2890625,-1798.4708251953125,6180.6044921875,13694.763671875,14814.5361328125,10608.83203125,13221.900390625,8746.783203125,-0.0,6628.83154296875,30904.611328125,35420.2578125,11909.802734375,23779.07421875,18905.00390625,-168.4824676513672,-302.7915954589844,6252.92431640625,17863.115234375,13932.3876953125,17969.607421875,13787.74609375,2539.95263671875,3172.556640625,12465.3173828125,0.0,6362.59716796875,11161.16796875,11670.58984375,8818.30859375,14359.15625,14127.095703125,20828.24609375,-10401.408203125,5700.58837890625,13630.390625,6702.7412109375,7495.8798828125,4842.28125,0.0,13405.482421875
6942.7490234375,4875.66015625,16504.923828125,10040.6005859375,19599.595703125,8090.3369140625,13141.6318359375,17912.388671875,10085.10546875,12337.3671875,8371.6708984375,10275.0458984375,-4274.84521484375,0.0,14999.70703125,16821.2265625,3984.769287109375,4471.9375,8111.0,10480.0859375,6664.59423828125,14476.7763671875,11710.326171875,26681.423828125,267.82354736328125,2751.350341796875,9634.4951171875,17608.0078125,-4095.236328125,3886.222900390625,22503.53515625,-8694.3310546875,-1865.22802734375,6148.0205078125,13644.6953125,14771.62109375,10569.095703125,13175.8046875,8621.2158203125,-0.0,6571.61083984375,30878.384765625,35378.140625,11862.119140625,23741.72265625,18860.498046875,-219.3450927734375,-422.0008850097656,6209.21484375,17814.63671875,13895.03515625,17923.513671875,13726.5517578125,2464.453369140625,3132.025390625,12416.83984375,0.0,6299.81396484375,11126.2001953125,11626.083984375,8782.5458984375,14316.2412109375,14084.9755859375,20788.51171875,-10438.759765625,5648.93115234375,13591.44921875,6648.69921875,7476.806640625,4792.21337890625,0.0,13364.951171875
6994.40625,4928.90673828125,16517.638671875,10116.89453125,19656.0234375,8153.12109375,13204.4150390625,17976.76171875,10155.0419921875,12404.9189453125,8421.73828125,10336.240234375,-4224.77734375,0.0,15052.955078125,16886.392578125,4045.96337890625,4533.1318359375,8173.783203125,10547.6376953125,6725.7880859375,14537.1748046875,11771.51953125,26744.20703125,309.94415283203125,2814.9287109375,9711.5830078125,17669.99609375,-4047.552490234375,3949.801025390625,22563.138671875,-8636.3154296875,-1811.981201171875,6213.18798828125,13703.505859375,14832.814453125,10631.87890625,13237.7939453125,8707.8408203125,-0.0,6639.16259765625,30939.578125,35438.5390625,11924.9033203125,23808.478515625,18928.05078125,-151.7931671142578,-313.1230773925781,6258.48779296875,17884.572265625,13951.4609375,17987.09375,13867.21875,2509.7529296875,3168.5830078125,12466.9072265625,0.0,6371.33935546875,11196.9306640625,11700.7890625,8853.2763671875,14378.23046875,14150.142578125,20858.4453125,-10383.12890625,5708.53564453125,13645.4892578125,6733.7353515625,7559.45849609375,4858.970703125,0.0,13438.0654296875
7023.8115234375,4951.9541015625,16582.806640625,10157.42578125,19690.1953125,8186.49951171875,13240.177734375,18011.728515625,10189.2158203125,12446.244140625,8444.7861328125,10378.3603515625,-4185.041015625,0.0,15093.4853515625,16920.56640625,4080.13671875,4565.7158203125,8207.162109375,10584.1953125,6760.755859375,14569.759765625,11804.103515625,26779.17578125,336.9649353027344,2845.923095703125,9737.0146484375,17700.990234375,-4012.584716796875,3985.563720703125,22597.3125,-8602.9365234375,-1767.4764404296875,6244.9775390625,13740.0625,14865.3984375,10666.052734375,13270.3779296875,8722.146484375,-0.0,6677.3095703125,30968.189453125,35471.91796875,11959.8701171875,23843.447265625,18963.814453125,-150.20370483398438,-216.1661834716797,6289.48193359375,17920.3359375,13988.8125,18022.85546875,13914.1083984375,2530.415771484375,3204.345703125,12500.2861328125,0.0,6430.14892578125,11224.7470703125,11734.962890625,8876.3232421875,14412.4033203125,14185.9052734375,20896.59375,-10345.7763671875,5740.32470703125,13686.0205078125,6770.29296875,7586.47900390625,4908.24365234375,0.0,13490.517578125
6959.4384765625,4914.6015625,16534.328125,10071.5947265625,19651.25390625,8137.22607421875,13193.2900390625,17966.4296875,10130.4052734375,12389.8193359375,8403.4609375,10344.982421875,-4200.935546875,0.0,15054.5439453125,16875.267578125,4040.400146484375,4522.00537109375,8159.47802734375,10527.7705078125,6721.01953125,14522.0751953125,11759.5986328125,26731.490234375,301.2021484375,2796.64990234375,9680.5888671875,17654.896484375,-4045.96337890625,3940.26416015625,22557.576171875,-8635.5205078125,-1795.2918701171875,6202.06201171875,13698.7373046875,14818.5087890625,10618.369140625,13222.6943359375,8660.9521484375,-0.0,6624.06298828125,30909.380859375,35427.41015625,11912.1865234375,23794.173828125,18912.15625,-209.0136260986328,-224.11346435546875,6255.30859375,17870.267578125,13948.28125,17976.76171875,13825.0986328125,2509.7529296875,3194.014404296875,12466.9072265625,0.0,6372.1337890625,11162.7578125,11682.5107421875,8821.4873046875,14365.513671875,14135.04296875,20828.24609375,-10380.7451171875,5700.58837890625,13647.0791015625,6693.9990234375,7510.18505859375,4828.77099609375,0.0,13422.171875
6922.08642578125,4889.96484375,16448.498046875,10011.990234375,19596.41796875,8069.67431640625,13137.658203125,17898.87890625,10070.0068359375,12320.677734375,8333.5234375,10288.5556640625,-4235.10888671875,0.0,15010.0390625,16808.509765625,3983.1796875,4461.6064453125,8099.87353515625,10462.6015625,6660.6201171875,14456.908203125,11701.583984375,26667.9140625,239.2133026123047,2734.6611328125,9641.6474609375,17592.90625,-4104.77294921875,3882.2490234375,22495.587890625,-8685.5888671875,-1873.17529296875,6149.60986328125,13639.9267578125,14755.7255859375,10561.943359375,13160.705078125,8664.92578125,-0.0,6573.2001953125,30834.67578125,35374.95703125,11847.8134765625,23736.158203125,18844.60546875,-263.05517578125,-259.8762512207031,6179.8095703125,17804.3046875,13904.5712890625,17910.00390625,13779.7998046875,2490.679443359375,3126.462158203125,12423.197265625,0.0,6293.45556640625,11114.279296875,11609.3955078125,8765.0615234375,14304.3203125,14073.0546875,20755.92578125,-10440.349609375,5645.751953125,13600.9853515625,6628.03662109375,7452.169921875,4761.21923828125,0.0,13345.08203125
6944.33837890625,4859.765625,16499.361328125,10057.2900390625,19578.93359375,8052.9853515625,13116.99609375,17871.857421875,10055.701171875,12302.3984375,8307.2978515625,10257.5615234375,-4241.46630859375,0.0,14987.7861328125,16783.080078125,3967.28515625,4441.73828125,8079.21142578125,10445.912109375,6641.546875,14447.37109375,11684.89453125,26648.044921875,216.96090698242188,2717.9716796875,9620.984375,17570.654296875,-4120.66796875,3865.559814453125,22478.8984375,-8711.0205078125,-1885.8909912109375,6150.404296875,13619.263671875,14738.2421875,10541.2802734375,13141.6318359375,8454.3232421875,-0.0,6556.5107421875,30827.521484375,35355.08984375,11826.35546875,23716.291015625,18824.736328125,-272.5919189453125,-339.34912109375,6155.1728515625,17783.642578125,13883.1142578125,17883.77734375,13750.3935546875,2476.374267578125,3097.85205078125,12398.560546875,0.0,6279.150390625,11102.3583984375,11587.142578125,8752.345703125,14283.6572265625,14054.775390625,20741.62109375,-10465.78125,5621.91015625,13580.322265625,6635.18896484375,7434.68603515625,4771.55078125,0.0,13341.109375
6876.78662109375,4830.3603515625,16493.001953125,10061.263671875,19552.70703125,8033.1162109375,13095.5380859375,17845.630859375,10039.01171875,12280.94140625,8303.32421875,10226.5673828125,-4272.4609375,0.0,14982.2236328125,16758.44140625,3949.801025390625,4425.048828125,8057.75341796875,10427.6337890625,6631.21533203125,14429.0927734375,11665.0263671875,26629.765625,206.6294403076172,2694.924560546875,9603.5,17546.01953125,-4138.15185546875,3848.075927734375,22463.00390625,-8729.298828125,-1863.6385498046875,6128.94677734375,13600.9853515625,14719.1689453125,10519.822265625,13120.1748046875,8378.8232421875,-0.0,6539.02685546875,30812.421875,35328.0703125,11804.103515625,23697.21875,18804.869140625,-310.7388916015625,-387.0328369140625,6131.3310546875,17759.80078125,13877.55078125,17858.34765625,13697.1474609375,2435.04833984375,3079.573486328125,12365.9775390625,0.0,6263.255859375,11088.84765625,11566.4794921875,8714.9931640625,14264.583984375,14036.49609375,20724.138671875,-10485.6494140625,5598.068359375,13575.5537109375,6632.009765625,7438.65966796875,4752.47705078125,0.0,13321.240234375
6829.8974609375,4790.6240234375,16408.76171875,9993.712890625,19544.759765625,8021.99072265625,13088.3857421875,17835.298828125,10031.859375,12269.814453125,8295.376953125,10218.6201171875,-4320.939453125,0.0,14982.2236328125,16747.31640625,3941.85400390625,4417.896484375,8049.01123046875,10418.09765625,6624.857421875,14413.197265625,11655.490234375,26618.638671875,203.4505157470703,2675.056396484375,9602.7060546875,17535.685546875,-4154.04638671875,3832.18115234375,22453.466796875,-8732.478515625,-1875.5594482421875,6105.10498046875,13594.626953125,14707.248046875,10514.259765625,13109.8427734375,8578.30078125,-0.0,6549.3583984375,30793.34765625,35320.12109375,11795.361328125,23690.064453125,18793.7421875,-329.8123779296875,-337.7596435546875,6128.94677734375,17747.87890625,13875.9609375,17846.42578125,13654.232421875,2388.9541015625,3081.16259765625,12349.2880859375,0.0,6241.79833984375,11086.4638671875,11557.73828125,8665.720703125,14256.63671875,14026.958984375,20717.779296875,-10492.0068359375,5582.173828125,13575.5537109375,6623.26806640625,7440.2490234375,4738.171875,0.0,13310.115234375
6868.04443359375,4832.74462890625,16426.244140625,10001.6591796875,19567.013671875,8049.8056640625,13111.431640625,17866.29296875,10053.3173828125,12297.6298828125,8322.3984375,10248.8203125,-4305.04443359375,0.0,14990.1708984375,16776.720703125,3960.927490234375,4442.533203125,8073.6474609375,10445.912109375,6644.7255859375,14438.62890625,11677.7421875,26644.072265625,201.86106872558594,2702.8720703125,9620.189453125,17566.681640625,-4125.4365234375,3863.175537109375,22476.515625,-8717.3779296875,-1881.9173583984375,6134.51025390625,13619.263671875,14733.4736328125,10538.8955078125,13135.2744140625,8658.568359375,-0.0,6566.0478515625,30817.189453125,35343.171875,11823.177734375,23710.728515625,18822.3515625,-257.4920654296875,-301.9968566894531,6160.736328125,17780.462890625,13884.7041015625,17875.037109375,13732.1162109375,2414.385498046875,3104.2099609375,12385.05078125,0.0,6253.71923828125,11103.1533203125,11588.732421875,8695.1259765625,14281.2724609375,14050.8017578125,20747.185546875,-10468.1650390625,5614.75732421875,13584.2958984375,6647.10986328125,7452.96484375,4765.9873046875,0.0,13345.08203125
6948.3125,4859.765625,16558.169921875,10019.1435546875,19582.90625,8070.46875,13128.12109375,17888.546875,10073.1845703125,12320.677734375,8356.5712890625,10269.482421875,-4280.408203125,0.0,15002.091796875,16798.97265625,3976.82177734375,4456.837890625,8093.51611328125,10464.986328125,6651.87841796875,14458.4970703125,11696.021484375,26663.14453125,238.4185791015625,2729.09814453125,9635.2890625,17585.75390625,-4106.36279296875,3888.60693359375,22489.228515625,-8694.3310546875,-1882.7120361328125,6148.0205078125,13632.7744140625,14753.341796875,10554.7900390625,13156.7314453125,8721.3515625,-0.0,6554.126953125,30841.03125,35363.8359375,11843.044921875,23725.828125,18844.60546875,-204.24525451660156,-301.9968566894531,6188.55126953125,17805.099609375,13894.240234375,17899.671875,13794.1044921875,2454.121826171875,3101.82568359375,12414.455078125,0.0,6281.53466796875,11123.021484375,11613.369140625,8766.6513671875,14300.3466796875,14070.669921875,20766.2578125,-10445.912109375,5638.599609375,13594.626953125,6671.74658203125,7454.55419921875,4792.21337890625,0.0,13370.513671875
6973.74365234375,4831.1552734375,16531.1484375,10009.6064453125,19574.166015625,8049.01123046875,13111.431640625,17874.240234375,10055.701171875,12307.9619140625,8335.11328125,10255.177734375,-4274.05029296875,0.0,14986.197265625,16784.66796875,3952.18505859375,4438.55908203125,8076.03173828125,10451.4765625,6631.21533203125,14436.2451171875,11680.1259765625,26644.072265625,246.36587524414062,2709.229736328125,9616.2158203125,17561.912109375,-4115.8994140625,3876.68603515625,22470.15625,-8718.1728515625,-1903.375,6117.02587890625,13615.291015625,14731.8837890625,10538.1015625,13140.0419921875,8680.0263671875,-0.0,6541.4111328125,30819.57421875,35351.9140625,11823.9716796875,23710.728515625,18829.50390625,-245.57113647460938,-310.7388916015625,6180.6044921875,17778.873046875,13879.935546875,17886.95703125,13783.7724609375,2466.042724609375,3076.394287109375,12396.1767578125,0.0,6291.8662109375,11103.1533203125,11603.0380859375,8776.982421875,14281.2724609375,14056.365234375,20754.337890625,-10452.2705078125,5619.52587890625,13578.732421875,6655.85205078125,7447.4013671875,4785.85595703125,0.0,13368.1298828125
6957.84912109375,4835.923828125,16484.259765625,9959.5380859375,19560.65625,8033.1162109375,13099.5107421875,17866.29296875,10035.83203125,12288.8876953125,8323.1923828125,10234.515625,-4270.07666015625,0.0,14979.044921875,16776.720703125,3933.111572265625,4425.048828125,8061.7265625,10433.197265625,6618.5,14413.9931640625,11664.2314453125,26628.17578125,225.7029266357422,2694.1298828125,9591.5791015625,17553.96484375,-4119.873046875,3856.81787109375,22452.673828125,-8734.8623046875,-1909.7327880859375,6084.4423828125,13600.9853515625,14714.400390625,10525.3857421875,13126.5322265625,8599.7578125,-0.0,6535.05322265625,30793.34765625,35334.42578125,11809.6669921875,23698.806640625,18815.19921875,-259.0815124511719,-318.6861572265625,6167.888671875,17759.80078125,13875.9609375,17877.419921875,13763.904296875,2454.916748046875,3095.4677734375,12384.255859375,0.0,6295.83984375,11073.7490234375,11591.9111328125,8754.73046875,14266.9677734375,14042.0595703125,20730.49609375,-10458.62890625,5607.60498046875,13574.759765625,6601.810546875,7448.1962890625,4739.76123046875,0.0,13336.3408203125
6879.96533203125,4843.87060546875,16441.345703125,9950.001953125,19550.32421875,8028.34814453125,13095.5380859375,17865.5,10026.2958984375,12275.3779296875,8305.708984375,10212.26171875,-4291.5341796875,0.0,14976.6611328125,16777.515625,3924.369873046875,4416.30712890625,8054.57421875,10419.6865234375,6609.7578125,14406.044921875,11657.8740234375,26620.23046875,189.9401397705078,2685.387939453125,9622.57421875,17558.732421875,-4135.767578125,3844.10205078125,22442.341796875,-8750.755859375,-1918.474853515625,6079.673828125,13593.8330078125,14707.248046875,10522.2060546875,13118.5849609375,8619.6259765625,-0.0,6537.4375,30788.580078125,35329.66015625,11806.48828125,23694.0390625,18806.45703125,-267.02880859375,-347.29638671875,6149.60986328125,17761.388671875,13872.7822265625,17878.21484375,13748.8046875,2424.717041015625,3102.620361328125,12385.05078125,0.0,6299.01904296875,11055.4697265625,11585.552734375,8722.94140625,14258.2255859375,14032.5234375,20711.421875,-10475.318359375,5594.88916015625,13569.1953125,6548.5634765625,7426.73876953125,4701.6142578125,0.0,13317.267578125
6873.607421875,4866.123046875,16434.193359375,9977.8173828125,19570.19140625,8050.60107421875,13118.5849609375,17895.69921875,10054.90625,12304.783203125,8316.0400390625,10245.640625,-4293.12353515625,0.0,14999.70703125,16806.125,3941.05908203125,4433.79052734375,8077.62158203125,10447.501953125,6625.65234375,14425.9140625,11675.357421875,26640.892578125,222.5240020751953,2703.666748046875,9648.7998046875,17584.166015625,-4127.025390625,3862.380859375,22459.826171875,-8732.478515625,-1912.9117431640625,6100.33642578125,13611.31640625,14724.7314453125,10546.0478515625,13143.2216796875,8666.515625,-0.0,6554.92138671875,30814.806640625,35351.9140625,11831.1240234375,23717.880859375,18834.271484375,-252.72369384765625,-337.7596435546875,6161.53076171875,17788.41015625,13895.8291015625,17906.82421875,13731.3203125,2442.995849609375,3097.85205078125,12392.203125,0.0,6297.4296875,11097.5908203125,11621.31640625,8741.2197265625,14276.5048828125,14057.1591796875,20740.03125,-10468.1650390625,5611.57861328125,13591.44921875,6593.068359375,7451.37548828125,4749.2978515625,0.0,13347.466796875
6882.349609375,4853.4072265625,16447.703125,9973.84375,19557.4765625,8034.7060546875,13097.126953125,17862.3203125,10041.396484375,12290.4775390625,8319.21875,10241.66796875,-4297.89208984375,0.0,14978.25,16772.74609375,3930.7275390625,4421.86962890625,8060.93212890625,10433.9912109375,6616.91064453125,14413.197265625,11659.462890625,26627.3828125,236.03439331054688,2690.951171875,9603.5,17557.939453125,-4134.17822265625,3844.10205078125,22447.904296875,-8742.8095703125,-1916.8853759765625,6090.00537109375,13597.8056640625,14712.015625,10523.001953125,13124.1484375,8614.857421875,-0.0,6549.3583984375,30800.5,35332.04296875,11812.05078125,23698.01171875,18813.609375,-252.72369384765625,-351.2700500488281,6146.43115234375,17769.3359375,13872.7822265625,17873.4453125,13724.16796875,2422.332763671875,3081.95751953125,12363.5927734375,0.0,6239.4140625,11097.5908203125,11579.990234375,8740.4248046875,14260.609375,14041.2646484375,20728.90625,-10482.470703125,5602.04150390625,13570.78515625,6612.9365234375,7425.1494140625,4767.57666015625,0.0,13339.51953125
6851.35498046875,4839.89697265625,16475.51953125,10000.0693359375,19547.14453125,8033.91162109375,13083.6171875,17846.42578125,10039.01171875,12288.8876953125,8330.3447265625,10229.7470703125,-4315.37646484375,0.0,14963.9443359375,16755.26171875,3929.93310546875,4420.2802734375,8052.9853515625,10431.607421875,6616.11572265625,14417.171875,11652.310546875,26622.61328125,227.29237365722656,2692.54052734375,9576.4794921875,17548.40234375,-4138.15185546875,3842.512939453125,22450.2890625,-8756.3203125,-1890.6593017578125,6093.18408203125,13593.0380859375,14714.400390625,10510.28515625,13117.7900390625,8556.8427734375,-0.0,6525.5166015625,30805.26953125,35318.53515625,11806.48828125,23686.88671875,18806.45703125,-254.31314086914062,-367.16461181640625,6155.1728515625,17761.388671875,13858.4775390625,17856.755859375,13738.47265625,2357.1650390625,3090.699462890625,12358.8251953125,0.0,6237.0302734375,11099.1796875,11565.685546875,8729.298828125,14256.63671875,14035.7021484375,20728.90625,-10484.0595703125,5598.86328125,13555.685546875,6638.3681640625,7424.3544921875,4767.57666015625,0.0,13329.982421875
6889.501953125,4854.2021484375,16488.234375,10027.8857421875,19568.6015625,8067.29052734375,13116.2001953125,17882.982421875,10071.5947265625,12322.2666015625,8352.59765625,10251.2041015625,-4281.99755859375,0.0,14996.5283203125,16791.025390625,3959.337646484375,4446.50634765625,8083.9794921875,10467.3701171875,6640.75244140625,14447.37109375,11680.1259765625,26652.017578125,238.4185791015625,2720.35595703125,9619.3955078125,17583.37109375,-4107.1572265625,3863.175537109375,22477.30859375,-8733.2724609375,-1873.969970703125,6125.76806640625,13617.6748046875,14743.0107421875,10541.2802734375,13149.5791015625,8564.7900390625,-0.0,6542.2060546875,30840.23828125,35345.5546875,11837.482421875,23721.060546875,18837.451171875,-232.0607452392578,-357.62786865234375,6173.45166015625,17796.357421875,13893.4453125,17891.724609375,13762.314453125,2397.6962890625,3120.1044921875,12381.0771484375,0.0,6291.0712890625,11115.07421875,11599.8583984375,8738.041015625,14286.041015625,14068.2861328125,20771.822265625,-10458.62890625,5618.73095703125,13590.6533203125,6654.2626953125,7472.8330078125,4796.18701171875,0.0,13374.48828125
6960.2333984375,4876.45458984375,16502.5390625,10008.017578125,19586.0859375,8080.005859375,13134.4794921875,17906.03125,10085.10546875,12338.9560546875,8368.4921875,10272.662109375,-4269.28173828125,0.0,15012.423828125,16816.45703125,3974.437744140625,4460.8115234375,8101.46337890625,10481.6748046875,6652.67333984375,14457.703125,11697.6103515625,26668.70703125,256.69732666015625,2733.071533203125,9641.6474609375,17600.85546875,-4092.85205078125,3881.45458984375,22490.8203125,-8710.2255859375,-1873.969970703125,6138.4833984375,13633.568359375,14755.7255859375,10559.55859375,13166.2685546875,8572.7373046875,-0.0,6562.07421875,30844.2109375,35363.8359375,11852.58203125,23739.337890625,18856.525390625,-205.03997802734375,-332.99127197265625,6186.9619140625,17812.251953125,13908.5458984375,17916.361328125,13769.4677734375,2474.784912109375,3135.204345703125,12400.9443359375,0.0,6322.86083984375,11134.1474609375,11629.263671875,8757.9091796875,14301.9365234375,14086.564453125,20783.7421875,-10439.5546875,5637.01025390625,13605.75390625,6668.56787109375,7474.42236328125,4799.3662109375,0.0,13386.4091796875
6992.81689453125,4896.32275390625,16466.775390625,10062.853515625,19629.001953125,8116.56298828125,13170.2421875,17938.61328125,10127.2265625,12380.2822265625,8407.43359375,10316.3720703125,-4239.08251953125,0.0,15048.1865234375,16849.041015625,4014.96875,4500.5478515625,8140.40478515625,10520.6171875,6694.7939453125,14495.849609375,11738.9365234375,26706.853515625,297.2284851074219,2775.98681640625,9670.2578125,17631.849609375,-4069.01025390625,3932.317138671875,22529.759765625,-8660.9521484375,-1835.822998046875,6178.22021484375,13677.279296875,14794.6669921875,10596.1162109375,13204.4150390625,8694.3310546875,-0.0,6615.32080078125,30879.974609375,35402.7734375,11889.1396484375,23777.484375,18893.876953125,-173.25083923339844,-275.77081298828125,6232.26171875,17849.603515625,13941.923828125,17948.150390625,13802.845703125,2517.7001953125,3176.530029296875,12443.8603515625,0.0,6349.0869140625,11183.4208984375,11666.615234375,8806.3876953125,14341.671875,14123.9169921875,20827.451171875,-10395.0498046875,5684.69384765625,13641.5166015625,6731.3515625,7526.87451171875,4861.35498046875,0.0,13434.0927734375
6934.00732421875,4848.63916015625,16395.25,10052.521484375,19613.900390625,8093.51611328125,13144.810546875,17908.4140625,10099.4111328125,12351.671875,8374.0546875,10278.224609375,-4254.9765625,0.0,15021.1650390625,16818.841796875,3988.742919921875,4478.2958984375,8114.97412109375,10493.595703125,6677.3095703125,14474.3916015625,11715.0947265625,26679.833984375,272.5919189453125,2751.350341796875,9644.03125,17602.443359375,-4103.18359375,3910.859619140625,22506.71484375,-8693.5361328125,-1858.075439453125,6156.7626953125,13656.6162109375,14769.236328125,10571.4794921875,13178.189453125,8656.1845703125,-0.0,6614.5263671875,30864.080078125,35382.90625,11862.9140625,23749.669921875,18865.267578125,-211.39781188964844,-359.2173156738281,6220.3408203125,17823.376953125,13915.6982421875,17917.15625,13769.4677734375,2468.427001953125,3142.35693359375,12412.0712890625,0.0,6300.6083984375,11150.8369140625,11637.2109375,8776.982421875,14315.4462890625,14096.896484375,20803.609375,-10428.4287109375,5656.8779296875,13614.4951171875,6721.814453125,7500.6484375,4853.4072265625,0.0,13417.4033203125
6877.5810546875,4791.41845703125,16485.849609375,10038.216796875,19556.681640625,8042.6533203125,13086.7958984375,17844.041015625,10035.0380859375,12283.3251953125,8320.013671875,10209.083984375,-4280.408203125,0.0,14967.1240234375,16752.87890625,3940.26416015625,4421.0751953125,8056.16357421875,10428.4287109375,6618.5,14428.2978515625,11658.6689453125,26623.408203125,216.96090698242188,2698.8984375,9586.8115234375,17546.8125,-4142.919921875,3851.254638671875,22454.26171875,-8765.0615234375,-1894.6329345703125,6128.15234375,13599.3955078125,14718.373046875,10514.259765625,13117.7900390625,8560.021484375,-0.0,6538.232421875,30828.318359375,35325.6875,11805.693359375,23688.474609375,18801.689453125,-259.0815124511719,-461.7373046875,6157.55712890625,17769.3359375,13862.4501953125,17854.37109375,13733.7041015625,2411.20654296875,3078.778564453125,12359.619140625,0.0,6228.2880859375,11081.6953125,11570.4541015625,8711.814453125,14257.4306640625,14034.1123046875,20731.291015625,-10480.880859375,5598.86328125,13558.8642578125,6641.546875,7431.50732421875,4766.7822265625,0.0,13341.9033203125
6892.68115234375,4781.8818359375,16524.791015625,10050.9326171875,19558.271484375,8045.037109375,13093.9482421875,17848.810546875,10039.806640625,12280.146484375,8323.1923828125,10213.0576171875,-4263.71923828125,0.0,14981.4287109375,16760.03125,3944.23828125,4425.048828125,8059.34228515625,10429.22265625,6618.5,14432.271484375,11663.4365234375,26628.970703125,220.1398162841797,2706.05078125,9599.5263671875,17553.96484375,-4132.5888671875,3852.84423828125,22456.646484375,-8756.3203125,-1891.4541015625,6144.046875,13600.1904296875,14724.7314453125,10520.6171875,13120.96875,8581.4794921875,-0.0,6531.8740234375,30831.49609375,35329.66015625,11810.4619140625,23694.833984375,18806.45703125,-251.13424682617188,-420.41143798828125,6157.55712890625,17770.92578125,13875.1669921875,17860.73046875,13741.65234375,2398.490966796875,3082.752197265625,12365.9775390625,0.0,6243.3876953125,11086.4638671875,11581.580078125,8720.5576171875,14261.4052734375,14038.8798828125,20732.083984375,-10476.1123046875,5599.65771484375,13574.759765625,6622.47314453125,7434.68603515625,4746.119140625,0.0,13341.9033203125
6881.55517578125,4748.50341796875,16504.923828125,9979.4072265625,19563.0390625,8040.26904296875,13097.921875,17858.34765625,10039.806640625,12283.3251953125,8317.6298828125,10221.798828125,-4278.81884765625,0.0,14998.1181640625,16770.36328125,3940.26416015625,4423.45947265625,8061.7265625,10428.4287109375,6620.0888671875,14421.939453125,11665.8212890625,26627.3828125,202.65579223632812,2699.69287109375,9618.599609375,17556.349609375,-4131.7939453125,3852.049560546875,22455.056640625,-8741.2197265625,-1893.8382568359375,6101.92626953125,13600.9853515625,14720.7578125,10525.3857421875,13120.96875,8556.8427734375,-0.0,6528.69580078125,30815.6015625,35336.8125,11810.4619140625,23699.6015625,18808.841796875,-247.16058349609375,-393.3906555175781,6159.94140625,17769.3359375,13893.4453125,17868.677734375,13718.60546875,2410.411865234375,3093.87841796875,12366.771484375,0.0,6273.587890625,11082.490234375,11587.9375,8726.9140625,14262.19921875,14041.2646484375,20728.111328125,-10478.49609375,5596.47900390625,13591.44921875,6609.7578125,7451.37548828125,4745.32470703125,0.0,13333.95703125
6852.94482421875,4653.1357421875,16446.11328125,9973.84375,19556.681640625,8033.1162109375,13086.7958984375,17846.42578125,10024.70703125,12275.3779296875,8293.7880859375,10204.3154296875,-4290.73974609375,0.0,14981.4287109375,16757.646484375,3934.701416015625,4412.3330078125,8049.8056640625,10414.91796875,6616.11572265625,14416.376953125,11656.2841796875,26617.05078125,163.71409606933594,2698.8984375,9607.474609375,17548.40234375,-4145.30419921875,3836.94970703125,22447.109375,-8757.1142578125,-1904.9644775390625,6098.7470703125,13593.8330078125,14709.6318359375,10512.669921875,13109.0478515625,8563.201171875,-0.0,6542.2060546875,30810.037109375,35328.0703125,11800.9248046875,23686.08984375,18794.537109375,-277.36029052734375,-407.6957702636719,6144.841796875,17758.2109375,13876.755859375,17858.34765625,13692.37890625,2377.827880859375,3074.804931640625,12355.6455078125,0.0,6261.6669921875,11067.390625,11565.685546875,8697.509765625,14251.0732421875,14026.958984375,20714.6015625,-10501.5439453125,5585.3525390625,13573.9638671875,6593.86279296875,7425.94384765625,4745.32470703125,0.0,13323.625
6848.17626953125,4676.9775390625,16397.634765625,10003.2490234375,19548.734375,8026.75927734375,13085.2060546875,17840.06640625,10032.654296875,12277.7626953125,8304.119140625,10196.3681640625,-4289.150390625,0.0,14978.25,16751.2890625,3936.290771484375,4410.74365234375,8048.216796875,10422.0703125,6613.7314453125,14417.171875,11653.10546875,26614.666015625,185.96649169921875,2693.335205078125,9604.294921875,17538.865234375,-4136.5625,3827.412841796875,22447.904296875,-8749.1669921875,-1912.9117431640625,6117.82080078125,13591.44921875,14710.4267578125,10511.875,13106.6640625,8597.3740234375,-0.0,6545.384765625,30806.064453125,35325.6875,11796.1572265625,23686.88671875,18792.947265625,-289.2812194824219,-391.0064697265625,6151.19921875,17755.03125,13875.1669921875,17852.783203125,13689.2001953125,2357.959716796875,3086.725830078125,12350.876953125,0.0,6240.208984375,11082.490234375,11560.1220703125,8693.5361328125,14248.6884765625,14027.7548828125,20728.90625,-10487.2392578125,5586.1474609375,13571.580078125,6612.14208984375,7433.09619140625,4771.55078125,0.0,13345.8779296875
6817.9765625,4746.119140625,16419.091796875,9986.5595703125,19523.302734375,8004.50634765625,13065.337890625,17822.583984375,10014.375,12256.3046875,8296.966796875,10193.984375,-4318.55517578125,0.0,14963.9443359375,16733.8046875,3914.0380859375,4390.0810546875,8028.34814453125,10404.5869140625,6589.0947265625,14391.740234375,11633.2373046875,26592.412109375,192.32432556152344,2661.5458984375,9597.9375,17519.79296875,-4152.45654296875,3805.16064453125,22425.65234375,-8769.03515625,-1936.753662109375,6090.00537109375,13568.4013671875,14686.583984375,10492.8017578125,13087.58984375,8601.34765625,-0.0,6513.595703125,30771.890625,35303.43359375,11776.2880859375,23668.607421875,18773.875,-311.5335998535156,-353.65423583984375,6117.02587890625,17739.931640625,13860.06640625,17834.505859375,13701.12109375,2382.59619140625,3085.136474609375,12331.0087890625,0.0,6206.83056640625,11068.1845703125,11544.2275390625,8682.41015625,14228.8203125,14007.091796875,20707.44921875,-10495.185546875,5567.86865234375,13557.2744140625,6585.916015625,7421.17529296875,4746.119140625,0.0,13322.0361328125
6826.71875,4799.3662109375,16427.8359375,9972.2548828125,19528.0703125,7998.14892578125,13062.1591796875,17816.224609375,10006.427734375,12244.3837890625,8288.224609375,10205.9052734375,-4334.44970703125,0.0,14953.61328125,16726.65234375,3903.706787109375,4386.10693359375,8024.375,10394.255859375,6588.30029296875,14380.6142578125,11630.8525390625,26587.64453125,212.9872589111328,2662.3408203125,9592.3740234375,17512.640625,-4158.02001953125,3808.33935546875,22420.087890625,-8778.572265625,-1931.9852294921875,6074.1103515625,13567.6064453125,14681.021484375,10488.033203125,13082.822265625,8591.015625,-0.0,6514.390625,30761.560546875,35303.43359375,11769.1357421875,23661.455078125,18765.92578125,-317.0967102050781,-343.32275390625,6137.68896484375,17735.162109375,13851.3251953125,17827.3515625,13726.5517578125,2377.033203125,3081.95751953125,12327.03515625,0.0,6211.5986328125,11059.443359375,11534.6904296875,8694.3310546875,14223.2578125,14000.7333984375,20692.34765625,-10499.16015625,5564.689453125,13549.328125,6570.02099609375,7409.25439453125,4719.89306640625,0.0,13298.1943359375
6816.38720703125,4873.27587890625,16400.814453125,9963.5126953125,19542.375,8004.50634765625,13068.5166015625,17824.96875,10019.1435546875,12256.3046875,8277.0986328125,10213.8515625,-4314.58154296875,0.0,14955.203125,16736.189453125,3904.501708984375,4393.259765625,8031.52734375,10406.970703125,6598.63134765625,14384.5869140625,11637.2109375,26594.796875,212.9872589111328,2667.109130859375,9586.8115234375,17522.970703125,-4142.919921875,3815.491943359375,22425.65234375,-8761.087890625,-1926.422119140625,6064.57373046875,13577.1435546875,14688.173828125,10494.3916015625,13089.974609375,8549.6904296875,-0.0,6547.76904296875,30762.353515625,35308.19921875,11777.8779296875,23670.9921875,18775.462890625,-336.9649353027344,-334.58074951171875,6159.94140625,17742.314453125,13850.529296875,17835.298828125,13720.9892578125,2397.6962890625,3079.573486328125,12342.1357421875,0.0,6226.6982421875,11077.7216796875,11548.99609375,8720.5576171875,14230.41015625,14011.8603515625,20707.44921875,-10494.3916015625,5571.84228515625,13547.73828125,6577.96875,7421.17529296875,4732.60888671875,0.0,13321.240234375
6832.28173828125,4892.34912109375,16416.70703125,9959.5380859375,19532.837890625,8008.47998046875,13067.72265625,17829.736328125,10025.5009765625,12262.662109375,8288.224609375,10223.388671875,-4289.9453125,0.0,14952.0234375,16740.95703125,3911.654052734375,4392.46533203125,8032.32177734375,10413.3291015625,6592.27392578125,14386.9716796875,11638.0048828125,26598.771484375,195.50323486328125,2667.109130859375,9575.6845703125,17528.533203125,-4141.33056640625,3828.207763671875,22426.447265625,-8754.73046875,-1935.9588623046875,6069.34228515625,13573.169921875,14689.7626953125,10494.3916015625,13093.154296875,8553.6640625,-0.0,6532.6689453125,30768.712890625,35305.81640625,11781.056640625,23673.376953125,18781.8203125,-309.94415283203125,-332.1965637207031,6132.1259765625,17741.521484375,13848.9404296875,17840.06640625,13715.4267578125,2434.253662109375,3074.804931640625,12351.671875,0.0,6242.59326171875,11072.953125,11558.533203125,8720.5576171875,14231.205078125,14016.6279296875,20719.369140625,-10507.9013671875,5579.78955078125,13546.1494140625,6587.50537109375,7434.68603515625,4745.32470703125,0.0,13333.95703125
6876.78662109375,4889.96484375,16480.287109375,9987.3544921875,19557.4765625,8041.064453125,13099.5107421875,17864.705078125,10055.701171875,12296.8359375,8327.1669921875,10256.767578125,-4270.87158203125,0.0,14987.7861328125,16775.130859375,3947.416748046875,4425.84375,8065.70068359375,10445.1181640625,6624.857421875,14422.734375,11669.0,26629.765625,229.6765594482422,2702.0771484375,9609.0634765625,17553.96484375,-4127.025390625,3866.354736328125,22459.826171875,-8726.9140625,-1888.275146484375,6109.0791015625,13604.958984375,14721.552734375,10525.3857421875,13125.7373046875,8553.6640625,-0.0,6537.4375,30807.654296875,35336.8125,11812.05078125,23705.1640625,18815.19921875,-241.5974884033203,-305.97052001953125,6164.70947265625,17766.15625,13885.498046875,17875.830078125,13735.2939453125,2472.400634765625,3105.79931640625,12385.05078125,0.0,6293.45556640625,11105.537109375,11592.7060546875,8740.4248046875,14264.583984375,14046.828125,20751.953125,-10480.880859375,5617.1416015625,13581.1162109375,6643.13671875,7464.0908203125,4780.29248046875,0.0,13363.361328125
6894.2705078125,4857.38134765625,16503.333984375,9960.333984375,19548.734375,8028.34814453125,13093.9482421875,17850.3984375,10043.7802734375,12293.65625,8328.755859375,10237.693359375,-4281.99755859375,0.0,14998.1181640625,16762.4140625,3929.13818359375,4413.9228515625,8056.16357421875,10438.759765625,6607.37353515625,14408.4287109375,11659.462890625,26617.05078125,230.47129821777344,2688.56689453125,9611.447265625,17542.83984375,-4129.40966796875,3845.691650390625,22442.341796875,-8738.8349609375,-1912.116943359375,6090.7998046875,13591.44921875,14708.8369140625,10520.6171875,13114.611328125,8569.55859375,-0.0,6514.390625,30795.732421875,35331.25,11800.1298828125,23698.806640625,18807.251953125,-236.82911682128906,-340.9385681152344,6178.22021484375,17751.8515625,13891.8564453125,17862.3203125,13738.47265625,2452.532470703125,3106.593994140625,12371.5400390625,0.0,6263.255859375,11092.0263671875,11581.580078125,8717.3779296875,14255.046875,14038.0859375,20756.720703125,-10480.880859375,5606.015625,13589.064453125,6661.4150390625,7448.1962890625,4801.75,0.0,13377.666015625
6956.25927734375,4885.99169921875,16454.060546875,10009.6064453125,19574.166015625,8059.34228515625,13119.3798828125,17872.65234375,10071.5947265625,12315.9091796875,8354.1875,10260.7412109375,-4258.15576171875,0.0,15010.833984375,16783.080078125,3955.3642578125,4441.73828125,8082.3896484375,10464.19140625,6631.21533203125,14440.21875,11684.89453125,26644.865234375,242.39222717285156,2718.766357421875,9636.0849609375,17573.833984375,-4099.21044921875,3878.275634765625,22470.951171875,-8714.9931640625,-1904.169677734375,6128.15234375,13618.46875,14738.2421875,10543.6640625,13144.0166015625,8632.3427734375,-0.0,6555.7158203125,30828.318359375,35353.5,11831.1240234375,23719.46875,18830.298828125,-260.6709899902344,-317.8914489746094,6187.7568359375,17786.025390625,13902.9814453125,17886.162109375,13776.6201171875,2478.758544921875,3120.1044921875,12410.4814453125,0.0,6275.1767578125,11126.9951171875,11602.2421875,8737.24609375,14282.0673828125,14065.1064453125,20777.384765625,-10447.501953125,5638.599609375,13600.1904296875,6686.0517578125,7476.01171875,4819.234375,0.0,13392.765625
7015.86376953125,4936.0595703125,16473.134765625,10040.6005859375,19630.58984375,8111.0,13167.8583984375,17927.48828125,10119.279296875,12363.5927734375,8378.029296875,10304.451171875,-4200.140625,0.0,15044.2119140625,16838.708984375,4004.63720703125,4492.60107421875,8131.6630859375,10511.875,6688.43603515625,14490.287109375,11737.3466796875,26696.5234375,273.3866271972656,2775.1923828125,9685.357421875,17627.875,-4047.552490234375,3931.5224609375,22521.814453125,-8668.8994140625,-1848.5386962890625,6166.29931640625,13673.3056640625,14789.1044921875,10593.7314453125,13194.87890625,8644.263671875,-0.0,6635.98388671875,30882.359375,35404.3671875,11884.3720703125,23767.15234375,18880.3671875,-288.4864807128906,-273.3866271972656,6231.466796875,17842.451171875,13939.5400390625,17939.41015625,13815.5625,2524.852783203125,3138.383056640625,12467.7021484375,0.0,6344.318359375,11155.60546875,11656.2841796875,8795.26171875,14333.724609375,14115.173828125,20821.09375,-10389.4873046875,5690.2568359375,13635.158203125,6719.4306640625,7544.35888671875,4853.4072265625,0.0,13431.7080078125
6937.98046875,4864.53369140625,16387.3046875,9992.123046875,19586.880859375,8057.75341796875,13120.1748046875,17874.240234375,10066.8271484375,12310.345703125,8323.1923828125,10259.9462890625,-4235.10888671875,0.0,15007.6552734375,16786.255859375,3952.18505859375,4440.14892578125,8081.59521484375,10458.62890625,6640.75244140625,14437.0390625,11688.0732421875,26643.275390625,209.0136260986328,2721.150634765625,9652.7734375,17569.861328125,-4100.0048828125,3879.0703125,22470.15625,-8726.9140625,-1897.01708984375,6113.05224609375,13623.2373046875,14736.65234375,10547.6376953125,13141.6318359375,8551.2802734375,-0.0,6605.7841796875,30829.90625,35361.44921875,11828.740234375,23721.060546875,18827.916015625,-295.6390380859375,-349.6805725097656,6182.19384765625,17785.23046875,13900.59765625,17886.162109375,13752.7783203125,2446.96923828125,3104.2099609375,12397.765625,0.0,6285.5087890625,11109.51171875,11599.8583984375,8743.603515625,14282.8623046875,14065.1064453125,20767.052734375,-10452.2705078125,5625.08935546875,13597.8056640625,6654.2626953125,7476.806640625,4789.8291015625,0.0,13369.7197265625
6861.6865234375,4769.9609375,16469.16015625,10032.654296875,19530.455078125,8018.81103515625,13069.3125,17823.376953125,10015.169921875,12249.9462890625,8310.4775390625,10206.69921875,-4273.255859375,0.0,14964.740234375,16733.8046875,3912.448974609375,4396.4384765625,8033.91162109375,10402.2021484375,6592.27392578125,14403.6611328125,11637.2109375,26598.771484375,187.5559539794922,2687.77197265625,9585.2216796875,17528.533203125,-4140.53564453125,3840.128662109375,22428.83203125,-8776.982421875,-1923.2431640625,6095.568359375,13572.375,14696.916015625,10495.185546875,13094.7431640625,8517.9013671875,-0.0,6504.05859375,30804.4765625,35309.79296875,11785.0302734375,23667.8125,18774.66796875,-248.75006103515625,-427.5639953613281,6130.53662109375,17749.46875,13857.6826171875,17835.298828125,13702.7099609375,2325.375732421875,3083.546875,12347.6982421875,0.0,6218.75146484375,11070.5693359375,11539.458984375,8695.1259765625,14234.3837890625,14013.44921875,20697.912109375,-10491.2119140625,5582.96826171875,13556.48046875,6577.96875,7411.638671875,4708.76708984375,0.0,13294.2197265625
6839.43408203125,4722.27734375,16510.486328125,10097.0263671875,19524.892578125,8025.9638671875,13069.3125,17832.9140625,10018.3486328125,12257.099609375,8312.861328125,10201.13671875,-4297.89208984375,0.0,14966.3291015625,16744.13671875,3918.806640625,4397.2333984375,8034.7060546875,10406.970703125,6592.27392578125,14413.197265625,11635.62109375,26602.744140625,204.24525451660156,2693.335205078125,9573.30078125,17536.482421875,-4150.86767578125,3840.92333984375,22432.0078125,-8780.162109375,-1912.9117431640625,6116.2314453125,13569.9912109375,14700.0947265625,10492.0068359375,13096.3330078125,8545.7158203125,-0.0,6479.421875,30817.189453125,35301.84375,11790.5927734375,23667.8125,18780.232421875,-245.57113647460938,-439.48492431640625,6116.2314453125,17755.826171875,13857.6826171875,17844.041015625,13705.0947265625,2334.117919921875,3077.98388671875,12340.5458984375,0.0,6256.8984375,11072.953125,11549.7900390625,8687.97265625,14235.1787109375,14015.0380859375,20706.654296875,-10494.3916015625,5584.55810546875,13557.2744140625,6566.0478515625,7421.17529296875,4707.177734375,0.0,13306.935546875
6865.66015625,4793.802734375,16412.734375,9991.328125,19528.0703125,8029.1435546875,13075.6689453125,17847.21875,10027.8857421875,12270.609375,8323.9873046875,10222.5947265625,-4309.0185546875,0.0,14975.865234375,16758.44140625,3922.780517578125,4404.38623046875,8042.6533203125,10418.8916015625,6597.8369140625,14411.6083984375,11644.36328125,26610.693359375,223.31874084472656,2694.924560546875,9586.0166015625,17540.455078125,-4148.4833984375,3835.3603515625,22435.984375,-8765.0615234375,-1919.26953125,6113.84716796875,13577.9384765625,14704.86328125,10499.9541015625,13105.869140625,8592.60546875,-0.0,6507.23779296875,30813.216796875,35306.61328125,11796.1572265625,23676.5546875,18793.7421875,-259.0815124511719,-389.4170227050781,6134.51025390625,17759.80078125,13867.21875,17858.34765625,13715.4267578125,2422.332763671875,3101.82568359375,12352.466796875,0.0,6289.48193359375,11088.0537109375,11567.275390625,8712.609375,14243.919921875,14023.78125,20721.75390625,-10484.8544921875,5596.47900390625,13565.22265625,6597.0419921875,7437.86474609375,4725.4560546875,0.0,13319.6513671875
6888.70751953125,4825.591796875,16419.091796875,9969.8701171875,19563.833984375,8051.3955078125,13103.4853515625,17873.4453125,10054.111328125,12305.5771484375,8346.240234375,10260.7412109375,-4303.45556640625,0.0,14994.9384765625,16783.080078125,3945.827392578125,4429.8173828125,8070.46875,10447.501953125,6625.65234375,14427.5029296875,11672.9736328125,26636.123046875,253.5184326171875,2713.203369140625,9620.189453125,17570.654296875,-4131.7939453125,3855.228515625,22461.4140625,-8738.041015625,-1901.7855224609375,6124.97314453125,13608.1376953125,14725.525390625,10529.3583984375,13134.4794921875,8636.3154296875,-0.0,6559.68994140625,30814.806640625,35336.8125,11822.3828125,23705.1640625,18823.146484375,-238.4185791015625,-327.4281921386719,6175.8359375,17787.615234375,13888.6767578125,17884.572265625,13744.8310546875,2477.1689453125,3124.872802734375,12400.9443359375,0.0,6310.14501953125,11103.1533203125,11599.0634765625,8744.3994140625,14270.94140625,14053.98046875,20757.517578125,-10461.0126953125,5631.44677734375,13585.884765625,6656.646484375,7460.1171875,4788.23974609375,0.0,13370.513671875
6873.607421875,4848.63916015625,16508.1015625,9954.7705078125,19580.5234375,8057.75341796875,13120.1748046875,17886.162109375,10070.0068359375,12323.0615234375,8354.1875,10275.8408203125,-4283.5869140625,0.0,15010.833984375,16798.177734375,3957.74853515625,4439.35400390625,8085.568359375,10467.3701171875,6637.5732421875,14430.6826171875,11684.89453125,26647.25,256.69732666015625,2727.508544921875,9635.2890625,17582.57421875,-4111.13134765625,3872.71240234375,22472.5390625,-8715.7890625,-1881.9173583984375,6108.2841796875,13619.263671875,14733.4736328125,10543.6640625,13148.7841796875,8622.8056640625,-0.0,6566.8427734375,30809.244140625,35354.296875,11833.5087890625,23722.6484375,18839.041015625,-201.0663299560547,-294.0495910644531,6187.7568359375,17796.357421875,13906.1611328125,17899.671875,13749.599609375,2504.984619140625,3124.078125,12416.83984375,0.0,6311.73486328125,11113.484375,11623.7001953125,8754.73046875,14281.2724609375,14071.46484375,20783.7421875,-10449.091796875,5646.546875,13602.57421875,6674.92529296875,7476.806640625,4812.87646484375,0.0,13414.2236328125
6904.60205078125,4874.07080078125,16531.1484375,9969.8701171875,19576.548828125,8062.52197265625,13120.96875,17897.287109375,10071.5947265625,12328.625,8347.8291015625,10275.0458984375,-4266.10302734375,0.0,15005.2705078125,16809.3046875,3956.1591796875,4439.35400390625,8088.748046875,10470.5498046875,6635.98388671875,14432.271484375,11683.3046875,26647.25,249.54476928710938,2729.09814453125,9637.673828125,17588.138671875,-4105.56787109375,3885.42822265625,22470.951171875,-8721.3515625,-1876.354248046875,6112.25732421875,13617.6748046875,14736.65234375,10546.0478515625,13151.1689453125,8560.81640625,-0.0,6549.3583984375,30817.986328125,35354.296875,11837.482421875,23723.443359375,18846.98828125,-197.88742065429688,-298.8179626464844,6183.783203125,17798.7421875,13900.59765625,17909.208984375,13740.857421875,2490.679443359375,3115.336181640625,12412.0712890625,0.0,6322.06591796875,11115.8681640625,11644.36328125,8742.0146484375,14280.478515625,14073.8486328125,20785.33203125,-10447.501953125,5644.16259765625,13596.216796875,6677.3095703125,7468.859375,4801.75,0.0,13414.2236328125
6915.72802734375,4877.2490234375,16483.46484375,9981.791015625,19571.78125,8055.369140625,13113.021484375,17882.189453125,10065.23828125,12323.8564453125,8337.498046875,10270.2783203125,-4277.2294921875,0.0,15002.88671875,16791.8203125,3945.827392578125,4432.99609375,8080.80029296875,10464.19140625,6627.24169921875,14427.5029296875,11676.15234375,26640.892578125,237.6238555908203,2725.124267578125,9627.341796875,17579.396484375,-4115.1044921875,3880.659912109375,22463.00390625,-8726.9140625,-1889.8646240234375,6113.05224609375,13610.5224609375,14731.08984375,10538.1015625,13142.4267578125,8602.142578125,-0.0,6546.17919921875,30817.986328125,35345.5546875,11828.740234375,23715.49609375,18836.65625,-228.0871124267578,-308.3547058105469,6172.6572265625,17793.974609375,13897.4189453125,17893.314453125,13748.009765625,2463.65869140625,3123.283447265625,12402.5341796875,0.0,6318.88720703125,11115.07421875,11619.7275390625,8736.451171875,14274.9150390625,14065.9013671875,20778.1796875,-10453.8603515625,5637.8046875,13594.626953125,6672.541015625,7468.859375,4825.591796875,0.0,13407.0712890625
6899.03857421875,4843.87060546875,16369.0244140625,9964.306640625,19552.70703125,8027.5537109375,13089.1796875,17852.783203125,10048.548828125,12300.80859375,8320.80859375,10239.283203125,-4304.25,0.0,14986.9921875,16761.62109375,3917.21728515625,4407.564453125,8054.57421875,10445.1181640625,6603.39990234375,14400.482421875,11653.900390625,26613.078125,214.57672119140625,2693.335205078125,9601.1162109375,17549.1953125,-4142.12548828125,3856.81787109375,22435.984375,-8752.345703125,-1935.1640625,6083.6474609375,13588.26953125,14704.86328125,10515.8486328125,13115.40625,8586.2470703125,-0.0,6539.02685546875,30790.96484375,35322.5078125,11800.9248046875,23694.0390625,18809.63671875,-269.4129943847656,-346.5016784667969,6144.841796875,17765.36328125,13882.3193359375,17861.525390625,13737.6787109375,2412.7958984375,3101.031005859375,12374.71875,0.0,6274.38232421875,11099.974609375,11586.3486328125,8722.94140625,14247.89453125,14042.8544921875,20765.462890625,-10481.6748046875,5609.9892578125,13580.322265625,6663.79931640625,7468.06494140625,4823.2080078125,0.0,13391.9716796875
