6399.15478515625,4424.25390625,16976.197265625,9795.8251953125,19665.560546875,8443.9912109375,12437.5029296875,17461.77734375,9884.833984375,11850.9931640625,9098.052734375,10344.982421875,-3693.8984375,0.0,15388.3291015625,16392.865234375,3451.50634765625,3776.55029296875,7766.88232421875,10350.544921875,6260.8720703125,14005.501953125,11122.2265625,26104.451171875,1109.441162109375,3495.21630859375,9551.8427734375,17140.70703125,-4634.857421875,3840.128662109375,21713.576171875,-9465.2177734375,-2032.915771484375,5780.06103515625,13101.8955078125,14543.533203125,9864.966796875,12509.8232421875,8393.1279296875,-0.0,7459.322265625,30268.033203125,34589.765625,11814.4345703125,23212.43359375,18293.0625,1122.15673828125,250.33950805664062,7440.2490234375,17617.544921875,14243.919921875,17478.466796875,13603.3701171875,2574.1259765625,4121.46240234375,12617.9052734375,0.0,7132.68896484375,11514.02734375,11650.7216796875,8072.05859375,13607.3427734375,14390.9453125,20253.658203125,-11482.23828125,4719.89306640625,13977.6865234375,8126.099609375,8393.923828125,6108.2841796875,0.0,13227.462890625
6384.849609375,4431.40673828125,17051.697265625,9731.4521484375,19632.181640625,8400.28125,12406.5087890625,17422.041015625,9850.6611328125,11812.845703125,9062.2900390625,10294.1201171875,-3746.3505859375,0.0,15366.8720703125,16351.5419921875,3410.97509765625,3736.813720703125,7730.3251953125,10313.9873046875,6217.95654296875,13958.61328125,11086.4638671875,26064.71484375,1076.0625,3449.1220703125,9522.4384765625,17100.17578125,-4675.38818359375,3794.0341796875,21673.044921875,-9496.2119140625,-2063.115478515625,5735.55615234375,13065.337890625,14500.6181640625,9833.1767578125,12471.67578125,8303.32421875,-0.0,7421.97021484375,30213.197265625,34558.7734375,11772.3154296875,23183.822265625,18255.7109375,1106.26220703125,220.93455505371094,7419.5859375,17570.654296875,14224.8466796875,17437.935546875,13573.9638671875,2535.18408203125,4083.3154296875,12581.3486328125,0.0,7070.7001953125,11479.8544921875,11614.1630859375,8032.32177734375,13568.4013671875,14355.1826171875,20215.51171875,-11521.1796875,4681.74609375,13958.61328125,8080.005859375,8362.9296875,6073.31591796875,0.0,13183.7529296875
6299.01904296875,4433.79052734375,16929.30859375,9705.2255859375,19605.955078125,8377.234375,12381.0771484375,17387.072265625,9816.4873046875,11769.1357421875,9028.9111328125,10289.3515625,-3776.55029296875,0.0,15347.00390625,16314.1884765625,3391.901611328125,3716.15087890625,7704.8935546875,10274.2509765625,6205.24072265625,13935.56640625,11062.6220703125,26038.48828125,1055.3995361328125,3424.4853515625,9504.1591796875,17067.58984375,-4694.4619140625,3765.424072265625,21654.763671875,-9537.537109375,-2061.526123046875,5710.125,13046.2646484375,14478.3662109375,9807.74609375,12441.4755859375,8141.2001953125,-0.0,7411.638671875,30192.533203125,34534.13671875,11744.4990234375,23153.623046875,18217.564453125,1033.147216796875,199.4768829345703,7380.64453125,17547.607421875,14202.5947265625,17401.376953125,13545.353515625,2475.57958984375,4068.2158203125,12555.9169921875,0.0,7043.6796875,11461.5751953125,11563.30078125,7985.4326171875,13544.5595703125,14321.8037109375,20174.98046875,-11540.25390625,4657.904296875,13937.9501953125,8043.4482421875,8320.013671875,6000.20068359375,0.0,13124.1484375
6267.2294921875,4440.14892578125,16934.87109375,9624.1640625,19615.4921875,8374.8505859375,12378.6923828125,17389.455078125,9813.30859375,11773.109375,9014.6064453125,10311.603515625,-3767.80810546875,0.0,15337.466796875,16318.1630859375,3382.364990234375,3712.17724609375,7704.09912109375,10275.8408203125,6200.47216796875,13928.4130859375,11062.6220703125,26037.693359375,1055.3995361328125,3433.2275390625,9509.72265625,17070.76953125,-4692.07763671875,3778.139892578125,21648.40625,-9528.7958984375,-2078.21533203125,5687.078125,13044.6748046875,14475.1865234375,9804.56640625,12441.4755859375,8208.751953125,-0.0,7417.9970703125,30188.560546875,34536.5234375,11746.8837890625,23145.67578125,18219.15234375,1037.120849609375,220.1398162841797,7404.486328125,17549.1953125,14191.4677734375,17402.966796875,13540.5859375,2545.515869140625,4069.80517578125,12546.3798828125,0.0,7089.7734375,11452.833984375,11568.0693359375,7979.0751953125,13543.7646484375,14321.8037109375,20180.54296875,-11534.6904296875,4658.69921875,13926.029296875,8051.3955078125,8326.37109375,6020.86376953125,0.0,13149.5791015625
6299.81396484375,4460.8115234375,16951.560546875,9615.4208984375,19638.5390625,8391.5400390625,12392.203125,17411.708984375,9818.87109375,11785.8251953125,9013.0166015625,10330.6767578125,-3745.555908203125,0.0,15335.0830078125,16341.208984375,3392.6962890625,3728.072021484375,7717.609375,10285.3779296875,6217.95654296875,13939.5400390625,11079.3115234375,26055.177734375,1061.7574462890625,3448.327392578125,9510.517578125,17096.201171875,-4685.7197265625,3798.802734375,21658.73828125,-9512.1064453125,-2075.8310546875,5682.3095703125,13062.9541015625,14487.90234375,9817.2822265625,12458.1650390625,8402.6650390625,-0.0,7458.52783203125,30197.302734375,34552.4140625,11766.7509765625,23157.595703125,18235.841796875,1080.8309326171875,224.90818786621094,7424.3544921875,17569.861328125,14191.4677734375,17426.013671875,13498.4658203125,2615.451904296875,4058.67919921875,12553.5322265625,0.0,7114.41015625,11454.4228515625,11593.5009765625,8007.685546875,13557.2744140625,14335.314453125,20184.517578125,-11536.2802734375,4672.20947265625,13926.8232421875,8044.24267578125,8317.6298828125,6028.0166015625,0.0,13160.705078125
6283.9189453125,4449.685546875,17069.974609375,9613.037109375,19620.259765625,8378.029296875,12371.5400390625,17398.9921875,9798.208984375,11774.69921875,9028.9111328125,10329.0869140625,-3744.76123046875,0.0,15306.47265625,16329.2880859375,3392.6962890625,3717.740234375,7703.30419921875,10270.2783203125,6205.24072265625,13932.3876953125,11061.828125,26044.05078125,1068.9100341796875,3426.86962890625,9464.4228515625,17074.744140625,-4685.7197265625,3791.650146484375,21653.17578125,-9520.8486328125,-2064.704833984375,5688.66748046875,13047.8544921875,14478.3662109375,9796.619140625,12445.4501953125,8395.5126953125,-0.0,7410.04931640625,30177.435546875,34528.5703125,11750.857421875,23134.55078125,18222.33203125,1145.9986572265625,255.90261840820312,7415.61279296875,17551.580078125,14163.6533203125,17415.681640625,13495.2861328125,2636.11474609375,4056.294921875,12545.5859375,0.0,7089.7734375,11438.529296875,11586.3486328125,8040.26904296875,13546.1494140625,14319.419921875,20168.623046875,-11538.6650390625,4673.798828125,13899.0087890625,8056.9580078125,8271.53515625,6020.0693359375,0.0,13148.7841796875
6305.37646484375,4461.6064453125,17071.56640625,9637.673828125,19614.697265625,8378.029296875,12369.15625,17398.9921875,9805.361328125,11773.904296875,9049.5751953125,10344.1875,-3747.1455078125,0.0,15323.9560546875,16327.69921875,3391.901611328125,3714.5615234375,7702.50927734375,10271.8671875,6199.677734375,13931.591796875,11058.6484375,26041.666015625,1068.115234375,3432.432861328125,9477.138671875,17074.744140625,-4677.7724609375,3801.186767578125,21651.5859375,-9514.4912109375,-2072.652099609375,5700.58837890625,13043.0859375,14475.9814453125,9795.8251953125,12444.6552734375,8362.1337890625,-0.0,7415.61279296875,30176.638671875,34523.01171875,11750.0615234375,23135.34375,18220.744140625,1142.0250244140625,284.5128479003906,7361.57080078125,17554.759765625,14179.546875,17414.888671875,13535.0224609375,2626.578125,4066.6259765625,12559.0966796875,0.0,7127.1259765625,11447.2705078125,11583.9638671875,8083.18408203125,13546.943359375,14318.625,20177.365234375,-11522.76953125,4687.30908203125,13914.90234375,8064.90625,8294.58203125,6016.095703125,0.0,13155.142578125
6312.529296875,4463.19580078125,17049.3125,9654.3623046875,19618.669921875,8391.5400390625,12386.6396484375,17408.529296875,9825.2294921875,11787.4140625,9062.2900390625,10343.392578125,-3743.96630859375,0.0,15355.74609375,16336.44140625,3395.875244140625,3723.303466796875,7715.22509765625,10290.9404296875,6198.8828125,13940.333984375,11070.5693359375,26051.998046875,1069.7047119140625,3446.738037109375,9519.259765625,17089.84375,-4670.6201171875,3800.39208984375,21656.35546875,-9508.927734375,-2090.13623046875,5702.97265625,13050.23828125,14486.3125,9812.5146484375,12455.78125,8382.796875,-0.0,7424.3544921875,30189.35546875,34542.08203125,11762.7783203125,23156.0078125,18235.048828125,1117.388427734375,265.4393615722656,7390.97607421875,17570.654296875,14209.7470703125,17423.62890625,13543.7646484375,2624.988525390625,4069.80517578125,12577.3740234375,0.0,7131.099609375,11466.34375,11600.6533203125,8089.54248046875,13556.48046875,14334.51953125,20203.58984375,-11517.20703125,4691.28271484375,13947.4873046875,8099.87353515625,8341.4716796875,6051.8583984375,0.0,13181.369140625
6316.5029296875,4476.7060546875,17060.4375,9630.5205078125,19622.64453125,8389.9501953125,12392.203125,17397.404296875,9830.7919921875,11797.74609375,9061.49609375,10335.4453125,-3763.039794921875,0.0,15354.15625,16327.69921875,3396.670166015625,3724.09814453125,7716.814453125,10298.888671875,6204.4462890625,13939.5400390625,11071.3642578125,26051.998046875,1066.5257568359375,3445.943115234375,9527.2060546875,17081.896484375,-4678.5673828125,3786.0869140625,21658.73828125,-9517.669921875,-2059.141845703125,5704.5615234375,13051.033203125,14486.3125,9817.2822265625,12451.0126953125,8281.0712890625,-0.0,7379.05517578125,30190.1484375,34552.4140625,11760.39453125,23163.953125,18235.048828125,1134.8724365234375,251.13424682617188,7439.45458984375,17569.861328125,14210.5419921875,17412.50390625,13537.4072265625,2659.956787109375,4072.189453125,12579.7587890625,0.0,7081.82666015625,11473.49609375,11593.5009765625,8067.29052734375,13555.685546875,14337.69921875,20209.154296875,-11525.154296875,4688.8984375,13946.6923828125,8126.89501953125,8347.0341796875,6086.03125,0.0,13194.87890625
6370.54443359375,4500.5478515625,16963.482421875,9651.978515625,19608.33984375,8374.0546875,12369.9501953125,17377.53515625,9808.5400390625,11777.0830078125,9051.1640625,10321.140625,-3765.424072265625,0.0,15327.1357421875,16306.2421875,3385.5439453125,3710.587646484375,7697.7412109375,10275.0458984375,6203.6513671875,13929.2080078125,11055.4697265625,26035.30859375,1076.857177734375,3433.2275390625,9482.701171875,17060.4375,-4688.10400390625,3766.218994140625,21649.99609375,-9527.2060546875,-2055.962890625,5699.79345703125,13041.49609375,14472.8017578125,9795.029296875,12432.734375,8206.3671875,-0.0,7385.41259765625,30175.84375,34529.37109375,11742.115234375,23138.5234375,18212.794921875,1099.109619140625,248.75006103515625,7420.380859375,17557.14453125,14181.931640625,17391.046875,13539.791015625,2625.783203125,4070.60009765625,12571.8115234375,0.0,7083.416015625,11448.0654296875,11567.275390625,8034.7060546875,13539.791015625,14316.2412109375,20177.365234375,-11535.4853515625,4677.7724609375,13918.876953125,8112.58984375,8307.2978515625,6072.52099609375,0.0,13171.037109375
6394.38623046875,4489.421875,16918.181640625,9643.2373046875,19594.828125,8368.4921875,12359.619140625,17375.9453125,9795.029296875,11769.1357421875,9048.779296875,10297.298828125,-3763.834716796875,0.0,15322.3671875,16307.8310546875,3374.41748046875,3702.640625,7689.7939453125,10264.7138671875,6189.34619140625,13922.0556640625,11045.138671875,26027.361328125,1072.0888671875,3422.101318359375,9474.75390625,17058.0546875,-4690.48828125,3768.60302734375,21640.458984375,-9539.921875,-2094.904541015625,5690.2568359375,13031.1650390625,14464.060546875,9784.6982421875,12427.1708984375,8290.6083984375,-0.0,7389.38671875,30173.4609375,34511.8828125,11735.7568359375,23128.19140625,18206.4375,1072.883544921875,206.6294403076172,7382.23388671875,17549.9921875,14177.9580078125,17391.83984375,13564.427734375,2587.63623046875,4060.268310546875,12559.890625,0.0,7107.2578125,11434.5546875,11568.8642578125,8019.6064453125,13531.048828125,14307.4990234375,20172.595703125,-11536.2802734375,4665.8515625,13914.1083984375,8096.69482421875,8285.0458984375,6059.80517578125,0.0,13165.4736328125
6402.33349609375,4494.1904296875,17012.75390625,9609.0634765625,19591.650390625,8365.3134765625,12358.029296875,17382.302734375,9794.2353515625,11762.7783203125,9048.779296875,10304.451171875,-3772.57666015625,0.0,15330.314453125,16312.599609375,3366.47021484375,3694.693359375,7685.8203125,10259.9462890625,6173.45166015625,13916.4921875,11043.548828125,26022.591796875,1061.7574462890625,3421.306640625,9488.2646484375,17060.4375,-4686.51416015625,3782.908203125,21629.333984375,-9535.1533203125,-2113.183349609375,5677.541015625,13020.0390625,14459.2919921875,9783.904296875,12425.58203125,8335.908203125,-0.0,7365.544921875,30176.638671875,34511.8828125,11735.7568359375,23128.19140625,18206.4375,1103.083251953125,181.9928436279297,7370.31298828125,17547.607421875,14184.3154296875,17399.787109375,13586.6806640625,2610.683349609375,4050.731689453125,12561.48046875,0.0,7119.9736328125,11432.96484375,11574.427734375,8030.73193359375,13523.896484375,14305.115234375,20171.80078125,-11536.2802734375,4665.8515625,13922.0556640625,8064.90625,8292.1982421875,6032.78515625,0.0,13164.6796875
6395.18115234375,4496.57421875,17021.498046875,9646.416015625,19607.54296875,8366.90234375,12374.71875,17396.607421875,9807.74609375,11761.9833984375,9047.1904296875,10317.166015625,-3779.729248046875,0.0,15358.9248046875,16326.904296875,3375.21240234375,3705.024658203125,7697.7412109375,10265.509765625,6185.373046875,13923.64453125,11057.0595703125,26032.12890625,1060.16796875,3430.048583984375,9515.28515625,17070.76953125,-4682.541015625,3790.060791015625,21640.458984375,-9526.412109375,-2099.673095703125,5687.87255859375,13033.548828125,14469.6240234375,9802.9775390625,12437.5029296875,8324.7822265625,-0.0,7385.41259765625,30175.84375,34534.13671875,11744.4990234375,23144.880859375,18219.15234375,1100.6990966796875,176.42974853515625,7401.3076171875,17540.455078125,14213.7216796875,17413.296875,13601.7802734375,2650.419921875,4074.573486328125,12563.8642578125,0.0,7123.15234375,11448.0654296875,11596.6796875,8037.09033203125,13536.6123046875,14317.0361328125,20169.416015625,-11527.5380859375,4675.38818359375,13950.6650390625,8058.5478515625,8318.423828125,6004.96923828125,0.0,13140.0419921875
6361.802734375,4475.11669921875,17062.029296875,9660.720703125,19632.181640625,8387.5654296875,12394.587890625,17414.888671875,9829.203125,11793.7724609375,9054.3427734375,10326.703125,-3751.118896484375,0.0,15366.8720703125,16346.7734375,3392.6962890625,3722.5087890625,7716.02001953125,10294.1201171875,6211.5986328125,13942.71875,11076.1328125,26049.61328125,1049.041748046875,3448.327392578125,9527.2060546875,17093.0234375,-4670.6201171875,3791.650146484375,21659.533203125,-9516.080078125,-2069.47314453125,5698.2041015625,13055.0068359375,14487.90234375,9822.05078125,12454.986328125,8365.3134765625,-0.0,7426.73876953125,30195.712890625,34554.796875,11761.1884765625,23167.927734375,18241.40625,1116.59375,209.808349609375,7427.53369140625,17559.529296875,14223.2578125,17431.578125,13588.26953125,2654.3935546875,4106.36279296875,12574.990234375,0.0,7132.68896484375,11462.37109375,11612.57421875,8043.4482421875,13556.48046875,14339.2880859375,20198.822265625,-11512.4384765625,4684.13037109375,13958.61328125,8080.005859375,8344.650390625,6047.08984375,0.0,13173.4208984375
6300.6083984375,4400.412109375,17008.78125,9614.626953125,19604.365234375,8362.1337890625,12364.3876953125,17382.302734375,9799.7978515625,11768.3408203125,9024.1435546875,10299.6826171875,-3735.224365234375,0.0,15326.3408203125,16314.1884765625,3371.23876953125,3697.077392578125,7685.8203125,10269.482421875,6187.7568359375,13917.287109375,11048.3173828125,26021.798828125,1006.921142578125,3418.127685546875,9494.6220703125,17062.822265625,-4677.7724609375,3760.65576171875,21634.896484375,-9544.6904296875,-2082.18896484375,5678.33544921875,13030.3701171875,14459.2919921875,9791.056640625,12423.9921875,8363.7236328125,-0.0,7407.6650390625,30171.87109375,34524.6015625,11734.16796875,23140.111328125,18209.615234375,1103.083251953125,212.9872589111328,7400.5126953125,17544.427734375,14182.7265625,17398.9921875,13496.8759765625,2597.173095703125,4089.673583984375,12544.791015625,0.0,7096.1318359375,11433.7607421875,11567.275390625,8017.22216796875,13527.076171875,14310.677734375,20175.775390625,-11533.896484375,4653.9306640625,13917.287109375,8036.2958984375,8320.80859375,6031.1953125,0.0,13157.52734375
6158.35205078125,4291.5341796875,16880.830078125,9616.2158203125,19557.4765625,8317.6298828125,12317.498046875,17334.619140625,9752.1142578125,11706.3525390625,8983.6123046875,10249.6142578125,-3782.11328125,0.0,15285.8095703125,16264.1201171875,3336.2705078125,3657.341064453125,7636.546875,10213.8515625,6155.1728515625,13878.345703125,11002.22265625,25976.5,1006.921142578125,3376.007080078125,9454.88671875,17016.728515625,-4724.6611328125,3705.8193359375,21597.54296875,-9585.2216796875,-2104.44140625,5660.05712890625,12988.25,14418.76171875,9742.5771484375,12375.513671875,8244.5146484375,-0.0,7371.90234375,30132.9296875,34476.12109375,11688.8681640625,23089.25,18154.779296875,1000.5632934570312,143.8458709716797,7349.64990234375,17501.51171875,14141.400390625,17349.720703125,13438.0654296875,2504.189697265625,4047.552490234375,12494.7236328125,0.0,7046.8583984375,11404.35546875,11511.6435546875,7956.822265625,13479.3916015625,14260.609375,20105.837890625,-11577.6064453125,4603.06787109375,13874.37109375,7952.849609375,8262.7939453125,5942.18603515625,0.0,13084.412109375
6168.68359375,4345.57568359375,16970.634765625,9744.1669921875,19585.291015625,8366.1083984375,12351.671875,17378.330078125,9799.7978515625,11752.4462890625,9001.8916015625,10275.0458984375,-3786.881591796875,0.0,15312.03515625,16308.6259765625,3376.007080078125,3693.8984375,7676.283203125,10259.9462890625,6185.373046875,13926.029296875,11035.6015625,26017.82421875,1039.5050048828125,3425.2802734375,9481.1123046875,17066.001953125,-4703.20361328125,3748.734619140625,21635.69140625,-9546.2802734375,-2077.42041015625,5720.45654296875,13020.0390625,14460.880859375,9776.751953125,12416.83984375,8157.09423828125,-0.0,7390.18115234375,30187.765625,34506.3203125,11734.962890625,23128.19140625,18198.490234375,1019.6367797851562,87.4201431274414,7371.107421875,17546.8125,14167.6259765625,17393.431640625,13465.880859375,2516.905517578125,4055.5,12538.4326171875,0.0,7095.3369140625,11455.21875,11559.3271484375,7984.63818359375,13518.3330078125,14299.5517578125,20152.7265625,-11559.3271484375,4640.42041015625,13902.9814453125,7987.81689453125,8313.65625,6002.5849609375,0.0,13134.4794921875
6392.796875,4483.06396484375,17059.64453125,9748.1416015625,19654.431640625,8439.2236328125,12423.197265625,17445.087890625,9872.119140625,11831.919921875,9077.3896484375,10344.1875,-3716.15087890625,0.0,15384.3564453125,16375.3837890625,3439.58544921875,3763.039794921875,7749.39892578125,10336.240234375,6249.74560546875,13991.9921875,11106.33203125,26090.14453125,1109.441162109375,3498.395263671875,9539.921875,17140.70703125,-4625.3203125,3836.155029296875,21702.447265625,-9469.986328125,-2028.1474609375,5774.498046875,13088.3857421875,14529.228515625,9849.8662109375,12489.1591796875,8274.71484375,-0.0,7450.58056640625,30260.0859375,34577.84765625,11806.48828125,23201.306640625,18270.810546875,1130.8988037109375,183.58230590820312,7445.81201171875,17619.927734375,14238.357421875,17459.392578125,13576.3486328125,2601.146728515625,4114.3095703125,12612.3427734375,0.0,7132.68896484375,11518.001953125,11620.521484375,8077.62158203125,13590.6533203125,14373.4619140625,20236.173828125,-11483.828125,4718.3037109375,13974.5078125,8095.10498046875,8391.5400390625,6111.462890625,0.0,13225.873046875
6366.57080078125,4430.6123046875,17023.8828125,9631.31640625,19594.828125,8366.90234375,12358.029296875,17366.41015625,9782.314453125,11754.0361328125,9028.1171875,10300.4765625,-3754.2978515625,0.0,15321.572265625,16295.91015625,3372.828125,3697.8720703125,7682.6416015625,10252.79296875,6182.19384765625,13914.1083984375,11042.75390625,26021.798828125,1070.4993896484375,3427.66455078125,9485.0859375,17069.181640625,-4669.8251953125,3771.781982421875,21635.69140625,-9534.359375,-2095.69921875,5670.388671875,13024.0126953125,14459.2919921875,9783.904296875,12420.0185546875,8351.0087890625,-0.0,7387.796875,30175.84375,34517.44921875,11734.962890625,23124.21875,18196.900390625,1124.5408935546875,240.80276489257812,7394.15478515625,17552.375,14175.57421875,17379.919921875,13540.5859375,2524.05810546875,4046.758056640625,12547.17578125,0.0,7009.50634765625,11415.4814453125,11546.611328125,8025.16943359375,13525.486328125,14300.3466796875,20156.701171875,-11525.154296875,4658.69921875,13910.9296875,8064.90625,8275.5087890625,6035.1689453125,0.0,13151.1689453125
6333.1923828125,4453.6591796875,17015.138671875,9611.447265625,19595.623046875,8366.1083984375,12356.4404296875,17364.025390625,9763.2412109375,11748.4736328125,9032.8857421875,10319.55078125,-3755.88720703125,0.0,15310.4462890625,16293.525390625,3377.5966796875,3697.077392578125,7678.66748046875,10238.48828125,6179.8095703125,13914.90234375,11042.75390625,26021.798828125,1074.4730224609375,3429.25390625,9490.6494140625,17063.6171875,-4679.36181640625,3782.11328125,21636.486328125,-9529.5908203125,-2097.288818359375,5672.77294921875,13024.806640625,14458.4970703125,9781.51953125,12419.2236328125,8355.7763671875,-0.0,7391.77099609375,30171.076171875,34516.65234375,11733.373046875,23117.06640625,18195.310546875,1126.1304931640625,255.10787963867188,7390.18115234375,17555.5546875,14165.2421875,17379.125,13558.0703125,2572.536376953125,4051.526611328125,12555.1220703125,0.0,7020.63232421875,11394.818359375,11550.5859375,8005.30126953125,13523.1015625,14295.578125,20150.34375,-11529.9228515625,4672.20947265625,13899.802734375,8040.26904296875,8238.9521484375,6032.78515625,0.0,13151.1689453125
6375.31298828125,4513.263671875,17028.650390625,9693.3046875,19622.64453125,8407.43359375,12391.408203125,17422.833984375,9816.4873046875,11796.1572265625,9083.748046875,10341.8037109375,-3766.218994140625,0.0,15349.3876953125,16354.71875,3408.591064453125,3732.84033203125,7717.609375,10289.3515625,6213.18798828125,13957.0234375,11076.9267578125,26062.330078125,1091.95703125,3472.964111328125,9516.080078125,17109.712890625,-4676.9775390625,3815.491943359375,21672.248046875,-9500.98046875,-2073.447021484375,5738.7353515625,13056.595703125,14499.8232421875,9816.4873046875,12462.138671875,8359.75,-0.0,7416.4072265625,30215.58203125,34546.8515625,11774.69921875,23159.185546875,18242.201171875,1139.640869140625,239.2133026123047,7412.43359375,17590.5234375,14203.3896484375,17439.5234375,13619.263671875,2609.093994140625,4092.0576171875,12586.1171875,0.0,7130.3046875,11471.1123046875,11608.6005859375,8046.626953125,13558.8642578125,14339.2880859375,20202.794921875,-11511.6435546875,4703.20361328125,13941.923828125,8059.34228515625,8292.1982421875,6060.60009765625,0.0,13201.236328125
6430.94384765625,4514.85302734375,17039.775390625,9729.0673828125,19647.279296875,8430.48046875,12416.044921875,17445.087890625,9859.40234375,11828.740234375,9109.1796875,10364.0556640625,-3758.271484375,0.0,15381.1767578125,16376.97265625,3434.022216796875,3759.06640625,7747.0146484375,10325.908203125,6242.59326171875,13984.83984375,11103.1533203125,26086.171875,1121.362060546875,3490.447998046875,9535.1533203125,17127.1953125,-4655.52001953125,3820.26025390625,21698.474609375,-9482.701171875,-2035.300048828125,5760.98779296875,13083.6171875,14526.0498046875,9841.125,12487.5703125,8390.744140625,-0.0,7432.3017578125,30244.986328125,34572.28515625,11798.541015625,23187.794921875,18270.015625,1127.7198486328125,303.5863342285156,7443.42822265625,17606.416015625,14235.9736328125,17459.392578125,13616.0849609375,2610.683349609375,4127.025390625,12604.3955078125,0.0,7156.53076171875,11510.8486328125,11632.4423828125,8077.62158203125,13587.474609375,14369.4873046875,20236.96875,-11483.033203125,4723.072265625,13975.302734375,8139.6103515625,8359.75,6102.720703125,0.0,13227.462890625
6358.62353515625,4453.6591796875,17030.23828125,9642.44140625,19613.107421875,8385.181640625,12377.8984375,17395.814453125,9829.203125,11792.1826171875,9055.1376953125,10330.6767578125,-3758.271484375,0.0,15353.3623046875,16323.724609375,3395.08056640625,3719.329833984375,7709.662109375,10294.1201171875,6204.4462890625,13938.744140625,11066.595703125,26046.43359375,1076.857177734375,3441.9697265625,9497.0068359375,17085.076171875,-4676.9775390625,3785.29248046875,21657.1484375,-9517.669921875,-2068.6787109375,5694.23046875,13046.2646484375,14482.3388671875,9806.15625,12446.244140625,8327.1669921875,-0.0,7413.228515625,30188.560546875,34533.33984375,11756.419921875,23154.41796875,18228.689453125,1089.5728759765625,295.6390380859375,7398.12841796875,17565.091796875,14209.7470703125,17406.14453125,13568.4013671875,2589.225830078125,4081.72607421875,12559.0966796875,0.0,7103.2841796875,11478.2646484375,11582.375,8029.1435546875,13548.533203125,14333.724609375,20209.947265625,-11522.76953125,4686.51416015625,13944.30859375,8134.841796875,8343.060546875,6090.00537109375,0.0,13200.4423828125
6248.951171875,4471.14306640625,17059.64453125,9671.0517578125,19625.029296875,8400.28125,12391.408203125,17410.9140625,9840.3291015625,11806.48828125,9069.4423828125,10339.4189453125,-3736.813720703125,0.0,15350.9775390625,16341.208984375,3412.564453125,3734.4296875,7722.3779296875,10308.4248046875,6224.314453125,13952.2548828125,11080.10546875,26061.53515625,1087.188720703125,3449.916748046875,9506.54296875,17114.48046875,-4664.26220703125,3795.623779296875,21671.453125,-9496.2119140625,-2043.2471923828125,5715.68798828125,13061.3642578125,14497.439453125,9818.87109375,12462.93359375,8226.2353515625,-0.0,7426.73876953125,30199.685546875,34546.8515625,11774.69921875,23167.927734375,18245.37890625,1137.256591796875,284.5128479003906,7394.94921875,17572.244140625,14205.7734375,17426.80859375,13585.884765625,2610.683349609375,4106.36279296875,12578.9638671875,0.0,7119.9736328125,11487.8017578125,11607.806640625,8046.626953125,13561.2490234375,14347.2353515625,20225.84375,-11514.02734375,4693.6669921875,13941.12890625,8145.1728515625,8347.8291015625,6100.33642578125,0.0,13221.900390625
6292.6611328125,4516.44287109375,17058.0546875,9629.7265625,19640.921875,8406.638671875,12401.740234375,17426.80859375,9841.9189453125,11818.4091796875,9091.6953125,10352.134765625,-3731.250732421875,0.0,15352.56640625,16358.6943359375,3424.4853515625,3743.96630859375,7731.91455078125,10315.5771484375,6237.0302734375,13959.408203125,11090.4375,26072.66015625,1099.9044189453125,3460.248291015625,9515.28515625,17126.40234375,-4655.52001953125,3801.981689453125,21681.78515625,-9477.138671875,-2024.9683837890625,5715.68798828125,13074.080078125,14505.38671875,9827.6142578125,12472.470703125,8225.44140625,-0.0,7431.50732421875,30206.044921875,34560.36328125,11785.0302734375,23175.08203125,18259.68359375,1149.177490234375,282.9233703613281,7410.04931640625,17580.19140625,14208.1572265625,17444.29296875,13578.732421875,2629.7568359375,4124.6416015625,12598.0380859375,0.0,7139.841796875,11484.623046875,11626.083984375,8073.6474609375,13571.580078125,14355.9775390625,20232.201171875,-11498.927734375,4705.587890625,13941.12890625,8139.6103515625,8332.7294921875,6103.515625,0.0,13225.873046875
6366.57080078125,4460.8115234375,17000.041015625,9675.0263671875,19630.58984375,8399.486328125,12392.203125,17410.119140625,9829.203125,11804.103515625,9083.748046875,10344.1875,-3745.555908203125,0.0,15345.4140625,16338.8251953125,3416.538330078125,3739.197998046875,7722.3779296875,10302.861328125,6230.67236328125,13960.2021484375,11083.28515625,26061.53515625,1091.95703125,3466.606201171875,9506.54296875,17070.76953125,-4663.46728515625,3813.107666015625,21676.22265625,-9494.6220703125,-2032.1209716796875,5729.9931640625,13067.72265625,14499.0283203125,9816.4873046875,12458.9609375,8277.892578125,-0.0,7429.91796875,30217.966796875,34550.03125,11765.95703125,23163.953125,18244.5859375,1132.48828125,248.75006103515625,7425.1494140625,17583.37109375,14201.0048828125,17422.833984375,13562.8388671875,2571.74169921875,4114.3095703125,12602.01171875,0.0,7136.6630859375,11467.93359375,11603.83203125,8054.57421875,13562.8388671875,14345.6455078125,20216.306640625,-11505.2861328125,4707.97216796875,13934.771484375,8114.1787109375,8321.6025390625,6093.97900390625,0.0,13213.9521484375
6358.62353515625,4451.27490234375,17010.37109375,9691.71484375,19623.4375,8388.3603515625,12385.05078125,17398.19921875,9814.103515625,11785.8251953125,9078.185546875,10334.6513671875,-3743.96630859375,0.0,15354.15625,16328.4931640625,3400.6435546875,3728.072021484375,7711.251953125,10284.5830078125,6215.572265625,13946.6923828125,11072.1591796875,26050.41015625,1084.009765625,3449.1220703125,9506.54296875,17066.796875,-4666.646484375,3801.981689453125,21663.5078125,-9506.54296875,-2059.141845703125,5711.71435546875,13056.595703125,14487.90234375,9810.1298828125,12447.833984375,8278.6875,-0.0,7429.123046875,30201.27734375,34542.87890625,11755.6259765625,23153.623046875,18230.279296875,1114.20947265625,258.28680419921875,7414.02294921875,17568.26953125,14208.953125,17411.708984375,13563.6328125,2601.94140625,4093.64697265625,12586.1171875,0.0,7121.56298828125,11452.833984375,11584.7587890625,8037.09033203125,13550.1220703125,14332.134765625,20190.875,-11510.8486328125,4698.435546875,13945.8974609375,8090.3369140625,8318.423828125,6062.189453125,0.0,13186.13671875
6334.78173828125,4467.96435546875,17033.41796875,9617.0107421875,19593.23828125,8353.392578125,12353.2607421875,17367.205078125,9785.4931640625,11754.0361328125,9031.2958984375,10291.7353515625,-3747.1455078125,0.0,15331.904296875,16299.8828125,3366.47021484375,3693.8984375,7680.25732421875,10252.79296875,6177.42529296875,13908.5458984375,11040.3701171875,26017.03125,1053.015380859375,3409.3857421875,9481.1123046875,17046.1328125,-4686.51416015625,3770.1923828125,21629.333984375,-9532.76953125,-2102.05712890625,5675.1572265625,13023.216796875,14452.1396484375,9779.9296875,12416.83984375,8313.65625,-0.0,7391.77099609375,30155.9765625,34515.859375,11723.8359375,23121.833984375,18197.6953125,1082.42041015625,236.82911682128906,7370.31298828125,17530.123046875,14185.111328125,17384.6875,13521.51171875,2625.783203125,4057.08935546875,12555.9169921875,0.0,7085.00537109375,11432.96484375,11556.1484375,8004.50634765625,13518.3330078125,14301.140625,20158.291015625,-11542.6376953125,4659.494140625,13922.0556640625,8047.42138671875,8284.2509765625,6024.04248046875,0.0,13156.7314453125
6361.0078125,4483.06396484375,17006.396484375,9593.1689453125,19597.2109375,8352.59765625,12350.876953125,17371.177734375,9786.2880859375,11755.6259765625,9025.7333984375,10299.6826171875,-3747.93994140625,0.0,15315.21484375,16300.6787109375,3360.9072265625,3693.103759765625,7680.25732421875,10255.177734375,6177.42529296875,13906.1611328125,11041.1640625,26018.619140625,1045.068115234375,3414.154052734375,9473.1650390625,17051.697265625,-4689.693359375,3768.60302734375,21627.744140625,-9541.51171875,-2110.799072265625,5674.3623046875,13024.806640625,14453.728515625,9776.751953125,12417.6337890625,8310.4775390625,-0.0,7402.10205078125,30156.771484375,34515.0625,11726.2197265625,23117.861328125,18197.6953125,1105.4674072265625,189.14540100097656,7379.05517578125,17530.91796875,14166.83203125,17386.27734375,13502.4384765625,2633.730712890625,4057.08935546875,12548.7646484375,0.0,7058.779296875,11430.5810546875,11566.4794921875,8021.99072265625,13518.3330078125,14299.5517578125,20165.443359375,-11545.8173828125,4656.31494140625,13902.9814453125,8037.884765625,8292.9921875,6018.47998046875,0.0,13162.294921875
6359.41845703125,4491.01123046875,17007.986328125,9620.984375,19608.33984375,8371.6708984375,12368.361328125,17381.509765625,9808.5400390625,11776.2880859375,9037.654296875,10329.0869140625,-3750.32421875,0.0,15319.1884765625,16311.0107421875,3373.622802734375,3709.79296875,7696.94677734375,10277.4306640625,6195.7041015625,13926.029296875,11057.853515625,26036.103515625,1057.78369140625,3437.995849609375,9493.828125,17069.974609375,-4681.74609375,3790.060791015625,21644.43359375,-9543.8955078125,-2091.7255859375,5681.5146484375,13040.7021484375,14470.41796875,9793.4404296875,12435.119140625,8273.125,-0.0,7410.84423828125,30179.818359375,34526.1875,11743.705078125,23139.318359375,18216.767578125,1111.8253173828125,185.17176818847656,7396.5390625,17553.96484375,14173.1904296875,17397.404296875,13533.4326171875,2645.651611328125,4080.13671875,12567.04296875,0.0,7044.47412109375,11443.2978515625,11579.1962890625,8048.216796875,13535.8173828125,14318.625,20196.4375,-11527.5380859375,4677.7724609375,13906.1611328125,8057.75341796875,8311.271484375,6056.626953125,0.0,13190.9052734375
6347.49755859375,4551.41064453125,17080.306640625,9766.4189453125,19702.912109375,8478.958984375,12460.5498046875,17481.646484375,9897.5498046875,11871.6552734375,9112.3583984375,10423.66015625,-3693.103759765625,0.0,15374.8193359375,16413.53125,3483.29541015625,3810.7236328125,7793.1083984375,10372.7978515625,6306.17138671875,14034.1123046875,11153.220703125,26135.4453125,1138.8460693359375,3543.69482421875,9573.30078125,17171.701171875,-4613.3994140625,3894.170166015625,21751.72265625,-9463.6279296875,-1948.674560546875,5799.92919921875,13140.0419921875,14573.7333984375,9884.833984375,12532.0751953125,8251.6669921875,-0.0,7507.00634765625,30291.080078125,34617.5859375,11844.634765625,23229.123046875,18314.51953125,1147.588134765625,294.84429931640625,7481.5751953125,17656.484375,14230.41015625,17497.5390625,13628.005859375,2705.256103515625,4154.04638671875,12671.1533203125,0.0,7158.9150390625,11521.1796875,11680.9208984375,8106.2314453125,13633.568359375,14415.58203125,20292.6015625,-11452.833984375,4776.31884765625,13964.17578125,8154.7099609375,8389.1552734375,6148.81494140625,0.0,13291.041015625
6303.787109375,4516.44287109375,16939.640625,9771.9833984375,19749.005859375,8512.337890625,12495.517578125,17522.17578125,9926.16015625,11907.41796875,9125.869140625,10445.912109375,-3654.956787109375,0.0,15395.482421875,16455.650390625,3530.1845703125,3851.254638671875,7828.076171875,10405.380859375,6370.54443359375,14073.0546875,11192.162109375,26170.412109375,1151.561767578125,3574.689208984375,9598.732421875,17201.10546875,-4588.7626953125,3925.959228515625,21796.2265625,-9431.044921875,-1875.5594482421875,5838.87109375,13187.7255859375,14611.8798828125,9919.802734375,12564.6591796875,8172.98876953125,-0.0,7607.14208984375,30328.431640625,34654.93359375,11878.013671875,23260.912109375,18347.10546875,1095.9306640625,334.58074951171875,7510.18505859375,17683.505859375,14254.251953125,17537.275390625,13620.853515625,2702.8720703125,4168.3515625,12697.37890625,0.0,7239.18310546875,11545.0224609375,11713.5048828125,8095.900390625,13669.33203125,14446.576171875,20322.00390625,-11442.501953125,4802.544921875,13988.8125,8176.962890625,8427.302734375,6185.373046875,0.0,13325.21484375
6320.4765625,4498.16357421875,16952.35546875,9756.087890625,19684.6328125,8466.244140625,12450.2177734375,17474.4921875,9878.4765625,11851.787109375,9097.2587890625,10407.765625,-3678.798583984375,0.0,15371.640625,16404.787109375,3477.732421875,3800.39208984375,7781.982421875,10353.724609375,6291.8662109375,14026.1650390625,11139.7099609375,26123.5234375,1082.42041015625,3527.80029296875,9557.40625,17153.421875,-4614.1943359375,3867.944091796875,21739.005859375,-9429.455078125,-1997.94775390625,5803.9033203125,13126.5322265625,14565.78515625,9874.5029296875,12517.76953125,8385.181640625,-0.0,7514.95361328125,30280.748046875,34603.27734375,11830.330078125,23215.61328125,18298.625,1090.36767578125,315.50726318359375,7458.52783203125,17641.38671875,14229.615234375,17488.798828125,13563.6328125,2664.72509765625,4111.92578125,12652.8740234375,0.0,7204.21435546875,11499.72265625,11657.8740234375,8103.05322265625,13620.853515625,14398.09765625,20270.34765625,-11472.7021484375,4763.60302734375,13962.5859375,8126.099609375,8382.796875,6122.5888671875,0.0,13263.2255859375
6345.90771484375,4499.75341796875,17087.458984375,9763.2412109375,19662.380859375,8449.5546875,12435.9130859375,17464.95703125,9866.5556640625,11833.5087890625,9098.84765625,10395.8447265625,-3717.740234375,0.0,15385.9453125,16395.25,3453.890625,3780.52392578125,7767.67724609375,10338.6240234375,6256.8984375,14000.7333984375,11123.021484375,26108.423828125,1107.8516845703125,3503.16357421875,9551.8427734375,17149.44921875,-4630.0888671875,3847.28125,21714.369140625,-9450.912109375,-2041.65771484375,5778.4716796875,13101.8955078125,14548.3017578125,9860.9921875,12506.64453125,8489.291015625,-0.0,7459.322265625,30248.9609375,34588.17578125,11819.203125,23202.1015625,18289.08984375,1169.8404541015625,299.6126708984375,7443.42822265625,17627.080078125,14241.5361328125,17482.439453125,13568.4013671875,2660.75146484375,4084.1103515625,12639.36328125,0.0,7171.630859375,11487.0068359375,11661.8466796875,8113.38427734375,13606.5478515625,14384.5869140625,20258.42578125,-11479.8544921875,4749.2978515625,13974.5078125,8111.79443359375,8375.64453125,6082.05810546875,0.0,13245.7421875
6393.59130859375,4473.52734375,17135.142578125,9707.6103515625,19665.560546875,8445.580078125,12436.70703125,17471.3125,9866.5556640625,11859.734375,9106.794921875,10389.4873046875,-3724.09814453125,0.0,15366.0771484375,16403.994140625,3451.50634765625,3775.755615234375,7767.67724609375,10349.7509765625,6252.92431640625,13992.7861328125,11123.81640625,26106.833984375,1155.535400390625,3498.395263671875,9544.6904296875,17150.244140625,-4632.47314453125,3850.4599609375,21708.806640625,-9454.88671875,-2038.4788818359375,5753.04052734375,13099.5107421875,14543.533203125,9860.9921875,12507.4384765625,8540.9482421875,-0.0,7449.78564453125,30241.01171875,34591.359375,11819.203125,23202.896484375,18295.447265625,1202.4244384765625,305.97052001953125,7464.8857421875,17626.28515625,14220.8740234375,17488.001953125,13611.31640625,2665.519775390625,4130.9990234375,12637.7744140625,0.0,7186.73095703125,11483.828125,11666.615234375,8101.46337890625,13606.5478515625,14390.1513671875,20267.16796875,-11475.0859375,4743.73486328125,13956.2294921875,8120.53662109375,8348.6240234375,6136.89404296875,0.0,13287.0673828125
6463.52783203125,4528.36376953125,17133.5546875,9728.2724609375,19700.52734375,8483.7275390625,12468.4970703125,17507.87109375,9904.7021484375,11900.265625,9140.96875,10419.6865234375,-3695.488037109375,0.0,15403.4296875,16438.9609375,3484.090087890625,3811.518310546875,7803.43994140625,10390.28125,6287.09814453125,14031.7275390625,11156.3994140625,26142.59765625,1173.0194091796875,3539.72119140625,9582.8369140625,17187.595703125,-4605.4521484375,3872.71240234375,21744.5703125,-9418.328125,-2010.663330078125,5791.1875,13134.4794921875,14579.2958984375,9894.37109375,12541.611328125,8525.0537109375,-0.0,7492.701171875,30279.955078125,34620.76171875,11856.5556640625,23235.478515625,18331.208984375,1209.576904296875,352.06475830078125,7508.595703125,17664.431640625,14257.4306640625,17522.970703125,13657.41015625,2682.208984375,4186.63037109375,12666.384765625,0.0,7236.798828125,11532.306640625,11697.6103515625,8118.15283203125,13640.7216796875,14428.2978515625,20305.314453125,-11446.4755859375,4773.93505859375,13993.5810546875,8171.39892578125,8395.5126953125,6206.83056640625,0.0,13339.51953125
6451.60693359375,4515.64794921875,17070.76953125,9684.5625,19651.25390625,8437.6337890625,12419.2236328125,17445.8828125,9854.634765625,11827.9453125,9095.6689453125,10378.3603515625,-3754.2978515625,0.0,15371.640625,16374.587890625,3440.380126953125,3768.60302734375,7756.55126953125,10327.498046875,6243.3876953125,13988.017578125,11112.6904296875,26098.09375,1117.388427734375,3494.421630859375,9539.921875,17132.759765625,-4645.9833984375,3833.770751953125,21703.244140625,-9461.2431640625,-2050.39990234375,5747.47705078125,13090.76953125,14535.5859375,9845.892578125,12493.927734375,8381.20703125,-0.0,7436.275390625,30235.44921875,34574.66796875,11807.2822265625,23183.822265625,18270.810546875,1161.0985107421875,324.249267578125,7443.42822265625,17615.16015625,14223.2578125,17460.98046875,13629.595703125,2658.3671875,4141.33056640625,12618.701171875,0.0,7159.7099609375,11490.185546875,11626.083984375,8083.9794921875,13597.01171875,14376.640625,20229.021484375,-11484.623046875,4731.81396484375,13962.5859375,8102.2578125,8355.7763671875,6104.310546875,0.0,13229.8466796875
6381.67041015625,4499.75341796875,17077.921875,9649.5947265625,19623.4375,8404.2548828125,12385.05078125,17409.32421875,9818.0771484375,11787.4140625,9049.5751953125,10344.1875,-3778.9345703125,0.0,15339.056640625,16338.8251953125,3407.796142578125,3736.01904296875,7723.1728515625,10287.76171875,6213.98291015625,13956.2294921875,11079.3115234375,26063.123046875,1086.3939208984375,3463.42724609375,9501.7744140625,17097.791015625,-4675.38818359375,3808.33935546875,21672.248046875,-9507.3388671875,-2068.6787109375,5715.68798828125,13058.185546875,14500.6181640625,9811.71875,12459.7548828125,8366.1083984375,-0.0,7417.9970703125,30200.48046875,34542.08203125,11773.109375,23148.85546875,18235.841796875,1148.3828125,284.5128479003906,7402.10205078125,17585.75390625,14193.8525390625,17425.21875,13563.6328125,2628.962158203125,4088.878662109375,12583.732421875,0.0,7101.69482421875,11464.7548828125,11594.2958984375,8045.037109375,13561.2490234375,14339.2880859375,20181.337890625,-11516.412109375,4699.22998046875,13931.591796875,8077.62158203125,8319.21875,6051.0634765625,0.0,13177.39453125
6344.318359375,4500.5478515625,17056.46484375,9660.720703125,19612.3125,8397.1025390625,12376.30859375,17391.83984375,9806.9501953125,11780.26171875,9043.216796875,10328.29296875,-3755.88720703125,0.0,15331.904296875,16320.546875,3394.285888671875,3724.09814453125,7711.251953125,10279.814453125,6202.06201171875,13944.30859375,11068.1845703125,26051.203125,1078.44677734375,3456.274658203125,9494.6220703125,17089.84375,-4676.9775390625,3802.7763671875,21659.533203125,-9515.28515625,-2075.8310546875,5706.94580078125,13046.2646484375,14489.4912109375,9802.1826171875,12448.62890625,8333.5234375,-0.0,7408.4599609375,30193.328125,34533.33984375,11763.572265625,23139.318359375,18224.716796875,1140.435546875,251.928955078125,7401.3076171875,17582.57421875,14190.673828125,17406.14453125,13513.5654296875,2615.451904296875,4065.83154296875,12575.78515625,0.0,7061.95849609375,11448.0654296875,11576.8115234375,8029.9375,13548.533203125,14328.95703125,20178.953125,-11522.76953125,4688.8984375,13926.029296875,8107.8212890625,8309.681640625,6071.7265625,0.0,13173.4208984375
6337.9609375,4487.03759765625,17032.623046875,9721.1201171875,19603.5703125,8390.744140625,12367.56640625,17376.7421875,9796.619140625,11769.1357421875,9047.9853515625,10308.4248046875,-3742.376953125,0.0,15330.314453125,16307.03515625,3386.33837890625,3714.5615234375,7703.30419921875,10270.2783203125,6194.11474609375,13944.30859375,11057.853515625,26040.873046875,1069.7047119140625,3446.738037109375,9479.5224609375,17074.744140625,-4677.7724609375,3775.755615234375,21652.380859375,-9531.1806640625,-2081.394287109375,5718.86669921875,13037.5224609375,14482.3388671875,9791.056640625,12439.091796875,8282.6611328125,-0.0,7393.3603515625,30197.302734375,34524.6015625,11753.2412109375,23129.78125,18213.58984375,1111.030517578125,203.4505157470703,7400.5126953125,17568.26953125,14185.9052734375,17394.224609375,13504.822265625,2583.662841796875,4062.652587890625,12563.0693359375,0.0,7045.26904296875,11438.529296875,11567.275390625,8017.22216796875,13540.5859375,14319.419921875,20174.98046875,-11537.0751953125,4677.7724609375,13922.0556640625,8102.2578125,8312.861328125,6068.5478515625,0.0,13169.4482421875
6378.49169921875,4438.55908203125,17031.03515625,9737.0146484375,19627.412109375,8405.0498046875,12389.8193359375,17401.376953125,9815.693359375,11788.208984375,9071.8271484375,10333.85546875,-3736.813720703125,0.0,15351.7724609375,16333.26171875,3409.3857421875,3736.01904296875,7725.556640625,10290.1455078125,6221.1357421875,13964.17578125,11080.10546875,26059.9453125,1094.34130859375,3465.0166015625,9504.9541015625,17078.71875,-4658.69921875,3794.8291015625,21675.427734375,-9515.28515625,-2051.1943359375,5755.42431640625,13060.5693359375,14501.412109375,9813.30859375,12458.9609375,8276.3037109375,-0.0,7417.2021484375,30216.375,34547.64453125,11766.7509765625,23150.443359375,18235.841796875,1128.5146484375,218.5503692626953,7425.1494140625,17571.44921875,14208.1572265625,17419.65625,13563.6328125,2584.45751953125,4100.0048828125,12582.9384765625,0.0,7105.66845703125,11455.21875,11604.626953125,8041.85888671875,13560.4541015625,14340.0830078125,20197.232421875,-11521.1796875,4700.02490234375,13945.8974609375,8114.97412109375,8327.1669921875,6072.52099609375,0.0,13188.521484375
6365.77587890625,4410.74365234375,17020.703125,9665.4892578125,19649.6640625,8421.73828125,12414.455078125,17431.578125,9839.53515625,11810.4619140625,9091.6953125,10365.6455078125,-3738.4033203125,0.0,15377.998046875,16361.078125,3423.69091796875,3753.503173828125,7747.0146484375,10312.3984375,6241.79833984375,13968.9443359375,11101.5634765625,26079.8125,1115.7989501953125,3482.500732421875,9538.3330078125,17110.505859375,-4642.8046875,3832.18115234375,21690.52734375,-9485.0859375,-2029.73681640625,5726.814453125,13080.4375,14516.5126953125,9837.9453125,12481.212890625,8301.7353515625,-0.0,7444.22314453125,30225.119140625,34569.90234375,11788.208984375,23177.46484375,18260.478515625,1145.2039794921875,248.75006103515625,7445.81201171875,17592.90625,14234.3837890625,17446.67578125,13592.2431640625,2631.346435546875,4127.8203125,12609.1640625,0.0,7150.17333984375,11479.8544921875,11629.263671875,8075.2373046875,13580.322265625,14363.9248046875,20220.279296875,-11502.90234375,4722.27734375,13971.3291015625,8122.9208984375,8347.0341796875,6063.779296875,0.0,13197.2626953125
6280.740234375,4452.06982421875,17000.833984375,9622.57421875,19627.412109375,8400.28125,12393.7919921875,17414.888671875,9826.8193359375,11794.5673828125,9078.9794921875,10346.572265625,-3755.88720703125,0.0,15367.6669921875,16345.9775390625,3398.259521484375,3727.277099609375,7723.1728515625,10297.298828125,6213.18798828125,13942.71875,11078.5166015625,26056.765625,1097.520263671875,3461.837890625,9524.822265625,17104.1484375,-4669.8251953125,3813.107666015625,21663.5078125,-9511.3115234375,-2055.962890625,5698.2041015625,13055.8017578125,14491.8759765625,9817.2822265625,12460.5498046875,8313.65625,-0.0,7414.81787109375,30201.27734375,34550.03125,11772.3154296875,23158.392578125,18242.201171875,1126.1304931640625,246.36587524414062,7427.53369140625,17577.013671875,14222.462890625,17429.986328125,13575.5537109375,2624.988525390625,4112.720703125,12577.3740234375,0.0,7130.3046875,11465.5498046875,11608.6005859375,8049.8056640625,13556.48046875,14345.6455078125,20198.02734375,-11512.4384765625,4700.02490234375,13959.408203125,8091.9267578125,8343.060546875,6049.47412109375,0.0,13175.0107421875
6297.4296875,4463.99072265625,17027.85546875,9623.3681640625,19605.16015625,8379.6181640625,12373.923828125,17393.431640625,9808.5400390625,11775.4931640625,9057.521484375,10323.5244140625,-3763.834716796875,0.0,15337.466796875,16325.3154296875,3375.21240234375,3702.640625,7701.71484375,10279.814453125,6182.98876953125,13922.0556640625,11056.263671875,26035.30859375,1070.4993896484375,3441.9697265625,9505.7490234375,17078.71875,-4692.07763671875,3787.676513671875,21638.07421875,-9534.359375,-2097.288818359375,5686.283203125,13031.9599609375,14471.212890625,9796.619140625,12440.681640625,8315.24609375,-0.0,7390.97607421875,30181.408203125,34529.37109375,11750.0615234375,23140.111328125,18222.33203125,1113.414794921875,216.1661834716797,7396.5390625,17558.732421875,14189.083984375,17410.119140625,13556.48046875,2602.736328125,4082.52099609375,12560.685546875,0.0,7092.15771484375,11448.0654296875,11587.9375,8021.1953125,13535.8173828125,14326.572265625,20180.54296875,-11533.1015625,4680.15673828125,13925.234375,8090.3369140625,8309.681640625,6060.60009765625,0.0,13174.2158203125
6335.57666015625,4472.732421875,17046.927734375,9664.6943359375,19629.796875,8407.43359375,12396.1767578125,17425.21875,9829.998046875,11804.8984375,9070.2373046875,10339.4189453125,-3730.4560546875,0.0,15343.8251953125,16356.3095703125,3399.05419921875,3725.687744140625,7727.14599609375,10306.041015625,6210.00927734375,13947.4873046875,11080.10546875,26059.9453125,1080.8309326171875,3465.0166015625,9524.02734375,17104.1484375,-4668.23583984375,3818.6708984375,21659.533203125,-9522.4384765625,-2071.062744140625,5719.66162109375,13054.2119140625,14494.259765625,9820.4609375,12467.7021484375,8331.9345703125,-0.0,7425.1494140625,30210.814453125,34551.62109375,11777.0830078125,23163.16015625,18250.94140625,1111.8253173828125,206.6294403076172,7409.25439453125,17588.138671875,14200.2109375,17441.908203125,13574.759765625,2580.483642578125,4093.64697265625,12602.8056640625,0.0,7150.17333984375,11463.1650390625,11622.9052734375,8029.1435546875,13558.8642578125,14351.208984375,20211.5390625,-11516.412109375,4707.97216796875,13933.9765625,8107.8212890625,8343.060546875,6097.9521484375,0.0,13197.2626953125
6343.5234375,4467.96435546875,17046.1328125,9686.15234375,19640.126953125,8424.123046875,12408.892578125,17447.470703125,9844.302734375,11823.177734375,9073.4169921875,10344.982421875,-3704.22998046875,0.0,15364.4873046875,16380.1513671875,3410.180419921875,3738.4033203125,7740.65625,10321.9345703125,6227.4931640625,13963.3818359375,11091.232421875,26073.455078125,1095.9306640625,3479.32177734375,9528.0009765625,17133.5546875,-4648.3671875,3829.00244140625,21674.6328125,-9513.6953125,-2045.63134765625,5733.171875,13069.3125,14508.5654296875,9831.587890625,12482.0068359375,8263.587890625,-0.0,7460.912109375,30234.65625,34561.15625,11797.74609375,23178.259765625,18266.8359375,1090.36767578125,216.1661834716797,7422.76513671875,17607.212890625,14222.462890625,17464.16015625,13573.169921875,2584.45751953125,4089.673583984375,12616.31640625,0.0,7182.7568359375,11486.212890625,11631.6484375,8039.474609375,13569.9912109375,14365.513671875,20226.63671875,-11505.2861328125,4717.5087890625,13955.43359375,8076.8271484375,8351.0087890625,6104.310546875,0.0,13216.3359375
6303.787109375,4454.4541015625,17028.650390625,9671.0517578125,19636.154296875,8420.1494140625,12404.9189453125,17455.419921875,9840.3291015625,11816.0244140625,9065.46875,10352.134765625,-3701.845947265625,0.0,15365.283203125,16389.689453125,3403.82275390625,3736.01904296875,7740.65625,10313.193359375,6224.314453125,13957.0234375,11089.642578125,26073.455078125,1096.7254638671875,3482.500732421875,9528.7958984375,17139.912109375,-4645.9833984375,3823.439453125,21669.865234375,-9510.517578125,-2044.8367919921875,5714.0986328125,13066.927734375,14503.796875,9830.7919921875,12482.802734375,8111.0,-0.0,7460.912109375,30224.32421875,34559.56640625,11796.951171875,23174.28515625,18266.04296875,1098.31494140625,211.39781188964844,7421.17529296875,17601.6484375,14220.8740234375,17472.109375,13566.017578125,2612.27294921875,4085.699462890625,12612.3427734375,0.0,7199.4462890625,11478.2646484375,11646.748046875,8041.85888671875,13566.8115234375,14362.3349609375,20210.7421875,-11510.0546875,4717.5087890625,13956.2294921875,8064.11083984375,8347.0341796875,6069.34228515625,0.0,13202.03125
6283.9189453125,4397.2333984375,17005.6015625,9646.416015625,19601.1875,8380.4130859375,12371.5400390625,17402.171875,9807.74609375,11782.646484375,9032.08984375,10313.193359375,-3755.092529296875,0.0,15336.6728515625,16332.4677734375,3373.622802734375,3700.25634765625,7700.919921875,10279.01953125,6186.16748046875,13921.2607421875,11053.0849609375,26034.513671875,1056.1943359375,3445.943115234375,9497.8017578125,17082.69140625,-4688.8984375,3788.47119140625,21635.69140625,-9538.3330078125,-2085.367919921875,5691.84619140625,13029.5751953125,14465.6494140625,9795.8251953125,12440.681640625,8227.0302734375,-0.0,7390.18115234375,30183.79296875,34525.39453125,11751.6513671875,23139.318359375,18224.716796875,1097.520263671875,141.46168518066406,7406.87060546875,17554.759765625,14191.4677734375,17416.4765625,13533.4326171875,2593.199462890625,4069.01025390625,12570.2216796875,0.0,7131.89453125,11459.19140625,11596.6796875,8008.47998046875,13530.25390625,14325.7783203125,20179.748046875,-11541.84375,4680.15673828125,13928.4130859375,8099.87353515625,8308.0927734375,6074.9052734375,0.0,13171.83203125
6308.5556640625,4363.06005859375,16901.4921875,9622.57421875,19573.369140625,8347.0341796875,12332.5986328125,17349.720703125,9778.3408203125,11747.677734375,8988.380859375,10276.634765625,-3789.265869140625,0.0,15314.419921875,16277.6318359375,3337.860107421875,3667.67236328125,7665.9521484375,10248.8203125,6156.7626953125,13892.650390625,11018.912109375,26000.341796875,1026.789306640625,3414.94873046875,9447.7333984375,17031.03515625,-4719.89306640625,3751.913818359375,21604.6953125,-9573.30078125,-2129.077880859375,5656.8779296875,12998.5810546875,14435.4501953125,9756.087890625,12402.5341796875,8290.6083984375,-0.0,7375.08154296875,30161.5390625,34489.6328125,11712.7099609375,23104.349609375,18184.185546875,1053.81005859375,144.64060974121094,7378.26025390625,17524.560546875,14167.6259765625,17364.025390625,13487.3388671875,2532.800048828125,4055.5,12527.306640625,0.0,7064.34228515625,11435.349609375,11548.201171875,7992.5849609375,13496.8759765625,14290.015625,20153.5234375,-11566.4794921875,4645.18896484375,13906.1611328125,8106.2314453125,8289.814453125,6055.037109375,0.0,13147.990234375
6297.4296875,4368.623046875,16908.646484375,9587.60546875,19572.576171875,8336.703125,12328.625,17341.771484375,9772.77734375,11740.525390625,8982.8173828125,10275.0458984375,-3787.676513671875,0.0,15318.3935546875,16270.4794921875,3332.297119140625,3663.698974609375,7661.97802734375,10240.8720703125,6156.7626953125,13884.7041015625,11014.9384765625,25992.392578125,1024.4051513671875,3399.05419921875,9448.5283203125,17024.67578125,-4721.48291015625,3739.197998046875,21599.927734375,-9583.6328125,-2114.772705078125,5650.5205078125,12995.40234375,14428.2978515625,9754.498046875,12396.9716796875,8208.751953125,-0.0,7376.6708984375,30151.208984375,34487.24609375,11705.5576171875,23101.171875,18177.828125,1058.5784912109375,212.9872589111328,7376.6708984375,17514.228515625,14171.6005859375,17357.66796875,13470.6494140625,2446.174560546875,4041.98974609375,12514.5908203125,0.0,7043.6796875,11428.9921875,11544.2275390625,7986.22802734375,13493.697265625,14285.2470703125,20143.986328125,-11579.990234375,4631.67822265625,13911.7236328125,8093.51611328125,8282.6611328125,6049.47412109375,0.0,13145.6064453125
6243.3876953125,4353.5234375,16938.84375,9553.4326171875,19550.32421875,8313.65625,12309.55078125,17322.69921875,9756.087890625,11721.4521484375,8978.048828125,10250.4091796875,-3790.060791015625,0.0,15310.4462890625,16253.7900390625,3309.25,3643.035888671875,7641.3154296875,10223.388671875,6128.15234375,13860.06640625,10992.6865234375,25971.73046875,990.2318725585938,3366.47021484375,9430.2490234375,17008.78125,-4738.171875,3721.714111328125,21574.498046875,-9598.732421875,-2137.025146484375,5635.42041015625,12970.7646484375,14406.044921875,9736.220703125,12374.71875,8218.2880859375,-0.0,7328.1923828125,30121.802734375,34470.55859375,11684.1005859375,23086.0703125,18157.958984375,1033.94189453125,215.37144470214844,7358.39208984375,17488.798828125,14163.6533203125,17340.18359375,13445.2177734375,2365.906982421875,4006.22705078125,12493.927734375,0.0,6999.9697265625,11413.09765625,11523.564453125,7941.72265625,13473.828125,14266.173828125,20120.939453125,-11610.984375,4607.83642578125,13903.77734375,8059.34228515625,8275.5087890625,6021.658203125,0.0,13128.12109375
6211.5986328125,4362.26513671875,16905.466796875,9613.8310546875,19520.91796875,8289.814453125,12291.2724609375,17298.857421875,9739.3994140625,11698.4052734375,8961.3603515625,10223.388671875,-3796.41845703125,0.0,15300.1142578125,16229.9482421875,3290.970947265625,3619.194091796875,7618.2685546875,10201.13671875,6100.33642578125,13837.814453125,10971.228515625,25948.68359375,964.0057983398438,3343.423095703125,9415.9443359375,16985.734375,-4751.68212890625,3703.435302734375,21550.65625,-9609.0634765625,-2183.11962890625,5622.705078125,12944.5390625,14382.203125,9715.556640625,12351.671875,8282.6611328125,-0.0,7301.171875,30086.041015625,34446.71484375,11660.2578125,23068.5859375,18136.501953125,1002.1527709960938,193.9137725830078,7313.88720703125,17462.572265625,14154.9111328125,17317.13671875,13423.7607421875,2450.1484375,3993.51123046875,12471.67578125,0.0,6968.97509765625,11394.818359375,11496.5439453125,7917.880859375,13449.986328125,14243.919921875,20097.890625,-11625.2900390625,4587.17333984375,13891.060546875,8022.78515625,8265.177734375,5998.611328125,0.0,13101.8955078125
6213.98291015625,4382.13330078125,16853.80859375,9591.5791015625,19511.380859375,8278.6875,12285.708984375,17290.91015625,9737.0146484375,11692.841796875,8951.8232421875,10214.646484375,-3820.26025390625,0.0,15288.193359375,16220.4111328125,3284.61328125,3610.451904296875,7610.3212890625,10197.1630859375,6094.77392578125,13828.27734375,10961.69140625,25939.94140625,964.800537109375,3336.2705078125,9422.302734375,16974.607421875,-4761.21923828125,3688.33544921875,21543.501953125,-9612.2431640625,-2191.861328125,5612.37353515625,12938.9765625,14374.255859375,9710.7890625,12342.9296875,8258.025390625,-0.0,7305.1455078125,30074.9140625,34436.38671875,11649.1318359375,23066.203125,18127.759765625,992.6160278320312,147.81951904296875,7305.1455078125,17452.240234375,14144.580078125,17308.392578125,13418.9921875,2525.6474609375,3991.126953125,12465.3173828125,0.0,6980.89599609375,11394.0234375,11490.9814453125,7939.3388671875,13441.2451171875,14238.357421875,20095.505859375,-11628.46875,4573.6630859375,13878.345703125,8020.40087890625,8269.150390625,5996.22705078125,0.0,13098.716796875
6189.34619140625,4390.0810546875,16915.798828125,9528.7958984375,19519.328125,8276.3037109375,12286.50390625,17291.705078125,9733.041015625,11687.2783203125,8950.2333984375,10219.4150390625,-3832.97607421875,0.0,15283.42578125,16220.4111328125,3282.229248046875,3611.246826171875,7611.11572265625,10194.7783203125,6095.568359375,13821.125,10964.076171875,25939.94140625,964.0057983398438,3338.65478515625,9425.48046875,16976.9921875,-4763.60302734375,3700.25634765625,21541.119140625,-9604.294921875,-2183.11962890625,5583.76318359375,12941.3603515625,14373.4619140625,9713.9677734375,12342.9296875,8202.3935546875,-0.0,7309.11865234375,30065.37890625,34441.15625,11649.92578125,23067.79296875,18126.169921875,998.973876953125,159.74044799804688,7319.4501953125,17459.392578125,14140.60546875,17307.599609375,13437.271484375,2573.3310546875,3991.126953125,12478.0341796875,0.0,7009.50634765625,11390.0498046875,11490.185546875,7947.28564453125,13440.4501953125,14235.1787109375,20089.9453125,-11630.8525390625,4575.25244140625,13875.1669921875,8016.42724609375,8265.177734375,5977.15380859375,0.0,13091.564453125
6196.4990234375,4387.69677734375,16963.482421875,9526.412109375,19539.9921875,8304.119140625,12307.1669921875,17316.341796875,9751.3203125,11706.3525390625,8971.69140625,10257.5615234375,-3811.518310546875,0.0,15298.525390625,16247.4306640625,3307.660400390625,3634.293701171875,7633.3681640625,10213.8515625,6117.82080078125,13844.966796875,10986.328125,25962.98828125,992.6160278320312,3371.23876953125,9447.7333984375,17005.6015625,-4740.55615234375,3732.04541015625,21567.34375,-9596.34765625,-2157.688232421875,5600.45263671875,12962.818359375,14398.09765625,9733.041015625,12365.9775390625,8235.7724609375,-0.0,7328.9873046875,30090.013671875,34462.61328125,11678.5361328125,23083.6875,18149.216796875,1032.3524169921875,206.6294403076172,7344.0869140625,17491.181640625,14154.9111328125,17333.03125,13455.5498046875,2617.041259765625,4011.789794921875,12511.4130859375,0.0,7047.6533203125,11406.7392578125,11518.001953125,7917.880859375,13461.11328125,14256.63671875,20112.1953125,-11602.2421875,4612.6044921875,13889.4716796875,8035.50048828125,8267.5615234375,5993.04833984375,0.0,13111.431640625
6243.3876953125,4404.38623046875,16910.234375,9555.81640625,19556.681640625,8328.755859375,12324.650390625,17344.15625,9780.724609375,11736.5517578125,8983.6123046875,10291.7353515625,-3800.39208984375,0.0,15304.0888671875,16275.248046875,3327.52880859375,3658.1357421875,7653.236328125,10245.640625,6145.63623046875,13867.21875,11004.607421875,25986.037109375,1000.5632934570312,3391.10693359375,9447.7333984375,17027.85546875,-4723.072265625,3724.09814453125,21589.59765625,-9590.78515625,-2130.66748046875,5627.47314453125,12986.66015625,14419.5556640625,9749.73046875,12389.8193359375,8203.9833984375,-0.0,7371.90234375,30115.4453125,34476.12109375,11701.583984375,23103.556640625,18173.05859375,1035.5313720703125,224.11346435546875,7356.0078125,17512.640625,14159.6796875,17360.845703125,13473.0341796875,2617.8359375,4026.889892578125,12520.94921875,0.0,7077.8525390625,11431.3759765625,11546.611328125,7912.318359375,13483.365234375,14281.2724609375,20153.5234375,-11584.7587890625,4636.4462890625,13895.8291015625,8068.87890625,8301.7353515625,6028.81103515625,0.0,13149.5791015625
6285.5087890625,4444.9169921875,16919.771484375,9579.658203125,19572.576171875,8347.8291015625,12342.1357421875,17362.435546875,9802.9775390625,11759.5986328125,9001.095703125,10313.193359375,-3786.881591796875,0.0,15318.3935546875,16292.73046875,3347.39697265625,3676.41455078125,7671.51513671875,10269.482421875,6168.68359375,13885.498046875,11020.5009765625,26003.51953125,1035.5313720703125,3410.97509765625,9459.6552734375,17042.955078125,-4717.5087890625,3743.96630859375,21610.259765625,-9586.8115234375,-2096.493896484375,5644.95703125,13003.349609375,14436.2451171875,9768.0087890625,12408.09765625,8097.4892578125,-0.0,7373.49169921875,30134.51953125,34494.3984375,11718.2734375,23125.806640625,18192.1328125,1052.220703125,225.7029266357422,7371.107421875,17530.123046875,14175.57421875,17378.330078125,13492.9013671875,2624.19384765625,4042.7841796875,12542.4072265625,0.0,7094.5419921875,11455.21875,11559.3271484375,7966.359375,13500.0546875,14300.3466796875,20192.46484375,-11574.427734375,4658.69921875,13910.134765625,8083.9794921875,8347.8291015625,6047.88427734375,0.0,13178.984375
6311.73486328125,4467.96435546875,17020.703125,9606.6787109375,19589.265625,8371.6708984375,12365.9775390625,17387.072265625,9829.203125,11786.6201171875,9031.2958984375,10331.4716796875,-3771.781982421875,0.0,15343.0302734375,16318.9560546875,3363.29150390625,3695.488037109375,7696.94677734375,10295.708984375,6178.22021484375,13908.5458984375,11042.75390625,26028.951171875,1065.7310791015625,3434.817138671875,9482.701171875,17069.181640625,-4699.22998046875,3778.139892578125,21627.744140625,-9560.5849609375,-2095.69921875,5668.00439453125,13020.8330078125,14460.880859375,9792.6455078125,12432.734375,8257.2294921875,-0.0,7372.697265625,30162.333984375,34514.265625,11746.0888671875,23151.240234375,18219.947265625,1084.8045654296875,233.65020751953125,7390.18115234375,17552.375,14199.416015625,17403.76171875,13514.359375,2624.988525390625,4051.526611328125,12575.78515625,0.0,7116.79443359375,11477.470703125,11587.142578125,8017.22216796875,13523.1015625,14328.162109375,20227.431640625,-11552.9697265625,4684.92529296875,13933.9765625,8108.61572265625,8374.8505859375,6077.28955078125,0.0,13205.2109375
6323.65576171875,4464.78515625,17038.1875,9622.57421875,19588.470703125,8377.234375,12366.771484375,17392.634765625,9814.103515625,11777.8779296875,9041.626953125,10332.2666015625,-3763.834716796875,0.0,15344.6201171875,16326.109375,3367.264892578125,3697.077392578125,7699.33056640625,10286.171875,6178.22021484375,13918.08203125,11045.138671875,26032.923828125,1072.883544921875,3441.9697265625,9492.23828125,17077.126953125,-4684.92529296875,3790.060791015625,21631.716796875,-9545.4853515625,-2106.03076171875,5679.92529296875,13022.4228515625,14466.4453125,9792.6455078125,12437.5029296875,8344.650390625,-0.0,7382.23388671875,30174.255859375,34512.6796875,11751.6513671875,23146.470703125,18218.359375,1103.083251953125,225.7029266357422,7381.439453125,17558.732421875,14199.416015625,17409.32421875,13515.94921875,2609.888671875,4042.7841796875,12581.3486328125,0.0,7117.58935546875,11456.8076171875,11597.4736328125,8020.40087890625,13526.2802734375,14323.3935546875,20213.126953125,-11538.6650390625,4688.8984375,13935.56640625,8107.8212890625,8320.013671875,6075.7001953125,0.0,13200.4423828125
6354.64990234375,4484.6533203125,17048.517578125,9662.310546875,19613.107421875,8405.0498046875,12385.8447265625,17426.013671875,9830.7919921875,11811.2568359375,9053.5478515625,10352.9287109375,-3747.1455078125,0.0,15349.3876953125,16356.3095703125,3391.901611328125,3721.714111328125,7723.1728515625,10312.3984375,6205.24072265625,13945.1025390625,11068.98046875,26058.35546875,1087.9835205078125,3467.40087890625,9512.9013671875,17110.505859375,-4667.44091796875,3813.902587890625,21657.943359375,-9524.02734375,-2075.036376953125,5714.0986328125,13046.2646484375,14491.8759765625,9811.71875,12462.138671875,8327.9609375,-0.0,7417.2021484375,30202.865234375,34535.7265625,11778.671875,23164.75,18247.76171875,1108.6463623046875,237.6238555908203,7402.89697265625,17587.34375,14204.978515625,17441.908203125,13536.6123046875,2626.578125,4059.4736328125,12602.01171875,0.0,7137.45751953125,11463.1650390625,11636.416015625,8053.77978515625,13550.91796875,14348.82421875,20249.685546875,-11523.564453125,4711.1513671875,13940.333984375,8130.07373046875,8318.423828125,6119.41015625,0.0,13260.046875
6323.65576171875,4487.03759765625,17048.517578125,9703.6357421875,19649.6640625,8441.607421875,12420.8134765625,17453.03515625,9864.966796875,11839.8662109375,9073.4169921875,10382.3349609375,-3724.09814453125,0.0,15375.6142578125,16382.5361328125,3426.074951171875,3755.88720703125,7755.75634765625,10340.2138671875,6240.208984375,13979.275390625,11103.947265625,26090.94140625,1115.7989501953125,3503.95849609375,9550.25390625,17143.091796875,-4642.009765625,3844.89697265625,21692.1171875,-9485.0859375,-2040.068359375,5749.06689453125,13080.4375,14526.0498046875,9846.6875,12493.1337890625,8408.228515625,-0.0,7455.34912109375,30241.01171875,34572.28515625,11812.05078125,23199.716796875,18274.783203125,1119.7725830078125,271.79718017578125,7441.0439453125,17623.10546875,14232.794921875,17467.33984375,13598.6015625,2641.677734375,4105.56787109375,12634.5947265625,0.0,7156.53076171875,11498.1337890625,11643.5693359375,8094.310546875,13585.884765625,14380.6142578125,20254.453125,-11492.5703125,4746.9140625,13966.560546875,8134.841796875,8371.6708984375,6123.3837890625,0.0,13274.3525390625
6332.3974609375,4462.40087890625,17055.669921875,9761.6513671875,19681.453125,8469.421875,12449.423828125,17476.876953125,9891.9873046875,11853.376953125,9104.4111328125,10407.765625,-3701.051025390625,0.0,15407.4033203125,16407.171875,3461.043212890625,3784.49755859375,7781.982421875,10357.697265625,6272.79296875,14013.44921875,11130.173828125,26119.55078125,1116.59375,3534.952880859375,9578.8642578125,17162.958984375,-4619.75732421875,3873.50732421875,21723.111328125,-9461.2431640625,-2001.1265869140625,5784.82958984375,13112.2275390625,14557.0439453125,9873.7080078125,12520.94921875,8423.328125,-0.0,7495.8798828125,30279.16015625,34602.48046875,11837.482421875,23227.533203125,18297.037109375,1134.07763671875,293.2548522949219,7465.6806640625,17649.33203125,14263.7890625,17491.181640625,13616.0849609375,2650.419921875,4130.9990234375,12660.0263671875,0.0,7189.115234375,11541.048828125,11665.0263671875,8072.85302734375,13612.90625,14404.4560546875,20247.30078125,-11479.060546875,4773.93505859375,13997.5546875,8154.7099609375,8409.8173828125,6134.51025390625,0.0,13256.0732421875
6305.37646484375,4453.6591796875,16964.27734375,9742.5771484375,19654.431640625,8432.0703125,12411.2763671875,17436.345703125,9852.25,11812.845703125,9060.7001953125,10367.234375,-3724.09814453125,0.0,15372.435546875,16366.6396484375,3426.86962890625,3747.93994140625,7743.04052734375,10318.755859375,6250.5400390625,13979.275390625,11098.384765625,26081.404296875,1059.373291015625,3491.24267578125,9547.07421875,17124.810546875,-4653.1357421875,3840.128662109375,21688.142578125,-9501.7744140625,-2022.584228515625,5760.98779296875,13082.822265625,14519.69140625,9836.3564453125,12482.0068359375,8228.619140625,-0.0,7475.21728515625,30239.423828125,34568.30859375,11796.951171875,23187.794921875,18257.298828125,1089.5728759765625,247.955322265625,7430.71240234375,17608.80078125,14227.2314453125,17451.4453125,13520.7177734375,2624.19384765625,4124.6416015625,12623.4697265625,0.0,7159.7099609375,11489.3916015625,11625.2900390625,8019.6064453125,13576.3486328125,14363.9248046875,20219.484375,-11511.6435546875,4734.9931640625,13962.5859375,8130.8681640625,8390.744140625,6101.13134765625,0.0,13201.236328125
6252.92431640625,4479.09033203125,17017.5234375,9742.5771484375,19643.306640625,8427.302734375,12406.5087890625,17432.37109375,9846.6875,11810.4619140625,9064.6748046875,10361.671875,-3724.892822265625,0.0,15370.0517578125,16360.283203125,3418.127685546875,3740.78759765625,7738.27197265625,10316.3720703125,6241.00341796875,13972.123046875,11092.822265625,26074.251953125,1083.215087890625,3483.29541015625,9524.02734375,17126.40234375,-4650.75146484375,3833.770751953125,21682.580078125,-9508.1328125,-2019.4053955078125,5757.80859375,13073.28515625,14512.5390625,9833.1767578125,12474.8544921875,8198.4208984375,-0.0,7452.96484375,30229.091796875,34560.36328125,11793.7724609375,23183.822265625,18252.53125,1137.256591796875,251.13424682617188,7429.123046875,17608.0078125,14226.4365234375,17445.8828125,13476.212890625,2609.888671875,4122.25732421875,12621.0849609375,0.0,7146.994140625,11489.3916015625,11618.1376953125,8025.9638671875,13569.9912109375,14359.951171875,20222.6640625,-11509.2587890625,4729.4296875,13961.7919921875,8119.7421875,8367.697265625,6098.7470703125,0.0,13207.5947265625
6272.79296875,4460.8115234375,17064.412109375,9655.158203125,19640.126953125,8415.3818359375,12392.203125,17420.451171875,9834.7666015625,11794.5673828125,9054.3427734375,10356.1083984375,-3728.072021484375,0.0,15354.951171875,16349.1572265625,3407.796142578125,3732.84033203125,7727.94091796875,10302.861328125,6228.2880859375,13954.6396484375,11080.9013671875,26063.123046875,1097.520263671875,3472.964111328125,9510.517578125,17114.48046875,-4658.69921875,3823.439453125,21670.66015625,-9504.9541015625,-2022.584228515625,5707.74072265625,13063.748046875,14499.0283203125,9818.87109375,12466.11328125,8250.0771484375,-0.0,7454.55419921875,30208.4296875,34550.828125,11784.236328125,23166.337890625,18237.431640625,1149.9722900390625,262.26043701171875,7422.76513671875,17600.85546875,14209.7470703125,17435.55078125,13488.1337890625,2613.8623046875,4092.85205078125,12613.1376953125,0.0,7121.56298828125,11493.365234375,11603.83203125,8038.68017578125,13562.04296875,14348.82421875,20205.974609375,-11518.7958984375,4723.86669921875,13946.6923828125,8097.4892578125,8351.0087890625,6070.13720703125,0.0,13188.521484375
6318.88720703125,4457.63232421875,17034.212890625,9654.3623046875,19635.359375,8405.0498046875,12381.87109375,17407.736328125,9821.255859375,11775.4931640625,9040.83203125,10350.544921875,-3721.714111328125,0.0,15346.2099609375,16338.8251953125,3400.6435546875,3724.09814453125,7717.609375,10286.171875,6220.3408203125,13946.6923828125,11073.7490234375,26054.3828125,1092.7518310546875,3472.169189453125,9496.2119140625,17096.99609375,-4661.0830078125,3817.08154296875,21663.5078125,-9518.4638671875,-2043.2471923828125,5710.125,13058.185546875,14492.6708984375,9807.74609375,12456.576171875,8303.32421875,-0.0,7480.7802734375,30204.455078125,34542.08203125,11769.9306640625,23155.212890625,18226.3046875,1111.8253173828125,272.5919189453125,7444.22314453125,17588.138671875,14199.416015625,17423.62890625,13513.5654296875,2621.014892578125,4083.3154296875,12598.83203125,0.0,7118.3837890625,11477.470703125,11591.1171875,8038.68017578125,13552.5068359375,14337.69921875,20188.490234375,-11524.359375,4714.330078125,13938.744140625,8098.28466796875,8351.0087890625,6050.2685546875,0.0,13163.08984375
6315.7080078125,4459.22216796875,17024.67578125,9632.9052734375,19606.748046875,8386.771484375,12367.56640625,17395.814453125,9806.15625,11763.572265625,9048.779296875,10337.830078125,-3752.70849609375,0.0,15339.056640625,16326.109375,3379.18603515625,3703.435302734375,7701.71484375,10271.8671875,6187.7568359375,13927.619140625,11053.0849609375,26037.693359375,1064.1416015625,3457.864013671875,9489.0595703125,17081.896484375,-4678.5673828125,3809.13427734375,21638.87109375,-9535.94921875,-2095.69921875,5690.2568359375,13032.75390625,14472.8017578125,9792.6455078125,12441.4755859375,8316.0400390625,-0.0,7403.69189453125,30188.560546875,34519.03515625,11754.830078125,23140.908203125,18212.794921875,1101.493896484375,247.955322265625,7423.5595703125,17561.912109375,14195.4423828125,17410.9140625,13492.107421875,2617.041259765625,4069.80517578125,12586.1171875,0.0,7122.35791015625,11457.6025390625,11583.1689453125,8031.52734375,13535.0224609375,14321.8037109375,20176.568359375,-11542.6376953125,4702.4091796875,13930.7978515625,8100.6689453125,8340.6767578125,6043.1162109375,0.0,13151.962890625
6347.49755859375,4445.71142578125,17015.93359375,9624.1640625,19602.775390625,8401.076171875,12381.0771484375,17410.9140625,9822.05078125,11781.056640625,9062.2900390625,10344.982421875,-3765.424072265625,0.0,15361.30859375,16342.0048828125,3376.8017578125,3709.79296875,7713.6357421875,10287.76171875,6186.9619140625,13933.9765625,11064.2119140625,26049.61328125,1068.9100341796875,3471.37451171875,9512.1064453125,17100.96875,-4678.5673828125,3825.823486328125,21643.638671875,-9535.94921875,-2098.878173828125,5688.66748046875,13034.34375,14483.1337890625,9805.361328125,12452.6025390625,8358.955078125,-0.0,7379.85009765625,30203.66015625,34529.37109375,11771.51953125,23154.41796875,18227.099609375,1116.59375,210.6030731201172,7403.69189453125,17577.806640625,14216.8994140625,17426.013671875,13560.4541015625,2590.0205078125,4082.52099609375,12600.421875,0.0,7131.099609375,11479.060546875,11599.0634765625,8037.09033203125,13543.7646484375,14337.69921875,20192.46484375,-11538.6650390625,4716.71435546875,13950.6650390625,8112.58984375,8347.0341796875,6066.16357421875,0.0,13175.0107421875
6372.9287109375,4436.9697265625,16996.064453125,9662.310546875,19621.849609375,8414.5859375,12392.203125,17418.06640625,9833.1767578125,11796.1572265625,9070.2373046875,10348.1611328125,-3736.813720703125,0.0,15369.255859375,16348.3623046875,3391.10693359375,3722.5087890625,7725.556640625,10302.06640625,6208.419921875,13949.87109375,11079.3115234375,26063.919921875,1087.188720703125,3479.32177734375,9513.6953125,17108.12109375,-4663.46728515625,3835.3603515625,21659.533203125,-9527.2060546875,-2070.267822265625,5707.74072265625,13053.4169921875,14496.6435546875,9816.4873046875,12464.5234375,8363.7236328125,-0.0,7423.5595703125,30219.5546875,34546.05859375,11781.056640625,23167.927734375,18239.021484375,1103.8780517578125,208.21888732910156,7417.2021484375,17592.90625,14222.462890625,17433.9609375,13602.57421875,2586.046875,4076.957763671875,12609.958984375,0.0,7139.841796875,11490.185546875,11606.216796875,8048.216796875,13556.48046875,14349.6201171875,20205.1796875,-11519.591796875,4724.6611328125,13960.2021484375,8118.15283203125,8351.0087890625,6088.41552734375,0.0,13193.2900390625
6349.8818359375,4405.1806640625,17004.013671875,9650.3896484375,19604.365234375,8389.1552734375,12368.361328125,17396.607421875,9807.74609375,11772.3154296875,9044.806640625,10324.3193359375,-3743.171630859375,0.0,15344.6201171875,16328.4931640625,3368.8544921875,3699.461669921875,7704.8935546875,10278.224609375,6183.783203125,13925.234375,11056.263671875,26039.28125,1066.5257568359375,3454.685302734375,9485.0859375,17085.076171875,-4685.7197265625,3805.955078125,21632.513671875,-9543.8955078125,-2102.05712890625,5692.640625,13030.3701171875,14472.0078125,9793.4404296875,12440.681640625,8286.6357421875,-0.0,7396.5390625,30194.125,34526.1875,11757.21484375,23143.291015625,18215.974609375,1086.3939208984375,203.4505157470703,7409.25439453125,17566.681640625,14198.62109375,17411.708984375,13581.1162109375,2570.947021484375,4063.447509765625,12586.1171875,0.0,7112.8212890625,11453.62890625,11586.3486328125,8027.5537109375,13531.84375,14324.1884765625,20180.54296875,-11543.43359375,4698.435546875,13936.3603515625,8090.3369140625,8333.5234375,6059.80517578125,0.0,13175.8046875
6325.2451171875,4392.46533203125,16976.9921875,9613.037109375,19577.345703125,8358.955078125,12346.1083984375,17371.177734375,9784.6982421875,11745.2939453125,9021.7587890625,10302.06640625,-3776.55029296875,0.0,15330.314453125,16302.2666015625,3342.62841796875,3674.0302734375,7681.0517578125,10254.3828125,6157.55712890625,13896.625,11030.0380859375,26012.26171875,1036.3260498046875,3423.69091796875,9472.3701171875,17058.0546875,-4712.740234375,3783.702880859375,21605.4921875,-9562.1748046875,-2124.3095703125,5666.41455078125,13003.349609375,14444.1923828125,9769.5986328125,12414.455078125,8261.2041015625,-0.0,7363.16064453125,30162.333984375,34499.9609375,11731.7841796875,23120.244140625,18192.92578125,1080.0361328125,195.50323486328125,7384.6181640625,17538.0703125,14185.111328125,17386.27734375,13529.4599609375,2555.84716796875,4054.705078125,12558.30078125,0.0,7084.2109375,11433.7607421875,11564.095703125,7991.791015625,13508.796875,14300.3466796875,20161.470703125,-11572.04296875,4671.4150390625,13922.8505859375,8069.67431640625,8312.06640625,6035.1689453125,0.0,13155.9375
6310.14501953125,4383.72265625,16951.560546875,9635.2890625,19588.470703125,8373.2607421875,12358.029296875,17382.302734375,9800.59375,11761.9833984375,9024.9375,10315.5771484375,-3768.60302734375,0.0,15339.8515625,16314.1884765625,3353.754638671875,3687.540771484375,7692.17822265625,10270.2783203125,6171.8623046875,13910.9296875,11041.958984375,26024.9765625,1054.6048583984375,3437.201171875,9485.0859375,17073.154296875,-4699.22998046875,3794.8291015625,21619.001953125,-9564.55859375,-2117.156982421875,5680.7197265625,13017.654296875,14456.11328125,9782.314453125,12429.5546875,8299.3505859375,-0.0,7383.0283203125,30171.076171875,34510.296875,11744.4990234375,23132.958984375,18208.02734375,1085.5992431640625,242.39222717285156,7382.23388671875,17553.171875,14193.8525390625,17397.404296875,13514.359375,2569.357666015625,4069.01025390625,12565.453125,0.0,7077.8525390625,11456.0126953125,11580.78515625,7983.04833984375,13519.9228515625,14316.2412109375,20176.568359375,-11560.9169921875,4682.541015625,13931.591796875,8088.748046875,8323.1923828125,6060.60009765625,0.0,13171.83203125
6301.40283203125,4373.3916015625,16973.814453125,9671.84765625,19590.85546875,8380.4130859375,12361.208984375,17387.072265625,9806.9501953125,11773.109375,9028.9111328125,10318.755859375,-3761.450439453125,0.0,15343.0302734375,16318.1630859375,3359.31787109375,3691.51416015625,7696.15185546875,10278.224609375,6173.45166015625,13919.6708984375,11045.9326171875,26029.744140625,1043.4786376953125,3441.9697265625,9485.880859375,17076.333984375,-4694.4619140625,3790.060791015625,21625.361328125,-9556.611328125,-2115.5673828125,5696.61474609375,13020.0390625,14463.265625,9787.876953125,12431.939453125,8303.32421875,-0.0,7391.77099609375,30181.408203125,34513.47265625,11748.4736328125,23137.728515625,18214.384765625,1076.857177734375,232.0607452392578,7372.697265625,17561.1171875,14196.236328125,17401.376953125,13498.4658203125,2567.76806640625,4061.063232421875,12567.837890625,0.0,7097.72119140625,11461.5751953125,11582.375,7991.791015625,13522.3076171875,14322.5986328125,20187.697265625,-11559.3271484375,4682.541015625,13932.3876953125,8093.51611328125,8329.55078125,6078.08447265625,0.0,13194.083984375
6269.61376953125,4378.95458984375,16973.01953125,9687.7412109375,19588.470703125,8372.4658203125,12348.4921875,17378.330078125,9792.6455078125,11763.572265625,9010.6328125,10307.6298828125,-3779.729248046875,0.0,15324.751953125,16309.419921875,3350.57568359375,3684.36181640625,7685.8203125,10267.0986328125,6166.29931640625,13912.5185546875,11037.1904296875,26019.4140625,1033.147216796875,3434.817138671875,9478.728515625,17068.38671875,-4709.56201171875,3766.218994140625,21616.6171875,-9566.1474609375,-2115.5673828125,5682.3095703125,13012.091796875,14454.5244140625,9773.572265625,12422.40234375,8258.025390625,-0.0,7394.94921875,30175.05078125,34503.9375,11741.3203125,23123.421875,18204.0546875,1074.4730224609375,200.2716064453125,7375.08154296875,17553.96484375,14178.7529296875,17393.431640625,13490.517578125,2576.51025390625,4041.98974609375,12557.5068359375,0.0,7101.69482421875,11441.7080078125,11573.6318359375,7995.7646484375,13512.7705078125,14310.677734375,20176.568359375,-11567.275390625,4665.8515625,13914.90234375,8078.416015625,8320.80859375,6068.5478515625,0.0,13185.341796875
6306.96630859375,4408.359375,16988.912109375,9739.3994140625,19605.955078125,8398.6923828125,12369.9501953125,17396.607421875,9808.5400390625,11780.26171875,9026.52734375,10335.4453125,-3755.88720703125,0.0,15336.6728515625,16327.69921875,3379.18603515625,3708.99853515625,7708.07275390625,10284.5830078125,6196.4990234375,13939.5400390625,11057.853515625,26043.255859375,1076.0625,3460.248291015625,9487.4697265625,17089.048828125,-4694.4619140625,3790.85546875,21642.048828125,-9547.07421875,-2082.983642578125,5710.919921875,13035.1376953125,14480.75,9794.2353515625,12443.0654296875,8250.0771484375,-0.0,7411.638671875,30202.865234375,34522.21484375,11761.9833984375,23142.49609375,18221.537109375,1109.441162109375,250.33950805664062,7387.796875,17577.013671875,14193.8525390625,17410.9140625,13540.5859375,2589.225830078125,4074.573486328125,12582.142578125,0.0,7110.43701171875,11447.2705078125,11586.3486328125,8028.34814453125,13536.6123046875,14328.95703125,20195.642578125,-11542.6376953125,4692.07763671875,13927.619140625,8095.10498046875,8339.087890625,6084.4423828125,0.0,13199.646484375
6346.70263671875,4465.580078125,16997.65625,9632.9052734375,19625.822265625,8418.5595703125,12395.3818359375,17420.451171875,9827.6142578125,11800.9248046875,9058.31640625,10367.234375,-3744.76123046875,0.0,15350.9775390625,16352.3349609375,3404.6171875,3730.4560546875,7735.09375,10304.451171875,6220.3408203125,13956.2294921875,11083.28515625,26066.302734375,1096.7254638671875,3481.705810546875,9516.875,17114.48046875,-4681.74609375,3826.6181640625,21664.30078125,-9511.3115234375,-2055.168212890625,5723.63525390625,13058.185546875,14503.001953125,9821.255859375,12470.0859375,8246.1044921875,-0.0,7421.97021484375,30217.966796875,34549.234375,11785.8251953125,23167.1328125,18245.37890625,1139.640869140625,286.102294921875,7414.81787109375,17598.470703125,14209.7470703125,17436.345703125,13554.890625,2607.504638671875,4100.7998046875,12612.3427734375,0.0,7118.3837890625,11468.728515625,11609.3955078125,8049.8056640625,13562.8388671875,14352.798828125,20215.51171875,-11525.154296875,4724.6611328125,13942.71875,8120.53662109375,8351.802734375,6102.720703125,0.0,13213.9521484375
6339.5498046875,4471.9375,17031.03515625,9644.03125,19625.822265625,8414.5859375,12389.8193359375,17416.4765625,9824.435546875,11792.9775390625,9063.8798828125,10361.671875,-3755.88720703125,0.0,15354.15625,16345.9775390625,3399.05419921875,3726.482421875,7730.3251953125,10299.6826171875,6213.98291015625,13949.87109375,11079.3115234375,26063.919921875,1093.5465087890625,3484.885009765625,9517.669921875,17108.91796875,-4684.13037109375,3834.5654296875,21660.328125,-9508.927734375,-2061.526123046875,5715.68798828125,13054.2119140625,14498.2333984375,9816.4873046875,12463.728515625,8281.0712890625,-0.0,7418.79150390625,30211.607421875,34546.8515625,11781.8515625,23160.775390625,18240.609375,1125.335693359375,261.4656982421875,7427.53369140625,17599.263671875,14208.1572265625,17431.578125,13562.8388671875,2608.29931640625,4090.468017578125,12617.9052734375,0.0,7113.61572265625,11478.2646484375,11602.2421875,8029.1435546875,13557.2744140625,14348.0302734375,20205.1796875,-11525.9482421875,4729.4296875,13945.1025390625,8115.7685546875,8342.265625,6090.7998046875,0.0,13198.05859375
6333.98681640625,4421.86962890625,17056.46484375,9705.2255859375,19621.052734375,8412.2021484375,12380.2822265625,17410.119140625,9815.693359375,11781.056640625,9057.521484375,10351.33984375,-3762.2451171875,0.0,15342.2353515625,16340.4140625,3395.08056640625,3719.329833984375,7721.5830078125,10289.3515625,6206.83056640625,13953.0498046875,11071.3642578125,26058.35546875,1091.162353515625,3488.8583984375,9505.7490234375,17104.943359375,-4683.3359375,3824.23388671875,21657.1484375,-9522.4384765625,-2070.267822265625,5739.5302734375,13047.05859375,14495.849609375,9807.74609375,12456.576171875,8319.21875,-0.0,7419.5859375,30215.58203125,34537.31640625,11777.0830078125,23151.240234375,18231.07421875,1115.004150390625,251.13424682617188,7417.9970703125,17595.291015625,14198.62109375,17426.80859375,13546.1494140625,2595.583740234375,4081.72607421875,12606.7802734375,0.0,7128.71533203125,11465.5498046875,11594.2958984375,8006.095703125,13550.1220703125,14340.0830078125,20192.46484375,-11532.306640625,4720.68798828125,13936.3603515625,8090.3369140625,8337.498046875,6056.626953125,0.0,13183.7529296875
6311.73486328125,4415.51220703125,17029.443359375,9663.8994140625,19612.3125,8410.61328125,12375.513671875,17414.888671875,9809.3349609375,11782.646484375,9047.1904296875,10343.392578125,-3746.3505859375,0.0,15334.2890625,16347.56640625,3387.13330078125,3714.5615234375,7719.19873046875,10288.5556640625,6199.677734375,13949.87109375,11065.005859375,26052.79296875,1079.241455078125,3487.26904296875,9496.2119140625,17102.560546875,-4684.13037109375,3820.26025390625,21651.5859375,-9532.76953125,-2081.394287109375,5726.01953125,13041.49609375,14491.8759765625,9802.1826171875,12454.986328125,8296.171875,-0.0,7413.228515625,30220.349609375,34530.1640625,11776.2880859375,23148.060546875,18233.45703125,1095.135986328125,209.808349609375,7400.5126953125,17592.90625,14189.8798828125,17432.37109375,13519.1279296875,2597.9677734375,4072.984130859375,12597.2431640625,0.0,7175.6044921875,11457.6025390625,11603.83203125,8008.47998046875,13544.5595703125,14337.69921875,20187.697265625,-11533.896484375,4710.3564453125,13926.8232421875,8080.80029296875,8326.37109375,6055.83203125,0.0,13182.1630859375
6262.46142578125,4421.0751953125,17023.8828125,9692.509765625,19625.822265625,8421.73828125,12391.408203125,17428.3984375,9829.203125,11800.9248046875,9053.5478515625,10344.1875,-3725.687744140625,0.0,15352.56640625,16361.078125,3403.02783203125,3728.86669921875,7734.298828125,10306.8349609375,6217.95654296875,13960.998046875,11080.10546875,26064.71484375,1084.009765625,3490.447998046875,9504.1591796875,17115.275390625,-4676.18310546875,3831.386474609375,21665.095703125,-9524.822265625,-2044.8367919921875,5729.9931640625,13055.8017578125,14502.2080078125,9815.693359375,12468.4970703125,8250.0771484375,-0.0,7421.17529296875,30227.501953125,34543.67578125,11787.4140625,23162.365234375,18249.353515625,1102.28857421875,265.4393615722656,7403.69189453125,17599.263671875,14207.36328125,17445.8828125,13519.9228515625,2555.84716796875,4064.241943359375,12608.369140625,0.0,7197.06201171875,11475.0859375,11619.7275390625,8024.375,13558.0703125,14352.798828125,20213.921875,-11527.5380859375,4719.0986328125,13943.5126953125,8097.4892578125,8350.212890625,6082.85302734375,0.0,13210.7734375
6235.44091796875,4421.86962890625,16978.58203125,9749.73046875,19620.259765625,8407.43359375,12379.4873046875,17411.708984375,9818.0771484375,11785.0302734375,9040.0380859375,10336.240234375,-3737.608642578125,0.0,15345.4140625,16342.0048828125,3399.05419921875,3720.12451171875,7720.78857421875,10294.9140625,6217.95654296875,13950.6650390625,11070.5693359375,26052.79296875,1063.346923828125,3472.169189453125,9491.443359375,17101.765625,-4686.51416015625,3809.13427734375,21659.533203125,-9544.6904296875,-2040.863037109375,5749.06689453125,13049.443359375,14491.0810546875,9806.15625,12456.576171875,8241.3359375,-0.0,7430.71240234375,30206.837890625,34535.7265625,11774.69921875,23152.828125,18233.45703125,1079.241455078125,317.8914489746094,7396.5390625,17584.166015625,14202.5947265625,17426.80859375,13527.076171875,2511.34228515625,4053.91064453125,12587.70703125,0.0,7144.60986328125,11464.7548828125,11606.216796875,7998.14892578125,13545.353515625,14341.671875,20201.20703125,-11545.8173828125,4700.02490234375,13937.1552734375,8087.95263671875,8339.8818359375,6079.673828125,0.0,13201.236328125
6302.9921875,4456.04345703125,16970.634765625,9678.2041015625,19608.33984375,8401.87109375,12374.71875,17402.966796875,9815.693359375,11788.208984375,9040.0380859375,10346.572265625,-3754.2978515625,0.0,15343.0302734375,16332.4677734375,3391.901611328125,3712.971923828125,7715.22509765625,10291.7353515625,6211.5986328125,13939.5400390625,11064.2119140625,26048.818359375,1053.015380859375,3460.248291015625,9488.2646484375,17089.048828125,-4685.7197265625,3799.597412109375,21652.380859375,-9521.6435546875,-2063.91015625,5714.8935546875,13042.291015625,14483.9287109375,9800.59375,12449.423828125,8273.9189453125,-0.0,7430.71240234375,30197.302734375,34527.77734375,11767.546875,23148.060546875,18229.484375,1077.6519775390625,272.5919189453125,7410.04931640625,17578.6015625,14201.0048828125,17418.861328125,13512.7705078125,2576.51025390625,4081.72607421875,12585.322265625,0.0,7100.10546875,11458.396484375,11595.8857421875,8003.7119140625,13538.9970703125,14340.0830078125,20198.02734375,-11542.6376953125,4699.22998046875,13935.56640625,8117.3583984375,8336.703125,6093.97900390625,0.0,13201.236328125
6339.5498046875,4466.375,17044.544921875,9635.2890625,19614.697265625,8395.5126953125,12381.0771484375,17404.556640625,9818.0771484375,11790.5927734375,9041.626953125,10346.572265625,-3763.834716796875,0.0,15350.1826171875,16335.6455078125,3392.6962890625,3713.766845703125,7716.02001953125,10294.1201171875,6208.419921875,13938.744140625,11067.390625,26049.61328125,1064.936279296875,3453.890625,9504.9541015625,17081.896484375,-4678.5673828125,3801.186767578125,21651.5859375,-9506.54296875,-2057.55224609375,5703.76708984375,13044.6748046875,14482.3388671875,9803.771484375,12450.2177734375,8183.31982421875,-0.0,7426.73876953125,30193.328125,34533.33984375,11763.572265625,23152.828125,18233.45703125,1105.4674072265625,216.1661834716797,7414.02294921875,17572.244140625,14206.568359375,17418.06640625,13508.796875,2609.888671875,4086.494384765625,12590.884765625,0.0,7120.76806640625,11454.4228515625,11593.5009765625,8007.685546875,13541.380859375,14343.26171875,20204.38671875,-11538.6650390625,4705.587890625,13940.333984375,8119.7421875,8343.85546875,6086.826171875,0.0,13207.5947265625
6263.255859375,4438.55908203125,17012.75390625,9633.7001953125,19590.05859375,8361.33984375,12356.4404296875,17381.509765625,9795.8251953125,11765.95703125,9009.837890625,10319.55078125,-3794.0341796875,0.0,15334.2890625,16311.8037109375,3366.47021484375,3683.567138671875,7690.58837890625,10270.2783203125,6176.63037109375,13911.7236328125,11041.958984375,26022.591796875,1043.4786376953125,3426.074951171875,9488.2646484375,17052.4921875,-4713.53515625,3771.781982421875,21623.76953125,-9544.6904296875,-2088.546875,5687.078125,13016.8603515625,14456.11328125,9779.1357421875,12423.9921875,8203.9833984375,-0.0,7389.38671875,30163.923828125,34509.5,11734.16796875,23129.78125,18210.41015625,1086.3939208984375,208.21888732910156,7376.6708984375,17530.123046875,14189.8798828125,17394.224609375,13495.2861328125,2598.762451171875,4036.426513671875,12566.2490234375,0.0,7110.43701171875,11440.9130859375,11577.6064453125,7998.14892578125,13514.359375,14317.830078125,20178.16015625,-11567.275390625,4676.18310546875,13924.439453125,8100.6689453125,8316.0400390625,6072.52099609375,0.0,13191.7001953125
6227.4931640625,4427.43310546875,16973.01953125,9561.3798828125,19567.013671875,8337.498046875,12330.21484375,17354.48828125,9764.8310546875,11740.525390625,8991.55859375,10304.451171875,-3800.39208984375,0.0,15305.6787109375,16285.578125,3333.886474609375,3656.54638671875,7664.3623046875,10243.2568359375,6149.60986328125,13877.55078125,11015.732421875,25996.3671875,1022.815673828125,3407.00146484375,9467.6015625,17031.03515625,-4726.2509765625,3744.76123046875,21593.5703125,-9573.30078125,-2133.84619140625,5637.01025390625,12991.4287109375,14427.5029296875,9754.498046875,12398.560546875,8360.544921875,-0.0,7379.05517578125,30128.955078125,34487.24609375,11709.53125,23100.376953125,18183.390625,1068.9100341796875,222.5240020751953,7354.41845703125,17517.408203125,14161.26953125,17367.998046875,13494.4912109375,2611.47802734375,4011.789794921875,12540.0224609375,0.0,7076.263671875,11412.302734375,11553.7646484375,7997.353515625,13488.9287109375,14290.8095703125,20143.189453125,-11583.1689453125,4651.54638671875,13898.2138671875,8079.21142578125,8277.892578125,6076.49462890625,0.0,13170.2421875
6244.1826171875,4428.22802734375,16895.13671875,9535.94921875,19563.0390625,8331.1396484375,12319.8828125,17340.18359375,9748.1416015625,11719.86328125,8994.73828125,10290.9404296875,-3790.85546875,0.0,15288.193359375,16268.888671875,3321.965576171875,3653.3671875,7655.62060546875,10224.978515625,6150.404296875,13869.603515625,11009.3759765625,25986.830078125,1015.6631469726562,3399.848876953125,9446.14453125,17023.8828125,-4727.84033203125,3748.734619140625,21586.41796875,-9582.04296875,-2132.2568359375,5613.962890625,12987.4541015625,14421.1455078125,9745.7568359375,12389.0234375,8333.5234375,-0.0,7399.7177734375,30121.802734375,34480.09375,11700.7890625,23086.8671875,18167.49609375,1050.6312255859375,189.14540100097656,7358.39208984375,17511.84375,14141.400390625,17354.48828125,13481.7763671875,2604.325439453125,4041.98974609375,12532.8701171875,0.0,7054.0107421875,11393.2294921875,11533.896484375,7974.30712890625,13481.7763671875,14278.0947265625,20120.14453125,-11587.9375,4645.9833984375,13878.345703125,8045.83251953125,8254.845703125,6028.0166015625,0.0,13128.12109375
6268.0244140625,4465.580078125,16950.765625,9570.916015625,19578.93359375,8361.33984375,12344.51953125,17364.8203125,9777.5458984375,11742.9091796875,9032.8857421875,10311.603515625,-3772.57666015625,0.0,15304.0888671875,16291.9365234375,3348.986328125,3678.798583984375,7681.0517578125,10252.79296875,6168.68359375,13900.59765625,11034.01171875,26013.056640625,1049.8365478515625,3425.2802734375,9465.2177734375,17050.90234375,-4703.99853515625,3779.729248046875,21612.64453125,-9564.55859375,-2114.772705078125,5649.7255859375,13010.501953125,14449.755859375,9770.3935546875,12416.83984375,8341.4716796875,-0.0,7379.85009765625,30155.181640625,34502.34765625,11727.8095703125,23115.4765625,18192.1328125,1087.9835205078125,201.86106872558594,7380.64453125,17538.865234375,14159.6796875,17378.330078125,13501.64453125,2613.8623046875,4071.39453125,12562.275390625,0.0,7072.2900390625,11419.455078125,11545.0224609375,7974.30712890625,13509.5908203125,14305.115234375,20151.138671875,-11560.1220703125,4676.18310546875,13894.240234375,8068.0849609375,8295.376953125,6024.04248046875,0.0,13141.6318359375
6347.49755859375,4525.9794921875,17096.99609375,9642.44140625,19639.333984375,8426.5068359375,12406.5087890625,17430.783203125,9848.27734375,11812.05078125,9094.0791015625,10377.56640625,-3723.303466796875,0.0,15355.74609375,16359.4873046875,3414.94873046875,3741.582275390625,7747.0146484375,10322.73046875,6229.87744140625,13964.970703125,11096.794921875,26079.01953125,1116.59375,3490.447998046875,9528.7958984375,17115.275390625,-4649.95703125,3834.5654296875,21677.017578125,-9503.3642578125,-2048.810302734375,5719.66162109375,13070.9013671875,14515.7177734375,9832.3818359375,12480.41796875,8356.5712890625,-0.0,7429.91796875,30225.119140625,34562.74609375,11792.9775390625,23180.642578125,18257.298828125,1169.8404541015625,251.928955078125,7433.89111328125,17604.033203125,14212.1318359375,17442.703125,13582.7060546875,2672.67236328125,4123.05224609375,12625.853515625,0.0,7135.0732421875,11487.0068359375,11611.779296875,8044.24267578125,13571.580078125,14370.2822265625,20231.404296875,-11494.16015625,4738.96630859375,13944.30859375,8127.689453125,8372.4658203125,6094.77392578125,0.0,13217.92578125
6387.23388671875,4526.77392578125,17091.431640625,9702.841796875,19657.611328125,8440.8125,12420.8134765625,17444.29296875,9857.0185546875,11831.919921875,9101.2314453125,10390.28125,-3716.945556640625,0.0,15366.8720703125,16373.79296875,3424.4853515625,3755.88720703125,7759.72998046875,10339.4189453125,6245.77197265625,13980.865234375,11111.1005859375,26092.529296875,1129.309326171875,3503.95849609375,9537.537109375,17131.962890625,-4642.009765625,3834.5654296875,21688.9375,-9495.41796875,-2040.068359375,5751.451171875,13086.7958984375,14529.228515625,9846.6875,12493.927734375,8317.6298828125,-0.0,7463.29638671875,30237.833984375,34577.84765625,11807.2822265625,23193.359375,18273.98828125,1174.60888671875,294.0495910644531,7448.1962890625,17619.927734375,14224.052734375,17458.59765625,13597.8056640625,2656.777587890625,4127.025390625,12636.9794921875,0.0,7146.994140625,11487.8017578125,11634.0322265625,8084.77392578125,13585.0908203125,14382.998046875,20248.890625,-11483.828125,4747.708984375,13955.43359375,8155.50537109375,8372.4658203125,6138.4833984375,0.0,13254.4833984375
6386.43896484375,4495.779296875,17066.001953125,9713.9677734375,19655.228515625,8439.2236328125,12420.8134765625,17441.908203125,9854.634765625,11829.53515625,9090.900390625,10386.3076171875,-3713.766845703125,0.0,15368.4619140625,16372.2041015625,3424.4853515625,3753.503173828125,7758.140625,10336.240234375,6241.79833984375,13978.4814453125,11110.3056640625,26091.734375,1119.7725830078125,3499.98486328125,9534.359375,17129.580078125,-4645.9833984375,3832.97607421875,21688.142578125,-9489.853515625,-2048.015625,5753.04052734375,13086.0009765625,14529.228515625,9847.4814453125,12492.3388671875,8358.1611328125,-0.0,7465.6806640625,30237.0390625,34577.84765625,11805.693359375,23191.771484375,18271.60546875,1142.8197021484375,308.3547058105469,7448.1962890625,17619.927734375,14225.642578125,17457.0078125,13567.6064453125,2638.4990234375,4120.66796875,12633.80078125,0.0,7149.37841796875,11489.3916015625,11637.2109375,8087.95263671875,13582.7060546875,14382.203125,20244.916015625,-11494.16015625,4744.52978515625,13957.818359375,8162.65771484375,8370.8759765625,6143.251953125,0.0,13258.45703125
6394.38623046875,4469.5537109375,17070.76953125,9696.4833984375,19646.486328125,8432.865234375,12410.4814453125,17437.935546875,9842.712890625,11814.4345703125,9078.185546875,10375.9765625,-3721.714111328125,0.0,15358.130859375,16368.23046875,3418.127685546875,3746.3505859375,7749.39892578125,10321.140625,6235.44091796875,13971.3291015625,11101.5634765625,26084.58203125,1104.6727294921875,3493.626953125,9526.412109375,17121.6328125,-4652.34130859375,3829.00244140625,21683.375,-9493.033203125,-2047.220947265625,5734.76171875,13077.2587890625,14519.69140625,9837.150390625,12484.3916015625,8327.1669921875,-0.0,7452.169921875,30228.296875,34567.515625,11799.3359375,23179.849609375,18262.068359375,1142.0250244140625,289.2812194824219,7434.68603515625,17612.775390625,14214.515625,17453.03515625,13557.2744140625,2624.19384765625,4113.51513671875,12624.263671875,0.0,7156.53076171875,11484.623046875,11634.0322265625,8075.2373046875,13575.5537109375,14371.8720703125,20225.048828125,-11509.2587890625,4736.58251953125,13947.4873046875,8135.63623046875,8357.365234375,6101.13134765625,0.0,13228.2568359375
6357.82861328125,4413.1279296875,17035.0078125,9692.509765625,19624.232421875,8409.8173828125,12381.87109375,17410.119140625,9811.71875,11774.69921875,9045.6005859375,10343.392578125,-3761.450439453125,0.0,15340.6455078125,16340.4140625,3395.08056640625,3724.09814453125,7723.1728515625,10286.171875,6216.3671875,13953.8447265625,11076.1328125,26059.9453125,1075.267822265625,3470.579833984375,9503.3642578125,17093.0234375,-4681.74609375,3803.571044921875,21662.712890625,-9524.822265625,-2051.1943359375,5730.78759765625,13055.0068359375,14496.6435546875,9808.5400390625,12456.576171875,8180.93603515625,-0.0,7428.328125,30212.40234375,34542.87890625,11774.69921875,23148.85546875,18232.6640625,1119.7725830078125,236.82911682128906,7408.4599609375,17584.166015625,14196.236328125,17424.42578125,13501.64453125,2560.615478515625,4080.13671875,12596.4482421875,0.0,7128.71533203125,11463.1650390625,11600.6533203125,8057.75341796875,13550.91796875,14341.671875,20180.54296875,-11543.43359375,4709.56201171875,13933.181640625,8092.72119140625,8319.21875,6059.0107421875,0.0,13179.779296875
6295.04541015625,4388.4912109375,16954.740234375,9641.6474609375,19596.41796875,8378.029296875,12354.8505859375,17372.765625,9780.724609375,11742.115234375,9014.6064453125,10310.013671875,-3790.060791015625,0.0,15331.109375,16306.2421875,3363.29150390625,3692.30908203125,7692.17822265625,10251.9990234375,6187.7568359375,13922.8505859375,11047.5224609375,26028.15625,1053.81005859375,3441.9697265625,9485.880859375,17059.64453125,-4710.3564453125,3777.344970703125,21630.921875,-9549.458984375,-2084.572998046875,5691.05126953125,13024.0126953125,14467.2392578125,9781.51953125,12423.9921875,8189.67822265625,-0.0,7394.94921875,30185.380859375,34516.65234375,11741.3203125,23119.44921875,18199.28515625,1087.188720703125,185.17176818847656,7383.8232421875,17549.1953125,14186.7001953125,17388.662109375,13484.955078125,2555.052490234375,4054.705078125,12566.2490234375,0.0,7099.310546875,11432.96484375,11556.943359375,8032.32177734375,13521.51171875,14309.0888671875,20130.4765625,-11570.4541015625,4680.15673828125,13922.8505859375,8051.3955078125,8296.171875,6026.4267578125,0.0,13127.3271484375
6270.40869140625,4398.02783203125,16935.66796875,9601.91015625,19581.318359375,8361.33984375,12338.1611328125,17356.078125,9768.0087890625,11730.98828125,9005.8642578125,10305.2451171875,-3787.676513671875,0.0,15313.625,16288.7578125,3347.39697265625,3675.619873046875,7677.078125,10240.078125,6168.68359375,13902.9814453125,11030.8330078125,26013.056640625,1045.068115234375,3430.048583984375,9462.8330078125,17043.748046875,-4719.0986328125,3763.834716796875,21613.439453125,-9567.7373046875,-2121.130615234375,5660.85205078125,13008.1171875,14449.755859375,9763.2412109375,12408.892578125,8304.9130859375,-0.0,7393.3603515625,30170.283203125,34496.78515625,11724.630859375,23103.556640625,18182.595703125,1056.989013671875,161.3299102783203,7363.16064453125,17534.890625,14168.421875,17371.177734375,13480.98046875,2556.641845703125,4047.552490234375,12551.1484375,0.0,7084.2109375,11421.0439453125,11530.716796875,7976.69140625,13505.6181640625,14296.3720703125,20126.501953125,-11578.400390625,4670.6201171875,13905.3662109375,8035.50048828125,8281.8671875,6009.7373046875,0.0,13120.1748046875
6283.9189453125,4411.53857421875,16942.8203125,9667.0791015625,19607.54296875,8382.796875,12358.8251953125,17375.9453125,9787.0830078125,11750.857421875,9026.52734375,10328.29296875,-3781.318603515625,0.0,15323.162109375,16306.2421875,3367.264892578125,3697.8720703125,7698.5361328125,10260.7412109375,6189.34619140625,13925.234375,11050.701171875,26032.923828125,1054.6048583984375,3451.50634765625,9485.880859375,17062.822265625,-4708.76708984375,3782.11328125,21633.306640625,-9552.6376953125,-2102.851806640625,5692.640625,13031.1650390625,14469.6240234375,9784.6982421875,12429.5546875,8304.9130859375,-0.0,7434.68603515625,30183.79296875,34518.2421875,11744.4990234375,23123.421875,18201.669921875,1055.3995361328125,210.6030731201172,7383.8232421875,17557.14453125,14179.546875,17390.251953125,13485.7490234375,2559.82080078125,4067.4208984375,12569.427734375,0.0,7087.3896484375,11438.529296875,11556.943359375,7962.38623046875,13525.486328125,14315.4462890625,20155.111328125,-11563.30078125,4688.10400390625,13913.3134765625,8065.70068359375,8306.5029296875,6025.63232421875,0.0,13153.552734375
6306.17138671875,4425.048828125,17018.318359375,9689.3310546875,19621.052734375,8402.6650390625,12376.30859375,17393.431640625,9803.771484375,11773.904296875,9044.0107421875,10344.1875,-3764.62939453125,0.0,15336.6728515625,16324.5205078125,3384.749267578125,3715.356201171875,7717.609375,10282.9931640625,6201.26708984375,13940.333984375,11066.595703125,26052.79296875,1057.78369140625,3470.579833984375,9497.0068359375,17081.1015625,-4700.8193359375,3806.75,21647.611328125,-9532.76953125,-2079.010009765625,5705.3564453125,13045.470703125,14487.90234375,9802.1826171875,12448.62890625,8286.6357421875,-0.0,7415.61279296875,30198.09765625,34533.33984375,11763.572265625,23142.49609375,18221.537109375,1098.31494140625,251.928955078125,7398.12841796875,17577.806640625,14192.263671875,17409.32421875,13525.486328125,2588.43115234375,4084.1103515625,12593.26953125,0.0,7095.3369140625,11446.4755859375,11577.6064453125,8002.1220703125,13541.380859375,14335.314453125,20181.337890625,-11548.201171875,4707.97216796875,13926.029296875,8084.77392578125,8320.80859375,6066.16357421875,0.0,13190.1103515625
6333.1923828125,4467.16943359375,16998.44921875,9653.568359375,19630.58984375,8422.5341796875,12392.998046875,17421.24609375,9825.2294921875,11807.2822265625,9060.7001953125,10362.4658203125,-3738.4033203125,0.0,15344.6201171875,16352.3349609375,3397.46484375,3729.6611328125,7737.4775390625,10313.193359375,6216.3671875,13953.8447265625,11080.9013671875,26071.072265625,1057.78369140625,3486.474365234375,9496.2119140625,17104.1484375,-4684.13037109375,3827.412841796875,21661.123046875,-9524.02734375,-2074.24169921875,5718.86669921875,13056.595703125,14504.591796875,9818.87109375,12468.4970703125,8313.65625,-0.0,7420.380859375,30217.169921875,34542.87890625,11786.6201171875,23163.16015625,18247.76171875,1125.335693359375,265.4393615722656,7404.486328125,17597.67578125,14198.62109375,17436.345703125,13564.427734375,2613.067626953125,4096.826171875,12609.1640625,0.0,7143.0205078125,11462.37109375,11608.6005859375,8046.626953125,13558.0703125,14359.15625,20217.89453125,-11532.306640625,4725.4560546875,13933.9765625,8095.10498046875,8335.11328125,6111.462890625,0.0,13244.9462890625
6368.16015625,4516.44287109375,16980.171875,9668.66796875,19666.353515625,8459.0908203125,12425.58203125,17461.77734375,9864.1708984375,11855.76171875,9088.5166015625,10402.9970703125,-3705.8193359375,0.0,15365.283203125,16393.662109375,3430.84326171875,3766.218994140625,7774.03515625,10356.9033203125,6256.103515625,13990.40234375,11117.4580078125,26106.833984375,1089.5728759765625,3522.237060546875,9524.822265625,17144.6796875,-4653.9306640625,3867.1494140625,21698.474609375,-9490.6494140625,-2040.863037109375,5749.06689453125,13093.154296875,14540.3544921875,9853.0458984375,12506.64453125,8321.6025390625,-0.0,7475.21728515625,30253.728515625,34577.84765625,11826.35546875,23200.51171875,18290.677734375,1110.23583984375,301.9968566894531,7437.86474609375,17631.849609375,14219.2841796875,17478.466796875,13589.859375,2644.856689453125,4112.720703125,12640.953125,0.0,7204.21435546875,11505.2861328125,11654.6943359375,8089.54248046875,13595.421875,14397.3037109375,20269.552734375,-11506.0810546875,4762.80810546875,13954.6396484375,8156.2998046875,8374.8505859375,6176.63037109375,0.0,13305.3466796875
6356.2392578125,4495.779296875,17048.517578125,9716.3515625,19675.890625,8460.6806640625,12431.14453125,17459.392578125,9871.3232421875,11847.8134765625,9098.052734375,10409.35546875,-3693.8984375,0.0,15368.4619140625,16388.892578125,3445.1484375,3774.166015625,7778.80322265625,10354.5185546875,6265.64013671875,13999.939453125,11124.611328125,26110.013671875,1130.8988037109375,3527.00537109375,9529.5908203125,17143.884765625,-4645.18896484375,3868.73876953125,21711.19140625,-9476.34375,-2008.279052734375,5768.14013671875,13103.4853515625,14547.5068359375,9857.8134765625,12508.2333984375,8290.6083984375,-0.0,7488.7275390625,30250.548828125,34586.58984375,11827.9453125,23202.896484375,18289.884765625,1123.7462158203125,310.7388916015625,7460.1171875,17631.849609375,14224.052734375,17475.287109375,13570.78515625,2640.08837890625,4117.48876953125,12644.1318359375,0.0,7198.65185546875,11510.8486328125,11648.3369140625,8087.158203125,13601.7802734375,14398.892578125,20260.810546875,-11501.3125,4767.57666015625,13960.2021484375,8155.50537109375,8390.744140625,6148.0205078125,0.0,13276.736328125
6342.72900390625,4482.26953125,17082.69140625,9687.7412109375,19648.87109375,8438.427734375,12409.6875,17432.37109375,9846.6875,11816.8193359375,9084.5419921875,10385.513671875,-3708.99853515625,0.0,15356.541015625,16361.8720703125,3427.66455078125,3752.70849609375,7756.55126953125,10326.703125,6241.00341796875,13978.4814453125,11102.3583984375,26087.76171875,1122.9515380859375,3507.13720703125,9517.669921875,17118.453125,-4657.10986328125,3852.84423828125,21688.9375,-9492.23828125,-2024.1737060546875,5749.06689453125,13080.4375,14526.0498046875,9837.150390625,12484.3916015625,8306.5029296875,-0.0,7447.4013671875,30230.6796875,34563.54296875,11804.8984375,23180.642578125,18262.86328125,1175.403564453125,307.5599670410156,7441.8388671875,17613.568359375,14213.7216796875,17449.060546875,13545.353515625,2617.041259765625,4107.9521484375,12624.263671875,0.0,7154.94140625,11494.9541015625,11617.3427734375,8051.3955078125,13580.322265625,14373.4619140625,20222.6640625,-11512.4384765625,4748.50341796875,13946.6923828125,8133.251953125,8367.697265625,6100.33642578125,0.0,13230.6416015625
6331.6025390625,4494.98486328125,17082.69140625,9678.2041015625,19640.921875,8436.0439453125,12410.4814453125,17429.986328125,9840.3291015625,11818.4091796875,9075.005859375,10375.9765625,-3734.4296875,0.0,15363.693359375,16360.283203125,3421.306640625,3748.734619140625,7754.1669921875,10325.908203125,6237.0302734375,13972.123046875,11096.0009765625,26085.376953125,1111.030517578125,3500.779296875,9528.7958984375,17116.0703125,-4669.8251953125,3840.128662109375,21682.580078125,-9497.8017578125,-2028.942138671875,5739.5302734375,13072.490234375,14521.28125,9835.560546875,12482.0068359375,8312.06640625,-0.0,7431.50732421875,30229.091796875,34561.94921875,11800.9248046875,23179.0546875,18261.2734375,1172.224609375,298.0232238769531,7419.5859375,17612.775390625,14220.8740234375,17445.8828125,13504.822265625,2634.525390625,4101.59423828125,12618.701171875,0.0,7135.8681640625,11481.4443359375,11618.1376953125,8041.064453125,13574.759765625,14371.8720703125,20228.228515625,-11519.591796875,4738.171875,13953.8447265625,8149.14697265625,8361.33984375,6119.41015625,0.0,13249.71484375
6325.2451171875,4492.60107421875,17050.90234375,9698.8681640625,19629.796875,8427.302734375,12400.150390625,17417.2734375,9826.8193359375,11807.2822265625,9059.90625,10358.4931640625,-3745.555908203125,0.0,15355.74609375,16346.7734375,3407.796142578125,3736.01904296875,7742.24609375,10313.193359375,6222.72509765625,13964.17578125,11084.080078125,26073.455078125,1091.95703125,3489.6533203125,9520.8486328125,17108.12109375,-4680.95166015625,3825.028564453125,21669.068359375,-9508.927734375,-2064.704833984375,5736.35107421875,13060.5693359375,14511.744140625,9826.0244140625,12471.67578125,8311.271484375,-0.0,7419.5859375,30227.501953125,34549.234375,11789.798828125,23169.517578125,18250.94140625,1153.9459228515625,271.79718017578125,7414.02294921875,17604.828125,14211.3369140625,17432.37109375,13511.9755859375,2608.29931640625,4088.083740234375,12609.1640625,0.0,7108.052734375,11469.5234375,11613.369140625,8030.73193359375,13562.8388671875,14360.7451171875,20217.099609375,-11534.6904296875,4723.86669921875,13945.8974609375,8143.58447265625,8347.0341796875,6134.51025390625,0.0,13241.767578125
6288.68701171875,4421.86962890625,16989.70703125,9725.09375,19603.5703125,8398.6923828125,12364.3876953125,17379.125,9787.0830078125,11747.677734375,9023.3486328125,10325.908203125,-3768.60302734375,0.0,15328.724609375,16310.21484375,3378.391357421875,3706.6142578125,7706.4833984375,10262.330078125,6194.11474609375,13936.3603515625,11053.0849609375,26040.873046875,1056.1943359375,3462.63232421875,9494.6220703125,17081.1015625,-4705.587890625,3794.8291015625,21641.25390625,-9551.8427734375,-2076.625732421875,5722.0458984375,13033.548828125,14481.544921875,9790.26171875,12434.3232421875,8191.26806640625,-0.0,7410.04931640625,30196.5078125,34518.2421875,11758.009765625,23130.57421875,18205.642578125,1111.030517578125,251.928955078125,7384.6181640625,17577.806640625,14183.521484375,17395.814453125,13513.5654296875,2536.773681640625,4059.4736328125,12578.169921875,0.0,7057.98486328125,11432.1708984375,11564.890625,7987.0224609375,13531.84375,14321.009765625,20155.111328125,-11563.30078125,4693.6669921875,13918.876953125,8049.8056640625,8311.271484375,6028.81103515625,0.0,13135.2744140625
6172.6572265625,4371.00732421875,16952.35546875,9743.373046875,19574.9609375,8369.2861328125,12328.625,17340.978515625,9749.73046875,11695.2255859375,8977.25390625,10290.1455078125,-3796.41845703125,0.0,15304.8828125,16272.86328125,3346.602294921875,3674.0302734375,7669.92578125,10213.8515625,6166.29931640625,13907.75,11022.8857421875,26007.494140625,1028.3787841796875,3429.25390625,9462.8330078125,17055.669921875,-4734.1982421875,3753.503173828125,21612.64453125,-9581.248046875,-2089.34130859375,5684.69384765625,13003.349609375,14450.5498046875,9754.498046875,12396.9716796875,8103.84765625,-0.0,7380.64453125,30171.87109375,34488.83984375,11727.8095703125,23094.01953125,18162.7265625,1061.7574462890625,197.88742065429688,7364.75,17553.171875,14159.6796875,17356.873046875,13451.576171875,2494.653076171875,4022.916259765625,12545.5859375,0.0,6988.04833984375,11403.560546875,11510.8486328125,7952.849609375,13498.4658203125,14278.888671875,20099.482421875,-11596.6796875,4657.10986328125,13897.4189453125,7967.154296875,8268.3564453125,5930.26513671875,0.0,13045.470703125
6139.2783203125,4322.52880859375,16988.912109375,9670.2578125,19565.423828125,8351.802734375,12318.2939453125,17328.26171875,9751.3203125,11704.7626953125,8969.306640625,10277.4306640625,-3798.008056640625,0.0,15307.267578125,16260.9423828125,3335.475830078125,3656.54638671875,7661.18359375,10220.2099609375,6151.19921875,13891.060546875,11010.96484375,25993.982421875,1014.07373046875,3412.564453125,9446.9384765625,17033.41796875,-4742.1455078125,3736.813720703125,21596.75,-9574.890625,-2106.82568359375,5657.6728515625,12990.6337890625,14435.4501953125,9745.7568359375,12384.255859375,8139.6103515625,-0.0,7370.31298828125,30149.6171875,34476.91796875,11711.9150390625,23087.66015625,18158.75390625,1037.120849609375,181.1981201171875,7346.47119140625,17536.482421875,14161.26953125,17346.541015625,13439.6552734375,2494.653076171875,3995.1005859375,12523.333984375,0.0,6978.51171875,11405.9453125,11510.8486328125,7959.20654296875,13484.16015625,14273.326171875,20109.8125,-11614.958984375,4638.83056640625,13899.0087890625,8013.24853515625,8283.4560546875,5986.6904296875,0.0,13092.3583984375
6187.7568359375,4283.5869140625,16956.330078125,9477.9326171875,19530.455078125,8302.529296875,12296.8359375,17298.0625,9740.193359375,11687.2783203125,8946.259765625,10246.4365234375,-3804.365966796875,0.0,15302.4990234375,16229.15234375,3300.5078125,3620.783447265625,7631.77880859375,10205.9052734375,6116.2314453125,13841.7880859375,10978.380859375,25956.630859375,979.1055908203125,3372.828125,9430.2490234375,16972.22265625,-4756.45068359375,3703.435302734375,21557.01171875,-9604.294921875,-2151.330322265625,5604.42578125,12952.4873046875,14394.1240234375,9720.3251953125,12353.2607421875,8248.48828125,-0.0,7336.1396484375,30093.98828125,34449.1015625,11668.205078125,23071.765625,18134.912109375,1000.5632934570312,166.09828186035156,7328.1923828125,17481.646484375,14158.08984375,17313.95703125,13419.787109375,2491.47412109375,3976.027099609375,12489.1591796875,0.0,7042.08984375,11389.255859375,11491.775390625,7927.41796875,13450.7822265625,14251.8681640625,20096.302734375,-11649.1318359375,4607.83642578125,13891.8564453125,8020.40087890625,8308.0927734375,5993.84326171875,0.0,13090.76953125
6230.67236328125,4320.939453125,16906.26171875,9497.0068359375,19523.302734375,8294.58203125,12296.8359375,17294.8828125,9753.7041015625,11684.89453125,8937.5185546875,10241.66796875,-3797.21337890625,0.0,15305.6787109375,16225.97265625,3283.818603515625,3613.631103515625,7627.80517578125,10210.6728515625,6102.720703125,13833.0458984375,10975.201171875,25951.06640625,964.0057983398438,3371.23876953125,9427.0703125,16970.634765625,-4755.65576171875,3688.33544921875,21547.4765625,-9607.474609375,-2179.9404296875,5602.83642578125,12945.333984375,14386.9716796875,9721.1201171875,12351.671875,8202.3935546875,-0.0,7320.2451171875,30088.423828125,34449.1015625,11662.642578125,23080.5078125,18129.349609375,1012.4841918945312,148.61424255371094,7316.271484375,17472.109375,14162.0634765625,17309.984375,13421.3759765625,2495.44775390625,3980.79541015625,12481.212890625,0.0,7072.2900390625,11426.6083984375,11477.470703125,7921.85498046875,13448.3974609375,14251.8681640625,20097.890625,-11650.7216796875,4599.88916015625,13899.0087890625,8001.32763671875,8342.265625,5979.5380859375,0.0,13075.6689453125
6237.82470703125,4363.85498046875,16921.361328125,9552.6376953125,19535.22265625,8316.0400390625,12295.24609375,17308.392578125,9738.6044921875,11680.1259765625,8966.9228515625,10254.3828125,-3805.16064453125,0.0,15284.220703125,16240.2783203125,3296.5341796875,3625.552001953125,7634.9580078125,10200.3408203125,6113.05224609375,13852.9140625,10983.9443359375,25965.373046875,1003.7421875,3395.08056640625,9419.91796875,16994.4765625,-4747.708984375,3725.687744140625,21561.78125,-9607.474609375,-2179.145751953125,5622.705078125,12957.2548828125,14403.6611328125,9720.3251953125,12362.0029296875,8271.53515625,-0.0,7338.52392578125,30117.03515625,34453.07421875,11679.33203125,23070.177734375,18134.1171875,1046.6575927734375,140.66696166992188,7338.52392578125,17495.15625,14141.400390625,17323.494140625,13459.5234375,2535.97900390625,3983.1796875,12511.4130859375,0.0,7043.6796875,11400.3818359375,11490.185546875,7923.44384765625,13457.9345703125,14252.6630859375,20084.380859375,-11629.263671875,4622.1416015625,13879.1396484375,7996.55908203125,8281.8671875,5948.54345703125,0.0,13057.3916015625
6257.69287109375,4377.365234375,16927.71875,9606.6787109375,19554.296875,8333.5234375,12300.0146484375,17320.314453125,9713.1728515625,11684.89453125,8990.7646484375,10260.7412109375,-3813.107666015625,0.0,15274.68359375,16249.021484375,3314.81298828125,3642.2412109375,7642.1103515625,10187.6259765625,6132.1259765625,13875.1669921875,10995.865234375,25977.29296875,1027.5841064453125,3404.6171875,9434.2236328125,17011.9609375,-4743.73486328125,3740.78759765625,21580.060546875,-9604.294921875,-2157.688232421875,5648.93115234375,12973.1494140625,14421.939453125,9723.50390625,12372.3349609375,8302.529296875,-0.0,7357.59716796875,30138.4921875,34463.40625,11693.63671875,23059.048828125,18139.681640625,1053.81005859375,160.53517150878906,7365.544921875,17512.640625,14129.4794921875,17333.826171875,13457.9345703125,2538.36328125,3989.53759765625,12543.201171875,0.0,7031.7587890625,11352.6982421875,11498.1337890625,7944.10693359375,13469.0595703125,14251.8681640625,20075.640625,-11605.421875,4649.162109375,13865.6298828125,8013.24853515625,8196.0361328125,5960.46435546875,0.0,13063.748046875
