5814.234375,3060.5,16255.37890625,8693.5361328125,18107.890625,6419.02294921875,9525.6162109375,14475.1865234375,6250.5400390625,9337.265625,10867.9130859375,8808.7724609375,-5577.4052734375,0.0,11411.5078125,13187.7255859375,2287.228759765625,3054.14208984375,4251.00341796875,6589.8896484375,4219.2138671875,12156.1689453125,9391.3076171875,24600.82421875,-1993.9739990234375,797.9075317382812,5691.05126953125,15327.1357421875,-8351.802734375,3418.127685546875,20137.62890625,-10501.5439453125,-6503.26416015625,4358.29150390625,11804.103515625,12471.67578125,6961.02783203125,9483.4970703125,6277.56103515625,-0.0,4463.99072265625,29178.4609375,32612.484375,9624.1640625,20077.228515625,15989.1455078125,-4330.47607421875,-5029.04248046875,5241.2353515625,16431.80859375,10277.4306640625,14180.3427734375,11230.3095703125,2017.8157958984375,226.49765014648438,11893.11328125,0.0,3905.29638671875,8143.58447265625,7898.01318359375,6719.4306640625,13297.3984375,9876.8876953125,17565.884765625,-14802.615234375,2820.49169921875,9808.5400390625,4035.631591796875,3305.276123046875,1249.3133544921875,0.0,10369.6181640625
5834.1025390625,2949.23779296875,16199.7470703125,8719.76171875,18099.943359375,6403.9228515625,9507.3388671875,14455.318359375,6229.08251953125,9308.6552734375,10839.302734375,8770.625,-5598.068359375,0.0,11390.845703125,13167.0634765625,2272.129150390625,3039.042236328125,4231.134765625,6563.66357421875,4215.240234375,12143.453125,9376.2080078125,24582.544921875,-2016.2265625,782.012939453125,5673.5673828125,15316.009765625,-8380.4130859375,3392.6962890625,20124.1171875,-10538.1015625,-6501.6748046875,4359.880859375,11792.9775390625,12457.37109375,6944.33837890625,9463.6279296875,6217.16162109375,-0.0,4471.14306640625,29168.923828125,32597.380859375,9607.474609375,20058.951171875,15966.0966796875,-4371.00732421875,-5082.2890625,5226.93017578125,16415.9140625,10258.357421875,14161.26953125,11216.7998046875,1921.65380859375,197.0926971435547,11876.423828125,0.0,3867.1494140625,8122.12646484375,7869.40283203125,6683.66748046875,13279.9150390625,9856.2236328125,17536.482421875,-14829.6357421875,2796.64990234375,9787.876953125,3960.927490234375,3271.10302734375,1194.47705078125,0.0,10321.9345703125
5842.8447265625,3012.816162109375,16219.6162109375,8801.619140625,18126.169921875,6431.73828125,9530.384765625,14496.6435546875,6253.71923828125,9343.6240234375,10859.171875,8794.466796875,-5556.7421875,0.0,11390.845703125,13209.18359375,2303.12353515625,3066.06298828125,4258.95068359375,6593.86279296875,4245.43994140625,12172.8583984375,9402.4345703125,24610.361328125,-2010.663330078125,801.08642578125,5688.66748046875,15350.1826171875,-8351.0087890625,3424.4853515625,20155.111328125,-10520.6171875,-6470.68017578125,4401.20703125,11822.3828125,12485.9814453125,6966.5908203125,9494.6220703125,6154.37841796875,-0.0,4513.263671875,29193.560546875,32619.63671875,9639.2626953125,20081.201171875,15999.4755859375,-4351.93408203125,-4978.1796875,5246.7978515625,16445.318359375,10258.357421875,14201.80078125,11250.1787109375,1930.395751953125,222.5240020751953,11905.8291015625,0.0,3894.96484375,8149.94140625,7913.9072265625,6718.6357421875,13307.73046875,9884.833984375,17573.833984375,-14804.9990234375,2821.286376953125,9788.6728515625,3981.59033203125,3282.229248046875,1223.0872802734375,0.0,10366.439453125
5818.2080078125,3116.130859375,16285.578125,8777.77734375,18130.9375,6440.48046875,9538.3330078125,14509.3603515625,6269.61376953125,9359.5185546875,10877.4501953125,8811.951171875,-5536.87451171875,0.0,11394.818359375,13221.900390625,2311.07080078125,3075.599609375,4268.4873046875,6608.962890625,4247.02978515625,12177.626953125,9409.5869140625,24621.486328125,-2013.84228515625,811.4179077148438,5697.4091796875,15356.541015625,-8327.9609375,3435.61181640625,20159.87890625,-10496.775390625,-6460.3486328125,4391.67041015625,11827.9453125,12493.927734375,6973.74365234375,9507.3388671875,6207.625,-0.0,4506.90625,29197.53515625,32627.58203125,9647.2099609375,20089.150390625,16012.19140625,-4312.197265625,-4947.185546875,5253.15625,16458.03515625,10260.7412109375,14214.515625,11258.125,1997.153076171875,246.36587524414062,11912.1865234375,0.0,3898.143798828125,8165.0419921875,7927.41796875,6741.6826171875,13318.0615234375,9897.5498046875,17592.111328125,-14782.74609375,2834.002197265625,9791.056640625,4015.763671875,3303.686767578125,1256.4659423828125,0.0,10394.255859375
5842.05029296875,3099.44140625,16256.173828125,8792.876953125,18127.759765625,6438.89111328125,9539.126953125,14495.849609375,6268.0244140625,9344.4189453125,10894.1396484375,8816.71875,-5526.54248046875,0.0,11402.7666015625,13206.7998046875,2311.865478515625,3075.599609375,4268.4873046875,6601.015625,4243.8505859375,12180.8056640625,9407.9970703125,24622.28125,-1990.795166015625,818.5704345703125,5698.9990234375,15347.00390625,-8321.6025390625,3438.79052734375,20159.87890625,-10487.2392578125,-6464.32275390625,4394.05419921875,11825.5615234375,12493.1337890625,6974.5380859375,9501.7744140625,6246.56689453125,-0.0,4494.98486328125,29199.123046875,32628.376953125,9644.826171875,20088.353515625,16005.8349609375,-4312.197265625,-4966.2587890625,5246.7978515625,16456.4453125,10269.482421875,14199.416015625,11286.7353515625,2017.8157958984375,249.54476928710938,11908.2138671875,0.0,3873.50732421875,8166.630859375,7911.52294921875,6726.5830078125,13317.267578125,9895.1650390625,17579.396484375,-14774.7998046875,2831.6181640625,9796.619140625,4010.200439453125,3305.276123046875,1221.4979248046875,0.0,10361.671875
5836.48681640625,3070.03662109375,16205.310546875,8789.6982421875,18122.9921875,6431.73828125,9531.974609375,14480.75,6262.46142578125,9333.29296875,10871.88671875,8801.619140625,-5523.36376953125,0.0,11403.560546875,13193.2900390625,2305.507568359375,3068.447021484375,4261.3349609375,6592.27392578125,4246.23486328125,12176.037109375,9399.2548828125,24611.94921875,-1998.7423095703125,812.212646484375,5687.87255859375,15337.466796875,-8329.55078125,3435.61181640625,20158.291015625,-10499.9541015625,-6461.1435546875,4398.02783203125,11821.587890625,12488.365234375,6965.00146484375,9492.23828125,6140.86767578125,-0.0,4502.93212890625,29195.943359375,32619.63671875,9635.2890625,20083.5859375,15996.2978515625,-4359.880859375,-4981.35888671875,5226.93017578125,16447.703125,10269.482421875,14187.4951171875,11254.1513671875,1999.5372314453125,224.11346435546875,11899.4716796875,0.0,3855.228515625,8161.06787109375,7894.0390625,6701.9462890625,13310.115234375,9885.62890625,17569.064453125,-14793.078125,2819.697021484375,9797.4140625,4014.174072265625,3310.04443359375,1208.7822265625,0.0,10334.6513671875
5811.85009765625,3062.884033203125,16136.96484375,8743.603515625,18120.607421875,6419.8173828125,9520.8486328125,14472.8017578125,6249.74560546875,9318.98828125,10854.4033203125,8781.7509765625,-5518.59521484375,0.0,11387.666015625,13183.7529296875,2295.970947265625,3062.089111328125,4250.20849609375,6577.96875,4243.8505859375,12168.08984375,9392.1025390625,24602.4140625,-2013.84228515625,799.4969482421875,5680.7197265625,15328.724609375,-8332.7294921875,3430.84326171875,20150.34375,-10522.2060546875,-6475.44873046875,4390.0810546875,11816.8193359375,12479.623046875,6955.46484375,9483.4970703125,6162.3251953125,-0.0,4529.953125,29188.791015625,32613.27734375,9624.1640625,20072.4609375,15985.169921875,-4429.8173828125,-5034.60546875,5212.625,16432.603515625,10254.3828125,14177.1630859375,11213.6201171875,1964.569091796875,198.68214416503906,11888.3447265625,0.0,3836.94970703125,8148.3525390625,7882.91259765625,6705.12548828125,13299.783203125,9873.7080078125,17548.40234375,-14801.8193359375,2806.186767578125,9783.1083984375,3989.53759765625,3304.4814453125,1183.3509521484375,0.0,10313.9873046875
5853.97119140625,3081.16259765625,16152.8583984375,8753.140625,18150.806640625,6441.27490234375,9537.537109375,14487.107421875,6258.48779296875,9330.11328125,10877.4501953125,8803.2080078125,-5497.9326171875,0.0,11399.5869140625,13196.46875,2308.6865234375,3078.778564453125,4263.71923828125,6589.8896484375,4258.15576171875,12182.39453125,9410.380859375,24620.69140625,-1981.2584228515625,817.7757568359375,5695.02490234375,15346.2099609375,-8311.271484375,3446.738037109375,20163.85546875,-10502.3388671875,-6473.064453125,4394.05419921875,11836.6884765625,12495.517578125,6972.154296875,9498.595703125,6216.3671875,-0.0,4556.17919921875,29205.48046875,32636.326171875,9641.6474609375,20085.17578125,15997.88671875,-4394.05419921875,-5052.884765625,5253.15625,16449.29296875,10267.0986328125,14189.083984375,11258.919921875,1960.5953369140625,232.0607452392578,11901.0615234375,0.0,3833.770751953125,8153.91552734375,7895.62890625,6739.29833984375,13317.267578125,9886.423828125,17557.14453125,-14776.388671875,2826.849609375,9796.619140625,3982.38525390625,3311.634033203125,1180.1719970703125,0.0,10331.4716796875
5859.53369140625,3070.03662109375,16171.9326171875,8749.1669921875,18143.654296875,6441.27490234375,9540.716796875,14495.0556640625,6259.28271484375,9347.59765625,10877.4501953125,8808.7724609375,-5512.2373046875,0.0,11416.2763671875,13204.4150390625,2309.4814453125,3077.189208984375,4265.30859375,6599.42626953125,4249.4140625,12177.626953125,9409.5869140625,24621.486328125,-1983.642578125,820.9546508789062,5699.79345703125,15350.9775390625,-8315.24609375,3431.637939453125,20160.67578125,-10480.880859375,-6484.9853515625,4386.10693359375,11832.7138671875,12494.7236328125,6973.74365234375,9501.7744140625,6231.466796875,-0.0,4525.9794921875,29203.095703125,32637.119140625,9644.826171875,20087.560546875,16005.8349609375,-4337.62890625,-5015.5322265625,5253.95068359375,16454.85546875,10282.9931640625,14197.826171875,11251.767578125,1957.41650390625,227.29237365722656,11893.11328125,0.0,3821.05517578125,8152.32568359375,7916.291015625,6738.50390625,13318.0615234375,9891.1923828125,17576.216796875,-14782.74609375,2829.23388671875,9812.5146484375,4007.81640625,3301.302734375,1225.471435546875,0.0,10372.7978515625
5794.3662109375,3016.789794921875,16191.005859375,8712.609375,18090.40625,6407.10205078125,9498.595703125,14456.908203125,6220.3408203125,9313.423828125,10842.482421875,8759.4990234375,-5567.07373046875,0.0,11384.4873046875,13167.0634765625,2275.307861328125,3036.657958984375,4226.36669921875,6562.86865234375,4207.29296875,12141.068359375,9366.671875,24584.134765625,-2028.1474609375,780.4234619140625,5653.69921875,15317.599609375,-8356.5712890625,3390.312255859375,20121.732421875,-10523.7958984375,-6508.0322265625,4352.728515625,11789.00390625,12457.37109375,6931.623046875,9463.6279296875,6221.1357421875,-0.0,4460.8115234375,29169.71875,32590.228515625,9609.8583984375,20048.619140625,15968.4814453125,-4363.06005859375,-5050.50048828125,5210.24072265625,16419.88671875,10250.4091796875,14159.6796875,11212.03125,1920.0643310546875,183.58230590820312,11857.3505859375,0.0,3796.41845703125,8117.3583984375,7873.3759765625,6686.0517578125,13278.3251953125,9855.4296875,17532.5078125,-14823.27734375,2790.2919921875,9781.51953125,3989.53759765625,3256.7978515625,1221.4979248046875,0.0,10347.3662109375
5733.171875,2976.258544921875,16221.205078125,8765.8564453125,18068.15625,6388.02880859375,9476.34375,14425.9140625,6206.03564453125,9275.27734375,10817.05078125,8720.5576171875,-5592.5048828125,0.0,11370.181640625,13136.0693359375,2253.850341796875,3016.789794921875,4204.1142578125,6535.05322265625,4185.83544921875,12128.353515625,9344.4189453125,24561.8828125,-2051.9892578125,761.3499755859375,5649.7255859375,15287.3994140625,-8382.0029296875,3368.059814453125,20101.865234375,-10557.1748046875,-6526.3115234375,4350.34423828125,11766.7509765625,12437.5029296875,6910.9599609375,9438.197265625,6144.046875,-0.0,4446.50634765625,29163.361328125,32567.18359375,9586.8115234375,20031.9296875,15937.486328125,-4367.03369140625,-5091.826171875,5200.7041015625,16397.634765625,10236.1044921875,14127.890625,11188.984375,1881.12255859375,160.53517150878906,11842.2509765625,0.0,3798.008056640625,8115.7685546875,7833.64013671875,6651.08349609375,13256.0732421875,9829.998046875,17493.56640625,-14851.09375,2762.4765625,9768.0087890625,3941.05908203125,3286.20263671875,1153.9459228515625,0.0,10271.072265625
5730.78759765625,2935.727294921875,16182.2646484375,8801.619140625,18075.30859375,6386.43896484375,9484.291015625,14425.1181640625,6223.52001953125,9267.330078125,10814.6669921875,8714.19921875,-5583.76318359375,0.0,11379.71875,13134.4794921875,2252.260986328125,3017.58447265625,4207.29296875,6537.4375,4183.451171875,12129.1474609375,9347.59765625,24562.677734375,-2063.91015625,756.5816040039062,5671.97802734375,15280.2470703125,-8382.796875,3363.29150390625,20102.66015625,-10568.30078125,-6543.00048828125,4366.2392578125,11769.1357421875,12436.70703125,6918.9072265625,9437.4013671875,6180.6044921875,-0.0,4451.27490234375,29164.15625,32575.923828125,9583.6328125,20043.849609375,15935.8974609375,-4359.880859375,-5086.26318359375,5199.9091796875,16392.865234375,10244.8466796875,14127.095703125,11200.9052734375,1827.875732421875,165.3035430908203,11831.919921875,0.0,3798.008056640625,8141.2001953125,7835.22900390625,6639.16259765625,13256.8671875,9832.3818359375,17490.38671875,-14851.09375,2754.529296875,9774.3671875,3932.317138671875,3335.475830078125,1122.9515380859375,0.0,10236.8994140625
5740.32470703125,2883.275390625,16146.501953125,8748.3720703125,18048.287109375,6366.57080078125,9461.2431640625,14418.76171875,6195.7041015625,9256.9990234375,10801.951171875,8707.046875,-5575.81591796875,0.0,11348.724609375,13129.7109375,2230.00830078125,2997.71630859375,4188.2197265625,6520.748046875,4160.404296875,12106.8955078125,9324.55078125,24545.193359375,-2082.983642578125,743.865966796875,5631.44677734375,15271.5048828125,-8396.3076171875,3350.57568359375,20081.201171875,-10569.8896484375,-6573.9951171875,4338.42333984375,11747.677734375,12417.6337890625,6895.8603515625,9422.302734375,6173.45166015625,-0.0,4424.25390625,29131.5703125,32548.904296875,9569.3271484375,20020.0078125,15924.7724609375,-4389.2861328125,-5059.2421875,5157.78857421875,16377.767578125,10215.44140625,14122.3271484375,11192.9580078125,1783.3709716796875,168.4824676513672,11816.8193359375,0.0,3781.318603515625,8100.6689453125,7837.61328125,6630.4208984375,13237.7939453125,9814.103515625,17488.001953125,-14865.3984375,2742.6083984375,9744.9619140625,3919.6015625,3261.566162109375,1123.7462158203125,0.0,10244.8466796875
5807.08154296875,2899.964599609375,16175.9052734375,8738.8349609375,18047.490234375,6379.2861328125,9455.6806640625,14428.2978515625,6175.041015625,9265.740234375,10818.640625,8736.451171875,-5571.84228515625,0.0,11339.982421875,13137.658203125,2239.545166015625,3002.484619140625,4189.0146484375,6517.56884765625,4161.99365234375,12115.6376953125,9325.3447265625,24552.345703125,-2067.089111328125,761.3499755859375,5604.42578125,15284.220703125,-8383.591796875,3372.828125,20087.560546875,-10546.0478515625,-6567.63720703125,4340.8076171875,11748.4736328125,12427.1708984375,6891.091796875,9427.865234375,6225.10888671875,-0.0,4404.38623046875,29146.671875,32542.544921875,9579.658203125,20008.087890625,15931.1298828125,-4394.84912109375,-4990.10107421875,5168.1201171875,16392.865234375,10206.69921875,14130.2744140625,11234.283203125,1757.1448974609375,181.9928436279297,11836.6884765625,0.0,3808.33935546875,8063.31640625,7847.9453125,6664.59423828125,13241.767578125,9812.5146484375,17494.359375,-14857.451171875,2761.681884765625,9737.0146484375,3949.801025390625,3186.06689453125,1151.561767578125,0.0,10264.7138671875
5884.17041015625,3021.55810546875,16234.716796875,8829.4345703125,18122.1953125,6447.63330078125,9525.6162109375,14489.4912109375,6236.2353515625,9330.9091796875,10883.013671875,8818.30859375,-5532.10595703125,0.0,11407.5341796875,13199.646484375,2315.04443359375,3074.804931640625,4257.36083984375,6579.55810546875,4235.10888671875,12186.3681640625,9398.4599609375,24619.1015625,-1996.358154296875,832.080810546875,5691.05126953125,15350.1826171875,-8320.013671875,3450.71142578125,20159.87890625,-10484.0595703125,-6495.31689453125,4411.53857421875,11820.79296875,12497.107421875,6961.822265625,9494.6220703125,6322.06591796875,-0.0,4484.6533203125,29213.427734375,32614.8671875,9647.2099609375,20074.84375,15994.70703125,-4316.9658203125,-4920.16455078125,5246.00341796875,16464.392578125,10271.8671875,14189.8798828125,11281.1728515625,1843.7703857421875,243.18695068359375,11914.5712890625,0.0,3894.170166015625,8125.30517578125,7898.8076171875,6728.96728515625,13310.9091796875,9877.681640625,17557.939453125,-14793.873046875,2838.7705078125,9800.59375,4013.379638671875,3270.308349609375,1213.550537109375,0.0,10325.908203125
5950.927734375,3151.8935546875,16284.7841796875,8873.1455078125,18187.365234375,6507.23779296875,9589.1953125,14558.6328125,6300.6083984375,9396.87109375,10942.6181640625,8869.9658203125,-5487.6005859375,0.0,11452.833984375,13268.7880859375,2373.8544921875,3135.9990234375,4321.73388671875,6644.7255859375,4298.68701171875,12242.7939453125,9462.0390625,24679.501953125,-1938.343017578125,886.9171142578125,5759.39794921875,15424.8876953125,-8276.3037109375,3502.368896484375,20220.279296875,-10422.8662109375,-6427.7646484375,4464.78515625,11882.7822265625,12554.328125,7023.8115234375,9559.791015625,6351.470703125,-0.0,4550.61572265625,29265.0859375,32680.828125,9712.37890625,20139.216796875,16059.875,-4242.26123046875,-4911.4228515625,5306.40283203125,16529.560546875,10318.755859375,14259.0205078125,11320.908203125,2032.1209716796875,289.2812194824219,11979.7392578125,0.0,3944.23828125,8185.7041015625,7967.94873046875,6802.08203125,13372.8984375,9941.2607421875,17631.0546875,-14727.115234375,2895.990966796875,9845.892578125,4070.60009765625,3331.502197265625,1275.5394287109375,0.0,10399.818359375
5964.43798828125,3165.404052734375,16257.7626953125,8856.4560546875,18196.10546875,6518.36376953125,9597.9375,14569.759765625,6314.11865234375,9408.7919921875,10954.5390625,8873.1455078125,-5473.2958984375,0.0,11459.986328125,13279.1201171875,2377.827880859375,3143.151611328125,4330.47607421875,6659.82568359375,4312.9921875,12251.5361328125,9470.7802734375,24686.654296875,-1926.422119140625,887.7118530273438,5767.34521484375,15437.6025390625,-8269.150390625,3507.13720703125,20229.021484375,-10427.6337890625,-6411.07568359375,4475.11669921875,11893.11328125,12561.48046875,7033.34814453125,9568.5322265625,6273.587890625,-0.0,4572.8681640625,29276.212890625,32688.77734375,9721.1201171875,20147.166015625,16071.0009765625,-4266.8974609375,-4937.64892578125,5311.9658203125,16537.5078125,10328.29296875,14270.94140625,11348.724609375,2071.857421875,301.2021484375,11986.8916015625,0.0,3925.164794921875,8192.8564453125,7981.45947265625,6818.771484375,13382.4345703125,9953.9755859375,17647.744140625,-14715.1943359375,2897.580322265625,9855.4296875,4076.957763671875,3357.728271484375,1291.4339599609375,0.0,10418.09765625
5880.99169921875,3075.599609375,16247.4306640625,8764.2666015625,18134.912109375,6447.63330078125,9535.1533203125,14492.6708984375,6244.1826171875,9331.703125,10890.9609375,8811.15625,-5526.54248046875,0.0,11406.7392578125,13203.62109375,2308.6865234375,3074.804931640625,4262.92431640625,6586.71044921875,4248.619140625,12185.5732421875,9405.61328125,24619.1015625,-1997.153076171875,821.7493896484375,5714.8935546875,15354.951171875,-8318.423828125,3435.61181640625,20162.263671875,-10502.3388671875,-6461.9384765625,4405.1806640625,11827.9453125,12496.3125,6969.77001953125,9496.2119140625,6175.041015625,-0.0,4506.90625,29215.8125,32628.376953125,9647.2099609375,20082.79296875,15999.4755859375,-4326.50244140625,-5039.3740234375,5241.2353515625,16462.802734375,10277.4306640625,14196.236328125,11282.76171875,1990.795166015625,245.57113647460938,11899.4716796875,0.0,3865.559814453125,8129.279296875,7909.93408203125,6744.86181640625,13316.4716796875,9884.0400390625,17553.96484375,-14774.7998046875,2826.849609375,9804.56640625,3999.074462890625,3281.434326171875,1212.755859375,0.0,10330.6767578125
5832.51318359375,3047.7841796875,16264.1201171875,8722.146484375,18127.759765625,6440.48046875,9532.76953125,14491.0810546875,6243.3876953125,9331.703125,10882.21875,8813.5400390625,-5535.28466796875,0.0,11407.5341796875,13202.826171875,2304.712890625,3069.24169921875,4258.15576171875,6583.53173828125,4239.87744140625,12176.037109375,9401.638671875,24614.333984375,-2005.1002197265625,820.9546508789062,5714.0986328125,15355.74609375,-8322.3984375,3426.074951171875,20154.318359375,-10504.72265625,-6469.0908203125,4378.95458984375,11821.587890625,12488.365234375,6967.3857421875,9492.23828125,6241.79833984375,-0.0,4498.16357421875,29201.5078125,32627.58203125,9643.2373046875,20083.5859375,15995.5029296875,-4324.9130859375,-5030.6318359375,5245.208984375,16460.41796875,10277.4306640625,14196.236328125,11258.919921875,1999.5372314453125,221.72927856445312,11889.1396484375,0.0,3879.864990234375,8132.45751953125,7906.75439453125,6718.6357421875,13308.525390625,9880.8603515625,17552.375,-14785.92578125,2830.8232421875,9803.771484375,3998.279541015625,3284.61328125,1213.550537109375,0.0,10331.4716796875
5788.80322265625,3057.32080078125,16218.02734375,8751.5517578125,18134.1171875,6446.83837890625,9538.3330078125,14507.7705078125,6260.8720703125,9356.33984375,10877.4501953125,8815.12890625,-5530.51611328125,0.0,11409.9189453125,13217.92578125,2314.249755859375,3076.394287109375,4266.8974609375,6607.37353515625,4251.00341796875,12177.626953125,9407.203125,24622.28125,-2013.0474853515625,824.133544921875,5714.8935546875,15369.255859375,-8320.80859375,3426.86962890625,20161.470703125,-10497.5703125,-6459.55419921875,4389.2861328125,11831.1240234375,12492.3388671875,6975.33251953125,9501.7744140625,6237.0302734375,-0.0,4518.8271484375,29198.328125,32632.3515625,9653.568359375,20093.91796875,16011.396484375,-4342.39697265625,-4993.27978515625,5249.18212890625,16466.775390625,10279.814453125,14211.3369140625,11246.9990234375,1991.58984375,221.72927856445312,11900.265625,0.0,3895.759521484375,8145.96826171875,7931.3916015625,6705.919921875,13316.4716796875,9894.37109375,17593.703125,-14790.6943359375,2831.6181640625,9806.15625,4040.400146484375,3304.4814453125,1268.3868408203125,0.0,10386.3076171875
5747.47705078125,3021.55810546875,16154.447265625,8738.041015625,18114.248046875,6417.43310546875,9512.1064453125,14473.59765625,6237.82470703125,9325.3447265625,10834.5341796875,8779.3662109375,-5541.642578125,0.0,11390.845703125,13183.7529296875,2294.38134765625,3053.347412109375,4240.671875,6581.1474609375,4238.28759765625,12154.5791015625,9384.1552734375,24595.259765625,-2040.068359375,793.933837890625,5683.89892578125,15328.724609375,-8343.060546875,3413.359375,20141.6015625,-10526.974609375,-6461.9384765625,4371.8017578125,11810.4619140625,12470.0859375,6948.3125,9474.75390625,6110.66796875,-0.0,4510.87939453125,29173.693359375,32608.509765625,9622.57421875,20070.87109375,15982.7861328125,-4407.564453125,-5020.30029296875,5224.5458984375,16434.193359375,10256.767578125,14174.779296875,11207.2626953125,1912.9117431640625,216.1661834716797,11873.2451171875,0.0,3848.075927734375,8139.6103515625,7900.3974609375,6680.48876953125,13292.6298828125,9867.3505859375,17567.4765625,-14816.919921875,2801.418212890625,9786.2880859375,4018.14794921875,3276.666015625,1231.03466796875,0.0,10354.5185546875
5737.14599609375,3037.45263671875,16161.6005859375,8734.8623046875,18119.017578125,6407.10205078125,9507.3388671875,14464.85546875,6239.4140625,9312.6298828125,10815.4609375,8769.830078125,-5536.07958984375,0.0,11391.6396484375,13175.0107421875,2295.17626953125,3050.963134765625,4236.6982421875,6572.4052734375,4247.02978515625,12154.5791015625,9382.5654296875,24590.4921875,-2040.068359375,789.960205078125,5669.59375,15315.21484375,-8347.0341796875,3417.3330078125,20142.396484375,-10530.9482421875,-6447.63330078125,4381.33837890625,11811.2568359375,12464.5234375,6942.7490234375,9469.986328125,6055.037109375,-0.0,4529.953125,29169.71875,32606.125,9612.2431640625,20064.51171875,15976.4287109375,-4456.837890625,-5015.5322265625,5227.724609375,16419.091796875,10255.97265625,14165.2421875,11169.1162109375,1928.0115966796875,225.7029266357422,11879.603515625,0.0,3848.075927734375,8151.53125,7889.27099609375,6685.2568359375,13290.24609375,9862.58203125,17547.607421875,-14820.0986328125,2804.59716796875,9785.4931640625,4008.611083984375,3286.99755859375,1207.1927490234375,0.0,10321.140625
5702.177734375,3081.16259765625,16238.689453125,8707.8408203125,18142.064453125,6423.79150390625,9523.232421875,14479.955078125,6252.92431640625,9330.11328125,10847.2509765625,8797.6455078125,-5531.31103515625,0.0,11401.1767578125,13187.7255859375,2309.4814453125,3070.03662109375,4253.3876953125,6588.30029296875,4258.15576171875,12170.4736328125,9400.8447265625,24606.38671875,-2031.3262939453125,805.06005859375,5680.7197265625,15333.4931640625,-8343.85546875,3426.86962890625,20157.49609375,-10484.8544921875,-6439.68603515625,4381.33837890625,11831.1240234375,12481.212890625,6958.6435546875,9486.6748046875,6148.81494140625,-0.0,4541.8740234375,29184.818359375,32625.19921875,9629.7265625,20076.43359375,15990.734375,-4380.5439453125,-4995.6640625,5253.15625,16436.576171875,10267.0986328125,14181.931640625,11158.7841796875,1979.6688232421875,228.0871124267578,11901.85546875,0.0,3871.123046875,8161.06787109375,7894.0390625,6724.9931640625,13306.935546875,9879.271484375,17553.171875,-14807.3837890625,2828.43896484375,9796.619140625,4029.27392578125,3292.560546875,1230.2398681640625,0.0,10329.8828125
5749.06689453125,3065.268310546875,16132.1962890625,8703.072265625,18134.1171875,6419.02294921875,9514.4912109375,14468.8291015625,6239.4140625,9317.3984375,10852.8134765625,8796.0556640625,-5532.10595703125,0.0,11394.818359375,13178.189453125,2299.944580078125,3059.705078125,4245.43994140625,6573.9951171875,4241.46630859375,12160.9375,9391.3076171875,24598.439453125,-2020.994873046875,797.9075317382812,5671.97802734375,15326.3408203125,-8343.85546875,3414.154052734375,20145.57421875,-10473.728515625,-6488.958984375,4371.00732421875,11820.79296875,12473.265625,6952.28564453125,9477.9326171875,6213.98291015625,-0.0,4522.80029296875,29176.076171875,32615.662109375,9623.3681640625,20067.69140625,15980.40234375,-4367.828125,-4997.25341796875,5246.7978515625,16434.98828125,10261.53515625,14173.1904296875,11196.13671875,1979.6688232421875,209.0136260986328,11889.9345703125,0.0,3857.612548828125,8147.55712890625,7885.296875,6730.556640625,13299.783203125,9868.939453125,17542.83984375,-14808.97265625,2814.1337890625,9791.056640625,4012.584716796875,3282.229248046875,1210.37158203125,0.0,10317.166015625
5857.1494140625,3024.737060546875,16182.2646484375,8794.466796875,18105.5078125,6411.87060546875,9501.7744140625,14463.265625,6229.08251953125,9307.861328125,10860.7607421875,8782.5458984375,-5540.84765625,0.0,11380.513671875,13171.83203125,2290.407958984375,3045.39990234375,4234.31396484375,6563.66357421875,4216.82958984375,12155.3740234375,9373.0283203125,24590.4921875,-2028.942138671875,793.13916015625,5663.236328125,15323.162109375,-8343.060546875,3407.00146484375,20134.44921875,-10511.0810546875,-6515.18505859375,4394.05419921875,11798.541015625,12464.5234375,6937.98046875,9469.986328125,6276.76611328125,-0.0,4479.09033203125,29168.12890625,32592.61328125,9615.4208984375,20057.359375,15971.66015625,-4356.7021484375,-4993.27978515625,5222.16162109375,16432.603515625,10247.23046875,14166.83203125,11245.41015625,1932.7799072265625,194.70851135253906,11874.8349609375,0.0,3840.92333984375,8129.279296875,7886.88671875,6696.3828125,13287.8623046875,9860.1982421875,17535.685546875,-14812.15234375,2803.0078125,9775.162109375,4001.458740234375,3277.460693359375,1193.682373046875,0.0,10314.7822265625
5921.5224609375,3032.684326171875,16308.6259765625,8829.4345703125,18101.533203125,6430.94384765625,9513.6953125,14475.9814453125,6243.3876953125,9322.166015625,10882.21875,8787.314453125,-5537.6689453125,0.0,11393.2294921875,13186.931640625,2298.35498046875,3054.14208984375,4245.43994140625,6577.96875,4213.6513671875,12171.2685546875,9380.181640625,24603.208984375,-2004.3055419921875,816.186279296875,5679.13037109375,15344.6201171875,-8339.8818359375,3417.3330078125,20143.189453125,-10497.5703125,-6500.08544921875,4407.564453125,11799.3359375,12479.623046875,6948.3125,9481.9072265625,6284.7138671875,-0.0,4451.27490234375,29193.560546875,32599.765625,9632.1103515625,20069.28125,15985.9658203125,-4296.302734375,-5021.89013671875,5217.3935546875,16450.0859375,10259.9462890625,14181.13671875,11283.556640625,1908.9381103515625,197.0926971435547,11886.755859375,0.0,3829.00244140625,8145.1728515625,7901.19189453125,6707.50927734375,13298.98828125,9872.9130859375,17557.939453125,-14809.767578125,2814.9287109375,9788.6728515625,4014.96875,3276.666015625,1219.1136474609375,0.0,10337.03515625
5932.64892578125,3050.963134765625,16256.9677734375,8817.513671875,18137.296875,6469.88525390625,9551.0478515625,14510.94921875,6282.32958984375,9365.8759765625,10914.802734375,8823.8720703125,-5508.26416015625,0.0,11427.40234375,13220.310546875,2331.733642578125,3092.2890625,4281.99755859375,6620.8837890625,4254.9765625,12204.6474609375,9419.91796875,24640.560546875,-1961.3902587890625,858.306884765625,5712.50927734375,15379.587890625,-8308.0927734375,3467.40087890625,20179.748046875,-10467.3701171875,-6474.65380859375,4423.45947265625,11839.072265625,12516.1806640625,6987.25390625,9517.669921875,6308.5556640625,-0.0,4497.369140625,29233.296875,32637.912109375,9668.66796875,20107.427734375,16026.4970703125,-4281.20263671875,-4990.8955078125,5248.3876953125,16486.64453125,10290.9404296875,14216.10546875,11328.0615234375,1966.1585693359375,232.85548400878906,11933.64453125,0.0,3863.970458984375,8180.93603515625,7930.59619140625,6756.78271484375,13336.3408203125,9911.060546875,17604.033203125,-14780.3623046875,2858.638671875,9822.05078125,4061.857666015625,3317.197021484375,1286.66552734375,0.0,10395.8447265625
5891.3232421875,3017.58447265625,16269.68359375,8825.4609375,18157.958984375,6480.216796875,9563.763671875,14522.0751953125,6290.27685546875,9373.0283203125,10913.212890625,8831.818359375,-5511.44287109375,0.0,11436.14453125,13231.4365234375,2343.654541015625,3104.2099609375,4293.12353515625,6628.83154296875,4270.87158203125,12218.158203125,9434.2236328125,24651.685546875,-1953.44287109375,857.5121459960938,5729.1982421875,15383.5615234375,-8302.529296875,3484.090087890625,20193.2578125,-10468.1650390625,-6460.3486328125,4448.095703125,11855.76171875,12527.306640625,6999.1748046875,9529.5908203125,6363.39208984375,-0.0,4525.1845703125,29248.396484375,32654.6015625,9679.7939453125,20119.34765625,16036.8291015625,-4271.666015625,-4940.82763671875,5280.1767578125,16497.76953125,10300.4765625,14224.8466796875,11293.8876953125,1958.211181640625,250.33950805664062,11955.8974609375,0.0,3890.196533203125,8187.2939453125,7940.92822265625,6771.88232421875,13347.466796875,9920.5966796875,17601.6484375,-14770.03125,2864.201904296875,9829.998046875,4071.39453125,3325.14453125,1281.897216796875,0.0,10397.4345703125
5882.5810546875,3046.19482421875,16287.9619140625,8821.4873046875,18159.546875,6469.0908203125,9559.791015625,14518.1015625,6290.27685546875,9366.671875,10903.67578125,8834.203125,-5520.18505859375,0.0,11436.14453125,13229.8466796875,2334.117919921875,3097.85205078125,4287.56103515625,6624.06298828125,4261.3349609375,12209.4150390625,9430.2490234375,24644.533203125,-1966.9532470703125,847.1806640625,5726.814453125,15380.3828125,-8315.24609375,3475.34814453125,20183.720703125,-10474.5224609375,-6465.1171875,4427.43310546875,11848.609375,12520.154296875,6994.40625,9524.02734375,6306.17138671875,-0.0,4540.28466796875,29242.833984375,32655.3984375,9674.2314453125,20117.759765625,16030.4697265625,-4279.61328125,-4967.0537109375,5286.53466796875,16487.439453125,10301.2724609375,14222.462890625,11277.19921875,1931.1904296875,256.69732666015625,11946.3603515625,0.0,3871.917724609375,8185.7041015625,7937.7490234375,6762.345703125,13340.3134765625,9916.623046875,17596.0859375,-14781.9521484375,2857.04931640625,9832.3818359375,4055.5,3325.939208984375,1266.002685546875,0.0,10387.8974609375
5837.28173828125,2995.33203125,16218.02734375,8781.7509765625,18124.580078125,6434.91748046875,9529.5908203125,14493.4658203125,6262.46142578125,9336.4716796875,10882.21875,8810.361328125,-5542.43701171875,0.0,11406.7392578125,13207.5947265625,2301.533935546875,3065.268310546875,4258.95068359375,6597.8369140625,4229.54541015625,12176.037109375,9398.4599609375,24614.333984375,-1999.5372314453125,818.5704345703125,5693.435546875,15345.4140625,-8337.498046875,3441.1748046875,20149.548828125,-10511.0810546875,-6502.4697265625,4400.412109375,11816.8193359375,12487.5703125,6964.20654296875,9494.6220703125,6272.79296875,-0.0,4494.98486328125,29208.66015625,32625.9921875,9642.44140625,20089.9453125,16001.859375,-4335.24462890625,-5003.611328125,5254.74560546875,16448.498046875,10272.662109375,14198.62109375,11261.3037109375,1894.6329345703125,238.4185791015625,11906.6240234375,0.0,3856.023193359375,8158.68359375,7918.67529296875,6717.04638671875,13309.3193359375,9888.0126953125,17571.44921875,-14804.9990234375,2834.002197265625,9801.3876953125,4002.253173828125,3305.276123046875,1227.855712890625,0.0,10371.2080078125
5847.61279296875,3000.100341796875,16192.5947265625,8752.345703125,18115.83984375,6438.0966796875,9528.7958984375,14503.001953125,6260.0771484375,9333.29296875,10884.6025390625,8820.693359375,-5543.23193359375,0.0,11401.970703125,13216.3359375,2295.17626953125,3061.29443359375,4259.7451171875,6593.068359375,4225.572265625,12168.884765625,9395.2822265625,24617.513671875,-1997.153076171875,821.7493896484375,5702.177734375,15363.693359375,-8333.5234375,3451.50634765625,20144.78125,-10508.6962890625,-6505.64794921875,4382.13330078125,11812.05078125,12485.1865234375,6962.6171875,9498.595703125,6288.68701171875,-0.0,4471.14306640625,29193.560546875,32618.83984375,9649.5947265625,20086.765625,16005.0390625,-4329.681640625,-4948.77490234375,5241.2353515625,16458.03515625,10265.509765625,14207.36328125,11269.251953125,1921.65380859375,240.00804138183594,11914.5712890625,0.0,3844.89697265625,8153.12109375,7930.59619140625,6714.662109375,13311.7041015625,9889.6025390625,17565.091796875,-14796.2568359375,2838.7705078125,9794.2353515625,3978.4111328125,3303.686767578125,1211.961181640625,0.0,10351.33984375
5929.47021484375,3105.004638671875,16295.1142578125,8835.79296875,18185.7734375,6500.8798828125,9594.7578125,14560.22265625,6318.88720703125,9391.3076171875,10950.5654296875,8882.681640625,-5492.369140625,0.0,11460.78125,13272.7626953125,2360.343994140625,3127.257080078125,4323.32373046875,6652.67333984375,4291.5341796875,12232.462890625,9461.2431640625,24681.091796875,-1932.7799072265625,878.9698486328125,5774.498046875,15427.271484375,-8276.3037109375,3496.010986328125,20212.33203125,-10442.7333984375,-6430.94384765625,4443.32763671875,11878.8076171875,12549.5595703125,7029.37451171875,9558.9951171875,6322.06591796875,-0.0,4541.8740234375,29249.19140625,32685.595703125,9711.5830078125,20151.138671875,16062.259765625,-4237.4931640625,-4894.7333984375,5307.99267578125,16521.611328125,10325.908203125,14263.7890625,11333.625,2005.1002197265625,296.43377685546875,11975.765625,0.0,3937.085693359375,8208.751953125,7971.9228515625,6785.392578125,13375.2822265625,9950.796875,17620.72265625,-14731.8837890625,2896.78564453125,9854.634765625,4035.631591796875,3362.49658203125,1252.4923095703125,0.0,10384.71875
5866.6865234375,3136.7939453125,16294.3212890625,8833.408203125,18188.158203125,6493.72705078125,9586.0166015625,14545.91796875,6312.529296875,9388.923828125,10930.697265625,8859.634765625,-5484.42236328125,0.0,11452.833984375,13259.251953125,2354.781005859375,3124.078125,4316.17138671875,6645.5205078125,4293.91845703125,12231.66796875,9455.6806640625,24673.142578125,-1938.343017578125,867.0488891601562,5758.603515625,15407.4033203125,-8281.0712890625,3479.32177734375,20207.5625,-10454.654296875,-6420.6123046875,4440.14892578125,11878.8076171875,12544.791015625,7021.42724609375,9549.458984375,6256.8984375,-0.0,4559.35791015625,29253.1640625,32681.625,9702.046875,20143.189453125,16050.3388671875,-4266.8974609375,-4949.56982421875,5292.892578125,16508.8984375,10320.345703125,14249.484375,11315.345703125,1982.0531005859375,270.2077331542969,11960.666015625,0.0,3951.390625,8205.5732421875,7957.61767578125,6770.29296875,13367.3349609375,9942.0546875,17615.953125,-14743.0107421875,2880.89111328125,9847.4814453125,4068.2158203125,3345.807373046875,1279.5130615234375,0.0,10381.5390625
5806.287109375,3089.90478515625,16215.642578125,8763.47265625,18156.37109375,6452.40185546875,9549.458984375,14502.2080078125,6280.740234375,9361.9033203125,10884.6025390625,8819.8974609375,-5499.52197265625,0.0,11416.2763671875,13211.568359375,2322.99169921875,3091.494384765625,4281.99755859375,6616.91064453125,4266.10302734375,12194.3154296875,9422.302734375,24634.99609375,-1961.3902587890625,828.9019165039062,5714.8935546875,15362.103515625,-8310.4775390625,3456.274658203125,20174.98046875,-10492.8017578125,-6451.60693359375,4401.20703125,11847.01953125,12509.8232421875,6985.66455078125,9513.6953125,6172.6572265625,-0.0,4554.58984375,29218.197265625,32648.24609375,9659.9267578125,20108.22265625,16016.1650390625,-4339.21826171875,-4978.1796875,5278.58740234375,16464.392578125,10282.19921875,14204.978515625,11272.4306640625,1965.36376953125,226.49765014648438,11924.107421875,0.0,3858.4072265625,8169.81005859375,7913.9072265625,6742.4775390625,13333.1611328125,9909.470703125,17592.90625,-14775.59375,2855.4599609375,9812.5146484375,4058.67919921875,3319.581298828125,1288.255126953125,0.0,10383.923828125
5859.53369140625,3064.473388671875,16187.0322265625,8783.3408203125,18149.216796875,6451.60693359375,9546.2802734375,14501.412109375,6281.53466796875,9366.671875,10882.21875,8819.103515625,-5503.49560546875,0.0,11421.0439453125,13209.18359375,2322.197021484375,3089.110107421875,4280.408203125,6621.6787109375,4258.95068359375,12191.13671875,9419.1240234375,24634.203125,-1975.6953125,836.8492431640625,5704.5615234375,15356.541015625,-8312.06640625,3451.50634765625,20172.595703125,-10481.6748046875,-6477.8330078125,4402.001953125,11843.8408203125,12506.64453125,6983.2802734375,9511.3115234375,6253.71923828125,-0.0,4544.25830078125,29215.017578125,32641.88671875,9657.5419921875,20108.22265625,16017.755859375,-4350.34423828125,-4971.02734375,5276.998046875,16467.5703125,10288.5556640625,14203.3896484375,11262.8935546875,1984.437255859375,226.49765014648438,11921.7236328125,0.0,3862.380859375,8171.39892578125,7924.2392578125,6755.98779296875,13333.95703125,9910.265625,17604.033203125,-14777.18359375,2856.254638671875,9817.2822265625,4064.241943359375,3329.117919921875,1296.9970703125,0.0,10403.7919921875
5880.99169921875,3078.778564453125,16204.515625,8783.3408203125,18138.08984375,6449.22265625,9537.537109375,14494.259765625,6270.40869140625,9348.392578125,10881.423828125,8818.30859375,-5504.2900390625,0.0,11417.8662109375,13202.03125,2319.01806640625,3082.752197265625,4271.666015625,6605.7841796875,4257.36083984375,12189.5478515625,9411.970703125,24627.84375,-1993.9739990234375,832.8755493164062,5696.61474609375,15348.59375,-8319.21875,3441.9697265625,20168.623046875,-10488.828125,-6465.912109375,4406.77001953125,11835.892578125,12501.080078125,6973.74365234375,9502.5703125,6248.15625,-0.0,4525.9794921875,29211.044921875,32629.966796875,9653.568359375,20099.482421875,16005.8349609375,-4347.16552734375,-4967.84814453125,5246.00341796875,16465.1875,10284.5830078125,14197.0322265625,11247.7939453125,1977.28466796875,236.82911682128906,11918.544921875,0.0,3894.96484375,8161.06787109375,7909.93408203125,6748.8349609375,13326.0087890625,9897.5498046875,17580.986328125,-14784.3359375,2849.10205078125,9813.30859375,4038.810791015625,3313.2236328125,1251.697509765625,0.0,10360.876953125
5800.72412109375,3054.936767578125,16191.005859375,8726.9140625,18087.228515625,6407.896484375,9493.033203125,14448.166015625,6223.52001953125,9291.966796875,10840.892578125,8776.1875,-5551.9736328125,0.0,11377.3349609375,13155.9375,2274.51318359375,3039.042236328125,4226.36669921875,6554.92138671875,4209.67724609375,12147.4267578125,9365.8759765625,24582.544921875,-2049.605224609375,790.7549438476562,5667.20947265625,15308.857421875,-8362.1337890625,3407.00146484375,20124.912109375,-10538.8955078125,-6500.8798828125,4355.9072265625,11788.208984375,12458.9609375,6927.64892578125,9456.4755859375,6168.68359375,-0.0,4468.75927734375,29172.896484375,32585.4609375,9609.8583984375,20049.4140625,15955.7666015625,-4377.365234375,-5025.86376953125,5194.34619140625,16420.68359375,10244.0517578125,14151.732421875,11208.0576171875,1931.9852294921875,210.6030731201172,11878.013671875,0.0,3844.89697265625,8116.56298828125,7857.48193359375,6691.61474609375,13279.9150390625,9849.8662109375,17519.79296875,-14828.0458984375,2806.9814453125,9772.77734375,3980.79541015625,3270.308349609375,1174.60888671875,0.0,10283.7880859375
5760.98779296875,3046.989501953125,16258.55859375,8724.5302734375,18096.765625,6419.8173828125,9503.3642578125,14462.470703125,6233.85107421875,9314.2197265625,10851.2236328125,8768.2412109375,-5567.07373046875,0.0,11384.4873046875,13172.626953125,2279.28173828125,3043.015625,4234.31396484375,6573.9951171875,4208.087890625,12153.78515625,9372.234375,24589.697265625,-2030.5316162109375,794.7285766601562,5682.3095703125,15326.3408203125,-8365.3134765625,3412.564453125,20129.6796875,-10539.69140625,-6499.29052734375,4363.06005859375,11792.1826171875,12466.9072265625,6937.185546875,9469.19140625,6191.73046875,-0.0,4449.685546875,29188.791015625,32598.1796875,9620.984375,20058.951171875,15974.044921875,-4336.833984375,-5091.03173828125,5236.466796875,16432.603515625,10250.4091796875,14167.6259765625,11218.388671875,1928.8062744140625,216.96090698242188,11875.6298828125,0.0,3826.6181640625,8124.5107421875,7884.50244140625,6681.28369140625,13284.68359375,9861.787109375,17551.580078125,-14828.8408203125,2804.59716796875,9777.5458984375,3995.1005859375,3278.25537109375,1223.0872802734375,0.0,10348.9560546875
5779.2666015625,3002.484619140625,16234.716796875,8755.5244140625,18103.91796875,6426.17578125,9504.9541015625,14479.16015625,6238.619140625,9334.8818359375,10853.6083984375,8769.830078125,-5576.6103515625,0.0,11388.4609375,13189.3154296875,2280.87109375,3044.605224609375,4240.671875,6585.12109375,4209.67724609375,12158.552734375,9374.6181640625,24596.056640625,-2019.4053955078125,800.2916870117188,5675.1572265625,15342.2353515625,-8366.90234375,3412.564453125,20128.884765625,-10533.3330078125,-6510.41650390625,4374.18603515625,11794.5673828125,12470.0859375,6940.36474609375,9475.548828125,6282.32958984375,-0.0,4455.24853515625,29192.765625,32599.765625,9629.7265625,20062.923828125,15987.5546875,-4332.0654296875,-5093.41552734375,5240.4404296875,16444.525390625,10254.3828125,14184.3154296875,11221.568359375,1920.0643310546875,205.83470153808594,11880.3974609375,0.0,3836.155029296875,8124.5107421875,7909.93408203125,6687.64111328125,13290.24609375,9868.14453125,17566.681640625,-14831.2255859375,2805.39208984375,9782.314453125,4002.253173828125,3271.10302734375,1258.85009765625,0.0,10402.2021484375
5819.79736328125,2984.2060546875,16191.80078125,8791.287109375,18095.173828125,6417.43310546875,9497.0068359375,14468.8291015625,6221.1357421875,9307.861328125,10843.27734375,8768.2412109375,-5579.78955078125,0.0,11392.4345703125,13182.1630859375,2271.33447265625,3038.247314453125,4231.9296875,6562.07421875,4201.73046875,12149.810546875,9369.0556640625,24588.107421875,-2024.1737060546875,796.3180541992188,5668.798828125,15333.4931640625,-8373.2607421875,3407.796142578125,20120.939453125,-10533.3330078125,-6526.3115234375,4359.880859375,11786.6201171875,12461.3447265625,6933.21240234375,9464.4228515625,6263.255859375,-0.0,4451.27490234375,29180.845703125,32590.228515625,9621.779296875,20052.591796875,15971.66015625,-4342.39697265625,-5062.42138671875,5228.51953125,16436.576171875,10258.357421875,14174.779296875,11224.7470703125,1878.7384033203125,187.5559539794922,11876.423828125,0.0,3840.92333984375,8103.84765625,7894.0390625,6700.35693359375,13281.5048828125,9855.4296875,17524.560546875,-14838.3779296875,2800.62353515625,9787.876953125,3956.95361328125,3263.950439453125,1189.708740234375,0.0,10334.6513671875
5869.865234375,3001.68994140625,16196.5693359375,8792.876953125,18098.353515625,6415.04931640625,9499.390625,14470.41796875,6221.93017578125,9303.0927734375,10855.9921875,8783.3408203125,-5558.33203125,0.0,11393.2294921875,13182.9580078125,2278.487060546875,3040.631591796875,4233.51904296875,6558.89501953125,4204.90869140625,12150.60546875,9369.8505859375,24589.697265625,-2017.8157958984375,798.7022705078125,5671.18310546875,15331.904296875,-8358.955078125,3407.796142578125,20125.70703125,-10527.7705078125,-6521.54296875,4382.13330078125,11789.798828125,12464.5234375,6934.8017578125,9466.8076171875,6217.16162109375,-0.0,4453.6591796875,29171.30859375,32594.203125,9623.3681640625,20054.181640625,15970.072265625,-4339.21826171875,-4978.974609375,5225.34033203125,16433.396484375,10258.357421875,14175.57421875,11238.2578125,1843.7703857421875,187.5559539794922,11880.3974609375,0.0,3844.89697265625,8111.79443359375,7889.27099609375,6712.27783203125,13283.888671875,9857.0185546875,17513.43359375,-14828.8408203125,2805.39208984375,9791.056640625,3956.1591796875,3249.645263671875,1173.0194091796875,0.0,10300.4765625
5837.28173828125,3010.431884765625,16198.158203125,8685.5888671875,18092.791015625,6407.896484375,9492.23828125,14462.470703125,6225.90380859375,9309.451171875,10848.044921875,8774.59765625,-5558.33203125,0.0,11386.0771484375,13172.626953125,2266.56591796875,3032.684326171875,4228.75048828125,6566.0478515625,4199.34619140625,12138.6845703125,9362.697265625,24581.75,-2024.9683837890625,794.7285766601562,5667.20947265625,15326.3408203125,-8358.955078125,3403.02783203125,20115.375,-10526.974609375,-6527.10595703125,4355.9072265625,11781.8515625,12454.1923828125,6928.44384765625,9461.2431640625,6171.8623046875,-0.0,4453.6591796875,29161.771484375,32587.845703125,9616.2158203125,20049.4140625,15967.6875,-4357.49658203125,-4981.35888671875,5219.77734375,16436.576171875,10251.2041015625,14166.037109375,11231.1044921875,1887.4803466796875,193.9137725830078,11882.7822265625,0.0,3859.2021484375,8121.3310546875,7876.5556640625,6701.9462890625,13276.736328125,9855.4296875,17535.685546875,-14830.4296875,2800.62353515625,9782.314453125,3971.258544921875,3252.823974609375,1218.3189697265625,0.0,10327.498046875
5784.03466796875,2982.616455078125,16183.853515625,8662.541015625,18079.28125,6388.8232421875,9475.548828125,14439.423828125,6207.625,9295.1455078125,10829.7666015625,8743.603515625,-5573.431640625,0.0,11365.4140625,13151.1689453125,2252.260986328125,3015.200439453125,4210.47216796875,6550.94775390625,4188.2197265625,12120.40625,9346.802734375,24562.677734375,-2045.63134765625,770.092041015625,5654.49365234375,15299.3203125,-8370.8759765625,3379.18603515625,20098.685546875,-10543.6640625,-6530.28466796875,4325.7080078125,11767.546875,12435.119140625,6910.16552734375,9442.169921875,6134.51025390625,-0.0,4449.685546875,29143.4921875,32572.74609375,9594.7578125,20031.9296875,15950.203125,-4381.33837890625,-5039.3740234375,5203.8828125,16411.939453125,10232.130859375,14141.400390625,11213.6201171875,1909.7327880859375,185.96649169921875,11862.119140625,0.0,3844.89697265625,8101.46337890625,7859.07080078125,6658.23583984375,13260.046875,9837.9453125,17526.9453125,-14844.7353515625,2776.78173828125,9760.8564453125,3972.053466796875,3240.903076171875,1205.603271484375,0.0,10325.908203125
5799.92919921875,3025.53173828125,16178.2890625,8703.072265625,18112.66015625,6407.10205078125,9501.7744140625,14461.6767578125,6229.08251953125,9318.1923828125,10855.9921875,8769.830078125,-5550.384765625,0.0,11374.9501953125,13173.4208984375,2283.25537109375,3046.19482421875,4232.724609375,6575.58447265625,4224.77734375,12147.4267578125,9376.2080078125,24588.107421875,-2025.7633056640625,782.012939453125,5673.5673828125,15313.625,-8343.060546875,3407.796142578125,20128.884765625,-10526.974609375,-6483.39599609375,4358.29150390625,11800.1298828125,12460.5498046875,6935.5966796875,9467.6015625,6121.79443359375,-0.0,4503.72705078125,29162.564453125,32598.97265625,9613.037109375,20053.38671875,15976.4287109375,-4364.6494140625,-5012.353515625,5226.13525390625,16419.88671875,10240.8720703125,14165.2421875,11228.720703125,1934.369384765625,212.9872589111328,11885.9609375,0.0,3856.81787109375,8116.56298828125,7887.68115234375,6682.078125,13287.8623046875,9864.1708984375,17556.349609375,-14815.330078125,2805.39208984375,9768.8037109375,4007.81640625,3267.129150390625,1213.550537109375,0.0,10356.1083984375
5806.287109375,3053.347412109375,16197.36328125,8757.1142578125,18126.96484375,6423.79150390625,9520.8486328125,14481.544921875,6254.51416015625,9334.8818359375,10865.529296875,8800.029296875,-5535.28466796875,0.0,11391.6396484375,13190.9052734375,2295.17626953125,3062.089111328125,4253.3876953125,6593.068359375,4239.87744140625,12162.5263671875,9395.2822265625,24606.38671875,-2008.279052734375,802.6759033203125,5685.48828125,15334.2890625,-8331.1396484375,3426.074951171875,20144.78125,-10505.5166015625,-6473.859375,4381.33837890625,11816.0244140625,12479.623046875,6957.05419921875,9486.6748046875,6154.37841796875,-0.0,4513.263671875,29178.4609375,32615.662109375,9632.9052734375,20075.640625,15995.5029296875,-4363.06005859375,-4975.0009765625,5240.4404296875,16438.166015625,10255.97265625,14184.3154296875,11243.8203125,1943.1114501953125,209.0136260986328,11899.4716796875,0.0,3859.2021484375,8142.7890625,7901.986328125,6716.25146484375,13305.3466796875,9884.0400390625,17565.884765625,-14799.435546875,2819.697021484375,9786.2880859375,4023.710693359375,3310.04443359375,1235.00830078125,0.0,10348.9560546875
5853.17626953125,3074.804931640625,16237.89453125,8804.7978515625,18160.34375,6461.1435546875,9555.0224609375,14509.3603515625,6289.48193359375,9355.544921875,10894.1396484375,8838.970703125,-5505.0849609375,0.0,11421.0439453125,13217.92578125,2330.144287109375,3097.057373046875,4287.56103515625,6621.6787109375,4271.666015625,12199.083984375,9429.455078125,24639.765625,-1960.5953369140625,845.5912475585938,5722.8408203125,15370.0517578125,-8303.32421875,3471.37451171875,20179.748046875,-10488.828125,-6442.06982421875,4413.9228515625,11851.787109375,12514.5908203125,6992.02197265625,9520.0537109375,6236.2353515625,-0.0,4541.0791015625,29220.58203125,32652.21875,9667.0791015625,20111.40234375,16022.5234375,-4340.01318359375,-4955.1328125,5283.35546875,16479.4921875,10286.966796875,14208.953125,11265.2783203125,1983.642578125,228.8818359375,11932.0556640625,0.0,3887.812255859375,8180.93603515625,7920.26513671875,6747.24560546875,13339.51953125,9914.2392578125,17589.7265625,-14772.4150390625,2861.02294921875,9814.8984375,4046.758056640625,3352.165283203125,1245.3397216796875,0.0,10345.7763671875
5897.6806640625,3112.1572265625,16289.552734375,8847.7138671875,18200.078125,6507.23779296875,9592.3740234375,14548.3017578125,6313.32421875,9380.9765625,10945.0029296875,8885.06640625,-5482.83251953125,0.0,11445.681640625,13257.6630859375,2373.0595703125,3139.177978515625,4325.7080078125,6651.87841796875,4309.0185546875,12245.177734375,9469.986328125,24681.88671875,-1923.2431640625,892.480224609375,5763.3720703125,15415.3505859375,-8273.125,3509.521484375,20221.869140625,-10437.9658203125,-6411.87060546875,4460.0166015625,11892.318359375,12559.0966796875,7027.78466796875,9558.9951171875,6319.681640625,-0.0,4573.6630859375,29269.853515625,32693.546875,9711.5830078125,20143.986328125,16055.90234375,-4272.4609375,-4937.64892578125,5331.03955078125,16525.587890625,10312.3984375,14248.6884765625,11306.603515625,2035.300048828125,288.4864807128906,11976.5595703125,0.0,3945.827392578125,8194.4462890625,7954.43798828125,6789.3662109375,13380.05078125,9948.4130859375,17619.1328125,-14728.705078125,2915.064453125,9838.740234375,4059.4736328125,3361.701904296875,1236.59765625,0.0,10364.849609375
5845.228515625,3064.473388671875,16272.86328125,8804.7978515625,18153.19140625,6467.5009765625,9551.0478515625,14514.12890625,6265.64013671875,9342.830078125,10905.265625,8834.203125,-5506.67431640625,0.0,11421.0439453125,13225.873046875,2329.349609375,3093.87841796875,4282.79248046875,6606.57861328125,4258.95068359375,12203.8525390625,9425.48046875,24641.35546875,-1974.1058349609375,848.7701416015625,5708.53564453125,15383.5615234375,-8305.708984375,3466.606201171875,20176.568359375,-10478.49609375,-6466.70654296875,4422.66455078125,11843.044921875,12518.5654296875,6984.86962890625,9520.0537109375,6273.587890625,-0.0,4519.62158203125,29234.88671875,32647.44921875,9674.2314453125,20101.0703125,16016.1650390625,-4293.91845703125,-5019.505859375,5281.7666015625,16487.439453125,10286.171875,14218.4892578125,11264.4833984375,1954.2376708984375,264.6446228027344,11936.82421875,0.0,3912.448974609375,8145.96826171875,7918.67529296875,6740.09326171875,13337.1357421875,9906.2919921875,17578.6015625,-14770.03125,2873.738525390625,9812.5146484375,3992.71630859375,3309.25,1202.4244384765625,0.0,10321.9345703125
5831.71826171875,3052.552490234375,16232.33203125,8776.982421875,18142.064453125,6461.1435546875,9542.3056640625,14510.154296875,6260.0771484375,9335.6767578125,10878.2451171875,8816.71875,-5498.7275390625,0.0,11415.4814453125,13222.6943359375,2319.01806640625,3086.725830078125,4274.84521484375,6597.0419921875,4256.56640625,12195.904296875,9417.5341796875,24633.408203125,-1997.153076171875,848.7701416015625,5712.50927734375,15380.3828125,-8308.0927734375,3459.45361328125,20170.2109375,-10501.5439453125,-6450.81201171875,4409.94873046875,11835.892578125,12510.6171875,6976.12744140625,9511.3115234375,6190.14111328125,-0.0,4513.263671875,29229.322265625,32637.119140625,9667.873046875,20091.533203125,16009.0126953125,-4310.60791015625,-5011.55859375,5268.255859375,16482.671875,10282.19921875,14215.310546875,11255.7412109375,1908.1434326171875,249.54476928710938,11925.697265625,0.0,3887.812255859375,8153.12109375,7915.4970703125,6727.37744140625,13330.77734375,9895.9609375,17562.70703125,-14781.9521484375,2860.228271484375,9809.3349609375,3991.126953125,3305.276123046875,1207.1927490234375,0.0,10326.703125
5832.51318359375,3026.326416015625,16239.484375,8827.0498046875,18170.67578125,6481.80615234375,9564.55859375,14529.228515625,6289.48193359375,9359.5185546875,10893.3447265625,8840.560546875,-5476.474609375,0.0,11434.5546875,13239.3837890625,2338.88623046875,3108.18359375,4298.68701171875,6623.26806640625,4279.61328125,12213.3896484375,9440.5810546875,24654.0703125,-1990.00048828125,872.6119995117188,5743.50341796875,15393.8935546875,-8292.1982421875,3484.090087890625,20190.080078125,-10478.49609375,-6427.7646484375,4426.63818359375,11860.5302734375,12531.2802734375,6999.9697265625,9531.974609375,6219.5458984375,-0.0,4540.28466796875,29243.626953125,32661.75390625,9686.15234375,20116.169921875,16031.265625,-4293.91845703125,-4913.80712890625,5275.408203125,16496.181640625,10298.0927734375,14233.5888671875,11281.1728515625,1888.275146484375,255.10787963867188,11936.0283203125,0.0,3894.96484375,8183.31982421875,7942.51708984375,6759.16650390625,13353.0302734375,9919.802734375,17589.7265625,-14765.2626953125,2878.5068359375,9827.6142578125,4030.86328125,3352.9599609375,1235.00830078125,0.0,10355.3134765625
5776.08740234375,2965.92724609375,16206.8994140625,8827.0498046875,18156.37109375,6460.3486328125,9547.07421875,14502.2080078125,6271.998046875,9342.830078125,10876.6552734375,8823.8720703125,-5485.216796875,0.0,11425.8125,13213.1572265625,2326.96533203125,3092.2890625,4279.61328125,6606.57861328125,4265.30859375,12198.2890625,9423.8916015625,24638.17578125,-2018.6107177734375,850.359619140625,5714.0986328125,15366.0771484375,-8307.2978515625,3463.42724609375,20171.80078125,-10491.2119140625,-6451.60693359375,4419.4853515625,11844.634765625,12512.20703125,6981.69091796875,9511.3115234375,6150.404296875,-0.0,4550.61572265625,29226.9375,32649.041015625,9664.6943359375,20099.482421875,16011.396484375,-4331.2705078125,-4945.59619140625,5267.46142578125,16473.927734375,10290.9404296875,14205.7734375,11246.2041015625,1872.380615234375,239.2133026123047,11908.2138671875,0.0,3858.4072265625,8164.24658203125,7916.291015625,6735.32470703125,13333.1611328125,9901.5234375,17569.861328125,-14783.5419921875,2857.04931640625,9819.6669921875,4034.04248046875,3346.602294921875,1232.6240234375,0.0,10342.59765625
5780.06103515625,2955.595703125,16162.3955078125,8850.09765625,18152.39453125,6457.96435546875,9535.1533203125,14491.0810546875,6251.3349609375,9327.7294921875,10863.9404296875,8801.619140625,-5493.1640625,0.0,11411.5078125,13199.646484375,2326.170654296875,3087.5205078125,4268.4873046875,6590.6845703125,4263.71923828125,12201.46875,9415.1494140625,24627.05078125,-2010.663330078125,844.0017700195312,5695.81982421875,15362.103515625,-8319.21875,3452.301025390625,20170.2109375,-10495.98046875,-6470.68017578125,4446.50634765625,11841.4560546875,12507.4384765625,6972.154296875,9501.7744140625,6256.103515625,-0.0,4565.7158203125,29236.474609375,32643.478515625,9655.9521484375,20083.5859375,15997.0908203125,-4360.67578125,-5042.552734375,5285.73974609375,16473.134765625,10279.814453125,14193.0576171875,11230.3095703125,1857.28076171875,229.6765594482422,11905.0341796875,0.0,3849.665283203125,8139.6103515625,7897.2177734375,6711.48291015625,13326.8037109375,9888.0126953125,17553.171875,-14789.1044921875,2842.744140625,9806.15625,4012.584716796875,3298.91845703125,1228.650390625,0.0,10330.6767578125
5792.7763671875,2954.80078125,16194.978515625,8850.8916015625,18128.552734375,6434.91748046875,9510.517578125,14472.0078125,6224.314453125,9303.8876953125,10846.4560546875,8782.5458984375,-5521.7744140625,0.0,11383.6923828125,13179.779296875,2305.507568359375,3062.884033203125,4244.6455078125,6565.2529296875,4235.9033203125,12176.037109375,9391.3076171875,24602.4140625,-2005.8948974609375,823.3388061523438,5668.00439453125,15343.0302734375,-8343.85546875,3430.048583984375,20147.958984375,-10511.875,-6485.7802734375,4423.45947265625,11814.4345703125,12484.3916015625,6946.72265625,9477.9326171875,6249.74560546875,-0.0,4506.90625,29203.892578125,32616.455078125,9635.2890625,20058.951171875,15974.044921875,-4360.67578125,-5049.70556640625,5264.2822265625,16455.650390625,10249.6142578125,14171.6005859375,11180.2412109375,1863.6385498046875,193.9137725830078,11881.1923828125,0.0,3812.31298828125,8114.1787109375,7880.5283203125,6700.35693359375,13303.7568359375,9864.1708984375,17527.73828125,-14818.5087890625,2819.697021484375,9776.751953125,3984.769287109375,3254.41357421875,1201.629638671875,0.0,10314.7822265625
5761.7822265625,2969.90087890625,16148.8857421875,8740.4248046875,18104.7109375,6422.99658203125,9497.0068359375,14462.470703125,6213.98291015625,9301.5029296875,10836.9189453125,8793.671875,-5530.51611328125,0.0,11376.5400390625,13172.626953125,2291.997314453125,3047.7841796875,4231.9296875,6559.68994140625,4223.18798828125,12155.3740234375,9378.5927734375,24592.08203125,-1993.1793212890625,809.03369140625,5669.59375,15330.314453125,-8343.85546875,3420.511962890625,20132.064453125,-10523.7958984375,-6507.23779296875,4370.21240234375,11800.1298828125,12470.0859375,6935.5966796875,9467.6015625,6221.1357421875,-0.0,4497.369140625,29182.43359375,32596.587890625,9624.1640625,20048.619140625,15967.6875,-4406.77001953125,-5004.40576171875,5226.13525390625,16449.29296875,10241.66796875,14165.2421875,11181.8310546875,1939.1378173828125,175.63502502441406,11879.603515625,0.0,3805.955078125,8108.61572265625,7880.5283203125,6699.56201171875,13290.24609375,9854.634765625,17525.353515625,-14838.3779296875,2814.1337890625,9769.5986328125,4001.458740234375,3247.260986328125,1219.1136474609375,0.0,10328.29296875
5766.55078125,2993.74267578125,16178.2890625,8656.1845703125,18084.84375,6398.35986328125,9487.4697265625,14446.576171875,6205.24072265625,9295.9404296875,10840.892578125,8788.1083984375,-5548.79541015625,0.0,11372.56640625,13158.3212890625,2272.129150390625,3030.300048828125,4220.0087890625,6552.53759765625,4206.49853515625,12133.12109375,9365.08203125,24573.0078125,-2012.2528076171875,778.8340454101562,5673.5673828125,15307.267578125,-8353.392578125,3390.312255859375,20115.375,-10530.154296875,-6510.41650390625,4330.47607421875,11781.8515625,12450.2177734375,6922.08642578125,9454.0908203125,6225.10888671875,-0.0,4467.16943359375,29153.029296875,32586.2578125,9605.884765625,20037.4921875,15958.150390625,-4390.0810546875,-4995.6640625,5200.7041015625,16424.65625,10236.1044921875,14150.142578125,11192.9580078125,1988.410888671875,164.50881958007812,11875.6298828125,0.0,3827.412841796875,8095.900390625,7868.607421875,6690.8203125,13274.3525390625,9845.892578125,17518.998046875,-14839.966796875,2803.0078125,9766.4189453125,4005.43212890625,3232.161376953125,1223.0872802734375,0.0,10341.8037109375
5857.1494140625,3092.2890625,16294.3212890625,8692.7412109375,18130.14453125,6431.73828125,9525.6162109375,14481.544921875,6246.56689453125,9326.9345703125,10894.9345703125,8822.2822265625,-5544.8212890625,0.0,11406.7392578125,13193.2900390625,2306.30224609375,3066.857666015625,4257.36083984375,6585.12109375,4235.9033203125,12167.294921875,9400.8447265625,24608.76953125,-1971.7216796875,812.212646484375,5702.97265625,15341.44140625,-8330.3447265625,3423.69091796875,20147.958984375,-10488.033203125,-6478.62744140625,4368.623046875,11816.8193359375,12484.3916015625,6959.4384765625,9489.853515625,6299.81396484375,-0.0,4482.26953125,29185.61328125,32628.376953125,9638.46875,20076.43359375,15992.3232421875,-4285.1767578125,-4991.68994140625,5266.66650390625,16458.03515625,10272.662109375,14182.7265625,11254.1513671875,2032.1209716796875,205.03997802734375,11915.3662109375,0.0,3881.45458984375,8134.04736328125,7898.01318359375,6718.6357421875,13310.115234375,9882.4501953125,17542.83984375,-14794.6669921875,2839.565185546875,9799.7978515625,4016.55810546875,3268.71875,1232.6240234375,0.0,10352.134765625
5882.5810546875,3100.236083984375,16284.7841796875,8707.8408203125,18105.5078125,6410.28076171875,9500.98046875,14461.6767578125,6227.4931640625,9299.9140625,10875.0654296875,8798.4404296875,-5581.37890625,0.0,11382.8974609375,13171.83203125,2279.28173828125,3043.015625,4234.31396484375,6560.484375,4204.90869140625,12142.658203125,9376.2080078125,24586.51953125,-2005.1002197265625,792.3444213867188,5675.1572265625,15319.9833984375,-8355.7763671875,3409.3857421875,20120.939453125,-10507.1064453125,-6515.97998046875,4350.34423828125,11792.1826171875,12461.3447265625,6937.185546875,9466.01171875,6244.1826171875,-0.0,4451.27490234375,29161.771484375,32598.1796875,9617.0107421875,20055.771484375,15968.4814453125,-4295.5078125,-5029.8369140625,5252.361328125,16435.78125,10248.8203125,14163.6533203125,11268.4560546875,1991.58984375,192.32432556152344,11895.4970703125,0.0,3869.533447265625,8117.3583984375,7870.197265625,6705.12548828125,13287.0673828125,9857.8134765625,17518.998046875,-14815.330078125,2821.286376953125,9775.9560546875,3995.1005859375,3260.771484375,1200.0401611328125,0.0,10293.32421875
5857.9443359375,3055.7314453125,16217.2314453125,8729.298828125,18074.51171875,6390.41259765625,9479.5224609375,14441.8076171875,6203.6513671875,9282.4296875,10840.892578125,8771.419921875,-5598.068359375,0.0,11366.2080078125,13151.962890625,2252.260986328125,3018.379150390625,4212.8564453125,6540.61669921875,4178.6826171875,12122.7900390625,9350.7763671875,24564.265625,-2036.8892822265625,772.4761962890625,5664.03076171875,15303.2939453125,-8387.5654296875,3384.749267578125,20099.482421875,-10539.69140625,-6547.76904296875,4334.44970703125,11765.95703125,12440.681640625,6912.54931640625,9445.349609375,6201.26708984375,-0.0,4424.25390625,29145.08203125,32573.5390625,9597.142578125,20033.517578125,15949.4072265625,-4336.0390625,-5019.505859375,5216.5986328125,16413.53125,10232.92578125,14144.580078125,11248.5888671875,1930.395751953125,186.76121520996094,11871.6552734375,0.0,3836.155029296875,8091.9267578125,7855.09765625,6690.8203125,13264.8154296875,9837.150390625,17501.51171875,-14844.7353515625,2797.444580078125,9761.6513671875,3985.563720703125,3232.9560546875,1203.2191162109375,0.0,10286.966796875
5814.234375,3043.015625,16191.80078125,8727.7099609375,18066.564453125,6384.849609375,9469.986328125,14432.271484375,6194.90966796875,9279.2509765625,10830.5615234375,8765.8564453125,-5588.53125,0.0,11351.9033203125,13142.4267578125,2248.287109375,3011.2265625,4204.90869140625,6536.642578125,4175.50439453125,12118.021484375,9342.830078125,24557.908203125,-2047.220947265625,770.88671875,5651.3154296875,15299.3203125,-8386.771484375,3383.15966796875,20095.505859375,-10553.99609375,-6548.5634765625,4332.8603515625,11761.1884765625,12435.119140625,6903.80712890625,9438.9912109375,6198.8828125,-0.0,4424.25390625,29137.9296875,32564.80078125,9589.9892578125,20023.98046875,15943.845703125,-4353.5234375,-5006.7900390625,5202.29345703125,16405.58203125,10217.826171875,14135.837890625,11237.4619140625,1894.6329345703125,202.65579223632812,11866.88671875,0.0,3813.107666015625,8083.18408203125,7848.73974609375,6688.43603515625,13256.8671875,9831.587890625,17507.87109375,-14850.298828125,2798.239501953125,9748.935546875,3976.82177734375,3223.419189453125,1191.298095703125,0.0,10290.9404296875
5853.97119140625,3070.03662109375,16233.1259765625,8775.3935546875,18118.22265625,6438.0966796875,9520.8486328125,14484.72265625,6246.56689453125,9326.9345703125,10879.0400390625,8811.951171875,-5548.79541015625,0.0,11385.28125,13194.87890625,2301.533935546875,3066.06298828125,4255.771484375,6586.71044921875,4231.9296875,12174.447265625,9396.076171875,24610.361328125,-2005.1002197265625,829.6966552734375,5689.46240234375,15353.3623046875,-8339.8818359375,3452.301025390625,20149.548828125,-10503.1328125,-6487.36962890625,4387.69677734375,11815.23046875,12489.1591796875,6955.46484375,9491.443359375,6243.3876953125,-0.0,4482.26953125,29200.712890625,32614.0703125,9642.44140625,20075.640625,15993.9140625,-4310.60791015625,-4989.30615234375,5247.5927734375,16462.0078125,10252.79296875,14187.4951171875,11271.6357421875,1947.8797607421875,249.54476928710938,11926.4921875,0.0,3864.76513671875,8129.279296875,7898.01318359375,6743.2724609375,13309.3193359375,9881.6552734375,17550.787109375,-14799.435546875,2857.04931640625,9778.3408203125,4021.32666015625,3280.6396484375,1219.9083251953125,0.0,10328.29296875
5933.443359375,3080.3681640625,16296.705078125,8852.4814453125,18196.900390625,6520.748046875,9602.7060546875,14567.375,6322.06591796875,9399.2548828125,10954.5390625,8893.8076171875,-5486.01171875,0.0,11467.93359375,13275.9404296875,2381.0068359375,3144.740966796875,4336.0390625,6661.4150390625,4312.197265625,12255.509765625,9476.34375,24689.83203125,-1929.60107421875,910.7589721679688,5769.7294921875,15435.21875,-8269.9462890625,3540.515869140625,20228.228515625,-10426.8388671875,-6407.896484375,4471.14306640625,11893.11328125,12567.837890625,7036.52734375,9570.916015625,6306.96630859375,-0.0,4561.7421875,29287.337890625,32693.546875,9722.7099609375,20157.49609375,16072.591796875,-4241.46630859375,-4927.3173828125,5324.681640625,16543.865234375,10333.0615234375,14269.3515625,11332.8291015625,2032.915771484375,316.3019714355469,12004.375,0.0,3949.801025390625,8203.1884765625,7979.86962890625,6817.9765625,13390.3818359375,9961.1279296875,17623.90234375,-14724.7314453125,2937.31689453125,9858.6083984375,4082.52099609375,3363.29150390625,1275.5394287109375,0.0,10388.6923828125
5869.0703125,3008.0478515625,16258.55859375,8792.876953125,18157.1640625,6469.0908203125,9560.5849609375,14523.6650390625,6281.53466796875,9355.544921875,10902.8818359375,8847.7138671875,-5511.44287109375,0.0,11436.939453125,13235.41015625,2334.117919921875,3095.4677734375,4294.71337890625,6617.705078125,4266.10302734375,12203.0576171875,9433.4287109375,24639.765625,-1965.36376953125,857.5121459960938,5733.966796875,15389.9189453125,-8304.9130859375,3484.885009765625,20180.54296875,-10478.49609375,-6452.40185546875,4424.25390625,11843.8408203125,12517.76953125,6994.40625,9524.822265625,6239.4140625,-0.0,4524.3896484375,29229.322265625,32652.21875,9676.615234375,20116.169921875,16027.2919921875,-4298.68701171875,-4946.390625,5288.9189453125,16494.591796875,10302.861328125,14227.2314453125,11280.376953125,1985.2320556640625,267.82354736328125,11946.3603515625,0.0,3905.29638671875,8172.1943359375,7939.3388671875,6756.78271484375,13342.6982421875,9917.4189453125,17581.78125,-14769.236328125,2881.68603515625,9828.408203125,4029.27392578125,3318.78662109375,1233.4188232421875,0.0,10346.572265625
5812.64501953125,3034.27392578125,16210.0791015625,8738.8349609375,18119.017578125,6425.380859375,9516.875,14482.3388671875,6249.74560546875,9323.755859375,10857.58203125,8807.1826171875,-5548.00048828125,0.0,11393.2294921875,13198.05859375,2291.20263671875,3055.7314453125,4252.5927734375,6586.71044921875,4228.75048828125,12156.962890625,9393.6923828125,24598.439453125,-2002.716064453125,809.03369140625,5695.02490234375,15349.3876953125,-8342.265625,3426.074951171875,20138.421875,-10520.6171875,-6486.57470703125,4376.5703125,11806.48828125,12473.265625,6953.08056640625,9484.291015625,6208.419921875,-0.0,4494.98486328125,29180.05078125,32612.484375,9635.2890625,20075.640625,15990.734375,-4359.08642578125,-4986.12744140625,5255.54052734375,16452.470703125,10262.330078125,14186.7001953125,11236.66796875,1943.9061279296875,223.31874084472656,11898.6767578125,0.0,3851.254638671875,8133.251953125,7900.3974609375,6702.7412109375,13301.3720703125,9879.271484375,17555.5546875,-14811.3564453125,2832.41259765625,9788.6728515625,3989.53759765625,3281.434326171875,1211.1663818359375,0.0,10325.1142578125
5854.765625,3087.5205078125,16225.97265625,8807.9765625,18172.263671875,6482.60107421875,9566.943359375,14530.818359375,6298.22412109375,9376.2080078125,10902.8818359375,8849.3037109375,-5506.67431640625,0.0,11434.5546875,13242.5625,2342.065185546875,3108.18359375,4302.66064453125,6637.5732421875,4285.1767578125,12214.18359375,9444.5546875,24650.892578125,-1955.0323486328125,865.45947265625,5740.32470703125,15401.0458984375,-8307.2978515625,3481.705810546875,20191.669921875,-10471.34375,-6439.68603515625,4432.99609375,11862.9140625,12525.7177734375,7003.1484375,9532.76953125,6243.3876953125,-0.0,4562.53662109375,29242.0390625,32664.935546875,9686.947265625,20127.296875,16039.212890625,-4348.7548828125,-4962.28564453125,5303.22412109375,16515.255859375,10302.06640625,14234.3837890625,11274.0205078125,1965.36376953125,255.90261840820312,11953.5126953125,0.0,3903.706787109375,8178.5517578125,7948.87548828125,6747.24560546875,13353.0302734375,9929.33984375,17605.623046875,-14770.8251953125,2883.275390625,9826.8193359375,4059.4736328125,3323.554931640625,1282.69189453125,0.0,10389.4873046875
5885.759765625,3050.168212890625,16244.2529296875,8905.728515625,18188.953125,6499.29052734375,9585.2216796875,14541.1494140625,6314.11865234375,9388.12890625,10915.5966796875,8846.9189453125,-5478.85888671875,0.0,11454.4228515625,13251.3046875,2362.72802734375,3126.462158203125,4320.14453125,6650.2890625,4301.0712890625,12238.025390625,9462.0390625,24669.169921875,-1939.9324951171875,881.35400390625,5757.013671875,15414.5556640625,-8288.224609375,3503.16357421875,20209.154296875,-10454.654296875,-6429.35400390625,4475.11669921875,11879.603515625,12547.17578125,7020.63232421875,9549.458984375,6221.1357421875,-0.0,4576.841796875,29262.701171875,32681.625,9702.841796875,20143.986328125,16052.72265625,-4332.0654296875,-4920.95947265625,5315.14501953125,16529.560546875,10322.73046875,14245.509765625,11289.9140625,1924.0379638671875,269.4129943847656,11967.0224609375,0.0,3918.806640625,8203.9833984375,7955.2333984375,6771.087890625,13368.923828125,9945.2333984375,17614.365234375,-14758.1103515625,2888.838623046875,9848.27734375,4080.13671875,3344.218017578125,1299.3812255859375,0.0,10402.9970703125
5854.765625,3034.27392578125,16254.5830078125,8829.4345703125,18153.19140625,6463.52783203125,9552.6376953125,14510.154296875,6281.53466796875,9357.9296875,10887.7822265625,8834.203125,-5493.958984375,0.0,11426.6083984375,13219.515625,2328.554931640625,3091.494384765625,4288.35546875,6618.5,4266.10302734375,12200.6728515625,9430.2490234375,24634.203125,-1970.132080078125,851.154296875,5723.63525390625,15375.6142578125,-8310.4775390625,3466.606201171875,20175.775390625,-10488.033203125,-6455.580078125,4429.8173828125,11844.634765625,12511.4130859375,6988.04833984375,9517.669921875,6190.935546875,-0.0,4522.00537109375,29226.9375,32648.24609375,9667.873046875,20108.22265625,16021.728515625,-4287.56103515625,-4924.138671875,5282.56103515625,16487.439453125,10293.32421875,14215.310546875,11266.8671875,1853.30712890625,241.5974884033203,11930.4658203125,0.0,3896.55419921875,8170.6044921875,7927.41796875,6745.65625,13337.1357421875,9913.4443359375,17577.806640625,-14785.130859375,2856.254638671875,9818.87109375,4055.5,3309.25,1269.976318359375,0.0,10368.029296875
5802.3134765625,3027.121337890625,16201.337890625,8726.9140625,18109.48046875,6420.6123046875,9509.72265625,14471.212890625,6243.3876953125,9318.98828125,10852.8134765625,8804.7978515625,-5529.7216796875,0.0,11382.8974609375,13182.1630859375,2284.8447265625,3050.168212890625,4248.619140625,6579.55810546875,4225.572265625,12156.1689453125,9389.7177734375,24595.259765625,-2010.663330078125,811.4179077148438,5674.3623046875,15336.6728515625,-8347.0341796875,3423.69091796875,20132.859375,-10516.6435546875,-6496.111328125,4366.2392578125,11804.103515625,12468.4970703125,6944.33837890625,9477.9326171875,6184.578125,-0.0,4476.7060546875,29178.4609375,32604.533203125,9628.13671875,20065.30859375,15983.58203125,-4328.09228515625,-4976.5908203125,5237.26123046875,16442.140625,10248.8203125,14174.779296875,11224.7470703125,1886.6856689453125,202.65579223632812,11888.3447265625,0.0,3865.559814453125,8130.07373046875,7888.4765625,6721.01953125,13299.783203125,9873.7080078125,17542.83984375,-14819.3046875,2826.849609375,9775.162109375,4017.35302734375,3270.308349609375,1224.6767578125,0.0,10327.498046875
5802.3134765625,3032.684326171875,16206.8994140625,8704.662109375,18107.890625,6413.4599609375,9508.1328125,14467.2392578125,6240.208984375,9311.0400390625,10852.01953125,8791.287109375,-5539.25830078125,0.0,11384.4873046875,13178.984375,2281.665771484375,3047.7841796875,4243.8505859375,6575.58447265625,4222.39306640625,12145.8369140625,9385.7451171875,24590.4921875,-2015.431640625,801.08642578125,5677.541015625,15331.904296875,-8349.4189453125,3415.74365234375,20128.091796875,-10512.669921875,-6490.548828125,4354.318359375,11801.7197265625,12464.5234375,6943.5439453125,9473.9599609375,6152.78857421875,-0.0,4483.06396484375,29163.361328125,32602.150390625,9622.57421875,20064.51171875,15976.4287109375,-4343.19140625,-5011.55859375,5226.13525390625,16435.78125,10249.6142578125,14171.6005859375,11220.7724609375,1945.49560546875,202.65579223632812,11887.55078125,0.0,3861.58642578125,8125.30517578125,7886.09228515625,6711.48291015625,13293.42578125,9869.734375,17542.83984375,-14819.3046875,2822.8759765625,9776.751953125,4006.22705078125,3275.871337890625,1203.2191162109375,0.0,10325.908203125
5812.64501953125,3085.93115234375,16270.4794921875,8755.5244140625,18161.931640625,6468.2958984375,9559.791015625,14521.28125,6292.6611328125,9367.4658203125,10902.0869140625,8846.9189453125,-5491.57470703125,0.0,11418.66015625,13234.615234375,2333.3232421875,3100.236083984375,4296.302734375,6629.6259765625,4274.84521484375,12199.87890625,9436.607421875,24643.740234375,-1978.07958984375,855.1279907226562,5729.9931640625,15387.53515625,-8301.7353515625,3468.990234375,20180.54296875,-10477.7021484375,-6434.12255859375,4404.38623046875,11853.376953125,12516.1806640625,6993.61181640625,9527.2060546875,6175.8359375,-0.0,4537.10546875,29220.58203125,32654.6015625,9679.0,20116.169921875,16032.060546875,-4300.2763671875,-4965.46435546875,5275.408203125,16492.208984375,10290.9404296875,14225.642578125,11266.8671875,2002.716064453125,247.16058349609375,11943.9765625,0.0,3910.064697265625,8176.16748046875,7943.3125,6742.4775390625,13344.2880859375,9922.1865234375,17597.67578125,-14770.8251953125,2876.91748046875,9813.30859375,4058.67919921875,3326.73388671875,1269.181640625,0.0,10381.5390625
5850.7919921875,3140.767333984375,16326.904296875,8815.9248046875,18202.462890625,6516.7744140625,9601.91015625,14568.96484375,6341.13916015625,9423.8916015625,10949.7705078125,8897.78125,-5438.32763671875,0.0,11449.654296875,13280.708984375,2377.827880859375,3145.53564453125,4343.986328125,6682.87255859375,4318.55517578125,12248.3564453125,9481.9072265625,24691.423828125,-1924.0379638671875,902.8117065429688,5768.14013671875,15433.62890625,-8254.845703125,3525.416015625,20227.431640625,-10435.5810546875,-6395.9755859375,4453.6591796875,11897.0869140625,12565.453125,7038.9111328125,9574.890625,6291.8662109375,-0.0,4572.8681640625,29270.6484375,32697.517578125,9725.888671875,20162.263671875,16082.12890625,-4247.82421875,-4915.39599609375,5326.27099609375,16541.48046875,10320.345703125,14274.1201171875,11317.7294921875,2052.783935546875,282.9233703613281,11993.2490234375,0.0,3955.3642578125,8219.8779296875,7987.81689453125,6783.80322265625,13391.9716796875,9971.458984375,17658.869140625,-14727.91015625,2928.57470703125,9844.302734375,4115.8994140625,3373.622802734375,1338.322998046875,0.0,10449.88671875
5862.712890625,3126.462158203125,16304.6513671875,8819.103515625,18182.595703125,6498.49560546875,9585.2216796875,14554.66015625,6322.86083984375,9404.0234375,10928.3134765625,8879.501953125,-5442.30126953125,0.0,11440.9130859375,13266.404296875,2360.343994140625,3132.820068359375,4328.09228515625,6663.00439453125,4301.0712890625,12234.0517578125,9466.01171875,24675.52734375,-1934.369384765625,887.7118530273438,5737.9404296875,15416.939453125,-8267.5615234375,3504.753173828125,20210.7421875,-10449.091796875,-6417.43310546875,4444.1220703125,11880.3974609375,12550.353515625,7021.42724609375,9559.791015625,6302.9921875,-0.0,4559.35791015625,29256.34375,32676.060546875,9709.19921875,20144.78125,16065.439453125,-4264.513671875,-4929.701171875,5297.66064453125,16523.99609375,10309.2197265625,14259.0205078125,11303.4248046875,2025.7633056640625,271.79718017578125,11981.328125,0.0,3943.443359375,8200.8046875,7971.12744140625,6780.62451171875,13376.0771484375,9954.7705078125,17635.822265625,-14743.0107421875,2921.42236328125,9834.7666015625,4100.0048828125,3359.31787109375,1312.8916015625,0.0,10422.0703125
5900.85986328125,3142.35693359375,16305.4462890625,8860.4287109375,18213.58984375,6529.490234375,9620.189453125,14588.8330078125,6352.265625,9438.197265625,10948.181640625,8904.93359375,-5426.40673828125,0.0,11476.67578125,13299.783203125,2389.748779296875,3160.6357421875,4359.08642578125,6697.97265625,4332.0654296875,12263.45703125,9497.0068359375,24707.31640625,-1904.9644775390625,920.2957153320312,5779.2666015625,15449.5234375,-8241.3359375,3534.157958984375,20240.94140625,-10418.8916015625,-6380.0810546875,4476.7060546875,11910.59765625,12579.7587890625,7055.6005859375,9592.3740234375,6262.46142578125,-0.0,4590.3525390625,29288.1328125,32709.4375,9740.98828125,20176.568359375,16098.0224609375,-4258.95068359375,-4920.95947265625,5324.681640625,16553.40234375,10344.1875,14293.193359375,11328.8564453125,2045.63134765625,308.3547058105469,12013.912109375,0.0,3976.027099609375,8227.8251953125,8008.47998046875,6819.56640625,13407.8662109375,9986.5595703125,17672.380859375,-14710.4267578125,2950.827392578125,9870.529296875,4132.5888671875,3394.285888671875,1355.0123291015625,0.0,10464.986328125
5918.34423828125,3105.79931640625,16286.373046875,8842.150390625,18226.3046875,6539.02685546875,9627.341796875,14595.9853515625,6357.82861328125,9445.349609375,10947.38671875,8902.5498046875,-5450.24853515625,0.0,11487.8017578125,13305.3466796875,2392.133056640625,3165.404052734375,4364.6494140625,6703.53564453125,4343.19140625,12268.2255859375,9502.5703125,24713.673828125,-1911.322265625,926.653564453125,5794.3662109375,15457.470703125,-8249.283203125,3536.542236328125,20245.7109375,-10429.22265625,-6368.955078125,4468.75927734375,11920.134765625,12585.322265625,7064.34228515625,9596.34765625,6168.68359375,-0.0,4621.34716796875,29303.232421875,32719.771484375,9746.5517578125,20182.927734375,16105.1748046875,-4271.666015625,-4955.1328125,5343.75537109375,16562.939453125,10355.3134765625,14298.7568359375,11321.7041015625,2028.1474609375,301.2021484375,12017.8857421875,0.0,3978.4111328125,8234.9775390625,8018.81103515625,6817.18212890625,13411.83984375,9991.328125,17677.94140625,-14715.1943359375,2946.853515625,9880.8603515625,4133.38330078125,3387.927978515625,1376.469970703125,0.0,10486.443359375
5876.22314453125,3067.65234375,16191.005859375,8846.1240234375,18196.10546875,6507.23779296875,9589.9892578125,14558.6328125,6314.9130859375,9399.2548828125,10920.365234375,8863.6083984375,-5482.83251953125,0.0,11448.8603515625,13269.583984375,2359.54931640625,3133.61474609375,4328.88671875,6656.646484375,4312.9921875,12238.025390625,9468.396484375,24678.70703125,-1947.0850830078125,890.8907470703125,5762.5771484375,15425.681640625,-8273.9189453125,3506.342529296875,20215.51171875,-10462.6015625,-6411.87060546875,4453.6591796875,11889.1396484375,12553.5322265625,7027.78466796875,9560.5849609375,6213.18798828125,-0.0,4592.73681640625,29274.62109375,32686.39453125,9711.5830078125,20144.78125,16064.6435546875,-4301.8662109375,-4991.68994140625,5310.37646484375,16531.1484375,10316.3720703125,14261.4052734375,11288.3251953125,1982.0531005859375,251.13424682617188,11979.7392578125,0.0,3927.548828125,8196.8310546875,7970.3330078125,6771.087890625,13378.4609375,9952.3857421875,17620.72265625,-14747.779296875,2907.912109375,9840.3291015625,4072.984130859375,3345.0126953125,1308.91796875,0.0,10418.8916015625
5829.33447265625,3055.7314453125,16210.0791015625,8809.56640625,18172.263671875,6479.421875,9566.1474609375,14530.0224609375,6286.30322265625,9361.107421875,10910.828125,8842.150390625,-5481.2431640625,0.0,11426.6083984375,13240.9736328125,2341.2705078125,3107.388671875,4302.66064453125,6620.8837890625,4285.1767578125,12211.7998046875,9444.5546875,24652.48046875,-1946.2904052734375,863.8699951171875,5744.29833984375,15397.8662109375,-8273.9189453125,3486.474365234375,20190.080078125,-10464.986328125,-6445.2490234375,4421.0751953125,11863.708984375,12528.896484375,7003.1484375,9533.564453125,6332.3974609375,-0.0,4556.17919921875,29239.654296875,32666.5234375,9686.15234375,20116.96484375,16032.060546875,-4305.83935546875,-4970.232421875,5307.19775390625,16503.333984375,10293.32421875,14234.3837890625,11263.6884765625,1966.1585693359375,250.33950805664062,11955.1015625,0.0,3904.501708984375,8172.98876953125,7932.98046875,6753.603515625,13353.0302734375,9923.775390625,17576.216796875,-14758.904296875,2885.659423828125,9818.87109375,4023.710693359375,3315.607666015625,1239.776611328125,0.0,10352.9287109375
5815.029296875,2987.384765625,16243.4580078125,8825.4609375,18150.806640625,6458.75927734375,9547.8701171875,14513.3330078125,6271.998046875,9348.392578125,10890.9609375,8823.8720703125,-5504.2900390625,0.0,11409.123046875,13222.6943359375,2328.554931640625,3089.110107421875,4283.5869140625,6608.16796875,4262.12939453125,12197.494140625,9426.2763671875,24634.99609375,-1972.516357421875,844.7965087890625,5723.63525390625,15376.408203125,-8301.7353515625,3464.221923828125,20172.595703125,-10488.828125,-6462.73291015625,4413.9228515625,11842.2509765625,12509.8232421875,6984.0751953125,9515.28515625,6307.7607421875,-0.0,4524.3896484375,29221.376953125,32645.86328125,9667.873046875,20097.890625,16016.1650390625,-4324.1181640625,-4977.38525390625,5277.79248046875,16476.3125,10276.634765625,14215.310546875,11256.53515625,1947.0850830078125,253.5184326171875,11934.439453125,0.0,3901.322509765625,8155.50537109375,7919.470703125,6719.4306640625,13333.95703125,9908.67578125,17572.244140625,-14779.5673828125,2864.201904296875,9802.1826171875,4014.96875,3303.686767578125,1238.9818115234375,0.0,10352.9287109375
5823.77099609375,2967.5166015625,16283.9892578125,8856.4560546875,18138.884765625,6459.55419921875,9543.8955078125,14510.154296875,6270.40869140625,9346.0078125,10882.21875,8819.8974609375,-5519.39013671875,0.0,11413.8916015625,13221.1044921875,2331.733642578125,3086.725830078125,4279.61328125,6607.37353515625,4257.36083984375,12201.46875,9420.712890625,24632.611328125,-1994.768798828125,846.385986328125,5714.8935546875,15376.408203125,-8320.013671875,3453.095703125,20172.595703125,-10495.98046875,-6459.55419921875,4442.533203125,11835.0986328125,12509.8232421875,6978.51171875,9512.9013671875,6274.38232421875,-0.0,4514.85302734375,29227.734375,32638.7109375,9666.283203125,20094.712890625,16013.7802734375,-4311.40283203125,-4971.02734375,5277.79248046875,16476.3125,10281.4033203125,14213.7216796875,11254.1513671875,1905.7591552734375,245.57113647460938,11930.4658203125,0.0,3894.96484375,8152.32568359375,7920.26513671875,6711.48291015625,13329.982421875,9904.7021484375,17572.244140625,-14789.8984375,2856.254638671875,9806.9501953125,4011.789794921875,3305.276123046875,1246.1343994140625,0.0,10360.876953125
5845.228515625,3005.66357421875,16271.2724609375,8810.361328125,18148.421875,6468.2958984375,9555.0224609375,14522.8701171875,6284.7138671875,9361.9033203125,10894.1396484375,8830.2294921875,-5515.41650390625,0.0,11428.9921875,13233.8212890625,2330.93896484375,3092.2890625,4289.150390625,6622.47314453125,4258.95068359375,12203.0576171875,9428.66015625,24641.35546875,-1983.642578125,855.1279907226562,5725.22509765625,15387.53515625,-8312.861328125,3466.606201171875,20175.775390625,-10482.470703125,-6460.3486328125,4441.73828125,11840.6611328125,12514.5908203125,6988.84326171875,9523.232421875,6232.26171875,-0.0,4517.2373046875,29228.529296875,32649.833984375,9675.8203125,20107.427734375,16028.0859375,-4288.35546875,-4944.80126953125,5295.27685546875,16493.001953125,10294.9140625,14226.4365234375,11265.2783203125,1924.8326416015625,253.5184326171875,11941.591796875,0.0,3883.838623046875,8166.630859375,7940.92822265625,6744.06689453125,13340.3134765625,9917.4189453125,17589.7265625,-14784.3359375,2868.175537109375,9822.05078125,4041.98974609375,3322.76025390625,1274.74462890625,0.0,10382.3349609375
5835.69189453125,3029.50537109375,16244.2529296875,8734.0673828125,18136.501953125,6452.40185546875,9540.716796875,14503.796875,6272.79296875,9349.1865234375,10883.80859375,8821.4873046875,-5521.7744140625,0.0,11409.9189453125,13213.9521484375,2308.6865234375,3075.599609375,4274.84521484375,6609.7578125,4242.26123046875,12180.0107421875,9413.5595703125,24626.255859375,-1977.28466796875,844.7965087890625,5711.71435546875,15370.0517578125,-8327.1669921875,3456.274658203125,20157.49609375,-10492.0068359375,-6485.7802734375,4388.4912109375,11825.5615234375,12497.107421875,6976.12744140625,9508.1328125,6258.48779296875,-0.0,4498.95849609375,29203.892578125,32637.119140625,9660.720703125,20095.505859375,16012.19140625,-4294.71337890625,-4955.1328125,5278.58740234375,16476.3125,10279.814453125,14206.568359375,11242.23046875,1958.211181640625,240.00804138183594,11929.6708984375,0.0,3859.2021484375,8154.7099609375,7919.470703125,6739.29833984375,13326.8037109375,9903.908203125,17575.421875,-14799.435546875,2861.02294921875,9806.15625,4041.19482421875,3314.018310546875,1264.4132080078125,0.0,10366.439453125
5803.9033203125,3024.737060546875,16242.662109375,8711.0205078125,18122.9921875,6436.5068359375,9523.232421875,14484.72265625,6255.30859375,9326.9345703125,10870.2978515625,8807.1826171875,-5524.953125,0.0,11392.4345703125,13194.083984375,2297.560546875,3060.5,4259.7451171875,6589.8896484375,4226.36669921875,12167.294921875,9396.87109375,24612.74609375,-1992.3846435546875,829.6966552734375,5696.61474609375,15353.3623046875,-8335.11328125,3440.380126953125,20143.189453125,-10499.16015625,-6508.0322265625,4371.8017578125,11810.4619140625,12484.3916015625,6959.4384765625,9492.23828125,6248.15625,-0.0,4486.24267578125,29191.970703125,32621.22265625,9644.826171875,20079.61328125,15994.70703125,-4310.60791015625,-4987.716796875,5261.10302734375,16458.03515625,10260.7412109375,14187.4951171875,11236.66796875,1961.3902587890625,223.31874084472656,11913.7763671875,0.0,3843.3076171875,8141.2001953125,7898.01318359375,6720.22509765625,13310.9091796875,9886.423828125,17550.787109375,-14816.125,2845.923095703125,9788.6728515625,4014.96875,3299.713134765625,1223.882080078125,0.0,10334.6513671875
5788.00830078125,3042.22119140625,16214.84765625,8732.478515625,18121.400390625,6434.91748046875,9520.0537109375,14483.1337890625,6246.56689453125,9323.755859375,10867.9130859375,8807.9765625,-5524.15869140625,0.0,11390.0498046875,13193.2900390625,2295.17626953125,3058.910400390625,4254.9765625,6584.326171875,4226.36669921875,12168.08984375,9396.076171875,24608.76953125,-1998.7423095703125,823.3388061523438,5694.23046875,15349.3876953125,-8329.55078125,3435.61181640625,20141.6015625,-10506.3125,-6499.29052734375,4372.5966796875,11811.2568359375,12482.0068359375,6955.46484375,9489.853515625,6197.2939453125,-0.0,4497.369140625,29194.35546875,32618.044921875,9640.0576171875,20074.048828125,15993.9140625,-4331.2705078125,-5014.73779296875,5260.30859375,16457.23828125,10258.357421875,14187.4951171875,11248.5888671875,1961.3902587890625,220.93455505371094,11907.41796875,0.0,3866.354736328125,8130.07373046875,7899.60205078125,6717.04638671875,13305.3466796875,9881.6552734375,17543.634765625,-14816.919921875,2841.949462890625,9784.6982421875,4004.63720703125,3292.560546875,1223.0872802734375,0.0,10327.498046875
5824.56591796875,3063.6787109375,16210.875,8743.603515625,18130.9375,6446.04345703125,9529.5908203125,14499.8232421875,6254.51416015625,9341.240234375,10871.0927734375,8816.71875,-5519.39013671875,0.0,11401.1767578125,13210.7734375,2297.560546875,3068.447021484375,4263.71923828125,6598.63134765625,4235.10888671875,12172.8583984375,9404.818359375,24618.306640625,-1992.3846435546875,834.4650268554688,5700.58837890625,15365.283203125,-8321.6025390625,3443.558837890625,20147.166015625,-10501.5439453125,-6492.1376953125,4377.365234375,11818.4091796875,12491.5439453125,6965.00146484375,9498.595703125,6237.82470703125,-0.0,4503.72705078125,29203.095703125,32625.9921875,9651.978515625,20083.5859375,16006.6279296875,-4342.39697265625,-5017.916015625,5263.4873046875,16470.75,10269.482421875,14205.7734375,11266.8671875,1959.006103515625,227.29237365722656,11912.1865234375,0.0,3891.785888671875,8136.431640625,7918.67529296875,6728.96728515625,13314.8828125,9892.78125,17561.912109375,-14805.7939453125,2851.486328125,9795.8251953125,4018.9423828125,3287.792236328125,1256.4659423828125,0.0,10362.4658203125
5857.1494140625,3058.910400390625,16221.205078125,8744.3994140625,18136.501953125,6451.60693359375,9535.94921875,14508.5654296875,6261.6669921875,9353.955078125,10871.88671875,8821.4873046875,-5525.74755859375,0.0,11407.5341796875,13221.1044921875,2302.328857421875,3073.215576171875,4270.07666015625,6610.55224609375,4239.87744140625,12176.037109375,9409.5869140625,24623.87109375,-1990.795166015625,837.6439208984375,5706.1513671875,15374.0244140625,-8327.9609375,3449.1220703125,20151.138671875,-10491.2119140625,-6492.9326171875,4385.3125,11824.767578125,12494.7236328125,6970.564453125,9506.54296875,6260.8720703125,-0.0,4512.46875,29206.275390625,32633.14453125,9659.9267578125,20089.150390625,16016.1650390625,-4336.833984375,-5000.4326171875,5277.79248046875,16477.107421875,10275.0458984375,14215.310546875,11262.8935546875,1948.674560546875,232.85548400878906,11920.134765625,0.0,3900.52783203125,8147.55712890625,7934.5703125,6740.09326171875,13322.0361328125,9901.5234375,17579.396484375,-14800.2314453125,2860.228271484375,9802.9775390625,4041.98974609375,3292.560546875,1288.255126953125,0.0,10393.4599609375
5851.5869140625,3041.426513671875,16219.6162109375,8742.0146484375,18126.96484375,6450.81201171875,9534.359375,14509.3603515625,6264.84521484375,9354.7509765625,10866.32421875,8817.513671875,-5533.6953125,0.0,11409.9189453125,13218.720703125,2300.7392578125,3068.447021484375,4269.28173828125,6612.9365234375,4231.9296875,12176.037109375,9406.4072265625,24621.486328125,-1996.358154296875,836.8492431640625,5703.76708984375,15374.0244140625,-8336.703125,3450.71142578125,20147.958984375,-10495.185546875,-6500.8798828125,4379.74951171875,11817.6142578125,12492.3388671875,6967.3857421875,9505.7490234375,6237.0302734375,-0.0,4485.4482421875,29203.892578125,32627.58203125,9658.3369140625,20088.353515625,16017.755859375,-4324.1181640625,-5011.55859375,5272.2294921875,16476.3125,10276.634765625,14212.92578125,11239.0517578125,1944.7008056640625,220.93455505371094,11922.5185546875,0.0,3896.55419921875,8148.3525390625,7937.7490234375,6732.9404296875,13319.6513671875,9898.3447265625,17584.958984375,-14804.9990234375,2858.638671875,9804.56640625,4057.88427734375,3301.302734375,1307.32861328125,0.0,10402.9970703125
5827.7451171875,3009.63720703125,16199.7470703125,8744.3994140625,18117.427734375,6432.533203125,9519.259765625,14485.5185546875,6244.9775390625,9325.3447265625,10846.4560546875,8801.619140625,-5535.28466796875,0.0,11405.9453125,13195.673828125,2288.023681640625,3054.14208984375,4253.3876953125,6587.50537109375,4221.59814453125,12158.552734375,9392.8974609375,24603.208984375,-2005.1002197265625,817.7757568359375,5695.81982421875,15354.15625,-8339.8818359375,3432.432861328125,20134.44921875,-10519.822265625,-6505.64794921875,4367.828125,11806.48828125,12476.4443359375,6953.875,9485.880859375,6205.24072265625,-0.0,4474.32177734375,29180.05078125,32616.455078125,9638.46875,20072.4609375,15994.70703125,-4336.833984375,-4998.04833984375,5253.95068359375,16454.85546875,10270.2783203125,14189.083984375,11217.59375,1931.9852294921875,206.6294403076172,11905.0341796875,0.0,3862.380859375,8135.63623046875,7905.16552734375,6705.12548828125,13304.55078125,9879.271484375,17548.40234375,-14816.125,2838.7705078125,9799.00390625,4022.916259765625,3278.25537109375,1246.1343994140625,0.0,10348.1611328125
5786.4189453125,2989.76904296875,16219.6162109375,8732.478515625,18101.533203125,6405.51220703125,9496.2119140625,14448.9599609375,6213.18798828125,9280.8408203125,10825.79296875,8780.162109375,-5539.25830078125,0.0,11392.4345703125,13158.3212890625,2269.744873046875,3032.684326171875,4225.572265625,6547.76904296875,4204.1142578125,12136.2998046875,9371.439453125,24576.982421875,-2021.78955078125,792.3444213867188,5679.92529296875,15316.8037109375,-8347.0341796875,3405.411865234375,20113.787109375,-10545.25390625,-6505.64794921875,4347.16552734375,11785.8251953125,12453.396484375,6932.41748046875,9458.0654296875,6163.9150390625,-0.0,4460.0166015625,29157.00390625,32597.380859375,9609.8583984375,20046.234375,15958.150390625,-4348.7548828125,-5005.9951171875,5238.05615234375,16425.451171875,10256.767578125,14151.732421875,11194.546875,1888.275146484375,195.50323486328125,11880.3974609375,0.0,3823.439453125,8107.8212890625,7859.07080078125,6678.8994140625,13274.3525390625,9849.0712890625,17491.181640625,-14828.8408203125,2813.33935546875,9787.876953125,3964.90087890625,3257.592529296875,1157.1248779296875,0.0,10270.2783203125
5758.603515625,2961.953369140625,16184.6484375,8724.5302734375,18082.4609375,6391.20703125,9481.1123046875,14433.06640625,6194.11474609375,9263.3564453125,10822.61328125,8760.29296875,-5550.384765625,0.0,11383.6923828125,13140.837890625,2249.876708984375,3015.9951171875,4208.8828125,6527.10595703125,4185.83544921875,12121.9951171875,9353.955078125,24561.0859375,-2036.8892822265625,775.6550903320312,5667.20947265625,15299.3203125,-8357.365234375,3385.5439453125,20096.302734375,-10565.9169921875,-6530.28466796875,4332.0654296875,11767.546875,12437.5029296875,6917.31787109375,9440.5810546875,6172.6572265625,-0.0,4442.533203125,29148.259765625,32580.69140625,9593.1689453125,20033.517578125,15941.4619140625,-4364.6494140625,-5022.6845703125,5227.724609375,16408.76171875,10248.8203125,14135.04296875,11192.162109375,1844.5650634765625,178.0192108154297,11862.119140625,0.0,3805.955078125,8089.54248046875,7848.73974609375,6669.3623046875,13252.89453125,9833.1767578125,17467.33984375,-14844.7353515625,2796.64990234375,9778.3408203125,3949.006591796875,3235.340087890625,1126.9251708984375,0.0,10248.8203125
5704.5615234375,2919.0380859375,16152.0634765625,8694.3310546875,18054.64453125,6365.77587890625,9456.4755859375,14413.197265625,6178.22021484375,9253.025390625,10794.798828125,8722.94140625,-5577.4052734375,0.0,11359.8505859375,13122.55859375,2224.4453125,2991.3583984375,4186.63037109375,6513.595703125,4165.17236328125,12100.537109375,9327.7294921875,24538.8359375,-2068.6787109375,749.4290771484375,5638.599609375,15281.041015625,-8384.38671875,3362.49658203125,20071.6640625,-10600.08984375,-6554.126953125,4312.9921875,11743.705078125,12415.25,6891.88623046875,9420.712890625,6132.9208984375,-0.0,4428.22802734375,29129.1875,32554.466796875,9571.7119140625,20009.67578125,15924.7724609375,-4397.2333984375,-5072.75244140625,5201.49853515625,16387.3046875,10225.7724609375,14115.173828125,11173.0888671875,1842.9755859375,147.81951904296875,11834.3037109375,0.0,3770.9873046875,8072.85302734375,7834.4345703125,6635.18896484375,13229.8466796875,9811.71875,17461.77734375,-14874.140625,2767.2451171875,9756.087890625,3950.595947265625,3215.471923828125,1159.509033203125,0.0,10255.97265625
5679.92529296875,2884.86474609375,16138.5537109375,8700.6884765625,18035.5703125,6348.2919921875,9442.169921875,14398.892578125,6173.45166015625,9246.6669921875,10774.9296875,8705.45703125,-5584.55810546875,0.0,11343.1611328125,13106.6640625,2208.55078125,2972.284912109375,4171.5302734375,6508.8271484375,4145.30419921875,12083.84765625,9312.6298828125,24522.939453125,-2079.8046875,735.1239624023438,5630.65185546875,15264.3515625,-8397.1025390625,3353.754638671875,20056.56640625,-10607.2421875,-6573.9951171875,4299.48193359375,11726.2197265625,12396.1767578125,6876.78662109375,9406.4072265625,6067.7529296875,-0.0,4402.001953125,29110.11328125,32539.3671875,9555.81640625,19996.166015625,15913.64453125,-4423.45947265625,-5127.5888671875,5172.09375,16369.0244140625,10209.8779296875,14101.6640625,11160.3740234375,1830.2598876953125,135.89859008789062,11815.23046875,0.0,3743.171630859375,8064.90625,7820.12939453125,6622.47314453125,13213.1572265625,9800.59375,17464.95703125,-14891.6240234375,2753.734619140625,9737.0146484375,3935.495849609375,3215.471923828125,1165.8668212890625,0.0,10267.0986328125
5733.966796875,2906.322509765625,16144.9111328125,8691.1513671875,18055.439453125,6372.9287109375,9457.2705078125,14422.734375,6195.7041015625,9272.0986328125,10790.0302734375,8729.298828125,-5561.5107421875,0.0,11327.2666015625,13131.30078125,2226.82958984375,2992.153076171875,4192.98779296875,6535.05322265625,4161.99365234375,12102.126953125,9331.703125,24543.603515625,-2058.346923828125,762.939453125,5637.8046875,15290.578125,-8384.38671875,3383.954345703125,20077.228515625,-10584.990234375,-6570.81591796875,4312.9921875,11742.9091796875,12416.83984375,6894.2705078125,9427.865234375,6151.994140625,-0.0,4419.4853515625,29136.33984375,32555.263671875,9581.248046875,20016.03515625,15936.693359375,-4417.1015625,-5106.92578125,5194.34619140625,16395.25,10193.1884765625,14125.5068359375,11172.294921875,1848.5386962890625,147.02479553222656,11840.6611328125,0.0,3756.68212890625,8080.80029296875,7845.56103515625,6636.7783203125,13233.8212890625,9822.845703125,17506.28125,-14874.140625,2782.3447265625,9718.7353515625,3955.3642578125,3229.777099609375,1188.9139404296875,0.0,10302.861328125
5855.560546875,3072.4208984375,16241.0732421875,8832.6142578125,18169.880859375,6497.701171875,9573.30078125,14545.123046875,6318.09228515625,9400.0498046875,10906.060546875,8845.3291015625,-5482.0380859375,0.0,11410.712890625,13256.0732421875,2345.244140625,3111.362548828125,4312.197265625,6662.2099609375,4279.61328125,12220.5419921875,9447.7333984375,24665.990234375,-1951.0587158203125,882.1487426757812,5731.58251953125,15421.7080078125,-8291.4033203125,3511.90576171875,20195.642578125,-10465.78125,-6455.580078125,4444.1220703125,11859.734375,12540.0224609375,7008.71142578125,9548.6640625,6277.56103515625,-0.0,4542.6689453125,29257.138671875,32668.11328125,9706.0205078125,20133.654296875,16059.080078125,-4316.9658203125,-4960.69580078125,5308.787109375,16525.587890625,10277.4306640625,14248.6884765625,11270.8408203125,1962.1849365234375,251.928955078125,11963.8447265625,0.0,3881.45458984375,8196.0361328125,7967.94873046875,6755.193359375,13352.234375,9946.0283203125,17646.947265625,-14766.056640625,2904.73291015625,9802.1826171875,4072.189453125,3339.44970703125,1315.2757568359375,0.0,10441.939453125
5960.46435546875,3170.17236328125,16367.435546875,8974.8701171875,18281.9375,6627.24169921875,9694.8935546875,14680.2265625,6450.81201171875,9540.716796875,11027.6533203125,8975.6650390625,-5407.33349609375,0.0,11522.76953125,13392.765625,2469.221923828125,3235.340087890625,4438.55908203125,6800.49267578125,4402.79638671875,12348.4921875,9568.5322265625,24795.53125,-1838.207275390625,1009.3053588867188,5849.20263671875,15553.6337890625,-8188.8837890625,3642.2412109375,20319.62109375,-10352.134765625,-6325.2451171875,4568.10009765625,11980.533203125,12667.1787109375,7129.51025390625,9676.615234375,6388.8232421875,-0.0,4653.1357421875,29384.294921875,32781.76171875,9836.3564453125,20260.015625,16194.185546875,-4188.2197265625,-4813.6708984375,5412.1015625,16654.333984375,10391.076171875,14382.998046875,11396.408203125,2051.9892578125,368.7540588378906,12086.232421875,0.0,4040.400146484375,8322.3984375,8108.61572265625,6871.2236328125,13476.212890625,10075.5693359375,17792.3828125,-14650.02734375,3025.53173828125,9915.8291015625,4210.47216796875,3474.553466796875,1459.91650390625,0.0,10601.6796875
5942.18603515625,3116.130859375,16338.8251953125,8911.2919921875,18250.146484375,6588.30029296875,9666.283203125,14655.58984375,6419.02294921875,9508.1328125,10994.275390625,8943.875,-5422.43359375,0.0,11510.0546875,13368.923828125,2438.227294921875,3204.345703125,4407.564453125,6768.70361328125,4371.8017578125,12310.345703125,9539.126953125,24762.94921875,-1867.6121826171875,972.747802734375,5822.181640625,15518.6650390625,-8208.751953125,3603.29931640625,20285.447265625,-10379.1552734375,-6348.2919921875,4519.62158203125,11949.5390625,12633.005859375,7100.900390625,9647.2099609375,6296.634765625,-0.0,4616.57861328125,29338.201171875,32753.150390625,9802.9775390625,20231.404296875,16165.5751953125,-4210.47216796875,-4831.94970703125,5381.107421875,16616.185546875,10377.56640625,14359.15625,11376.5400390625,2008.279052734375,345.7069396972656,12048.0849609375,0.0,4053.91064453125,8293.7880859375,8083.18408203125,6837.0498046875,13443.62890625,10046.1640625,17743.111328125,-14678.6376953125,2985.795166015625,9901.5234375,4176.298828125,3449.1220703125,1426.537841796875,0.0,10557.1748046875
5898.4755859375,3080.3681640625,16281.6044921875,8849.3037109375,18192.1328125,6519.953125,9605.884765625,14595.9853515625,6353.06005859375,9437.4013671875,10935.4658203125,8885.06640625,-5453.427734375,0.0,11465.5498046875,13308.525390625,2377.827880859375,3142.35693359375,4343.986328125,6695.58837890625,4310.60791015625,12246.767578125,9478.728515625,24698.576171875,-1924.0379638671875,908.374755859375,5758.603515625,15451.11328125,-8257.2294921875,3527.80029296875,20222.6640625,-10431.607421875,-6412.6650390625,4455.24853515625,11888.3447265625,12567.837890625,7040.50048828125,9583.6328125,6260.8720703125,-0.0,4560.15234375,29269.853515625,32693.546875,9738.6044921875,20167.828125,16099.611328125,-4254.18212890625,-4897.91259765625,5331.03955078125,16540.685546875,10334.6513671875,14299.5517578125,11321.7041015625,1982.847900390625,293.2548522949219,11979.7392578125,0.0,4014.96875,8231.00390625,8021.1953125,6783.0087890625,13381.640625,9980.2021484375,17660.458984375,-14736.65234375,2926.190673828125,9859.40234375,4104.77294921875,3375.21240234375,1356.6016845703125,0.0,10468.9599609375
5884.96533203125,3076.394287109375,16269.68359375,8815.9248046875,18171.46875,6497.701171875,9582.04296875,14554.66015625,6326.03955078125,9386.5390625,10911.6240234375,8862.8134765625,-5481.2431640625,0.0,11463.9599609375,13264.01953125,2356.3701171875,3120.1044921875,4317.76025390625,6655.0576171875,4291.5341796875,12225.310546875,9457.2705078125,24671.5546875,-1952.648193359375,890.0960083007812,5749.06689453125,15418.529296875,-8284.2509765625,3495.21630859375,20202.794921875,-10452.2705078125,-6437.3017578125,4439.35400390625,11869.271484375,12544.791015625,7018.248046875,9554.2265625,6280.740234375,-0.0,4543.46337890625,29251.576171875,32676.060546875,9709.19921875,20143.986328125,16058.287109375,-4285.1767578125,-4917.7802734375,5314.35009765625,16515.255859375,10329.8828125,14256.63671875,11298.65625,1984.437255859375,268.6182556152344,11963.8447265625,0.0,3953.77490234375,8212.7255859375,7963.1806640625,6761.55078125,13357.0029296875,9947.6171875,17597.67578125,-14762.87890625,2903.1435546875,9856.2236328125,4057.88427734375,3363.29150390625,1269.181640625,0.0,10372.0029296875
5853.17626953125,3042.22119140625,16240.2783203125,8763.47265625,18145.2421875,6473.064453125,9557.40625,14524.4599609375,6300.6083984375,9364.287109375,10878.2451171875,8834.998046875,-5506.67431640625,0.0,11440.1181640625,13234.615234375,2327.760009765625,3094.673095703125,4289.9453125,6631.21533203125,4265.30859375,12198.2890625,9429.455078125,24643.740234375,-1978.07958984375,864.6647338867188,5729.9931640625,15389.9189453125,-8305.708984375,3454.685302734375,20176.568359375,-10484.8544921875,-6463.52783203125,4406.77001953125,11843.8408203125,12516.1806640625,6991.2275390625,9527.2060546875,6234.64599609375,-0.0,4525.1845703125,29222.96484375,32652.21875,9679.7939453125,20117.759765625,16032.060546875,-4326.50244140625,-4936.0595703125,5290.50830078125,16491.4140625,10305.2451171875,14226.4365234375,11256.53515625,1976.489990234375,234.44493103027344,11931.259765625,0.0,3906.091064453125,8187.2939453125,7939.3388671875,6733.7353515625,13331.572265625,9922.1865234375,17573.833984375,-14793.873046875,2868.97021484375,9832.3818359375,4047.552490234375,3339.44970703125,1250.108154296875,0.0,10351.33984375
5825.36083984375,3015.200439453125,16222.7958984375,8732.478515625,18129.349609375,6457.169921875,9543.8955078125,14512.5390625,6288.68701171875,9355.544921875,10855.9921875,8815.12890625,-5526.54248046875,0.0,11419.455078125,13221.1044921875,2307.09716796875,3077.98388671875,4276.4345703125,6620.8837890625,4243.8505859375,12179.2158203125,9415.1494140625,24628.638671875,-2000.3319091796875,841.6175537109375,5716.482421875,15380.3828125,-8324.7822265625,3445.1484375,20158.291015625,-10511.0810546875,-6481.01171875,4382.13330078125,11826.35546875,12498.6962890625,6976.12744140625,9514.4912109375,6193.31982421875,-0.0,4509.2900390625,29203.892578125,32637.119140625,9667.873046875,20104.25,16022.5234375,-4347.16552734375,-4967.0537109375,5270.64013671875,16477.904296875,10286.966796875,14214.515625,11221.568359375,1970.927001953125,210.6030731201172,11929.6708984375,0.0,3887.812255859375,8172.98876953125,7933.77587890625,6711.48291015625,13316.4716796875,9909.470703125,17566.681640625,-14817.71484375,2853.870361328125,9813.30859375,4048.347412109375,3325.939208984375,1272.3604736328125,0.0,10372.7978515625
5803.1083984375,2982.616455078125,16193.3896484375,8714.19921875,18105.5078125,6437.3017578125,9523.232421875,14496.6435546875,6274.38232421875,9339.650390625,10829.7666015625,8789.6982421875,-5551.9736328125,0.0,11397.998046875,13205.2109375,2282.46044921875,3054.936767578125,4255.771484375,6608.16796875,4217.62451171875,12156.962890625,9392.8974609375,24609.56640625,-2028.1474609375,813.8020629882812,5695.02490234375,15362.103515625,-8351.802734375,3431.637939453125,20132.064453125,-10537.306640625,-6512.80078125,4358.29150390625,11801.7197265625,12478.828125,6957.05419921875,9495.41796875,6163.9150390625,-0.0,4470.34814453125,29182.43359375,32613.27734375,9648.005859375,20086.765625,16004.244140625,-4371.00732421875,-5007.5849609375,5248.3876953125,16458.03515625,10266.3037109375,14199.416015625,11189.7783203125,1940.727294921875,183.58230590820312,11912.982421875,0.0,3862.380859375,8159.47802734375,7920.26513671875,6678.8994140625,13296.6044921875,9892.78125,17556.349609375,-14850.298828125,2824.465576171875,9792.6455078125,4034.04248046875,3322.76025390625,1269.181640625,0.0,10375.1826171875
5820.59228515625,2996.126953125,16207.6953125,8726.9140625,18113.455078125,6442.86474609375,9525.6162109375,14488.697265625,6278.35595703125,9326.9345703125,10842.482421875,8811.15625,-5540.84765625,0.0,11408.3291015625,13198.05859375,2290.407958984375,3062.089111328125,4258.15576171875,6602.60546875,4225.572265625,12164.91015625,9398.4599609375,24612.74609375,-2015.431640625,822.5440673828125,5702.97265625,15358.130859375,-8339.087890625,3434.022216796875,20139.216796875,-10524.5908203125,-6504.05859375,4369.41748046875,11807.2822265625,12485.9814453125,6961.822265625,9494.6220703125,6182.19384765625,-0.0,4471.14306640625,29190.3828125,32620.4296875,9648.7998046875,20091.533203125,15998.681640625,-4353.5234375,-5000.4326171875,5257.92431640625,16463.59765625,10275.8408203125,14190.673828125,11213.6201171875,1946.2904052734375,193.9137725830078,11904.2392578125,0.0,3844.10205078125,8165.0419921875,7899.60205078125,6688.43603515625,13299.783203125,9892.78125,17547.607421875,-14839.966796875,2830.8232421875,9802.1826171875,4001.458740234375,3342.62841796875,1220.703125,0.0,10324.3193359375
5819.00244140625,2998.510986328125,16193.3896484375,8722.94140625,18106.302734375,6425.380859375,9511.3115234375,14462.470703125,6256.8984375,9299.9140625,10841.6875,8809.56640625,-5534.490234375,0.0,11399.5869140625,13173.4208984375,2283.25537109375,3050.963134765625,4243.0556640625,6581.94189453125,4218.41943359375,12151.400390625,9385.7451171875,24594.46484375,-2018.6107177734375,816.9810180664062,5693.435546875,15334.2890625,-8339.087890625,3416.538330078125,20130.4765625,-10529.3583984375,-6508.0322265625,4359.880859375,11800.1298828125,12473.265625,6947.517578125,9475.548828125,6171.06787109375,-0.0,4471.9375,29176.87109375,32609.302734375,9631.31640625,20075.640625,15974.044921875,-4358.29150390625,-5005.20068359375,5251.56640625,16449.29296875,10266.3037109375,14166.83203125,11215.2099609375,1952.648193359375,188.35067749023438,11898.6767578125,0.0,3836.94970703125,8146.7626953125,7867.0185546875,6692.40966796875,13284.68359375,9873.7080078125,17519.79296875,-14836.7880859375,2838.7705078125,9795.029296875,3976.82177734375,3316.40234375,1177.787841796875,0.0,10279.01953125
5794.3662109375,2973.874267578125,16126.6328125,8745.98828125,18106.302734375,6420.6123046875,9500.98046875,14456.11328125,6237.82470703125,9294.3505859375,10832.9462890625,8796.0556640625,-5535.28466796875,0.0,11385.28125,13169.4482421875,2281.665771484375,3045.39990234375,4234.31396484375,6570.81591796875,4223.18798828125,12150.60546875,9380.9765625,24587.3125,-2022.584228515625,809.03369140625,5684.69384765625,15327.1357421875,-8344.650390625,3410.97509765625,20128.091796875,-10536.51171875,-6500.8798828125,4352.728515625,11798.541015625,12466.9072265625,6937.185546875,9468.396484375,6175.8359375,-0.0,4485.4482421875,29177.666015625,32602.947265625,9624.1640625,20058.951171875,15966.892578125,-4380.5439453125,-5029.04248046875,5251.56640625,16441.345703125,10252.79296875,14160.4736328125,11212.03125,1943.1114501953125,185.96649169921875,11892.318359375,0.0,3847.28125,8118.947265625,7861.455078125,6689.23046875,13275.146484375,9863.376953125,17516.61328125,-14835.1982421875,2834.796875,9780.724609375,3981.59033203125,3274.28173828125,1188.1192626953125,0.0,10292.5302734375
5786.4189453125,2978.642822265625,16199.7470703125,8764.2666015625,18124.580078125,6446.83837890625,9515.28515625,14482.3388671875,6233.85107421875,9315.80859375,10854.4033203125,8818.30859375,-5520.18505859375,0.0,11378.12890625,13194.87890625,2311.07080078125,3069.24169921875,4247.02978515625,6581.94189453125,4247.82421875,12178.4208984375,9400.8447265625,24612.74609375,-2005.1002197265625,836.8492431640625,5695.02490234375,15358.130859375,-8327.9609375,3438.79052734375,20156.701171875,-10511.875,-6465.1171875,4387.69677734375,11819.9990234375,12493.927734375,6951.49072265625,9489.0595703125,6119.41015625,-0.0,4506.111328125,29207.072265625,32618.83984375,9648.005859375,20062.12890625,15989.9384765625,-4351.13916015625,-5006.7900390625,5257.92431640625,16464.392578125,10244.8466796875,14187.4951171875,11224.7470703125,1959.80078125,210.6030731201172,11919.3388671875,0.0,3877.480712890625,8092.72119140625,7890.0654296875,6713.8671875,13298.98828125,9879.271484375,17535.685546875,-14818.5087890625,2862.612548828125,9771.9833984375,4027.6845703125,3239.313720703125,1231.829345703125,0.0,10325.908203125
5778.4716796875,3004.86865234375,16260.1474609375,8750.755859375,18126.169921875,6457.169921875,9520.8486328125,14495.849609375,6232.26171875,9329.3193359375,10863.9404296875,8820.693359375,-5517.005859375,0.0,11375.7451171875,13208.3896484375,2318.22314453125,3077.189208984375,4252.5927734375,6589.8896484375,4248.619140625,12185.5732421875,9405.61328125,24623.076171875,-1989.20556640625,847.9754028320312,5692.640625,15373.23046875,-8327.1669921875,3444.353759765625,20163.85546875,-10504.72265625,-6457.96435546875,4395.6435546875,11822.3828125,12502.669921875,6956.25927734375,9500.185546875,6107.4892578125,-0.0,4496.57421875,29211.044921875,32622.021484375,9662.310546875,20062.923828125,16000.2705078125,-4320.939453125,-4988.51171875,5262.69287109375,16473.134765625,10245.640625,14201.0048828125,11216.7998046875,1946.2904052734375,217.75563049316406,11930.4658203125,0.0,3893.37548828125,8099.0791015625,7909.138671875,6721.814453125,13306.935546875,9885.62890625,17555.5546875,-14816.125,2862.612548828125,9771.1875,4039.605712890625,3226.59814453125,1258.85009765625,0.0,10349.7509765625
5800.72412109375,3053.347412109375,16275.248046875,8780.9560546875,18146.833984375,6481.01171875,9544.6904296875,14522.8701171875,6265.64013671875,9352.3662109375,10886.1923828125,8841.35546875,-5493.958984375,0.0,11401.970703125,13234.615234375,2339.680908203125,3100.236083984375,4278.81884765625,6619.29443359375,4266.8974609375,12208.62109375,9428.66015625,24646.91796875,-1961.3902587890625,868.6383666992188,5714.8935546875,15401.0458984375,-8306.5029296875,3468.195556640625,20182.927734375,-10476.1123046875,-6451.60693359375,4417.1015625,11845.4296875,12526.51171875,6980.10107421875,9526.412109375,6290.27685546875,-0.0,4511.67431640625,29230.9140625,32645.064453125,9688.537109375,20090.73828125,16026.4970703125,-4285.1767578125,-4963.080078125,5290.50830078125,16499.361328125,10272.662109375,14228.8203125,11246.2041015625,1962.9796142578125,239.2133026123047,11951.923828125,0.0,3912.448974609375,8135.63623046875,7932.98046875,6749.6298828125,13330.77734375,9911.8544921875,17578.6015625,-14793.078125,2881.68603515625,9798.208984375,4043.5791015625,3282.229248046875,1263.618408203125,0.0,10364.0556640625
5843.63916015625,3060.5,16247.4306640625,8787.314453125,18142.064453125,6475.44873046875,9542.3056640625,14522.0751953125,6263.255859375,9339.650390625,10883.013671875,8836.5869140625,-5504.2900390625,0.0,11401.1767578125,13231.4365234375,2332.5283203125,3095.4677734375,4276.4345703125,6608.962890625,4260.5400390625,12201.46875,9424.6865234375,24642.1484375,-1962.9796142578125,863.8699951171875,5717.27734375,15400.25,-8312.861328125,3466.606201171875,20177.365234375,-10484.8544921875,-6467.5009765625,4410.74365234375,11839.8662109375,12520.154296875,6976.92236328125,9519.259765625,6320.4765625,-0.0,4505.31640625,29227.734375,32641.09375,9684.5625,20086.765625,16019.3447265625,-4289.150390625,-4959.9013671875,5284.150390625,16496.181640625,10270.2783203125,14224.8466796875,11267.662109375,1964.569091796875,224.90818786621094,11946.3603515625,0.0,3882.2490234375,8134.841796875,7924.2392578125,6754.3984375,13325.21484375,9906.2919921875,17558.732421875,-14795.462890625,2878.5068359375,9795.8251953125,3997.484619140625,3294.150146484375,1213.550537109375,0.0,10332.2666015625
5896.09130859375,3084.341796875,16256.9677734375,8816.71875,18178.62109375,6513.595703125,9576.4794921875,14553.8642578125,6295.04541015625,9370.64453125,10921.1611328125,8873.1455078125,-5481.2431640625,0.0,11432.96484375,13263.2255859375,2365.906982421875,3129.641357421875,4309.81298828125,6639.16259765625,4295.5078125,12238.8203125,9458.859375,24677.912109375,-1928.0115966796875,908.374755859375,5750.65625,15428.8603515625,-8281.8671875,3514.289794921875,20212.33203125,-10449.091796875,-6429.35400390625,4445.71142578125,11874.8349609375,12555.9169921875,7010.30126953125,9553.4326171875,6293.45556640625,-0.0,4545.05322265625,29273.033203125,32675.265625,9717.94140625,20120.939453125,16052.72265625,-4266.10302734375,-4929.701171875,5314.35009765625,16533.533203125,10300.4765625,14257.4306640625,11316.140625,1948.674560546875,243.18695068359375,11986.8916015625,0.0,3910.064697265625,8168.220703125,7951.259765625,6790.9560546875,13358.5927734375,9941.2607421875,17587.34375,-14754.1357421875,2922.217041015625,9827.6142578125,4012.584716796875,3332.297119140625,1235.00830078125,0.0,10353.724609375
5879.40234375,3070.03662109375,16247.4306640625,8823.8720703125,18192.1328125,6525.5166015625,9588.400390625,14561.0166015625,6310.93994140625,9386.5390625,10927.517578125,8866.787109375,-5469.322265625,0.0,11452.0390625,13272.7626953125,2372.264892578125,3140.767333984375,4320.939453125,6654.2626953125,4306.63427734375,12253.9208984375,9471.576171875,24689.0390625,-1925.6273193359375,921.0904541015625,5755.42431640625,15436.80859375,-8271.53515625,3516.674072265625,20219.484375,-10441.939453125,-6424.5859375,4457.63232421875,11883.576171875,12568.6328125,7023.8115234375,9566.1474609375,6306.96630859375,-0.0,4558.5634765625,29297.669921875,32685.595703125,9727.478515625,20136.037109375,16064.6435546875,-4271.666015625,-4978.974609375,5332.62890625,16539.09765625,10319.55078125,14266.173828125,11317.7294921875,1928.0115966796875,264.6446228027344,11986.8916015625,0.0,3922.780517578125,8184.115234375,7961.5908203125,6784.59765625,13369.7197265625,9955.5654296875,17604.828125,-14744.599609375,2924.601318359375,9846.6875,4042.7841796875,3353.754638671875,1261.2342529296875,0.0,10369.6181640625
