-14777.9775390625,-15884.2412109375,-5559.12646484375,-1476.605712890625,-1687.208740234375,8370.8759765625,-5553.5634765625,-2824.465576171875,-1396.338134765625,5742.70849609375,-8148.3525390625,-13035.93359375,-3585.8154296875,4827.97607421875,-260.6709899902344,-9530.384765625,-917.9114990234375,-114.44091796875,2596.37841796875,12688.63671875,1884.301513671875,5776.08740234375,-1260.4395751953125,11583.9638671875,-3968.080078125,-6565.2529296875,-4556.17919921875,-4248.619140625,-8053.77978515625,-3232.161376953125,3189.245849609375,1626.8094482421875,-548.3627319335938,-1598.19921875,-2683.003662109375,3353.754638671875,-4377.365234375,15079.9755859375,-5500.31640625,-0.0,-8391.5400390625,4910.6279296875,-6302.19775390625,-4607.0419921875,-1099.9044189453125,5243.61962890625,-7661.97802734375,784.3970947265625,-6078.08447265625,-3681.9775390625,-2315.839111328125,6326.03955078125,8463.859375,-21479.92578125,-9253.8193359375,-1164.2774658203125,929.0377197265625,-9834.7666015625,-1864.433349609375,-3949.006591796875,-16236.3056640625,318.6861572265625,-1478.1951904296875,1625.219970703125,-11201.69921875,-3167.788330078125,0.0,-1444.816650390625,0.0,-3473.7587890625,-0.0,2249.081787109375
-14791.48828125,-15888.2138671875,-5550.384765625,-1469.4532470703125,-1676.0826416015625,8374.0546875,-5544.8212890625,-2820.49169921875,-1392.364501953125,5750.65625,-8141.2001953125,-13039.90625,-3587.405029296875,4829.5654296875,-241.5974884033203,-9535.94921875,-913.1431884765625,-107.28836059570312,2601.94140625,12694.9951171875,1892.248779296875,5781.650390625,-1252.4923095703125,11588.732421875,-3957.74853515625,-6558.10009765625,-4542.6689453125,-4251.00341796875,-8046.626953125,-3233.75048828125,3195.603515625,1630.7830810546875,-541.210205078125,-1592.6361083984375,-2675.85107421875,3360.112548828125,-4370.21240234375,15083.1533203125,-5498.7275390625,-0.0,-8381.20703125,4916.19091796875,-6292.6611328125,-4605.4521484375,-1092.7518310546875,5249.18212890625,-7655.62060546875,790.7549438476562,-6066.9580078125,-3687.540771484375,-2298.35498046875,6326.833984375,8613.2685546875,-21457.671875,-9248.2568359375,-1172.224609375,938.574462890625,-9822.845703125,-1858.8701171875,-3928.34326171875,-16233.1259765625,325.04400634765625,-1471.0426025390625,1630.7830810546875,-11196.13671875,-3170.967041015625,0.0,-1435.27978515625,0.0,-3463.42724609375,-0.0,2253.850341796875
-14770.8251953125,-15873.11328125,-5534.490234375,-1448.7901611328125,-1659.393310546875,8396.3076171875,-5525.74755859375,-2798.239501953125,-1380.443603515625,5769.7294921875,-8131.6630859375,-13027.19140625,-3563.56298828125,4822.4130859375,-213.78199768066406,-9512.1064453125,-892.480224609375,-85.03595733642578,2621.809814453125,12706.916015625,1910.527587890625,5802.3134765625,-1234.2135009765625,11608.6005859375,-3942.6484375,-6532.6689453125,-4525.1845703125,-4222.39306640625,-8034.7060546875,-3213.087890625,3213.88232421875,1652.24072265625,-522.931396484375,-1573.5626220703125,-2655.98291015625,3381.570068359375,-4350.34423828125,15105.4072265625,-5476.474609375,-0.0,-8363.7236328125,4941.6220703125,-6274.38232421875,-4582.4052734375,-1075.267822265625,5271.4345703125,-7641.3154296875,809.8284301757812,-6053.44775390625,-3669.261962890625,-2272.923828125,6350.67626953125,8911.2919921875,-21437.802734375,-9235.541015625,-1161.8931884765625,968.774169921875,-9786.2880859375,-1831.8494873046875,-3900.52783203125,-16217.2314453125,344.11749267578125,-1454.353271484375,1631.577880859375,-11186.599609375,-3143.9462890625,0.0,-1400.311767578125,0.0,-3444.353759765625,-0.0,2261.002685546875
-14770.03125,-15885.830078125,-5551.17919921875,-1467.0689697265625,-1677.6719970703125,8381.20703125,-5543.23193359375,-2817.31298828125,-1392.364501953125,5755.42431640625,-8149.14697265625,-13046.2646484375,-3562.768310546875,4816.85009765625,-247.16058349609375,-9531.1806640625,-905.1958618164062,-101.72525787353516,2605.120361328125,12696.583984375,1894.6329345703125,5788.80322265625,-1250.90283203125,11593.5009765625,-3959.337646484375,-6546.17919921875,-4548.2314453125,-4242.26123046875,-8049.01123046875,-3226.59814453125,3198.78271484375,1639.5250244140625,-537.2365112304688,-1586.2783203125,-2671.877685546875,3366.47021484375,-4368.623046875,15088.7177734375,-5491.57470703125,-0.0,-8378.8232421875,4928.90673828125,-6293.45556640625,-4596.7099609375,-1089.5728759765625,5249.18212890625,-7659.59423828125,791.5496826171875,-6075.7001953125,-3677.209228515625,-2305.507568359375,6330.80810546875,8670.4892578125,-21463.236328125,-9249.8466796875,-1185.735107421875,959.2374267578125,-9810.9248046875,-1842.9755859375,-3930.7275390625,-16232.33203125,328.222900390625,-1470.2479248046875,1621.246337890625,-11202.494140625,-3153.483154296875,0.0,-1390.7750244140625,0.0,-3443.558837890625,-0.0,2250.67138671875
-14781.9521484375,-15886.625,-5556.7421875,-1468.658447265625,-1685.619384765625,8378.029296875,-5549.58984375,-2818.107666015625,-1392.364501953125,5749.06689453125,-8155.50537109375,-13037.5224609375,-3582.636474609375,4826.38671875,-255.90261840820312,-9540.716796875,-909.1694946289062,-108.08309173583984,2600.35205078125,12696.583984375,1889.0699462890625,5784.03466796875,-1256.4659423828125,11589.52734375,-3968.080078125,-6553.33203125,-4559.35791015625,-4245.43994140625,-8058.5478515625,-3227.392822265625,3194.014404296875,1634.7567138671875,-541.210205078125,-1589.4571533203125,-2679.0302734375,3361.701904296875,-4373.3916015625,15085.5380859375,-5496.34326171875,-0.0,-8386.771484375,4922.548828125,-6300.6083984375,-4600.68359375,-1092.7518310546875,5251.56640625,-7663.56787109375,791.5496826171875,-6086.03125,-3681.9775390625,-2315.04443359375,6330.01318359375,8034.7060546875,-21472.7734375,-9258.587890625,-1180.9666748046875,925.0640869140625,-9826.0244140625,-1858.8701171875,-3935.495849609375,-16232.33203125,322.6598205566406,-1473.4267578125,1623.6304931640625,-11210.44140625,-3159.046142578125,0.0,-1410.6431884765625,0.0,-3465.0166015625,-0.0,2241.92919921875
-14758.1103515625,-15864.3720703125,-5537.6689453125,-1442.432373046875,-1666.5458984375,8401.87109375,-5531.31103515625,-2802.212890625,-1380.443603515625,5762.5771484375,-8131.6630859375,-13003.349609375,-3569.9208984375,4837.51318359375,-226.49765014648438,-9522.4384765625,-893.2749633789062,-92.98324584960938,2617.041259765625,12710.0947265625,1905.7591552734375,5802.3134765625,-1240.5714111328125,11607.0107421875,-3948.211669921875,-6535.05322265625,-4535.51611328125,-4222.39306640625,-8038.68017578125,-3195.603515625,3210.70361328125,1653.0355224609375,-525.3156127929688,-1571.178466796875,-2660.75146484375,3379.980712890625,-4355.9072265625,15104.611328125,-5480.4482421875,-0.0,-8369.2861328125,4941.6220703125,-6281.53466796875,-4581.6103515625,-1075.267822265625,5267.46142578125,-7645.2890625,815.3915405273438,-6062.189453125,-3650.1884765625,-2284.050048828125,6347.49755859375,7456.14404296875,-21449.724609375,-9239.5146484375,-1146.7933349609375,948.9059448242188,-9814.103515625,-1842.9755859375,-3912.448974609375,-16204.515625,338.55438232421875,-1459.1217041015625,1628.39892578125,-11188.984375,-3139.97265625,0.0,-1405.8748779296875,0.0,-3447.53271484375,-0.0,2248.287109375
-14723.9375,-15870.7294921875,-5509.853515625,-1414.616943359375,-1633.9620361328125,8432.0703125,-5503.49560546875,-2777.576416015625,-1366.138427734375,5788.00830078125,-8099.0791015625,-12972.3544921875,-3527.80029296875,4835.923828125,-174.8402862548828,-9485.880859375,-868.6383666992188,-66.7572021484375,2641.677734375,12725.1943359375,1933.57470703125,5829.33447265625,-1212.755859375,11632.4423828125,-3915.6279296875,-6496.111328125,-4494.1904296875,-4192.98779296875,-7999.73779296875,-3169.377685546875,3235.340087890625,1680.0562744140625,-499.08953857421875,-1544.952392578125,-2635.320068359375,3405.411865234375,-4328.09228515625,15126.8642578125,-5453.427734375,-0.0,-8340.6767578125,4973.41162109375,-6248.951171875,-4553.794921875,-1050.6312255859375,5288.1240234375,-7618.2685546875,844.7965087890625,-6023.248046875,-3618.3994140625,-2233.1875,6374.51806640625,6904.60205078125,-21422.705078125,-9201.3671875,-1118.18310546875,1014.07373046875,-9779.1357421875,-1815.954833984375,-3890.196533203125,-16174.31640625,363.9856872558594,-1436.8692626953125,1635.551513671875,-11150.04296875,-3105.79931640625,0.0,-1375.6751708984375,0.0,-3410.180419921875,-0.0,2269.744873046875
-14743.8046875,-15923.9765625,-5519.39013671875,-1428.9219970703125,-1648.26708984375,8427.302734375,-5518.59521484375,-2782.3447265625,-1372.4962158203125,5775.29296875,-8109.41015625,-12978.712890625,-3546.873779296875,4838.3076171875,-209.0136260986328,-9478.728515625,-878.1751098632812,-78.67813110351562,2628.962158203125,12713.2734375,1921.65380859375,5819.79736328125,-1227.0609130859375,11624.4951171875,-3928.34326171875,-6480.216796875,-4518.0322265625,-4188.2197265625,-8014.83837890625,-3185.272216796875,3225.0087890625,1669.724853515625,-510.21575927734375,-1552.899658203125,-2648.03564453125,3398.259521484375,-4343.19140625,15118.1220703125,-5473.2958984375,-0.0,-8352.59765625,4975.7958984375,-6266.43505859375,-4557.7685546875,-1064.936279296875,5281.7666015625,-7627.01025390625,831.2861328125,-6040.73193359375,-3627.93603515625,-2266.56591796875,6374.51806640625,5625.08935546875,-21446.546875,-9217.2626953125,-1132.48828125,984.668701171875,-9793.4404296875,-1815.16015625,-3890.9912109375,-16189.4169921875,352.06475830078125,-1448.7901611328125,1629.98828125,-11155.60546875,-3105.004638671875,0.0,-1386.8013916015625,0.0,-3423.69091796875,-0.0,2261.797607421875
-14778.7734375,-15959.7392578125,-5551.17919921875,-1448.7901611328125,-1683.235107421875,8394.7177734375,-5547.20556640625,-2804.59716796875,-1389.185546875,5747.47705078125,-8141.99462890625,-13007.3232421875,-3585.020751953125,4832.74462890625,-263.05517578125,-9496.2119140625,-905.1958618164062,-106.4936294555664,2603.53076171875,12699.763671875,1891.4541015625,5790.392578125,-1257.2606201171875,11595.8857421875,-3960.927490234375,-6508.0322265625,-4559.35791015625,-4227.9560546875,-8053.77978515625,-3209.114013671875,3196.3984375,1643.498779296875,-539.6207275390625,-1579.125732421875,-2678.2353515625,3368.059814453125,-4371.8017578125,15093.4853515625,-5497.9326171875,-0.0,-8384.38671875,4947.98046875,-6299.01904296875,-4589.5576171875,-1090.36767578125,5263.4873046875,-7654.82568359375,811.4179077148438,-6084.4423828125,-3666.0830078125,-2319.812744140625,6349.0869140625,4962.28564453125,-21488.666015625,-9254.615234375,-1163.482666015625,922.679931640625,-9775.9560546875,-1835.822998046875,-3901.322509765625,-16220.4111328125,325.04400634765625,-1471.0426025390625,1618.8621826171875,-11188.189453125,-3130.43603515625,0.0,-1393.9539794921875,0.0,-3444.353759765625,-0.0,2239.545166015625
-14785.92578125,-15923.181640625,-5549.58984375,-1448.7901611328125,-1680.8509521484375,8382.796875,-5547.20556640625,-2813.33935546875,-1389.185546875,5757.013671875,-8144.37890625,-13015.2705078125,-3588.19970703125,4831.1552734375,-258.28680419921875,-9506.54296875,-905.1958618164062,-108.08309173583984,2603.53076171875,12702.1474609375,1890.6593017578125,5786.4189453125,-1258.0552978515625,11590.3212890625,-3960.132568359375,-6548.5634765625,-4549.8212890625,-4236.6982421875,-8052.9853515625,-3210.70361328125,3194.014404296875,1644.29345703125,-538.03125,-1580.7152099609375,-2679.0302734375,3364.086181640625,-4370.21240234375,15087.921875,-5487.6005859375,-0.0,-8382.0029296875,4933.67529296875,-6296.634765625,-4597.5048828125,-1091.95703125,5249.18212890625,-7654.03125,811.4179077148438,-6077.28955078125,-3670.8515625,-2316.634033203125,6337.9609375,5936.62255859375,-21484.693359375,-9254.615234375,-1153.9459228515625,933.0113525390625,-9768.0087890625,-1856.4859619140625,-3924.369873046875,-16227.5634765625,322.6598205566406,-1471.83740234375,1618.0673828125,-11193.751953125,-3135.204345703125,0.0,-1402.696044921875,0.0,-3458.658935546875,-0.0,2233.1875
-14790.6943359375,-15865.9609375,-5531.31103515625,-1441.6376953125,-1664.9564208984375,8397.1025390625,-5535.28466796875,-2805.39208984375,-1389.185546875,5758.603515625,-8130.8681640625,-13001.759765625,-3573.099853515625,4813.6708984375,-236.82911682128906,-9510.517578125,-891.6854858398438,-92.98324584960938,2616.24658203125,12702.1474609375,1906.5538330078125,5801.51904296875,-1243.750244140625,11603.83203125,-3943.443359375,-6531.8740234375,-4533.1318359375,-4224.77734375,-8037.09033203125,-3197.193115234375,3209.90869140625,1656.21435546875,-521.3419799804688,-1567.99951171875,-2664.72509765625,3378.391357421875,-4359.08642578125,15098.25390625,-5468.52734375,-0.0,-8365.3134765625,4943.2119140625,-6283.9189453125,-4584.7890625,-1084.009765625,5258.71875,-7638.13623046875,816.9810180664062,-6058.21630859375,-3654.162109375,-2296.765625,6344.318359375,8288.224609375,-21464.82421875,-9238.7197265625,-1141.230224609375,951.2901611328125,-9764.03515625,-1849.3333740234375,-3918.01220703125,-16214.84765625,336.9649353027344,-1463.89013671875,1612.50439453125,-11183.4208984375,-3122.48876953125,0.0,-1411.43798828125,0.0,-3461.837890625,-0.0,2229.213623046875
-14785.92578125,-15885.830078125,-5524.15869140625,-1439.25341796875,-1664.16162109375,8401.076171875,-5535.28466796875,-2801.418212890625,-1388.390869140625,5751.451171875,-8129.279296875,-12993.0185546875,-3573.89453125,4817.64453125,-240.00804138183594,-9504.9541015625,-882.1487426757812,-89.00960540771484,2619.425537109375,12703.736328125,1910.527587890625,5804.69775390625,-1241.3660888671875,11608.6005859375,-3938.6748046875,-6526.3115234375,-4540.28466796875,-4224.77734375,-8034.7060546875,-3198.78271484375,3213.88232421875,1659.393310546875,-516.5736083984375,-1563.2310791015625,-2660.75146484375,3383.954345703125,-4357.49658203125,15103.0224609375,-5459.78564453125,-0.0,-8361.33984375,4947.185546875,-6283.9189453125,-4580.81591796875,-1084.009765625,5264.2822265625,-7626.21533203125,817.7757568359375,-6061.39501953125,-3658.930419921875,-2298.35498046875,6352.265625,10534.9228515625,-21457.671875,-9235.541015625,-1141.230224609375,936.9849853515625,-9773.572265625,-1842.180908203125,-3920.396240234375,-16209.2841796875,341.7333068847656,-1459.1217041015625,1628.39892578125,-11180.2412109375,-3120.899169921875,0.0,-1439.25341796875,0.0,-3465.8115234375,-0.0,2250.67138671875
-14767.646484375,-15924.7724609375,-5532.900390625,-1463.0953369140625,-1674.4931640625,8388.3603515625,-5543.23193359375,-2816.51806640625,-1388.390869140625,5766.55078125,-8138.0205078125,-13008.1171875,-3581.841796875,4832.74462890625,-248.75006103515625,-9543.1015625,-892.480224609375,-98.54634857177734,2610.683349609375,12703.736328125,1901.7855224609375,5792.7763671875,-1250.108154296875,11596.6796875,-3947.416748046875,-6534.25830078125,-4550.61572265625,-4248.619140625,-8044.24267578125,-3209.90869140625,3205.140380859375,1654.625,-526.905029296875,-1572.767822265625,-2670.2880859375,3371.23876953125,-4366.2392578125,15092.6904296875,-5474.88525390625,-0.0,-8368.4921875,4941.6220703125,-6293.45556640625,-4597.5048828125,-1089.5728759765625,5255.54052734375,-7638.93115234375,793.13916015625,-6070.93212890625,-3680.38818359375,-2305.507568359375,6326.03955078125,10707.3779296875,-21455.287109375,-9246.6669921875,-1161.0985107421875,932.2166748046875,-9806.15625,-1842.9755859375,-3914.0380859375,-16206.1064453125,330.6070861816406,-1466.2742919921875,1656.21435546875,-11187.39453125,-3147.919921875,0.0,-1435.27978515625,0.0,-3432.432861328125,-0.0,2289.613037109375
-14775.59375,-15905.69921875,-5535.28466796875,-1463.89013671875,-1685.619384765625,8378.8232421875,-5555.94775390625,-2825.26025390625,-1395.54345703125,5761.7822265625,-8150.73681640625,-13025.6015625,-3596.146728515625,4823.2080078125,-276.5655517578125,-9557.40625,-904.401123046875,-108.08309173583984,2599.55712890625,12698.173828125,1893.04345703125,5783.23974609375,-1261.2342529296875,11586.3486328125,-3960.132568359375,-6541.4111328125,-4564.9208984375,-4258.95068359375,-8051.3955078125,-3216.2666015625,3194.80908203125,1645.8829345703125,-535.6470947265625,-1581.5098876953125,-2679.82470703125,3360.9072265625,-4377.365234375,15083.1533203125,-5492.369140625,-0.0,-8378.029296875,4931.291015625,-6304.58203125,-4605.4521484375,-1099.109619140625,5250.77197265625,-7654.03125,795.5233154296875,-6082.85302734375,-3679.59326171875,-2331.733642578125,6315.7080078125,9180.705078125,-21458.466796875,-9253.8193359375,-1175.403564453125,915.52734375,-9864.966796875,-1858.8701171875,-3920.396240234375,-16198.158203125,320.275634765625,-1475.0162353515625,1641.9093017578125,-11193.751953125,-3172.556640625,0.0,-1442.432373046875,0.0,-3437.201171875,-0.0,2278.487060546875
-14799.435546875,-15881.8564453125,-5537.6689453125,-1446.406005859375,-1683.235107421875,8370.08203125,-5554.35791015625,-2822.081298828125,-1397.9276123046875,5746.6826171875,-8151.53125,-13026.396484375,-3588.994384765625,4824.79736328125,-268.6182556152344,-9547.8701171875,-908.374755859375,-108.87781524658203,2597.173095703125,12688.63671875,1890.6593017578125,5779.2666015625,-1261.2342529296875,11584.7587890625,-3958.543212890625,-6563.66357421875,-4559.35791015625,-4254.18212890625,-8049.01123046875,-3217.061279296875,3193.219482421875,1641.9093017578125,-536.4417724609375,-1584.6888427734375,-2679.82470703125,3355.343994140625,-4378.16015625,15081.564453125,-5501.90576171875,-0.0,-8378.029296875,4915.39599609375,-6302.19775390625,-4607.0419921875,-1099.9044189453125,5248.3876953125,-7652.44140625,814.5968017578125,-6078.87890625,-3689.130126953125,-2323.786376953125,6322.06591796875,7197.85693359375,-21468.00390625,-9251.435546875,-1179.377197265625,918.7062377929688,-9885.62890625,-1859.6649169921875,-3925.959228515625,-16205.310546875,320.275634765625,-1477.400390625,1633.9620361328125,-11192.162109375,-3174.14599609375,0.0,-1436.0745849609375,0.0,-3449.916748046875,-0.0,2268.1552734375
-14793.873046875,-15877.0888671875,-5544.02685546875,-1447.2008056640625,-1672.9036865234375,8379.6181640625,-5540.052734375,-2810.955078125,-1388.390869140625,5750.65625,-8137.22607421875,-13020.8330078125,-3566.741943359375,4840.69189453125,-241.5974884033203,-9527.2060546875,-896.453857421875,-101.72525787353516,2608.29931640625,12703.736328125,1899.4013671875,5788.00830078125,-1248.5185546875,11595.08984375,-3949.006591796875,-6554.126953125,-4541.8740234375,-4244.6455078125,-8037.09033203125,-3209.114013671875,3202.756103515625,1657.0091552734375,-527.6997680664062,-1579.92041015625,-2669.493408203125,3363.29150390625,-4365.4443359375,15093.4853515625,-5457.4013671875,-0.0,-8370.8759765625,4922.548828125,-6291.0712890625,-4597.5048828125,-1085.5992431640625,5258.71875,-7650.85205078125,813.00732421875,-6065.36865234375,-3679.59326171875,-2296.765625,6333.98681640625,6112.25732421875,-21469.59375,-9239.5146484375,-1173.814208984375,947.3164672851562,-9864.1708984375,-1839.001953125,-3911.654052734375,-16205.310546875,329.8123779296875,-1464.684814453125,1656.21435546875,-11187.39453125,-3167.788330078125,0.0,-1417.0010986328125,0.0,-3447.53271484375,-0.0,2291.997314453125
-14794.6669921875,-15917.6201171875,-5527.33740234375,-1440.0482177734375,-1660.1881103515625,8386.771484375,-5532.900390625,-2812.544677734375,-1380.443603515625,5753.04052734375,-8118.15283203125,-13013.6806640625,-3554.0263671875,4848.63916015625,-228.0871124267578,-9534.359375,-886.9171142578125,-94.57270050048828,2613.067626953125,12706.916015625,1910.527587890625,5796.75048828125,-1242.1607666015625,11598.26953125,-3936.290771484375,-6546.17919921875,-4529.953125,-4244.6455078125,-8023.57958984375,-3200.3720703125,3211.498291015625,1667.340576171875,-515.7788696289062,-1569.5889892578125,-2659.956787109375,3370.444091796875,-4356.7021484375,15095.07421875,-5441.5068359375,-0.0,-8358.955078125,4935.2646484375,-6279.150390625,-4593.53125,-1077.6519775390625,5256.3349609375,-7636.546875,817.7757568359375,-6053.44775390625,-3674.0302734375,-2283.25537109375,6330.01318359375,5708.53564453125,-21459.26171875,-9224.4150390625,-1169.0457763671875,964.0057983398438,-9860.9921875,-1828.6705322265625,-3925.959228515625,-16202.130859375,336.9649353027344,-1461.505859375,1671.314208984375,-11173.0888671875,-3163.019775390625,0.0,-1447.9954833984375,0.0,-3458.658935546875,-0.0,2315.839111328125
-14811.3564453125,-15900.134765625,-5526.54248046875,-1455.9427490234375,-1666.5458984375,8378.029296875,-5542.43701171875,-2819.697021484375,-1385.2119140625,5752.24560546875,-8122.12646484375,-13027.19140625,-3571.51025390625,4850.22900390625,-240.00804138183594,-9543.1015625,-896.453857421875,-102.51998901367188,2604.325439453125,12700.5576171875,1903.375,5784.03466796875,-1250.108154296875,11588.732421875,-3941.85400390625,-6558.10009765625,-4540.28466796875,-4253.3876953125,-8036.2958984375,-3211.498291015625,3201.96142578125,1653.0355224609375,-522.931396484375,-1579.92041015625,-2667.90380859375,3361.701904296875,-4365.4443359375,15088.7177734375,-5474.88525390625,-0.0,-8362.9296875,4922.548828125,-6288.68701171875,-4603.06787109375,-1086.3939208984375,5250.77197265625,-7638.93115234375,804.2653198242188,-6061.39501953125,-3684.36181640625,-2295.17626953125,6324.4501953125,6004.96923828125,-21461.64453125,-9236.3359375,-1188.1192626953125,951.2901611328125,-9872.119140625,-1842.180908203125,-3933.906494140625,-16218.02734375,329.8123779296875,-1469.4532470703125,1664.9564208984375,-11183.4208984375,-3175.7353515625,0.0,-1484.552978515625,0.0,-3467.40087890625,-0.0,2307.09716796875
-14779.5673828125,-15884.2412109375,-5535.28466796875,-1467.8636474609375,-1673.698486328125,8368.4921875,-5547.20556640625,-2826.849609375,-1397.1328125,5741.119140625,-8131.6630859375,-13039.1123046875,-3572.304931640625,4827.18115234375,-243.98167419433594,-9551.0478515625,-903.6064453125,-110.46727752685547,2598.762451171875,12695.7890625,1895.427734375,5777.67724609375,-1254.87646484375,11583.1689453125,-3943.443359375,-6565.2529296875,-4545.05322265625,-4262.12939453125,-8037.884765625,-3224.2138671875,3194.014404296875,1646.6776123046875,-532.4681396484375,-1587.86767578125,-2674.26171875,3354.54931640625,-4371.00732421875,15081.564453125,-5498.7275390625,-0.0,-8368.4921875,4916.19091796875,-6294.25048828125,-4611.81005859375,-1092.7518310546875,5246.00341796875,-7643.69970703125,790.7549438476562,-6070.93212890625,-3693.103759765625,-2299.149658203125,6318.88720703125,6617.705078125,-21497.408203125,-9239.5146484375,-1206.39794921875,944.9323120117188,-9891.9873046875,-1831.0546875,-3937.880126953125,-16210.0791015625,322.6598205566406,-1475.81103515625,1655.419677734375,-11186.599609375,-3185.272216796875,0.0,-1502.831787109375,0.0,-3473.7587890625,-0.0,2295.970947265625
-14777.9775390625,-15920.796875,-5547.20556640625,-1472.632080078125,-1680.0562744140625,8369.2861328125,-5551.17919921875,-2828.43896484375,-1398.7222900390625,5743.50341796875,-8141.99462890625,-13045.470703125,-3575.484130859375,4817.64453125,-247.16058349609375,-9543.8955078125,-911.5537109375,-114.44091796875,2596.37841796875,12689.431640625,1889.0699462890625,5776.08740234375,-1259.6448974609375,11582.375,-3953.77490234375,-6564.45849609375,-4547.43701171875,-4263.71923828125,-8045.037109375,-3231.366455078125,3189.245849609375,1640.31982421875,-539.6207275390625,-1592.6361083984375,-2678.2353515625,3352.9599609375,-4374.18603515625,15078.3857421875,-5495.54833984375,-0.0,-8378.029296875,4917.7802734375,-6296.634765625,-4611.01513671875,-1096.7254638671875,5243.61962890625,-7649.2626953125,784.3970947265625,-6078.87890625,-3693.103759765625,-2304.712890625,6318.09228515625,6670.95166015625,-21515.6875,-9245.8720703125,-1211.961181640625,942.548095703125,-9905.4970703125,-1839.001953125,-3946.622314453125,-16218.02734375,319.48089599609375,-1479.78466796875,1650.6513671875,-11184.2158203125,-3188.451171875,0.0,-1508.3948974609375,0.0,-3478.527099609375,-0.0,2290.407958984375
-14785.130859375,-15846.8876953125,-5542.43701171875,-1456.737548828125,-1677.6719970703125,8378.029296875,-5549.58984375,-2820.49169921875,-1393.9539794921875,5749.861328125,-8139.6103515625,-13035.1376953125,-3582.636474609375,4834.333984375,-257.4920654296875,-9539.921875,-905.9906005859375,-107.28836059570312,2600.35205078125,12696.583984375,1893.8382568359375,5783.23974609375,-1255.671142578125,11587.142578125,-3957.74853515625,-6551.74267578125,-4549.8212890625,-4252.5927734375,-8049.01123046875,-3223.419189453125,3194.014404296875,1643.498779296875,-532.4681396484375,-1584.6888427734375,-2675.85107421875,3360.112548828125,-4371.8017578125,15083.94921875,-5478.06396484375,-0.0,-8374.8505859375,4924.93310546875,-6294.25048828125,-4602.2734375,-1095.9306640625,5250.77197265625,-7644.49462890625,801.08642578125,-6074.1103515625,-3678.00390625,-2313.454833984375,6323.65576171875,6047.88427734375,-21476.74609375,-9249.05078125,-1205.603271484375,938.574462890625,-9891.9873046875,-1864.433349609375,-3932.317138671875,-16241.0732421875,325.8387145996094,-1474.2215576171875,1653.0355224609375,-11185.009765625,-3176.530029296875,0.0,-1496.473876953125,0.0,-3461.837890625,-0.0,2288.023681640625
-14776.388671875,-15803.1787109375,-5530.51611328125,-1445.611328125,-1671.314208984375,8384.38671875,-5542.43701171875,-2816.51806640625,-1396.338134765625,5752.24560546875,-8135.63623046875,-13024.806640625,-3574.689208984375,4828.77099609375,-239.2133026123047,-9506.54296875,-899.6327514648438,-100.13580322265625,2605.120361328125,12696.583984375,1901.7855224609375,5788.00830078125,-1248.5185546875,11593.5009765625,-3948.211669921875,-6546.17919921875,-4542.6689453125,-4232.724609375,-8043.4482421875,-3214.677001953125,3199.577392578125,1649.8565673828125,-526.1103515625,-1580.7152099609375,-2669.493408203125,3365.67578125,-4365.4443359375,15089.51171875,-5480.4482421875,-0.0,-8366.90234375,4927.3173828125,-6286.30322265625,-4595.12109375,-1091.162353515625,5249.18212890625,-7646.083984375,814.5968017578125,-6066.9580078125,-3672.440673828125,-2295.17626953125,6336.37109375,5374.74951171875,-21448.134765625,-9244.283203125,-1187.324462890625,946.521728515625,-9855.4296875,-1842.180908203125,-3945.03271484375,-16241.869140625,332.99127197265625,-1471.0426025390625,1650.6513671875,-11185.009765625,-3165.404052734375,0.0,-1510.779052734375,0.0,-3469.784912109375,-0.0,2285.639404296875
-14775.59375,-15849.271484375,-5525.74755859375,-1444.0218505859375,-1667.340576171875,8387.5654296875,-5538.46337890625,-2806.9814453125,-1393.9539794921875,5748.27197265625,-8136.431640625,-13024.806640625,-3565.947265625,4822.4130859375,-231.26602172851562,-9506.54296875,-895.6591186523438,-100.13580322265625,2605.9150390625,12694.19921875,1904.9644775390625,5790.392578125,-1245.3397216796875,11598.26953125,-3945.03271484375,-6543.00048828125,-4539.48974609375,-4225.572265625,-8037.884765625,-3211.498291015625,3201.166748046875,1650.6513671875,-523.7261352539062,-1578.3310546875,-2666.314453125,3368.059814453125,-4362.26513671875,15091.896484375,-5492.369140625,-0.0,-8364.5185546875,4930.49609375,-6284.7138671875,-4589.5576171875,-1088.7781982421875,5256.3349609375,-7636.546875,816.186279296875,-6062.984375,-3671.64599609375,-2288.818359375,6345.90771484375,4755.65576171875,-21441.77734375,-9238.7197265625,-1172.224609375,951.2901611328125,-9860.9921875,-1842.180908203125,-3945.827392578125,-16219.6162109375,333.7860107421875,-1470.2479248046875,1643.498779296875,-11185.009765625,-3165.404052734375,0.0,-1486.1424560546875,0.0,-3473.7587890625,-0.0,2279.28173828125
-14754.1357421875,-15935.1025390625,-5528.9267578125,-1451.1744384765625,-1669.724853515625,8384.38671875,-5540.84765625,-2814.1337890625,-1392.364501953125,5741.119140625,-8137.22607421875,-13031.9599609375,-3570.715576171875,4828.77099609375,-237.6238555908203,-9549.458984375,-897.2485961914062,-102.51998901367188,2602.736328125,12697.37890625,1904.169677734375,5788.00830078125,-1248.5185546875,11592.7060546875,-3949.006591796875,-6546.97412109375,-4540.28466796875,-4251.00341796875,-8033.91162109375,-3208.3193359375,3203.551025390625,1651.446044921875,-522.931396484375,-1575.94677734375,-2665.519775390625,3365.67578125,-4365.4443359375,15086.3330078125,-5505.8798828125,-0.0,-8366.90234375,4932.88037109375,-6287.892578125,-4599.88916015625,-1089.5728759765625,5255.54052734375,-7646.87890625,807.4442749023438,-6064.57373046875,-3674.824951171875,-2296.765625,6328.423828125,3515.87939453125,-21452.107421875,-9234.74609375,-1168.2509765625,947.3164672851562,-9880.06640625,-1855.6912841796875,-3933.906494140625,-16218.02734375,329.8123779296875,-1471.83740234375,1645.088134765625,-11184.2158203125,-3160.6357421875,0.0,-1459.91650390625,0.0,-3465.0166015625,-0.0,2273.718505859375
-14734.2685546875,-15928.7451171875,-5529.7216796875,-1436.0745849609375,-1660.9827880859375,8392.333984375,-5533.6953125,-2816.51806640625,-1388.390869140625,5751.451171875,-8128.48388671875,-13024.0126953125,-3561.9736328125,4834.333984375,-222.5240020751953,-9561.3798828125,-889.30126953125,-93.7779769897461,2608.29931640625,12702.94140625,1912.116943359375,5799.134765625,-1240.5714111328125,11599.8583984375,-3940.26416015625,-6530.28466796875,-4529.158203125,-4246.23486328125,-8024.375,-3202.756103515625,3211.498291015625,1660.9827880859375,-518.957763671875,-1564.8206787109375,-2659.161865234375,3372.033447265625,-4357.49658203125,15091.1015625,-5479.65380859375,-0.0,-8360.544921875,4945.59619140625,-6279.150390625,-4595.12109375,-1083.215087890625,5247.5927734375,-7644.49462890625,823.3388061523438,-6053.44775390625,-3673.235595703125,-2281.665771484375,6325.2451171875,2538.36328125,-21448.931640625,-9227.59375,-1158.71435546875,959.2374267578125,-9876.8876953125,-1840.5914306640625,-3944.23828125,-16211.66796875,336.9649353027344,-1467.8636474609375,1653.0355224609375,-11175.4736328125,-3153.483154296875,0.0,-1447.9954833984375,0.0,-3451.50634765625,-0.0,2285.639404296875
-14766.056640625,-15870.7294921875,-5530.51611328125,-1428.9219970703125,-1661.7774658203125,8401.076171875,-5531.31103515625,-2810.955078125,-1386.8013916015625,5760.98779296875,-8130.8681640625,-13012.091796875,-3557.999755859375,4832.74462890625,-222.5240020751953,-9544.6904296875,-886.1223754882812,-89.80432891845703,2612.27294921875,12701.3525390625,1912.116943359375,5803.1083984375,-1240.5714111328125,11603.83203125,-3942.6484375,-6527.90087890625,-4530.748046875,-4230.34033203125,-8031.52734375,-3210.70361328125,3213.88232421875,1663.366943359375,-517.3682861328125,-1563.2310791015625,-2659.161865234375,3376.8017578125,-4356.7021484375,15095.8701171875,-5457.4013671875,-0.0,-8362.1337890625,4947.98046875,-6277.56103515625,-4585.583984375,-1082.42041015625,5253.95068359375,-7637.341796875,832.080810546875,-6056.626953125,-3653.3671875,-2278.487060546875,6330.80810546875,3085.93115234375,-21452.107421875,-9233.951171875,-1148.3828125,963.2110595703125,-9869.734375,-1837.4124755859375,-3923.574951171875,-16206.1064453125,339.34912109375,-1467.8636474609375,1652.24072265625,-11177.857421875,-3159.046142578125,0.0,-1452.763916015625,0.0,-3451.50634765625,-0.0,2284.050048828125
-14757.3154296875,-15824.63671875,-5536.87451171875,-1432.8956298828125,-1665.7510986328125,8391.5400390625,-5535.28466796875,-2818.107666015625,-1389.185546875,5759.39794921875,-8128.48388671875,-13012.8857421875,-3561.178955078125,4834.333984375,-227.29237365722656,-9551.0478515625,-890.8907470703125,-93.7779769897461,2606.709716796875,12702.94140625,1908.1434326171875,5796.75048828125,-1242.95556640625,11596.6796875,-3948.211669921875,-6535.84814453125,-4531.54248046875,-4244.6455078125,-8040.26904296875,-3221.034912109375,3209.114013671875,1660.9827880859375,-522.13671875,-1568.794189453125,-2664.72509765625,3372.828125,-4362.26513671875,15090.306640625,-5473.2958984375,-0.0,-8366.1083984375,4943.2119140625,-6280.740234375,-4595.91552734375,-1084.009765625,5251.56640625,-7637.341796875,827.3125,-6062.189453125,-3666.0830078125,-2283.25537109375,6322.06591796875,4392.46533203125,-21470.388671875,-9240.3095703125,-1156.330078125,962.4163208007812,-9853.83984375,-1845.35986328125,-3916.42236328125,-16206.1064453125,336.1701965332031,-1468.658447265625,1654.625,-11180.2412109375,-3156.662109375,0.0,-1445.611328125,0.0,-3445.1484375,-0.0,2286.43408203125
-14746.189453125,-15824.63671875,-5536.07958984375,-1433.6904296875,-1660.9827880859375,8389.1552734375,-5533.6953125,-2820.49169921875,-1389.9803466796875,5760.98779296875,-8121.3310546875,-13011.2958984375,-3577.8681640625,4829.5654296875,-230.47129821777344,-9549.458984375,-890.8907470703125,-92.18851470947266,2609.888671875,12700.5576171875,1909.7327880859375,5796.75048828125,-1239.776611328125,11597.4736328125,-3939.4697265625,-6531.07958984375,-4530.748046875,-4253.3876953125,-8037.884765625,-3217.061279296875,3209.114013671875,1659.393310546875,-522.931396484375,-1568.794189453125,-2663.135498046875,3373.622802734375,-4359.880859375,15091.896484375,-5485.216796875,-0.0,-8361.33984375,4942.4169921875,-6277.56103515625,-4599.09423828125,-1082.42041015625,5249.97705078125,-7633.3681640625,825.7230224609375,-6051.8583984375,-3669.261962890625,-2286.43408203125,6318.09228515625,5462.96435546875,-21471.9765625,-9238.7197265625,-1163.482666015625,949.70068359375,-9846.6875,-1835.0283203125,-3917.21728515625,-16209.2841796875,338.55438232421875,-1467.8636474609375,1650.6513671875,-11178.65234375,-3153.483154296875,0.0,-1434.485107421875,0.0,-3439.58544921875,-0.0,2287.228759765625
-14788.3095703125,-15856.4248046875,-5539.25830078125,-1455.9427490234375,-1669.724853515625,8382.796875,-5544.02685546875,-2826.849609375,-1393.9539794921875,5755.42431640625,-8125.30517578125,-13006.5283203125,-3585.8154296875,4826.38671875,-257.4920654296875,-9558.201171875,-894.8643798828125,-100.93053436279297,2603.53076171875,12694.9951171875,1902.580322265625,5790.392578125,-1248.5185546875,11591.9111328125,-3947.416748046875,-6539.82177734375,-4548.2314453125,-4257.36083984375,-8043.4482421875,-3210.70361328125,3203.551025390625,1652.24072265625,-526.905029296875,-1575.94677734375,-2669.493408203125,3368.059814453125,-4368.623046875,15087.1279296875,-5483.62744140625,-0.0,-8369.2861328125,4933.67529296875,-6289.48193359375,-4603.06787109375,-1091.162353515625,5246.7978515625,-7636.546875,803.4705810546875,-6064.57373046875,-3681.182861328125,-2314.249755859375,6313.32421875,6041.52685546875,-21479.12890625,-9248.2568359375,-1178.58251953125,928.2429809570312,-9859.40234375,-1843.7703857421875,-3920.396240234375,-16219.6162109375,331.4018249511719,-1474.2215576171875,1641.9093017578125,-11185.8056640625,-3156.662109375,0.0,-1435.27978515625,0.0,-3443.558837890625,-0.0,2278.487060546875
-14796.2568359375,-15885.0341796875,-5541.642578125,-1471.83740234375,-1677.6719970703125,8376.439453125,-5549.58984375,-2825.26025390625,-1396.338134765625,5752.24560546875,-8134.841796875,-13016.8603515625,-3580.25244140625,4829.5654296875,-264.6446228027344,-9549.458984375,-902.0169677734375,-107.28836059570312,2601.146728515625,12695.7890625,1898.606689453125,5784.03466796875,-1254.87646484375,11587.9375,-3952.97998046875,-6553.33203125,-4554.58984375,-4254.18212890625,-8047.42138671875,-3209.90869140625,3197.193115234375,1644.29345703125,-532.4681396484375,-1583.8941650390625,-2675.85107421875,3362.49658203125,-4374.18603515625,15083.1533203125,-5479.65380859375,-0.0,-8374.8505859375,4920.16455078125,-6296.634765625,-4605.4521484375,-1095.135986328125,5244.4140625,-7639.72607421875,789.960205078125,-6075.7001953125,-3684.36181640625,-2319.01806640625,6316.5029296875,6446.04345703125,-21484.693359375,-9250.640625,-1198.45068359375,932.2166748046875,-9856.2236328125,-1861.25439453125,-3925.959228515625,-16226.7685546875,326.6334533691406,-1475.0162353515625,1641.1146240234375,-11190.5732421875,-3166.993408203125,0.0,-1445.611328125,0.0,-3450.71142578125,-0.0,2273.718505859375
-14774.0048828125,-15871.5244140625,-5544.02685546875,-1462.3006591796875,-1673.698486328125,8380.4130859375,-5544.8212890625,-2818.107666015625,-1393.9539794921875,5755.42431640625,-8141.2001953125,-13020.0390625,-3582.636474609375,4827.18115234375,-248.75006103515625,-9537.537109375,-902.0169677734375,-104.10944366455078,2603.53076171875,12697.37890625,1898.606689453125,5787.2138671875,-1250.90283203125,11591.1171875,-3951.390625,-6550.1533203125,-4543.46337890625,-4243.8505859375,-8042.6533203125,-3204.345703125,3199.577392578125,1647.472412109375,-531.6734619140625,-1583.099365234375,-2671.877685546875,3364.880859375,-4370.21240234375,15088.7177734375,-5479.65380859375,-0.0,-8372.4658203125,4920.95947265625,-6291.0712890625,-4597.5048828125,-1091.95703125,5250.77197265625,-7648.4677734375,797.9075317382812,-6066.9580078125,-3670.056640625,-2306.30224609375,6322.86083984375,7301.96630859375,-21467.208984375,-9245.078125,-1181.7613525390625,939.3692016601562,-9834.7666015625,-1858.8701171875,-3918.806640625,-16223.5888671875,329.8123779296875,-1470.2479248046875,1641.9093017578125,-11189.7783203125,-3164.609130859375,0.0,-1447.2008056640625,0.0,-3449.916748046875,-0.0,2273.718505859375
-14743.0107421875,-15827.0205078125,-5537.6689453125,-1457.5322265625,-1667.340576171875,8389.1552734375,-5538.46337890625,-2814.9287109375,-1392.364501953125,5753.8349609375,-8137.22607421875,-13004.939453125,-3579.45751953125,4827.18115234375,-245.57113647460938,-9537.537109375,-893.2749633789062,-96.9568862915039,2607.504638671875,12698.173828125,1905.7591552734375,5794.3662109375,-1246.1343994140625,11596.6796875,-3945.827392578125,-6539.02685546875,-4537.900390625,-4239.87744140625,-8037.884765625,-3199.577392578125,3207.524658203125,1654.625,-524.5208740234375,-1575.94677734375,-2667.109130859375,3372.828125,-4365.4443359375,15092.6904296875,-5477.26953125,-0.0,-8366.1083984375,4935.2646484375,-6283.9189453125,-4591.14697265625,-1088.7781982421875,5253.15625,-7648.4677734375,801.08642578125,-6056.626953125,-3664.49365234375,-2302.328857421875,6326.833984375,8591.015625,-21441.77734375,-9237.92578125,-1156.330078125,944.9323120117188,-9828.408203125,-1851.7176513671875,-3924.369873046875,-16210.0791015625,335.3754577636719,-1466.2742919921875,1641.1146240234375,-11185.8056640625,-3146.33056640625,0.0,-1448.7901611328125,0.0,-3454.685302734375,-0.0,2270.53955078125
-14741.4208984375,-15822.251953125,-5527.33740234375,-1455.9427490234375,-1663.366943359375,8396.3076171875,-5535.28466796875,-2812.544677734375,-1388.390869140625,5752.24560546875,-8127.689453125,-12996.9912109375,-3557.205078125,4830.3603515625,-234.44493103027344,-9531.1806640625,-890.0960083007812,-94.57270050048828,2610.683349609375,12697.37890625,1908.9381103515625,5795.16064453125,-1242.95556640625,11601.4482421875,-3942.6484375,-6539.82177734375,-4531.54248046875,-4231.134765625,-8028.34814453125,-3194.014404296875,3209.114013671875,1655.419677734375,-521.3419799804688,-1573.5626220703125,-2664.72509765625,3376.007080078125,-4361.470703125,15095.8701171875,-5487.6005859375,-0.0,-8362.9296875,4935.2646484375,-6278.35595703125,-4586.37841796875,-1085.5992431640625,5254.74560546875,-7639.72607421875,804.2653198242188,-6054.24267578125,-3656.54638671875,-2292.7919921875,6332.3974609375,8694.3310546875,-21432.2421875,-9229.18359375,-1152.3564453125,961.62158203125,-9839.53515625,-1846.154541015625,-3929.13818359375,-16207.6953125,337.7596435546875,-1465.4794921875,1639.5250244140625,-11173.0888671875,-3145.53564453125,0.0,-1452.763916015625,0.0,-3463.42724609375,-0.0,2267.360595703125
-14739.0361328125,-15844.5029296875,-5544.8212890625,-1461.505859375,-1673.698486328125,8385.9755859375,-5541.642578125,-2820.49169921875,-1392.364501953125,5748.27197265625,-8126.099609375,-13008.1171875,-3568.33154296875,4824.0029296875,-235.2396697998047,-9538.3330078125,-900.427490234375,-103.3147201538086,2605.120361328125,12693.4052734375,1899.4013671875,5786.4189453125,-1249.3133544921875,11592.7060546875,-3955.3642578125,-6546.17919921875,-4538.69482421875,-4243.8505859375,-8035.50048828125,-3201.96142578125,3201.166748046875,1649.8565673828125,-530.8787231445312,-1582.3045654296875,-2672.67236328125,3367.264892578125,-4366.2392578125,15087.921875,-5491.57470703125,-0.0,-8374.0546875,4924.93310546875,-6287.09814453125,-4596.7099609375,-1089.5728759765625,5249.97705078125,-7646.87890625,801.8811645507812,-6063.779296875,-3667.67236328125,-2292.7919921875,6323.65576171875,8903.34375,-21445.751953125,-9236.3359375,-1167.456298828125,956.8532104492188,-9850.6611328125,-1847.7440185546875,-3925.959228515625,-16214.84765625,329.8123779296875,-1471.0426025390625,1636.34619140625,-11172.294921875,-3159.046142578125,0.0,-1446.406005859375,0.0,-3458.658935546875,-0.0,2266.56591796875
-14747.779296875,-15867.5517578125,-5551.9736328125,-1475.0162353515625,-1688.0035400390625,8371.6708984375,-5558.33203125,-2835.591552734375,-1406.669677734375,5733.966796875,-8132.45751953125,-13021.6279296875,-3591.37841796875,4813.6708984375,-259.8762512207031,-9559.791015625,-912.3484497070312,-114.44091796875,2589.225830078125,12680.689453125,1887.4803466796875,5776.08740234375,-1264.4132080078125,11578.400390625,-3966.490234375,-6551.74267578125,-4560.947265625,-4265.30859375,-8045.037109375,-3217.061279296875,3189.245849609375,1637.9356689453125,-540.4154663085938,-1593.430908203125,-2685.387939453125,3354.54931640625,-4379.74951171875,15072.0283203125,-5503.49560546875,-0.0,-8385.9755859375,4914.6015625,-6306.17138671875,-4612.6044921875,-1103.8780517578125,5233.28759765625,-7652.44140625,786.7813110351562,-6081.26318359375,-3687.540771484375,-2315.04443359375,6307.7607421875,10155.8369140625,-21467.208984375,-9246.6669921875,-1184.1456298828125,926.653564453125,-9848.27734375,-1862.8438720703125,-3954.5693359375,-16232.33203125,315.50726318359375,-1486.1424560546875,1623.6304931640625,-11184.2158203125,-3165.404052734375,0.0,-1463.89013671875,0.0,-3471.37451171875,-0.0,2253.850341796875
-14744.599609375,-15861.1923828125,-5542.43701171875,-1463.89013671875,-1676.0826416015625,8385.181640625,-5548.00048828125,-2820.49169921875,-1396.338134765625,5748.27197265625,-8125.30517578125,-13017.654296875,-3579.45751953125,4827.97607421875,-253.5184326171875,-9536.7431640625,-899.6327514648438,-102.51998901367188,2602.736328125,12692.6103515625,1897.8118896484375,5788.80322265625,-1253.2869873046875,11591.1171875,-3956.1591796875,-6535.84814453125,-4549.0263671875,-4247.02978515625,-8033.91162109375,-3213.88232421875,3201.166748046875,1646.6776123046875,-530.8787231445312,-1581.5098876953125,-2673.467041015625,3367.264892578125,-4370.21240234375,15085.5380859375,-5490.77978515625,-0.0,-8376.439453125,4927.3173828125,-6292.6611328125,-4599.88916015625,-1093.5465087890625,5246.7978515625,-7645.2890625,797.11279296875,-6067.7529296875,-3674.824951171875,-2307.891845703125,6326.03955078125,11750.0615234375,-21463.236328125,-9236.3359375,-1176.1983642578125,936.9849853515625,-9814.8984375,-1854.101806640625,-3937.085693359375,-16219.6162109375,329.01763916015625,-1473.4267578125,1633.167236328125,-11181.8310546875,-3160.6357421875,0.0,-1449.5849609375,0.0,-3466.606201171875,-0.0,2262.59228515625
-14756.5205078125,-15877.8818359375,-5545.6162109375,-1463.89013671875,-1677.6719970703125,8382.0029296875,-5545.6162109375,-2822.8759765625,-1390.7750244140625,5757.013671875,-8129.279296875,-13020.8330078125,-3572.304931640625,4833.53955078125,-250.33950805664062,-9529.5908203125,-902.0169677734375,-105.69890594482422,2601.94140625,12698.9677734375,1896.222412109375,5787.2138671875,-1253.2869873046875,11589.52734375,-3956.95361328125,-6543.794921875,-4549.0263671875,-4246.23486328125,-8036.2958984375,-3221.82958984375,3198.78271484375,1645.088134765625,-534.8523559570312,-1584.6888427734375,-2676.64599609375,3366.47021484375,-4371.8017578125,15084.7431640625,-5486.01171875,-0.0,-8378.029296875,4924.93310546875,-6293.45556640625,-4600.68359375,-1091.95703125,5246.00341796875,-7650.85205078125,798.7022705078125,-6068.5478515625,-3676.41455078125,-2307.09716796875,6320.4765625,13344.2880859375,-21464.029296875,-9237.1298828125,-1168.2509765625,940.9586791992188,-9793.4404296875,-1850.128173828125,-3924.369873046875,-16217.2314453125,327.4281921386719,-1471.83740234375,1641.9093017578125,-11183.4208984375,-3160.6357421875,0.0,-1444.0218505859375,0.0,-3450.71142578125,-0.0,2272.129150390625
-14771.62109375,-15909.671875,-5551.9736328125,-1475.0162353515625,-1683.235107421875,8374.0546875,-5550.384765625,-2828.43896484375,-1396.338134765625,5752.24560546875,-8133.251953125,-13020.0390625,-3577.8681640625,4830.3603515625,-255.10787963867188,-9535.1533203125,-908.374755859375,-111.26200103759766,2597.173095703125,12695.7890625,1889.8646240234375,5781.650390625,-1261.2342529296875,11582.375,-3961.721923828125,-6554.126953125,-4556.17919921875,-4251.79833984375,-8043.4482421875,-3230.57177734375,3193.219482421875,1640.31982421875,-538.03125,-1591.046630859375,-2683.003662109375,3360.9072265625,-4375.77587890625,15079.9755859375,-5485.216796875,-0.0,-8383.591796875,4918.5751953125,-6299.81396484375,-4607.0419921875,-1095.9306640625,5243.61962890625,-7654.03125,784.3970947265625,-6076.49462890625,-3682.7724609375,-2309.4814453125,6318.88720703125,14192.263671875,-21468.796875,-9242.6943359375,-1174.60888671875,933.0113525390625,-9805.361328125,-1847.7440185546875,-3929.13818359375,-16223.5888671875,321.0703430175781,-1474.2215576171875,1639.5250244140625,-11185.8056640625,-3156.662109375,0.0,-1438.458740234375,0.0,-3452.301025390625,-0.0,2268.9501953125
-14782.74609375,-15927.9501953125,-5549.58984375,-1497.2686767578125,-1683.235107421875,8374.8505859375,-5553.5634765625,-2828.43896484375,-1398.7222900390625,5747.47705078125,-8134.841796875,-13024.806640625,-3581.841796875,4827.18115234375,-256.69732666015625,-9537.537109375,-909.9642333984375,-113.64618682861328,2593.994140625,12692.6103515625,1890.6593017578125,5780.06103515625,-1262.82373046875,11580.78515625,-3957.74853515625,-6549.3583984375,-4555.38427734375,-4252.5927734375,-8047.42138671875,-3232.9560546875,3191.630126953125,1638.7303466796875,-538.8259887695312,-1591.046630859375,-2682.208984375,3359.31787109375,-4378.16015625,15078.3857421875,-5489.1904296875,-0.0,-8384.38671875,4924.93310546875,-6301.40283203125,-4609.42578125,-1096.7254638671875,5242.82470703125,-7653.236328125,759.7605590820312,-6077.28955078125,-3686.745849609375,-2311.07080078125,6320.4765625,14131.0693359375,-21473.56640625,-9249.05078125,-1185.735107421875,932.2166748046875,-9807.74609375,-1846.154541015625,-3931.5224609375,-16236.3056640625,320.275634765625,-1477.400390625,1636.34619140625,-11189.7783203125,-3155.072509765625,0.0,-1441.6376953125,0.0,-3456.274658203125,-0.0,2268.1552734375
-14781.1572265625,-15894.5712890625,-5541.642578125,-1493.2950439453125,-1680.8509521484375,8384.38671875,-5551.17919921875,-2820.49169921875,-1394.7486572265625,5752.24560546875,-8134.04736328125,-13020.8330078125,-3581.047119140625,4832.74462890625,-260.6709899902344,-9535.1533203125,-906.7853393554688,-111.26200103759766,2596.37841796875,12699.763671875,1893.04345703125,5785.6240234375,-1259.6448974609375,11587.9375,-3949.006591796875,-6537.4375,-4556.97412109375,-4243.0556640625,-8044.24267578125,-3215.471923828125,3194.014404296875,1641.1146240234375,-534.0576171875,-1584.6888427734375,-2680.619384765625,3363.29150390625,-4375.77587890625,15083.94921875,-5495.54833984375,-0.0,-8380.4130859375,4934.4697265625,-6297.4296875,-4599.88916015625,-1095.135986328125,5249.18212890625,-7646.083984375,763.7341918945312,-6074.1103515625,-3670.8515625,-2314.249755859375,6327.62890625,13236.205078125,-21474.361328125,-9245.8720703125,-1179.377197265625,933.8060913085938,-9818.87109375,-1850.9229736328125,-3930.7275390625,-16236.3056640625,324.249267578125,-1475.0162353515625,1644.29345703125,-11186.599609375,-3157.45654296875,0.0,-1449.5849609375,0.0,-3459.45361328125,-0.0,2276.102783203125
-14789.1044921875,-15857.2197265625,-5531.31103515625,-1447.2008056640625,-1679.2615966796875,8394.7177734375,-5542.43701171875,-2803.802490234375,-1388.390869140625,5757.013671875,-8131.6630859375,-13004.939453125,-3574.689208984375,4833.53955078125,-247.16058349609375,-9509.72265625,-901.2222290039062,-104.9041748046875,2605.9150390625,12704.53125,1897.01708984375,5790.392578125,-1254.081787109375,11597.4736328125,-3947.416748046875,-6537.4375,-4549.8212890625,-4222.39306640625,-8036.2958984375,-3194.80908203125,3200.3720703125,1648.26708984375,-528.4945068359375,-1579.125732421875,-2676.64599609375,3372.033447265625,-4367.828125,15095.8701171875,-5488.3955078125,-0.0,-8374.8505859375,4929.701171875,-6291.8662109375,-4586.37841796875,-1088.7781982421875,5261.89794921875,-7639.72607421875,813.8020629882812,-6068.5478515625,-3657.341064453125,-2303.12353515625,6349.0869140625,11557.73828125,-21478.333984375,-9239.5146484375,-1163.482666015625,944.9323120117188,-9823.6396484375,-1848.5386962890625,-3925.959228515625,-16222.0,329.8123779296875,-1467.0689697265625,1649.061767578125,-11181.8310546875,-3143.151611328125,0.0,-1447.9954833984375,0.0,-3460.248291015625,-0.0,2281.665771484375
-14798.6416015625,-15873.9091796875,-5541.642578125,-1447.2008056640625,-1680.8509521484375,8392.333984375,-5540.84765625,-2803.0078125,-1391.5697021484375,5753.8349609375,-8133.251953125,-13006.5283203125,-3558.794677734375,4827.18115234375,-236.82911682128906,-9485.880859375,-902.8117065429688,-104.9041748046875,2605.9150390625,12703.736328125,1893.8382568359375,5789.59814453125,-1254.87646484375,11599.0634765625,-3958.543212890625,-6535.05322265625,-4545.84765625,-4220.8037109375,-8029.9375,-3205.935302734375,3198.78271484375,1649.061767578125,-528.4945068359375,-1578.3310546875,-2677.440673828125,3370.444091796875,-4366.2392578125,15095.07421875,-5478.85888671875,-0.0,-8379.6181640625,4933.67529296875,-6291.8662109375,-4585.583984375,-1087.188720703125,5265.0771484375,-7644.49462890625,811.4179077148438,-6069.34228515625,-3662.109375,-2294.38134765625,6351.470703125,10005.6337890625,-21487.078125,-9231.5673828125,-1162.6878662109375,956.0584716796875,-9814.8984375,-1838.207275390625,-3908.475341796875,-16214.84765625,331.4018249511719,-1466.2742919921875,1644.29345703125,-11179.447265625,-3137.58837890625,0.0,-1450.3797607421875,0.0,-3457.864013671875,-0.0,2278.487060546875
-14778.7734375,-15896.162109375,-5536.07958984375,-1444.816650390625,-1673.698486328125,8393.923828125,-5536.87451171875,-2804.59716796875,-1389.9803466796875,5755.42431640625,-8129.279296875,-13002.5546875,-3555.61572265625,4821.61865234375,-227.29237365722656,-9503.3642578125,-896.453857421875,-100.13580322265625,2609.093994140625,12707.7099609375,1900.9908447265625,5793.5712890625,-1247.723876953125,11600.6533203125,-3947.416748046875,-6531.07958984375,-4540.28466796875,-4226.36669921875,-8022.78515625,-3211.498291015625,3203.551025390625,1655.419677734375,-522.931396484375,-1571.97314453125,-2671.082763671875,3374.41748046875,-4363.06005859375,15098.25390625,-5474.0908203125,-0.0,-8371.6708984375,4939.23828125,-6284.7138671875,-4586.37841796875,-1084.009765625,5263.4873046875,-7637.341796875,813.8020629882812,-6059.80517578125,-3666.0830078125,-2283.25537109375,6346.70263671875,10195.5732421875,-21474.361328125,-9224.4150390625,-1158.71435546875,962.4163208007812,-9784.6982421875,-1830.2598876953125,-3916.42236328125,-16213.2587890625,336.1701965332031,-1461.505859375,1642.7039794921875,-11173.0888671875,-3135.9990234375,0.0,-1444.0218505859375,0.0,-3453.890625,-0.0,2279.28173828125
-14768.44140625,-15917.6201171875,-5528.9267578125,-1444.0218505859375,-1672.9036865234375,8397.1025390625,-5536.07958984375,-2800.62353515625,-1389.185546875,5763.3720703125,-8132.45751953125,-13003.349609375,-3566.741943359375,4819.234375,-228.0871124267578,-9516.080078125,-894.0697021484375,-98.54634857177734,2612.27294921875,12702.94140625,1903.375,5796.75048828125,-1245.3397216796875,11603.83203125,-3945.827392578125,-6516.7744140625,-4535.51611328125,-4227.16162109375,-8029.9375,-3208.3193359375,3207.524658203125,1657.8038330078125,-522.13671875,-1571.178466796875,-2669.493408203125,3376.8017578125,-4360.67578125,15100.638671875,-5483.62744140625,-0.0,-8368.4921875,4941.6220703125,-6283.12451171875,-4584.7890625,-1084.009765625,5271.4345703125,-7635.75244140625,815.3915405273438,-6061.39501953125,-3657.341064453125,-2284.8447265625,6349.8818359375,11140.505859375,-21473.56640625,-9230.7734375,-1165.0721435546875,955.2637939453125,-9792.6455078125,-1830.2598876953125,-3913.24365234375,-16216.4365234375,337.7596435546875,-1462.3006591796875,1641.9093017578125,-11181.037109375,-3143.151611328125,0.0,-1444.0218505859375,0.0,-3451.50634765625,-0.0,2278.487060546875
-14786.720703125,-15900.9306640625,-5529.7216796875,-1446.406005859375,-1673.698486328125,8399.486328125,-5540.84765625,-2799.0341796875,-1388.390869140625,5749.06689453125,-8130.07373046875,-13008.912109375,-3569.9208984375,4827.18115234375,-239.2133026123047,-9500.98046875,-898.0433349609375,-101.72525787353516,2611.47802734375,12702.94140625,1900.9908447265625,5795.95556640625,-1249.3133544921875,11603.0380859375,-3949.801025390625,-6516.7744140625,-4541.8740234375,-4220.8037109375,-8032.32177734375,-3211.498291015625,3203.551025390625,1653.8302001953125,-525.3156127929688,-1576.7415771484375,-2670.2880859375,3377.5966796875,-4365.4443359375,15099.8427734375,-5481.2431640625,-0.0,-8371.6708984375,4940.82763671875,-6287.09814453125,-4583.2001953125,-1088.7781982421875,5269.845703125,-7637.341796875,812.212646484375,-6060.60009765625,-3650.983154296875,-2296.765625,6358.62353515625,10931.4921875,-21483.8984375,-9233.1572265625,-1166.66162109375,952.8795776367188,-9814.103515625,-1856.4859619140625,-3930.7275390625,-16222.0,334.58074951171875,-1466.2742919921875,1633.9620361328125,-11178.65234375,-3146.33056640625,0.0,-1455.1480712890625,0.0,-3467.40087890625,-0.0,2261.797607421875
-14796.2568359375,-15923.9765625,-5529.7216796875,-1448.7901611328125,-1674.4931640625,8394.7177734375,-5546.4111328125,-2807.776123046875,-1396.338134765625,5730.78759765625,-8127.689453125,-13014.4755859375,-3569.126220703125,4825.591796875,-244.77639770507812,-9521.6435546875,-896.453857421875,-106.4936294555664,2605.9150390625,12694.9951171875,1900.9908447265625,5793.5712890625,-1253.2869873046875,11597.4736328125,-3949.006591796875,-6511.21142578125,-4545.05322265625,-4236.6982421875,-8030.73193359375,-3213.087890625,3201.166748046875,1653.8302001953125,-524.5208740234375,-1575.94677734375,-2671.877685546875,3372.828125,-4370.21240234375,15092.6904296875,-5462.16943359375,-0.0,-8372.4658203125,4944.00634765625,-6291.0712890625,-4592.73681640625,-1094.34130859375,5260.30859375,-7632.57373046875,809.8284301757812,-6062.984375,-3678.798583984375,-2300.7392578125,6345.11328125,9384.1552734375,-21493.435546875,-9233.951171875,-1186.52978515625,946.521728515625,-9829.203125,-1863.6385498046875,-3931.5224609375,-16214.84765625,331.4018249511719,-1471.0426025390625,1623.6304931640625,-11174.6787109375,-3143.9462890625,0.0,-1437.6640625,0.0,-3474.553466796875,-0.0,2241.92919921875
-14813.7412109375,-15957.35546875,-5535.28466796875,-1448.7901611328125,-1680.8509521484375,8378.8232421875,-5555.15283203125,-2833.207275390625,-1401.1064453125,5747.47705078125,-8133.251953125,-13013.6806640625,-3581.047119140625,4824.0029296875,-255.10787963867188,-9566.1474609375,-902.0169677734375,-113.64618682861328,2594.788818359375,12691.0205078125,1892.248779296875,5785.6240234375,-1262.029052734375,11583.9638671875,-3954.5693359375,-6539.02685546875,-4553.0,-4259.7451171875,-8038.68017578125,-3225.0087890625,3194.80908203125,1647.472412109375,-530.083984375,-1580.7152099609375,-2680.619384765625,3360.112548828125,-4378.16015625,15077.5908203125,-5477.26953125,-0.0,-8378.029296875,4931.291015625,-6299.01904296875,-4609.42578125,-1103.083251953125,5237.26123046875,-7633.3681640625,809.03369140625,-6072.52099609375,-3692.30908203125,-2310.276123046875,6310.14501953125,7427.53369140625,-21509.328125,-9241.1044921875,-1187.324462890625,935.3955688476562,-9845.09765625,-1860.459716796875,-3932.317138671875,-16216.4365234375,321.0703430175781,-1480.579345703125,1628.39892578125,-11182.6259765625,-3138.383056640625,0.0,-1417.7957763671875,0.0,-3440.380126953125,-0.0,2266.56591796875
-14797.8466796875,-15962.9189453125,-5540.84765625,-1446.406005859375,-1684.0299072265625,8383.591796875,-5552.7685546875,-2832.41259765625,-1398.7222900390625,5768.9345703125,-8137.22607421875,-13008.912109375,-3581.841796875,4827.18115234375,-254.31314086914062,-9544.6904296875,-902.0169677734375,-112.05673217773438,2594.788818359375,12694.19921875,1891.4541015625,5789.59814453125,-1262.029052734375,11587.9375,-3956.1591796875,-6541.4111328125,-4556.97412109375,-4248.619140625,-8044.24267578125,-3231.366455078125,3195.603515625,1644.29345703125,-531.6734619140625,-1576.7415771484375,-2680.619384765625,3360.9072265625,-4377.365234375,15079.9755859375,-5491.57470703125,-0.0,-8378.8232421875,4935.2646484375,-6298.22412109375,-4602.2734375,-1101.493896484375,5240.4404296875,-7642.1103515625,809.03369140625,-6074.9052734375,-3669.261962890625,-2310.276123046875,6313.32421875,5455.01708984375,-21542.70703125,-9246.6669921875,-1190.50341796875,936.9849853515625,-9847.4814453125,-1858.075439453125,-3925.959228515625,-16224.384765625,321.8650817871094,-1481.3741455078125,1636.34619140625,-11187.39453125,-3140.767333984375,0.0,-1420.9747314453125,0.0,-3430.84326171875,-0.0,2281.665771484375
-14774.7998046875,-15866.7568359375,-5540.84765625,-1444.0218505859375,-1679.2615966796875,8393.1279296875,-5542.43701171875,-2817.31298828125,-1393.1593017578125,5764.96142578125,-8135.63623046875,-13002.5546875,-3571.51025390625,4831.1552734375,-236.03439331054688,-9526.412109375,-897.2485961914062,-105.69890594482422,2605.9150390625,12698.9677734375,1898.606689453125,5795.16064453125,-1254.081787109375,11599.0634765625,-3954.5693359375,-6522.33740234375,-4545.84765625,-4241.46630859375,-8037.884765625,-3215.471923828125,3201.166748046875,1653.8302001953125,-527.6997680664062,-1571.178466796875,-2671.082763671875,3369.649169921875,-4366.2392578125,15091.1015625,-5482.83251953125,-0.0,-8374.8505859375,4940.82763671875,-6288.68701171875,-4593.53125,-1091.95703125,5256.3349609375,-7654.03125,816.186279296875,-6065.36865234375,-3666.877685546875,-2292.7919921875,6331.6025390625,3201.96142578125,-21523.634765625,-9239.5146484375,-1169.8404541015625,948.9059448242188,-9845.09765625,-1839.001953125,-3912.448974609375,-16217.2314453125,331.4018249511719,-1474.2215576171875,1638.7303466796875,-11183.4208984375,-3139.97265625,0.0,-1422.564208984375,0.0,-3444.353759765625,-0.0,2269.744873046875
-14789.8984375,-15807.1513671875,-5547.20556640625,-1455.1480712890625,-1684.0299072265625,8383.591796875,-5548.79541015625,-2829.23388671875,-1401.1064453125,5741.9140625,-8140.40478515625,-13012.8857421875,-3567.53662109375,4824.0029296875,-245.57113647460938,-9549.458984375,-909.1694946289062,-111.26200103759766,2597.173095703125,12683.8681640625,1893.04345703125,5780.85546875,-1257.2606201171875,11588.732421875,-3958.543212890625,-6533.4638671875,-4549.0263671875,-4254.9765625,-8037.09033203125,-3224.2138671875,3190.835205078125,1643.498779296875,-536.4417724609375,-1587.072998046875,-2677.440673828125,3359.31787109375,-4372.5966796875,15080.76953125,-5498.7275390625,-0.0,-8380.4130859375,4926.52294921875,-6292.6611328125,-4603.86279296875,-1096.7254638671875,5240.4404296875,-7658.7998046875,809.8284301757812,-6067.7529296875,-3671.64599609375,-2303.12353515625,6318.09228515625,1497.2686767578125,-21470.388671875,-9238.7197265625,-1158.71435546875,951.2901611328125,-9860.9921875,-1843.7703857421875,-3934.701416015625,-16228.357421875,325.04400634765625,-1482.963623046875,1634.7567138671875,-11187.39453125,-3142.35693359375,0.0,-1436.0745849609375,0.0,-3458.658935546875,-0.0,2263.386962890625
-14790.6943359375,-15809.5361328125,-5544.02685546875,-1451.9691162109375,-1676.8773193359375,8388.3603515625,-5543.23193359375,-2817.31298828125,-1393.1593017578125,5745.8876953125,-8141.2001953125,-13004.1435546875,-3559.58935546875,4835.923828125,-245.57113647460938,-9532.76953125,-907.580078125,-106.4936294555664,2605.9150390625,12694.19921875,1897.8118896484375,5787.2138671875,-1251.697509765625,11593.5009765625,-3951.390625,-6534.25830078125,-4544.25830078125,-4244.6455078125,-8032.32177734375,-3225.0087890625,3194.80908203125,1644.29345703125,-534.8523559570312,-1585.4835205078125,-2673.467041015625,3364.880859375,-4367.03369140625,15090.306640625,-5490.77978515625,-0.0,-8373.2607421875,4928.90673828125,-6286.30322265625,-4599.09423828125,-1089.5728759765625,5251.56640625,-7654.03125,809.8284301757812,-6065.36865234375,-3670.8515625,-2302.328857421875,6333.1923828125,1651.446044921875,-21417.140625,-9233.951171875,-1153.9459228515625,956.8532104492188,-9845.09765625,-1852.5123291015625,-3924.369873046875,-16225.97265625,331.4018249511719,-1472.632080078125,1645.8829345703125,-11186.599609375,-3139.177978515625,0.0,-1423.35888671875,0.0,-3449.1220703125,-0.0,2278.487060546875
-14777.9775390625,-15803.97265625,-5534.490234375,-1455.1480712890625,-1664.16162109375,8393.1279296875,-5530.51611328125,-2806.186767578125,-1382.032958984375,5756.21923828125,-8134.04736328125,-12991.4287109375,-3560.384033203125,4842.28125,-216.96090698242188,-9516.875,-901.2222290039062,-98.54634857177734,2615.451904296875,12708.5048828125,1906.5538330078125,5792.7763671875,-1240.5714111328125,11602.2421875,-3938.6748046875,-6543.794921875,-4527.56884765625,-4234.31396484375,-8028.34814453125,-3197.98779296875,3205.140380859375,1652.24072265625,-526.1103515625,-1579.92041015625,-2665.519775390625,3372.828125,-4353.5234375,15101.4326171875,-5475.6796875,-0.0,-8362.1337890625,4929.701171875,-6274.38232421875,-4589.5576171875,-1077.6519775390625,5262.69287109375,-7646.87890625,808.239013671875,-6050.2685546875,-3662.109375,-2274.51318359375,6343.5234375,2670.2880859375,-21400.451171875,-9229.18359375,-1142.0250244140625,972.747802734375,-9833.9716796875,-1841.38623046875,-3911.654052734375,-16211.66796875,344.11749267578125,-1460.711181640625,1655.419677734375,-11180.2412109375,-3139.97265625,0.0,-1427.33251953125,0.0,-3447.53271484375,-0.0,2285.639404296875
-14759.7001953125,-15822.251953125,-5540.052734375,-1465.4794921875,-1670.51953125,8386.771484375,-5536.87451171875,-2818.90234375,-1389.185546875,5761.7822265625,-8136.431640625,-12990.6337890625,-3564.357666015625,4833.53955078125,-220.93455505371094,-9534.359375,-905.9906005859375,-103.3147201538086,2609.888671875,12700.5576171875,1899.4013671875,5787.2138671875,-1247.723876953125,11595.8857421875,-3948.211669921875,-6552.53759765625,-4530.748046875,-4241.46630859375,-8032.32177734375,-3183.6826171875,3201.166748046875,1648.26708984375,-530.8787231445312,-1586.2783203125,-2669.493408203125,3366.47021484375,-4360.67578125,15094.2802734375,-5480.4482421875,-0.0,-8367.697265625,4921.75439453125,-6279.9453125,-4594.326171875,-1084.8045654296875,5252.361328125,-7646.083984375,794.7285766601562,-6051.8583984375,-3664.49365234375,-2277.692138671875,6329.21826171875,3374.41748046875,-21425.08984375,-9233.1572265625,-1139.640869140625,978.3109130859375,-9847.4814453125,-1846.154541015625,-3925.959228515625,-16214.0517578125,336.1701965332031,-1467.8636474609375,1648.26708984375,-11181.037109375,-3143.151611328125,0.0,-1441.6376953125,0.0,-3443.558837890625,-0.0,2286.43408203125
-14758.1103515625,-15865.9609375,-5548.00048828125,-1467.8636474609375,-1677.6719970703125,8385.9755859375,-5543.23193359375,-2814.9287109375,-1390.7750244140625,5758.603515625,-8144.37890625,-12993.0185546875,-3572.304931640625,4832.74462890625,-241.5974884033203,-9527.2060546875,-911.5537109375,-108.08309173583984,2607.504638671875,12698.173828125,1893.04345703125,5784.03466796875,-1252.4923095703125,11594.2958984375,-3954.5693359375,-6550.94775390625,-4543.46337890625,-4238.28759765625,-8037.884765625,-3190.04052734375,3194.014404296875,1643.498779296875,-534.8523559570312,-1590.251953125,-2673.467041015625,3362.49658203125,-4367.03369140625,15093.4853515625,-5495.54833984375,-0.0,-8374.8505859375,4920.95947265625,-6287.09814453125,-4595.12109375,-1088.7781982421875,5255.54052734375,-7649.2626953125,792.3444213867188,-6060.60009765625,-3662.109375,-2299.149658203125,6333.98681640625,3574.689208984375,-21465.619140625,-9239.5146484375,-1142.0250244140625,952.8795776367188,-9830.7919921875,-1846.94921875,-3919.6015625,-16216.4365234375,331.4018249511719,-1469.4532470703125,1642.7039794921875,-11185.009765625,-3139.177978515625,0.0,-1430.511474609375,0.0,-3443.558837890625,-0.0,2280.87109375
-14767.646484375,-15869.935546875,-5546.4111328125,-1455.9427490234375,-1672.9036865234375,8390.744140625,-5536.07958984375,-2808.57080078125,-1382.032958984375,5768.9345703125,-8142.7890625,-12994.607421875,-3572.304931640625,4844.66552734375,-229.6765594482422,-9515.28515625,-909.9642333984375,-106.4936294555664,2611.47802734375,12709.2998046875,1897.8118896484375,5786.4189453125,-1248.5185546875,11599.0634765625,-3947.416748046875,-6539.82177734375,-4537.900390625,-4232.724609375,-8029.9375,-3205.935302734375,3194.80908203125,1645.8829345703125,-534.0576171875,-1587.072998046875,-2670.2880859375,3367.264892578125,-4362.26513671875,15099.8427734375,-5488.3955078125,-0.0,-8369.2861328125,4925.72802734375,-6281.53466796875,-4591.14697265625,-1080.8309326171875,5264.2822265625,-7649.2626953125,804.2653198242188,-6055.037109375,-3658.930419921875,-2288.023681640625,6341.93408203125,3624.757080078125,-21479.92578125,-9231.5673828125,-1142.0250244140625,951.2901611328125,-9820.4609375,-1839.796630859375,-3906.8857421875,-16214.0517578125,335.3754577636719,-1461.505859375,1656.21435546875,-11180.2412109375,-3135.9990234375,0.0,-1420.9747314453125,0.0,-3433.2275390625,-0.0,2291.20263671875
-14772.4150390625,-15866.7568359375,-5544.02685546875,-1460.711181640625,-1671.314208984375,8389.1552734375,-5536.87451171875,-2812.544677734375,-1382.8277587890625,5764.96142578125,-8149.14697265625,-13002.5546875,-3571.51025390625,4841.486328125,-223.31874084472656,-9528.7958984375,-905.9906005859375,-107.28836059570312,2609.093994140625,12708.5048828125,1900.9908447265625,5787.2138671875,-1247.723876953125,11597.4736328125,-3942.6484375,-6534.25830078125,-4537.10546875,-4244.6455078125,-8029.9375,-3207.524658203125,3196.3984375,1645.8829345703125,-532.4681396484375,-1583.8941650390625,-2670.2880859375,3367.264892578125,-4360.67578125,15096.6640625,-5499.52197265625,-0.0,-8367.697265625,4930.49609375,-6281.53466796875,-4597.5048828125,-1082.42041015625,5260.30859375,-7658.0048828125,797.11279296875,-6055.83203125,-3670.8515625,-2280.076171875,6336.37109375,3902.117431640625,-21474.361328125,-9227.59375,-1157.9195556640625,956.0584716796875,-9842.712890625,-1836.6177978515625,-3918.01220703125,-16206.8994140625,332.99127197265625,-1461.505859375,1653.0355224609375,-11177.0625,-3147.125244140625,0.0,-1435.27978515625,0.0,-3445.1484375,-0.0,2285.639404296875
-14770.03125,-15909.671875,-5537.6689453125,-1467.0689697265625,-1668.13525390625,8391.5400390625,-5533.6953125,-2807.776123046875,-1380.443603515625,5767.34521484375,-8145.96826171875,-13000.1708984375,-3562.768310546875,4843.87060546875,-220.1398162841797,-9520.0537109375,-902.8117065429688,-102.51998901367188,2613.067626953125,12711.6845703125,1903.375,5791.1875,-1243.750244140625,11600.6533203125,-3939.4697265625,-6537.4375,-4531.54248046875,-4238.28759765625,-8029.1435546875,-3198.78271484375,3201.166748046875,1647.472412109375,-526.905029296875,-1580.7152099609375,-2667.90380859375,3371.23876953125,-4357.49658203125,15098.25390625,-5489.1904296875,-0.0,-8366.1083984375,4932.08544921875,-6279.150390625,-4591.94189453125,-1080.0361328125,5264.2822265625,-7652.44140625,791.5496826171875,-6053.44775390625,-3670.8515625,-2276.8974609375,6341.93408203125,4891.55419921875,-21471.181640625,-9226.0048828125,-1171.429931640625,960.0321655273438,-9826.8193359375,-1842.9755859375,-3914.0380859375,-16210.0791015625,335.3754577636719,-1459.1217041015625,1652.24072265625,-11175.4736328125,-3141.562255859375,0.0,-1423.35888671875,0.0,-3438.79052734375,-0.0,2284.8447265625
-14767.646484375,-15983.58203125,-5548.79541015625,-1458.326904296875,-1676.0826416015625,8380.4130859375,-5540.052734375,-2815.723388671875,-1386.0067138671875,5761.7822265625,-8146.7626953125,-13008.1171875,-3581.047119140625,4839.10205078125,-231.26602172851562,-9524.02734375,-912.3484497070312,-109.67254638671875,2605.9150390625,12705.326171875,1895.427734375,5783.23974609375,-1252.4923095703125,11590.3212890625,-3948.211669921875,-6554.92138671875,-4535.51611328125,-4242.26123046875,-8041.85888671875,-3207.524658203125,3190.835205078125,1637.9356689453125,-536.4417724609375,-1588.6624755859375,-2675.85107421875,3360.9072265625,-4363.06005859375,15091.1015625,-5499.52197265625,-0.0,-8374.0546875,4919.3701171875,-6283.9189453125,-4599.88916015625,-1084.8045654296875,5255.54052734375,-7654.03125,802.6759033203125,-6057.42138671875,-3676.41455078125,-2288.023681640625,6333.98681640625,4808.10791015625,-21505.35546875,-9241.8984375,-1176.1983642578125,951.2901611328125,-9839.53515625,-1839.796630859375,-3922.780517578125,-16240.2783203125,330.6070861816406,-1465.4794921875,1641.1146240234375,-11183.4208984375,-3145.53564453125,0.0,-1441.6376953125,0.0,-3455.47998046875,-0.0,2268.9501953125
-14778.7734375,-15942.2548828125,-5558.33203125,-1471.83740234375,-1688.79833984375,8374.8505859375,-5552.7685546875,-2821.286376953125,-1394.7486572265625,5751.451171875,-8148.3525390625,-13014.4755859375,-3593.7626953125,4827.18115234375,-258.28680419921875,-9528.7958984375,-917.1168212890625,-117.61983489990234,2597.9677734375,12699.763671875,1885.09619140625,5776.88232421875,-1263.618408203125,11583.9638671875,-3958.543212890625,-6558.89501953125,-4559.35791015625,-4246.23486328125,-8049.8056640625,-3217.061279296875,3182.09326171875,1633.167236328125,-545.978515625,-1594.2255859375,-2684.59326171875,3355.343994140625,-4374.98095703125,15085.5380859375,-5505.8798828125,-0.0,-8382.0029296875,4916.19091796875,-6298.22412109375,-4604.65771484375,-1095.9306640625,5253.15625,-7654.82568359375,786.7813110351562,-6071.7265625,-3681.182861328125,-2315.04443359375,6330.80810546875,4903.47509765625,-21523.634765625,-9252.23046875,-1170.63525390625,922.679931640625,-9856.2236328125,-1853.30712890625,-3927.548828125,-16242.662109375,322.6598205566406,-1472.632080078125,1628.39892578125,-11188.984375,-3150.30419921875,0.0,-1447.9954833984375,0.0,-3466.606201171875,-0.0,2252.260986328125
-14806.587890625,-15869.140625,-5562.3056640625,-1489.3214111328125,-1696.7454833984375,8372.4658203125,-5560.71630859375,-2826.054931640625,-1401.9012451171875,5744.29833984375,-8153.91552734375,-13017.654296875,-3601.7099609375,4812.87646484375,-273.3866271972656,-9535.1533203125,-923.474609375,-123.9776611328125,2592.404541015625,12692.6103515625,1878.7384033203125,5772.11376953125,-1268.3868408203125,11580.78515625,-3965.69580078125,-6554.92138671875,-4572.8681640625,-4245.43994140625,-8057.75341796875,-3226.59814453125,3178.11962890625,1627.6041259765625,-549.157470703125,-1602.9676513671875,-2692.54052734375,3352.9599609375,-4383.72265625,15079.9755859375,-5500.31640625,-0.0,-8389.1552734375,4916.98583984375,-6307.7607421875,-4607.83642578125,-1103.083251953125,5248.3876953125,-7657.2099609375,768.5025634765625,-6081.26318359375,-3685.156494140625,-2327.760009765625,6327.62890625,6341.13916015625,-21505.35546875,-9260.9716796875,-1173.814208984375,909.1694946289062,-9855.4296875,-1858.075439453125,-3930.7275390625,-16239.484375,317.0967102050781,-1478.1951904296875,1614.8885498046875,-11196.9306640625,-3159.046142578125,0.0,-1436.0745849609375,0.0,-3469.784912109375,-0.0,2234.77685546875
-14824.0732421875,-15864.3720703125,-5562.3056640625,-1467.0689697265625,-1699.9244384765625,8362.1337890625,-5564.689453125,-2836.386474609375,-1403.49072265625,5746.6826171875,-8161.06787109375,-13014.4755859375,-3596.941650390625,4817.64453125,-290.075927734375,-9543.8955078125,-929.8324584960938,-130.3354949951172,2586.841552734375,12690.2265625,1873.969970703125,5764.16650390625,-1273.1552734375,11573.6318359375,-3972.848388671875,-6559.68994140625,-4577.63671875,-4261.3349609375,-8056.9580078125,-3226.59814453125,3170.967041015625,1618.8621826171875,-556.3099975585938,-1609.325439453125,-2697.308837890625,3345.807373046875,-4389.2861328125,15076.0009765625,-5523.36376953125,-0.0,-8394.7177734375,4906.654296875,-6313.32421875,-4618.962890625,-1108.6463623046875,5241.2353515625,-7664.3623046875,794.7285766601562,-6086.03125,-3696.28271484375,-2344.44921875,6315.7080078125,8200.009765625,-21491.845703125,-9257.79296875,-1181.7613525390625,901.2222290039062,-9812.5146484375,-1861.25439453125,-3937.085693359375,-16261.736328125,310.7388916015625,-1480.579345703125,1614.8885498046875,-11202.494140625,-3158.25146484375,0.0,-1430.511474609375,0.0,-3458.658935546875,-0.0,2239.545166015625
-14824.8671875,-15918.4130859375,-5561.5107421875,-1465.4794921875,-1698.3350830078125,8366.1083984375,-5558.33203125,-2827.644287109375,-1397.9276123046875,5749.06689453125,-8163.4521484375,-13019.244140625,-3585.8154296875,4820.02880859375,-271.00244140625,-9524.02734375,-929.0377197265625,-125.56712341308594,2590.0205078125,12694.9951171875,1876.354248046875,5768.14013671875,-1269.976318359375,11576.8115234375,-3976.027099609375,-6555.7158203125,-4568.89501953125,-4254.18212890625,-8053.77978515625,-3226.59814453125,3174.14599609375,1617.272705078125,-556.3099975585938,-1605.351806640625,-2694.924560546875,3349.781005859375,-4383.72265625,15079.1806640625,-5522.5693359375,-0.0,-8394.7177734375,4913.80712890625,-6308.5556640625,-4611.81005859375,-1102.28857421875,5247.5927734375,-7662.77294921875,795.5233154296875,-6088.41552734375,-3694.693359375,-2326.170654296875,6325.2451171875,9832.3818359375,-21488.666015625,-9253.8193359375,-1188.1192626953125,923.474609375,-9783.1083984375,-1844.5650634765625,-3932.317138671875,-16266.50390625,314.7125244140625,-1476.605712890625,1624.42529296875,-11210.44140625,-3152.688232421875,0.0,-1432.1009521484375,0.0,-3452.301025390625,-0.0,2256.234375
-14820.0986328125,-15893.7783203125,-5551.9736328125,-1470.2479248046875,-1693.566650390625,8374.0546875,-5551.17919921875,-2815.723388671875,-1386.8013916015625,5764.96142578125,-8158.68359375,-13021.6279296875,-3581.841796875,4835.12890625,-260.6709899902344,-9506.54296875,-919.5009765625,-116.82510375976562,2598.762451171875,12706.916015625,1885.09619140625,5772.11376953125,-1261.2342529296875,11585.552734375,-3968.87451171875,-6548.5634765625,-4560.947265625,-4241.46630859375,-8052.9853515625,-3220.240234375,3182.887939453125,1627.6041259765625,-545.183837890625,-1596.6097412109375,-2686.1826171875,3360.112548828125,-4377.365234375,15088.7177734375,-5508.26416015625,-0.0,-8385.9755859375,4920.95947265625,-6303.787109375,-4600.68359375,-1094.34130859375,5261.10302734375,-7665.9521484375,789.960205078125,-6083.6474609375,-3690.7197265625,-2315.839111328125,6341.93408203125,11604.626953125,-21475.951171875,-9253.025390625,-1188.9139404296875,932.2166748046875,-9766.4189453125,-1847.7440185546875,-3912.448974609375,-16252.994140625,324.249267578125,-1466.2742919921875,1641.9093017578125,-11204.87890625,-3148.71484375,0.0,-1397.9276123046875,0.0,-3432.432861328125,-0.0,2276.8974609375
-14808.177734375,-15869.140625,-5557.537109375,-1477.400390625,-1691.9771728515625,8370.08203125,-5552.7685546875,-2822.081298828125,-1389.9803466796875,5757.013671875,-8153.12109375,-13022.4228515625,-3579.45751953125,4840.69189453125,-254.31314086914062,-9523.232421875,-918.7062377929688,-117.61983489990234,2596.37841796875,12701.3525390625,1884.301513671875,5772.11376953125,-1261.2342529296875,11584.7587890625,-3965.69580078125,-6557.3056640625,-4559.35791015625,-4248.619140625,-8047.42138671875,-3221.034912109375,3182.887939453125,1629.98828125,-545.183837890625,-1599.7886962890625,-2685.387939453125,3357.728271484375,-4376.5703125,15086.3330078125,-5497.1376953125,-0.0,-8385.9755859375,4911.4228515625,-6302.19775390625,-4604.65771484375,-1093.5465087890625,5255.54052734375,-7673.10498046875,782.8076782226562,-6081.26318359375,-3682.7724609375,-2311.07080078125,6330.80810546875,12718.041015625,-21475.951171875,-9249.05078125,-1183.3509521484375,933.8060913085938,-9784.6982421875,-1851.7176513671875,-3921.190673828125,-16240.2783203125,321.8650817871094,-1468.658447265625,1645.8829345703125,-11192.9580078125,-3161.430419921875,0.0,-1412.2327880859375,0.0,-3442.76416015625,-0.0,2273.718505859375
-14787.5146484375,-15849.271484375,-5560.71630859375,-1477.400390625,-1688.0035400390625,8374.8505859375,-5547.20556640625,-2814.1337890625,-1389.9803466796875,5754.62939453125,-8148.3525390625,-13023.216796875,-3576.27880859375,4837.51318359375,-244.77639770507812,-9494.6220703125,-917.1168212890625,-112.05673217773438,2601.94140625,12699.763671875,1887.4803466796875,5774.498046875,-1256.4659423828125,11589.52734375,-3968.87451171875,-6550.1533203125,-4551.41064453125,-4238.28759765625,-8039.474609375,-3222.62451171875,3186.06689453125,1629.98828125,-545.183837890625,-1600.5833740234375,-2679.82470703125,3361.701904296875,-4371.00732421875,15091.896484375,-5495.54833984375,-0.0,-8386.771484375,4912.2177734375,-6294.25048828125,-4599.09423828125,-1087.9835205078125,5257.1298828125,-7665.1572265625,783.6024169921875,-6074.9052734375,-3673.235595703125,-2302.328857421875,6342.72900390625,13047.05859375,-21483.103515625,-9241.1044921875,-1184.1456298828125,944.1375732421875,-9806.9501953125,-1833.4388427734375,-3931.5224609375,-16236.3056640625,326.6334533691406,-1467.0689697265625,1645.8829345703125,-11186.599609375,-3165.404052734375,0.0,-1432.1009521484375,0.0,-3460.248291015625,-0.0,2277.692138671875
-14777.9775390625,-15847.6826171875,-5557.537109375,-1481.3741455078125,-1686.4140625,8370.08203125,-5548.00048828125,-2820.49169921875,-1382.8277587890625,5754.62939453125,-8143.58447265625,-13025.6015625,-3568.33154296875,4850.22900390625,-251.13424682617188,-9543.1015625,-917.1168212890625,-112.05673217773438,2600.35205078125,12704.53125,1889.8646240234375,5773.703125,-1258.0552978515625,11584.7587890625,-3962.516845703125,-6550.1533203125,-4548.2314453125,-4254.18212890625,-8041.064453125,-3233.75048828125,3186.06689453125,1629.193603515625,-543.5943603515625,-1599.7886962890625,-2679.0302734375,3359.31787109375,-4371.00732421875,15090.306640625,-5502.70068359375,-0.0,-8384.38671875,4909.83349609375,-6291.8662109375,-4607.0419921875,-1086.3939208984375,5260.30859375,-7659.59423828125,778.039306640625,-6072.52099609375,-3689.130126953125,-2306.30224609375,6330.01318359375,12568.6328125,-21495.818359375,-9241.1044921875,-1194.47705078125,944.1375732421875,-9833.1767578125,-1846.154541015625,-3918.806640625,-16236.3056640625,325.04400634765625,-1466.2742919921875,1661.7774658203125,-11182.6259765625,-3172.556640625,0.0,-1426.537841796875,0.0,-3445.1484375,-0.0,2294.38134765625
-14789.1044921875,-15899.33984375,-5570.2529296875,-1490.1160888671875,-1695.1561279296875,8362.1337890625,-5555.94775390625,-2832.41259765625,-1387.59619140625,5745.0927734375,-8152.32568359375,-13035.93359375,-3574.689208984375,4843.87060546875,-257.4920654296875,-9558.201171875,-927.4482421875,-123.18293762207031,2592.404541015625,12699.763671875,1879.533203125,5765.75634765625,-1266.002685546875,11576.8115234375,-3972.053466796875,-6558.10009765625,-4561.7421875,-4263.71923828125,-8049.01123046875,-3244.876953125,3175.7353515625,1616.47802734375,-553.9258422851562,-1606.146484375,-2690.15625,3349.781005859375,-4381.33837890625,15079.1806640625,-5507.46923828125,-0.0,-8393.1279296875,4905.06494140625,-6305.37646484375,-4615.78369140625,-1095.9306640625,5245.208984375,-7669.130859375,769.2973022460938,-6080.46875,-3699.461669921875,-2312.66015625,6318.88720703125,12385.05078125,-21524.4296875,-9253.8193359375,-1195.2718505859375,933.8060913085938,-9855.4296875,-1858.8701171875,-3941.05908203125,-16258.55859375,313.91778564453125,-1472.632080078125,1661.7774658203125,-11196.13671875,-3185.272216796875,0.0,-1473.4267578125,0.0,-3466.606201171875,-0.0,2291.20263671875
-14790.6943359375,-15965.3037109375,-5563.10009765625,-1474.2215576171875,-1688.79833984375,8373.2607421875,-5545.6162109375,-2824.465576171875,-1381.23828125,5760.98779296875,-8149.94140625,-13027.19140625,-3566.741943359375,4843.076171875,-246.36587524414062,-9547.8701171875,-918.7062377929688,-114.44091796875,2601.94140625,12711.6845703125,1887.4803466796875,5774.498046875,-1258.85009765625,11586.3486328125,-3969.66943359375,-6551.74267578125,-4552.20556640625,-4253.3876953125,-8043.4482421875,-3234.54541015625,3186.06689453125,1624.42529296875,-545.183837890625,-1596.6097412109375,-2683.798583984375,3359.31787109375,-4371.00732421875,15088.7177734375,-5508.26416015625,-0.0,-8387.5654296875,4914.6015625,-6297.4296875,-4605.4521484375,-1086.3939208984375,5252.361328125,-7666.74658203125,783.6024169921875,-6079.673828125,-3683.567138671875,-2303.918212890625,6327.62890625,12737.91015625,-21522.83984375,-9247.4619140625,-1182.55615234375,944.9323120117188,-9837.9453125,-1845.35986328125,-3933.111572265625,-16252.19921875,324.249267578125,-1463.0953369140625,1668.13525390625,-11193.751953125,-3174.14599609375,0.0,-1466.2742919921875,0.0,-3454.685302734375,-0.0,2300.7392578125
-14777.9775390625,-15946.2294921875,-5544.8212890625,-1469.4532470703125,-1672.9036865234375,8386.771484375,-5531.31103515625,-2803.802490234375,-1366.9332275390625,5768.9345703125,-8132.45751953125,-13015.2705078125,-3559.58935546875,4854.9970703125,-230.47129821777344,-9531.974609375,-903.6064453125,-99.34107208251953,2617.8359375,12732.3466796875,1904.9644775390625,5788.80322265625,-1242.1607666015625,11602.2421875,-3949.006591796875,-6538.232421875,-4533.1318359375,-4238.28759765625,-8034.7060546875,-3225.0087890625,3202.756103515625,1641.1146240234375,-530.8787231445312,-1583.099365234375,-2668.698486328125,3372.828125,-4355.11279296875,15105.4072265625,-5499.52197265625,-0.0,-8370.8759765625,4928.90673828125,-6279.9453125,-4589.5576171875,-1071.294189453125,5273.81884765625,-7649.2626953125,786.7813110351562,-6059.80517578125,-3671.64599609375,-2285.639404296875,6347.49755859375,13476.212890625,-21494.23046875,-9237.1298828125,-1172.224609375,964.0057983398438,-9827.6142578125,-1827.875732421875,-3913.24365234375,-16239.484375,342.52801513671875,-1447.2008056640625,1671.314208984375,-11184.2158203125,-3163.019775390625,0.0,-1450.3797607421875,0.0,-3445.943115234375,-0.0,2296.765625
-14796.2568359375,-15880.2666015625,-5548.00048828125,-1475.0162353515625,-1676.8773193359375,8384.38671875,-5536.07958984375,-2801.418212890625,-1374.8804931640625,5764.16650390625,-8138.81591796875,-13015.2705078125,-3561.178955078125,4842.28125,-234.44493103027344,-9507.3388671875,-907.580078125,-105.69890594482422,2613.067626953125,12718.8369140625,1899.4013671875,5784.03466796875,-1246.1343994140625,11599.0634765625,-3952.97998046875,-6542.2060546875,-4538.69482421875,-4228.75048828125,-8042.6533203125,-3223.419189453125,3196.3984375,1638.7303466796875,-536.4417724609375,-1587.86767578125,-2673.467041015625,3370.444091796875,-4359.08642578125,15103.0224609375,-5493.958984375,-0.0,-8375.64453125,4924.138671875,-6285.5087890625,-4590.3525390625,-1078.44677734375,5271.4345703125,-7654.82568359375,784.3970947265625,-6065.36865234375,-3673.235595703125,-2291.20263671875,6355.4443359375,13393.5615234375,-21489.4609375,-9241.1044921875,-1175.403564453125,959.2374267578125,-9810.9248046875,-1833.4388427734375,-3918.806640625,-16244.2529296875,336.9649353027344,-1455.9427490234375,1656.21435546875,-11195.341796875,-3157.45654296875,0.0,-1457.5322265625,0.0,-3452.301025390625,-0.0,2285.639404296875
-14808.97265625,-15851.65625,-5551.9736328125,-1469.4532470703125,-1678.466796875,8380.4130859375,-5538.46337890625,-2814.9287109375,-1380.443603515625,5773.703125,-8146.7626953125,-13022.4228515625,-3547.66845703125,4836.71826171875,-234.44493103027344,-9528.7958984375,-908.374755859375,-110.46727752685547,2609.888671875,12711.6845703125,1895.427734375,5781.650390625,-1249.3133544921875,11593.5009765625,-3956.1591796875,-6544.58984375,-4541.0791015625,-4241.46630859375,-8037.09033203125,-3217.856201171875,3193.219482421875,1637.9356689453125,-538.03125,-1589.4571533203125,-2676.64599609375,3366.47021484375,-4362.26513671875,15096.6640625,-5499.52197265625,-0.0,-8377.234375,4922.548828125,-6286.30322265625,-4598.29931640625,-1079.241455078125,5261.89794921875,-7658.7998046875,791.5496826171875,-6068.5478515625,-3680.38818359375,-2289.613037109375,6340.3447265625,12256.3046875,-21490.255859375,-9236.3359375,-1176.9930419921875,964.0057983398438,-9821.255859375,-1842.9755859375,-3917.21728515625,-16234.716796875,329.8123779296875,-1459.91650390625,1664.16162109375,-11192.162109375,-3158.25146484375,0.0,-1441.6376953125,0.0,-3430.84326171875,-0.0,2303.12353515625
-14792.283203125,-15856.4248046875,-5544.8212890625,-1456.737548828125,-1672.1090087890625,8392.333984375,-5530.51611328125,-2803.802490234375,-1376.469970703125,5774.498046875,-8153.91552734375,-13016.8603515625,-3547.66845703125,4849.43408203125,-216.1661834716797,-9515.28515625,-904.401123046875,-102.51998901367188,2617.8359375,12722.8095703125,1904.169677734375,5790.392578125,-1243.750244140625,11603.83203125,-3950.595947265625,-6518.36376953125,-4530.748046875,-4235.9033203125,-8027.5537109375,-3206.72998046875,3199.577392578125,1643.498779296875,-531.6734619140625,-1581.5098876953125,-2668.698486328125,3373.622802734375,-4354.318359375,15106.201171875,-5519.39013671875,-0.0,-8370.8759765625,4935.2646484375,-6278.35595703125,-4587.96826171875,-1071.294189453125,5271.4345703125,-7658.0048828125,803.4705810546875,-6060.60009765625,-3666.0830078125,-2272.923828125,6350.67626953125,10522.2060546875,-21476.74609375,-9230.7734375,-1171.429931640625,978.3109130859375,-9833.1767578125,-1838.207275390625,-3914.8330078125,-16229.9482421875,338.55438232421875,-1451.9691162109375,1675.287841796875,-11181.8310546875,-3157.45654296875,0.0,-1440.843017578125,0.0,-3436.406494140625,-0.0,2314.249755859375
-14804.2041015625,-15853.2470703125,-5537.6689453125,-1452.763916015625,-1664.16162109375,8401.076171875,-5520.9794921875,-2794.265625,-1370.112060546875,5780.06103515625,-8141.99462890625,-12998.5810546875,-3567.53662109375,4848.63916015625,-199.4768829345703,-9518.4638671875,-895.6591186523438,-94.57270050048828,2624.988525390625,12731.5517578125,1912.116943359375,5797.544921875,-1235.00830078125,11612.57421875,-3941.85400390625,-6523.92724609375,-4518.8271484375,-4227.9560546875,-8033.1162109375,-3200.3720703125,3208.3193359375,1653.8302001953125,-522.931396484375,-1575.94677734375,-2661.5458984375,3379.980712890625,-4345.57568359375,15114.943359375,-5486.01171875,-0.0,-8362.9296875,4940.033203125,-6269.61376953125,-4578.431640625,-1063.346923828125,5280.9716796875,-7650.85205078125,806.6495361328125,-6047.88427734375,-3652.57275390625,-2256.234375,6357.0341796875,8326.37109375,-21468.796875,-9236.3359375,-1161.8931884765625,975.1319580078125,-9838.740234375,-1822.312744140625,-3896.55419921875,-16223.5888671875,346.5016784667969,-1444.816650390625,1672.1090087890625,-11179.447265625,-3147.919921875,0.0,-1420.9747314453125,0.0,-3418.127685546875,-0.0,2316.634033203125
-14798.6416015625,-15874.7041015625,-5535.28466796875,-1452.763916015625,-1665.7510986328125,8401.87109375,-5525.74755859375,-2792.67626953125,-1371.7015380859375,5776.88232421875,-8128.48388671875,-13000.96484375,-3577.8681640625,4842.28125,-220.93455505371094,-9525.6162109375,-893.2749633789062,-93.7779769897461,2623.39892578125,12724.3994140625,1912.9117431640625,5798.33984375,-1235.802978515625,11612.57421875,-3945.03271484375,-6533.4638671875,-4527.56884765625,-4223.18798828125,-8033.1162109375,-3198.78271484375,3209.114013671875,1656.21435546875,-520.5472412109375,-1575.152099609375,-2661.5458984375,3379.18603515625,-4347.9599609375,15112.5595703125,-5482.0380859375,-0.0,-8362.1337890625,4936.85400390625,-6274.38232421875,-4578.431640625,-1067.3204345703125,5280.1767578125,-7644.49462890625,808.239013671875,-6048.67919921875,-3650.1884765625,-2276.8974609375,6354.64990234375,5562.3056640625,-21469.59375,-9235.541015625,-1150.7669677734375,949.70068359375,-9857.0185546875,-1823.107421875,-3888.60693359375,-16222.7958984375,346.5016784667969,-1447.9954833984375,1668.13525390625,-11176.2685546875,-3143.9462890625,0.0,-1421.76953125,0.0,-3416.538330078125,-0.0,2305.507568359375
-14789.1044921875,-15888.2138671875,-5544.8212890625,-1459.91650390625,-1671.314208984375,8390.744140625,-5536.07958984375,-2803.0078125,-1381.23828125,5765.75634765625,-8135.63623046875,-13007.3232421875,-3588.994384765625,4839.10205078125,-238.4185791015625,-9524.02734375,-901.2222290039062,-100.93053436279297,2613.067626953125,12709.2998046875,1905.7591552734375,5791.1875,-1246.1343994140625,11603.83203125,-3950.595947265625,-6546.97412109375,-4537.10546875,-4231.134765625,-8037.884765625,-3209.114013671875,3201.96142578125,1649.061767578125,-527.6997680664062,-1583.099365234375,-2670.2880859375,3370.444091796875,-4357.49658203125,15103.0224609375,-5489.1904296875,-0.0,-8369.2861328125,4926.52294921875,-6283.9189453125,-4587.96826171875,-1078.44677734375,5273.81884765625,-7648.4677734375,800.2916870117188,-6055.037109375,-3668.46728515625,-2294.38134765625,6345.90771484375,3170.17236328125,-21462.44140625,-9240.3095703125,-1163.482666015625,936.1903076171875,-9866.5556640625,-1839.796630859375,-3895.759521484375,-16225.1796875,338.55438232421875,-1458.326904296875,1657.8038330078125,-11177.0625,-3144.740966796875,0.0,-1427.33251953125,0.0,-3431.637939453125,-0.0,2284.8447265625
-14801.025390625,-15881.8564453125,-5549.58984375,-1467.8636474609375,-1684.8245849609375,8378.029296875,-5549.58984375,-2819.697021484375,-1390.7750244140625,5755.42431640625,-8151.53125,-13008.1171875,-3580.25244140625,4830.3603515625,-257.4920654296875,-9539.921875,-909.1694946289062,-112.8514633178711,2601.146728515625,12695.7890625,1895.427734375,5781.650390625,-1258.0552978515625,11591.1171875,-3956.95361328125,-6551.74267578125,-4553.0,-4253.3876953125,-8041.064453125,-3209.90869140625,3190.835205078125,1642.7039794921875,-534.0576171875,-1591.84130859375,-2680.619384765625,3358.523193359375,-4372.5966796875,15089.51171875,-5501.90576171875,-0.0,-8378.029296875,4919.3701171875,-6295.83984375,-4603.86279296875,-1092.7518310546875,5253.95068359375,-7654.03125,793.13916015625,-6066.9580078125,-3685.156494140625,-2314.249755859375,6326.03955078125,2237.160888671875,-21463.236328125,-9242.6943359375,-1172.224609375,936.1903076171875,-9864.966796875,-1854.896484375,-3921.190673828125,-16222.7958984375,325.8387145996094,-1472.632080078125,1645.088134765625,-11188.189453125,-3158.25146484375,0.0,-1444.0218505859375,0.0,-3448.327392578125,-0.0,2276.8974609375
-14819.3046875,-15869.935546875,-5553.5634765625,-1463.0953369140625,-1693.566650390625,8383.591796875,-5553.5634765625,-2819.697021484375,-1394.7486572265625,5749.06689453125,-8157.09423828125,-13008.912109375,-3573.89453125,4827.97607421875,-263.05517578125,-9535.1533203125,-908.374755859375,-115.23564910888672,2598.762451171875,12695.7890625,1891.4541015625,5782.4453125,-1262.82373046875,11592.7060546875,-3968.080078125,-6542.2060546875,-4564.9208984375,-4250.20849609375,-8041.85888671875,-3209.114013671875,3191.630126953125,1643.498779296875,-538.03125,-1587.072998046875,-2685.387939453125,3360.112548828125,-4378.16015625,15091.896484375,-5514.62158203125,-0.0,-8383.591796875,4924.93310546875,-6302.19775390625,-4599.88916015625,-1095.9306640625,5252.361328125,-7658.0048828125,795.5233154296875,-6082.05810546875,-3669.261962890625,-2320.607421875,6332.3974609375,1973.3111572265625,-21480.71875,-9244.283203125,-1158.71435546875,934.600830078125,-9872.119140625,-1855.6912841796875,-3931.5224609375,-16215.642578125,325.04400634765625,-1474.2215576171875,1638.7303466796875,-11194.546875,-3159.8408203125,0.0,-1449.5849609375,0.0,-3455.47998046875,-0.0,2272.129150390625
-14825.662109375,-15892.982421875,-5534.490234375,-1448.7901611328125,-1676.0826416015625,8404.2548828125,-5535.28466796875,-2800.62353515625,-1389.9803466796875,5755.42431640625,-8143.58447265625,-12995.40234375,-3557.205078125,4824.0029296875,-225.7029266357422,-9506.54296875,-891.6854858398438,-97.75161743164062,2614.6572265625,12703.736328125,1907.3486328125,5800.72412109375,-1245.3397216796875,11609.3955078125,-3949.006591796875,-6524.7216796875,-4542.6689453125,-4223.18798828125,-8029.1435546875,-3205.140380859375,3208.3193359375,1657.8038330078125,-521.3419799804688,-1567.204833984375,-2669.493408203125,3376.8017578125,-4359.08642578125,15107.791015625,-5489.1904296875,-0.0,-8366.90234375,4943.2119140625,-6282.32958984375,-4580.02099609375,-1080.8309326171875,5268.255859375,-7647.67333984375,809.8284301757812,-6065.36865234375,-3651.778076171875,-2284.8447265625,6357.0341796875,1467.0689697265625,-21475.951171875,-9232.361328125,-1143.6143798828125,957.64794921875,-9849.8662109375,-1830.2598876953125,-3920.396240234375,-16202.130859375,340.1438293457031,-1462.3006591796875,1640.31982421875,-11181.037109375,-3138.383056640625,0.0,-1446.406005859375,0.0,-3452.301025390625,-0.0,2272.129150390625
-14814.5361328125,-15933.513671875,-5525.74755859375,-1449.5849609375,-1667.340576171875,8405.8447265625,-5529.7216796875,-2797.444580078125,-1385.2119140625,5749.861328125,-8130.8681640625,-12994.607421875,-3550.052734375,4824.79736328125,-209.0136260986328,-9519.259765625,-889.30126953125,-93.7779769897461,2617.041259765625,12708.5048828125,1912.9117431640625,5803.9033203125,-1241.3660888671875,11610.1904296875,-3936.290771484375,-6523.13232421875,-4529.158203125,-4225.572265625,-8025.9638671875,-3212.29296875,3210.70361328125,1659.393310546875,-514.984130859375,-1564.8206787109375,-2663.93017578125,3378.391357421875,-4352.728515625,15110.1748046875,-5491.57470703125,-0.0,-8359.75,4947.98046875,-6275.1767578125,-4578.431640625,-1075.267822265625,5274.61376953125,-7639.72607421875,808.239013671875,-6051.8583984375,-3654.162109375,-2268.1552734375,6357.82861328125,938.574462890625,-21485.486328125,-9226.798828125,-1145.2039794921875,979.1055908203125,-9855.4296875,-1825.4915771484375,-3908.475341796875,-16225.97265625,344.11749267578125,-1459.1217041015625,1641.9093017578125,-11176.2685546875,-3135.9990234375,0.0,-1452.763916015625,0.0,-3464.221923828125,-0.0,2266.56591796875
-14802.615234375,-15902.51953125,-5538.46337890625,-1459.91650390625,-1680.0562744140625,8389.9501953125,-5542.43701171875,-2816.51806640625,-1386.0067138671875,5761.7822265625,-8137.22607421875,-13007.3232421875,-3570.715576171875,4840.69189453125,-241.5974884033203,-9541.51171875,-900.427490234375,-108.08309173583984,2604.325439453125,12708.5048828125,1900.9908447265625,5791.98193359375,-1253.2869873046875,11597.4736328125,-3947.416748046875,-6535.84814453125,-4542.6689453125,-4244.6455078125,-8035.50048828125,-3228.982177734375,3197.193115234375,1648.26708984375,-527.6997680664062,-1579.125732421875,-2676.64599609375,3364.880859375,-4367.03369140625,15095.8701171875,-5503.49560546875,-0.0,-8370.08203125,4932.08544921875,-6289.48193359375,-4593.53125,-1086.3939208984375,5257.1298828125,-7646.083984375,800.2916870117188,-6059.80517578125,-3668.46728515625,-2300.7392578125,6334.78173828125,623.8619384765625,-21494.23046875,-9236.3359375,-1157.9195556640625,959.2374267578125,-9856.2236328125,-1852.5123291015625,-3917.21728515625,-16258.55859375,332.1965637207031,-1466.2742919921875,1651.446044921875,-11185.009765625,-3151.098876953125,0.0,-1432.1009521484375,0.0,-3437.995849609375,-0.0,2284.050048828125
-14785.92578125,-15834.966796875,-5532.900390625,-1455.1480712890625,-1674.4931640625,8396.3076171875,-5533.6953125,-2809.365478515625,-1379.6488037109375,5772.90869140625,-8124.5107421875,-12999.375,-3553.2314453125,4846.2548828125,-224.11346435546875,-9532.76953125,-896.453857421875,-102.51998901367188,2610.683349609375,12710.0947265625,1908.1434326171875,5797.544921875,-1245.3397216796875,11602.2421875,-3942.6484375,-6529.490234375,-4531.54248046875,-4239.08251953125,-8021.1953125,-3212.29296875,3202.756103515625,1656.21435546875,-522.13671875,-1572.767822265625,-2669.493408203125,3372.033447265625,-4359.08642578125,15101.4326171875,-5483.62744140625,-0.0,-8362.1337890625,4936.85400390625,-6278.35595703125,-4587.17333984375,-1078.44677734375,5265.0771484375,-7640.5205078125,802.6759033203125,-6053.44775390625,-3664.49365234375,-2280.076171875,6341.13916015625,164.50881958007812,-21465.619140625,-9222.0302734375,-1161.0985107421875,960.0321655273438,-9848.27734375,-1841.38623046875,-3911.654052734375,-16236.3056640625,337.7596435546875,-1459.91650390625,1657.0091552734375,-11167.5263671875,-3143.151611328125,0.0,-1413.0274658203125,0.0,-3426.074951171875,-0.0,2293.586669921875
-14766.8525390625,-15814.3046875,-5533.6953125,-1463.0953369140625,-1674.4931640625,8393.923828125,-5532.10595703125,-2806.186767578125,-1379.6488037109375,5769.7294921875,-8122.9208984375,-13000.1708984375,-3546.078857421875,4839.10205078125,-216.96090698242188,-9519.259765625,-896.453857421875,-104.9041748046875,2611.47802734375,12714.86328125,1906.5538330078125,5795.16064453125,-1244.544921875,11602.2421875,-3944.23828125,-6538.232421875,-4525.1845703125,-4237.4931640625,-8018.0166015625,-3203.551025390625,3199.577392578125,1657.8038330078125,-522.13671875,-1576.7415771484375,-2670.2880859375,3370.444091796875,-4356.7021484375,15102.2275390625,-5482.83251953125,-0.0,-8364.5185546875,4932.08544921875,-6276.76611328125,-4587.96826171875,-1076.0625,5267.46142578125,-7643.69970703125,799.4969482421875,-6051.8583984375,-3669.261962890625,-2272.923828125,6348.2919921875,-165.3035430908203,-21459.26171875,-9218.056640625,-1165.8668212890625,964.800537109375,-9856.2236328125,-1831.0546875,-3911.654052734375,-16211.66796875,335.3754577636719,-1458.326904296875,1655.419677734375,-11162.7578125,-3143.151611328125,0.0,-1427.33251953125,0.0,-3436.406494140625,-0.0,2291.997314453125
-14759.7001953125,-15834.1728515625,-5551.17919921875,-1473.4267578125,-1691.9771728515625,8382.0029296875,-5545.6162109375,-2810.955078125,-1386.8013916015625,5774.498046875,-8139.6103515625,-13015.2705078125,-3581.047119140625,4829.5654296875,-244.77639770507812,-9522.4384765625,-909.9642333984375,-119.20928955078125,2601.146728515625,12718.041015625,1891.4541015625,5780.06103515625,-1259.6448974609375,11590.3212890625,-3962.516845703125,-6555.7158203125,-4545.05322265625,-4244.6455078125,-8041.85888671875,-3215.471923828125,3184.4775390625,1646.6776123046875,-535.6470947265625,-1591.046630859375,-2686.1826171875,3356.138916015625,-4368.623046875,15095.07421875,-5511.44287109375,-0.0,-8382.0029296875,4916.19091796875,-6294.25048828125,-4596.7099609375,-1084.009765625,5265.0771484375,-7658.0048828125,788.3707885742188,-6070.93212890625,-3680.38818359375,-2302.328857421875,6341.93408203125,-1184.9403076171875,-21479.92578125,-9241.8984375,-1174.60888671875,934.600830078125,-9865.7607421875,-1826.286376953125,-3907.680419921875,-16227.5634765625,323.45452880859375,-1464.684814453125,1652.24072265625,-11178.65234375,-3156.662109375,0.0,-1436.0745849609375,0.0,-3447.53271484375,-0.0,2288.818359375
-14772.4150390625,-15862.783203125,-5559.12646484375,-1481.3741455078125,-1701.513916015625,8370.08203125,-5559.12646484375,-2826.849609375,-1391.5697021484375,5780.85546875,-8149.94140625,-13027.19140625,-3597.736328125,4823.2080078125,-265.4393615722656,-9547.07421875,-917.1168212890625,-126.36184692382812,2589.225830078125,12713.2734375,1882.7120361328125,5772.11376953125,-1270.77099609375,11579.990234375,-3968.87451171875,-6562.86865234375,-4566.5107421875,-4261.3349609375,-8049.01123046875,-3229.777099609375,3176.530029296875,1637.140869140625,-544.3890991210938,-1598.993896484375,-2694.924560546875,3346.602294921875,-4380.5439453125,15083.1533203125,-5522.5693359375,-0.0,-8389.9501953125,4907.44921875,-6307.7607421875,-4611.01513671875,-1097.520263671875,5254.74560546875,-7660.38916015625,779.6287841796875,-6082.05810546875,-3692.30908203125,-2323.786376953125,6323.65576171875,-1984.437255859375,-21502.970703125,-9249.8466796875,-1188.9139404296875,926.653564453125,-9890.3974609375,-1854.101806640625,-3913.24365234375,-16247.4306640625,311.5335998535156,-1473.4267578125,1639.5250244140625,-11185.009765625,-3174.94091796875,0.0,-1451.9691162109375,0.0,-3449.1220703125,-0.0,2276.102783203125
-14781.9521484375,-15872.3203125,-5556.7421875,-1475.81103515625,-1695.9508056640625,8374.0546875,-5559.12646484375,-2826.054931640625,-1390.7750244140625,5768.14013671875,-8143.58447265625,-13026.396484375,-3583.43115234375,4833.53955078125,-267.82354736328125,-9543.1015625,-912.3484497070312,-122.38819885253906,2590.815185546875,12708.5048828125,1887.4803466796875,5775.29296875,-1267.592041015625,11583.9638671875,-3957.74853515625,-6554.92138671875,-4564.9208984375,-4257.36083984375,-8038.68017578125,-3227.392822265625,3181.298583984375,1641.9093017578125,-541.210205078125,-1595.020263671875,-2690.15625,3351.37060546875,-4380.5439453125,15083.94921875,-5493.958984375,-0.0,-8385.9755859375,4913.01220703125,-6304.58203125,-4607.0419921875,-1098.31494140625,5252.361328125,-7654.82568359375,785.1918334960938,-6071.7265625,-3686.745849609375,-2322.99169921875,6326.833984375,-1309.7127685546875,-21508.53515625,-9240.3095703125,-1185.735107421875,928.2429809570312,-9888.0126953125,-1866.8175048828125,-3924.369873046875,-16241.0732421875,315.50726318359375,-1475.0162353515625,1639.5250244140625,-11182.6259765625,-3172.556640625,0.0,-1473.4267578125,0.0,-3463.42724609375,-0.0,2261.002685546875
-14789.1044921875,-15877.0888671875,-5540.84765625,-1464.684814453125,-1686.4140625,8387.5654296875,-5549.58984375,-2822.8759765625,-1392.364501953125,5741.119140625,-8136.431640625,-13008.1171875,-3577.0732421875,4842.28125,-248.75006103515625,-9538.3330078125,-901.2222290039062,-112.8514633178711,2598.762451171875,12693.4052734375,1897.8118896484375,5787.2138671875,-1258.0552978515625,11593.5009765625,-3947.416748046875,-6537.4375,-4549.8212890625,-4244.6455078125,-8032.32177734375,-3219.445556640625,3193.219482421875,1649.061767578125,-529.2892456054688,-1586.2783203125,-2679.82470703125,3361.701904296875,-4373.3916015625,15087.921875,-5502.70068359375,-0.0,-8374.0546875,4928.11181640625,-6295.04541015625,-4598.29931640625,-1090.36767578125,5247.5927734375,-7643.69970703125,797.11279296875,-6060.60009765625,-3675.619873046875,-2306.30224609375,6330.80810546875,-37.35224533081055,-21492.638671875,-9233.951171875,-1172.224609375,940.9586791992188,-9855.4296875,-1848.5386962890625,-3937.880126953125,-16226.7685546875,325.04400634765625,-1475.81103515625,1640.31982421875,-11181.037109375,-3150.30419921875,0.0,-1463.89013671875,0.0,-3473.7587890625,-0.0,2253.850341796875
-14780.3623046875,-15903.314453125,-5538.46337890625,-1482.1688232421875,-1683.235107421875,8393.923828125,-5544.8212890625,-2820.49169921875,-1389.9803466796875,5742.70849609375,-8138.0205078125,-13007.3232421875,-3570.715576171875,4839.89697265625,-240.00804138183594,-9534.359375,-898.8380126953125,-111.26200103759766,2601.146728515625,12695.7890625,1900.196044921875,5791.1875,-1255.671142578125,11596.6796875,-3945.827392578125,-6530.28466796875,-4543.46337890625,-4243.0556640625,-8029.1435546875,-3222.62451171875,3195.603515625,1654.625,-525.3156127929688,-1580.7152099609375,-2677.440673828125,3367.264892578125,-4367.828125,15091.896484375,-5501.111328125,-0.0,-8370.08203125,4938.44384765625,-6290.27685546875,-4594.326171875,-1087.188720703125,5251.56640625,-7636.546875,775.6550903320312,-6061.39501953125,-3670.8515625,-2297.560546875,6335.57666015625,778.039306640625,-21479.12890625,-9230.7734375,-1173.0194091796875,960.0321655273438,-9837.150390625,-1844.5650634765625,-3933.906494140625,-16215.642578125,327.4281921386719,-1471.83740234375,1641.9093017578125,-11179.447265625,-3148.71484375,0.0,-1436.8692626953125,0.0,-3459.45361328125,-0.0,2259.41357421875
-14781.1572265625,-15900.9306640625,-5541.642578125,-1485.3477783203125,-1687.208740234375,8393.923828125,-5547.20556640625,-2814.9287109375,-1389.9803466796875,5748.27197265625,-8143.58447265625,-13012.091796875,-3563.56298828125,4830.3603515625,-247.955322265625,-9524.822265625,-900.427490234375,-113.64618682861328,2599.55712890625,12701.3525390625,1894.6329345703125,5789.59814453125,-1258.0552978515625,11596.6796875,-3955.3642578125,-6523.92724609375,-4550.61572265625,-4240.671875,-8030.73193359375,-3226.59814453125,3194.014404296875,1652.24072265625,-526.905029296875,-1580.7152099609375,-2679.82470703125,3370.444091796875,-4371.00732421875,15094.2802734375,-5496.34326171875,-0.0,-8374.8505859375,4937.64892578125,-6293.45556640625,-4591.14697265625,-1087.188720703125,5257.1298828125,-7635.75244140625,771.6814575195312,-6070.13720703125,-3671.64599609375,-2303.918212890625,6342.72900390625,2067.089111328125,-21478.333984375,-9232.361328125,-1174.60888671875,952.8795776367188,-9826.0244140625,-1847.7440185546875,-3925.959228515625,-16225.1796875,325.8387145996094,-1470.2479248046875,1632.37255859375,-11183.4208984375,-3151.098876953125,0.0,-1443.2271728515625,0.0,-3465.0166015625,-0.0,2252.260986328125
-14808.177734375,-15904.1083984375,-5542.43701171875,-1459.1217041015625,-1688.79833984375,8389.9501953125,-5548.79541015625,-2820.49169921875,-1392.364501953125,5747.47705078125,-8146.7626953125,-13017.654296875,-3565.947265625,4821.61865234375,-247.16058349609375,-9531.974609375,-904.401123046875,-118.41455841064453,2597.9677734375,12697.37890625,1893.04345703125,5786.4189453125,-1259.6448974609375,11592.7060546875,-3960.132568359375,-6523.13232421875,-4553.0,-4243.0556640625,-8038.68017578125,-3217.061279296875,3190.835205078125,1648.26708984375,-530.8787231445312,-1583.099365234375,-2683.003662109375,3367.264892578125,-4374.98095703125,15090.306640625,-5498.7275390625,-0.0,-8376.439453125,4932.88037109375,-6295.83984375,-4596.7099609375,-1090.36767578125,5251.56640625,-7647.67333984375,802.6759033203125,-6072.52099609375,-3670.8515625,-2302.328857421875,6337.166015625,3434.022216796875,-21506.150390625,-9241.1044921875,-1173.814208984375,946.521728515625,-9819.6669921875,-1850.9229736328125,-3931.5224609375,-16246.6376953125,323.45452880859375,-1474.2215576171875,1622.8358154296875,-11187.39453125,-3155.072509765625,0.0,-1435.27978515625,0.0,-3456.274658203125,-0.0,2252.260986328125
-14825.662109375,-15914.4404296875,-5544.02685546875,-1455.1480712890625,-1691.9771728515625,8384.38671875,-5555.15283203125,-2825.26025390625,-1409.0538330078125,5722.8408203125,-8147.55712890625,-13017.654296875,-3575.484130859375,4811.287109375,-251.928955078125,-9528.7958984375,-907.580078125,-123.18293762207031,2591.60986328125,12671.1533203125,1889.8646240234375,5782.4453125,-1266.002685546875,11587.9375,-3964.90087890625,-6534.25830078125,-4556.17919921875,-4243.0556640625,-8040.26904296875,-3219.445556640625,3185.272216796875,1645.088134765625,-533.2628784179688,-1587.072998046875,-2686.977294921875,3361.701904296875,-4380.5439453125,15083.94921875,-5505.0849609375,-0.0,-8381.20703125,4928.11181640625,-6300.6083984375,-4600.68359375,-1102.28857421875,5244.4140625,-7655.62060546875,806.6495361328125,-6075.7001953125,-3675.619873046875,-2307.09716796875,6333.98681640625,4408.359375,-21522.83984375,-9242.6943359375,-1173.0194091796875,942.548095703125,-9818.0771484375,-1860.459716796875,-3939.4697265625,-16251.4052734375,318.6861572265625,-1485.3477783203125,1605.351806640625,-11184.2158203125,-3155.867431640625,0.0,-1434.485107421875,0.0,-3474.553466796875,-0.0,2230.80322265625
-14807.3837890625,-15931.9248046875,-5540.84765625,-1451.1744384765625,-1688.79833984375,8379.6181640625,-5556.7421875,-2834.002197265625,-1410.6431884765625,5717.27734375,-8140.40478515625,-13018.44921875,-3573.099853515625,4816.85009765625,-256.69732666015625,-9548.6640625,-905.1958618164062,-120.00402069091797,2589.225830078125,12667.9736328125,1893.04345703125,5783.23974609375,-1266.79736328125,11583.9638671875,-3960.132568359375,-6538.232421875,-4554.58984375,-4254.9765625,-8033.91162109375,-3225.803466796875,3189.245849609375,1646.6776123046875,-532.4681396484375,-1584.6888427734375,-2686.977294921875,3360.9072265625,-4378.95458984375,15079.9755859375,-5507.46923828125,-0.0,-8379.6181640625,4928.90673828125,-6299.81396484375,-4607.83642578125,-1100.6990966796875,5233.28759765625,-7646.87890625,807.4442749023438,-6073.31591796875,-3705.8193359375,-2314.249755859375,6326.03955078125,4812.08203125,-21526.814453125,-9234.74609375,-1180.1719970703125,938.574462890625,-9820.4609375,-1851.7176513671875,-3957.74853515625,-16243.4580078125,319.48089599609375,-1489.3214111328125,1611.7095947265625,-11176.2685546875,-3161.430419921875,0.0,-1424.1536865234375,0.0,-3468.990234375,-0.0,2233.982177734375
-14790.6943359375,-15931.9248046875,-5534.490234375,-1455.9427490234375,-1677.6719970703125,8389.1552734375,-5548.00048828125,-2826.054931640625,-1399.51708984375,5729.9931640625,-8129.279296875,-13008.1171875,-3563.56298828125,4819.234375,-240.00804138183594,-9544.6904296875,-897.2485961914062,-112.8514633178711,2596.37841796875,12677.5107421875,1900.9908447265625,5789.59814453125,-1257.2606201171875,11591.9111328125,-3948.211669921875,-6535.05322265625,-4542.6689453125,-4249.4140625,-8024.375,-3223.419189453125,3197.98779296875,1651.446044921875,-525.3156127929688,-1576.7415771484375,-2677.440673828125,3370.444091796875,-4369.41748046875,15087.1279296875,-5493.958984375,-0.0,-8370.08203125,4936.85400390625,-6291.0712890625,-4598.29931640625,-1091.95703125,5238.05615234375,-7642.90478515625,801.08642578125,-6057.42138671875,-3676.41455078125,-2298.35498046875,6333.1923828125,5951.72265625,-21522.044921875,-9226.0048828125,-1181.7613525390625,951.2901611328125,-9822.845703125,-1842.180908203125,-3966.490234375,-16232.33203125,328.222900390625,-1482.1688232421875,1622.0411376953125,-11169.91015625,-3155.072509765625,0.0,-1429.7166748046875,0.0,-3471.37451171875,-0.0,2245.1083984375
-14797.8466796875,-15881.8564453125,-5535.28466796875,-1451.1744384765625,-1671.314208984375,8395.5126953125,-5541.642578125,-2809.365478515625,-1393.9539794921875,5739.5302734375,-8126.099609375,-12997.7861328125,-3561.178955078125,4821.61865234375,-232.0607452392578,-9518.4638671875,-890.0960083007812,-104.9041748046875,2605.120361328125,12690.2265625,1905.7591552734375,5796.75048828125,-1246.92919921875,11602.2421875,-3941.05908203125,-6529.490234375,-4537.10546875,-4230.34033203125,-8024.375,-3218.65087890625,3204.345703125,1663.366943359375,-519.7525024414062,-1573.5626220703125,-2669.493408203125,3379.980712890625,-4363.85498046875,15097.458984375,-5478.85888671875,-0.0,-8364.5185546875,4936.85400390625,-6284.7138671875,-4585.583984375,-1087.9835205078125,5256.3349609375,-7642.1103515625,807.4442749023438,-6051.8583984375,-3665.288330078125,-2291.20263671875,6351.470703125,8316.0400390625,-21488.666015625,-9225.208984375,-1173.814208984375,954.4690551757812,-9787.876953125,-1849.3333740234375,-3940.26416015625,-16208.490234375,338.55438232421875,-1471.83740234375,1629.98828125,-11169.1162109375,-3139.177978515625,0.0,-1424.1536865234375,0.0,-3464.221923828125,-0.0,2252.260986328125
-14784.3359375,-15844.5029296875,-5550.384765625,-1460.711181640625,-1674.4931640625,8391.5400390625,-5547.20556640625,-2814.1337890625,-1395.54345703125,5738.7353515625,-8128.48388671875,-13007.3232421875,-3571.51025390625,4820.82373046875,-247.16058349609375,-9503.3642578125,-895.6591186523438,-110.46727752685547,2600.35205078125,12694.9951171875,1898.606689453125,5787.2138671875,-1253.2869873046875,11595.8857421875,-3946.622314453125,-6534.25830078125,-4541.0791015625,-4235.9033203125,-8029.1435546875,-3225.803466796875,3197.98779296875,1658.5985107421875,-526.905029296875,-1581.5098876953125,-2675.85107421875,3376.8017578125,-4369.41748046875,15092.6904296875,-5480.4482421875,-0.0,-8373.2607421875,4928.90673828125,-6287.892578125,-4591.14697265625,-1091.162353515625,5255.54052734375,-7647.67333984375,796.3180541992188,-6058.21630859375,-3668.46728515625,-2305.507568359375,6349.0869140625,11254.1513671875,-21471.9765625,-9229.18359375,-1172.224609375,945.72705078125,-9787.0830078125,-1849.3333740234375,-3928.34326171875,-16209.2841796875,331.4018249511719,-1471.83740234375,1631.577880859375,-11172.294921875,-3141.562255859375,0.0,-1434.485107421875,0.0,-3468.195556640625,-0.0,2251.466064453125
-14789.8984375,-15842.119140625,-5551.17919921875,-1477.400390625,-1681.645751953125,8376.439453125,-5552.7685546875,-2828.43896484375,-1397.9276123046875,5741.9140625,-8134.841796875,-13016.8603515625,-3575.484130859375,4820.82373046875,-248.75006103515625,-9535.1533203125,-908.374755859375,-121.59347534179688,2592.404541015625,12697.37890625,1889.8646240234375,5776.08740234375,-1260.4395751953125,11583.9638671875,-3952.97998046875,-6557.3056640625,-4547.43701171875,-4251.79833984375,-8032.32177734375,-3232.161376953125,3186.06689453125,1645.088134765625,-534.8523559570312,-1593.430908203125,-2683.798583984375,3362.49658203125,-4376.5703125,15081.564453125,-5490.77978515625,-0.0,-8378.8232421875,4913.01220703125,-6294.25048828125,-4607.0419921875,-1095.135986328125,5242.82470703125,-7646.87890625,782.012939453125,-6064.57373046875,-3679.59326171875,-2307.891845703125,6331.6025390625,13723.373046875,-21472.7734375,-9231.5673828125,-1175.403564453125,947.3164672851562,-9826.8193359375,-1850.128173828125,-3949.801025390625,-16232.33203125,321.0703430175781,-1477.400390625,1626.8094482421875,-11177.0625,-3157.45654296875,0.0,-1482.963623046875,0.0,-3491.24267578125,-0.0,2250.67138671875
-14783.5419921875,-15837.3505859375,-5540.84765625,-1463.89013671875,-1669.724853515625,8386.771484375,-5540.052734375,-2815.723388671875,-1386.0067138671875,5775.29296875,-8124.5107421875,-13004.1435546875,-3561.9736328125,4828.77099609375,-240.80276489257812,-9524.822265625,-900.427490234375,-108.87781524658203,2605.120361328125,12712.478515625,1901.7855224609375,5787.2138671875,-1248.5185546875,11597.4736328125,-3941.85400390625,-6545.384765625,-4539.48974609375,-4239.08251953125,-8025.16943359375,-3221.034912109375,3199.577392578125,1654.625,-523.7261352539062,-1583.099365234375,-2671.877685546875,3374.41748046875,-4363.06005859375,15095.07421875,-5481.2431640625,-0.0,-8367.697265625,4924.138671875,-6284.7138671875,-4592.73681640625,-1082.42041015625,5261.89794921875,-7641.3154296875,795.5233154296875,-6055.83203125,-3669.261962890625,-2298.35498046875,6341.93408203125,15075.20703125,-21469.59375,-9226.0048828125,-1160.3037109375,948.1112060546875,-9783.904296875,-1839.796630859375,-3911.654052734375,-16238.689453125,333.7860107421875,-1463.0953369140625,1633.9620361328125,-11165.9365234375,-3151.098876953125,0.0,-1466.2742919921875,0.0,-3447.53271484375,-0.0,2273.718505859375
-14793.078125,-15849.271484375,-5528.1318359375,-1455.9427490234375,-1656.21435546875,8391.5400390625,-5531.31103515625,-2810.955078125,-1377.2646484375,5780.06103515625,-8109.41015625,-12996.9912109375,-3544.489501953125,4833.53955078125,-228.0871124267578,-9539.126953125,-890.8907470703125,-100.13580322265625,2613.8623046875,12716.4521484375,1912.9117431640625,5796.75048828125,-1239.776611328125,11603.0380859375,-3924.369873046875,-6532.6689453125,-4525.9794921875,-4241.46630859375,-8011.65869140625,-3209.90869140625,3208.3193359375,1660.1881103515625,-514.1893920898438,-1573.5626220703125,-2659.956787109375,3382.364990234375,-4351.93408203125,15100.638671875,-5479.65380859375,-0.0,-8353.392578125,4933.67529296875,-6271.998046875,-4587.17333984375,-1073.6783447265625,5269.845703125,-7630.189453125,802.6759033203125,-6039.9375,-3670.056640625,-2285.639404296875,6341.93408203125,15106.201171875,-21480.71875,-9214.083984375,-1161.8931884765625,962.4163208007812,-9770.3935546875,-1836.6177978515625,-3892.580810546875,-16233.1259765625,343.32275390625,-1455.1480712890625,1641.1146240234375,-11153.220703125,-3140.767333984375,0.0,-1401.1064453125,0.0,-3422.896240234375,-0.0,2264.9765625
-14792.283203125,-15885.830078125,-5521.7744140625,-1459.91650390625,-1653.0355224609375,8397.1025390625,-5526.54248046875,-2818.90234375,-1386.8013916015625,5745.8876953125,-8103.84765625,-12996.1962890625,-3518.263671875,4828.77099609375,-209.0136260986328,-9551.0478515625,-886.9171142578125,-99.34107208251953,2612.27294921875,12694.19921875,1917.68017578125,5798.33984375,-1237.3924560546875,11605.421875,-3918.01220703125,-6526.3115234375,-4520.416015625,-4241.46630859375,-8006.89013671875,-3201.96142578125,3212.29296875,1662.572265625,-511.0104675292969,-1569.5889892578125,-2656.777587890625,3385.5439453125,-4349.5498046875,15098.25390625,-5465.3486328125,-0.0,-8347.0341796875,4940.82763671875,-6266.43505859375,-4587.96826171875,-1075.267822265625,5253.95068359375,-7619.85791015625,796.3180541992188,-6037.55322265625,-3666.0830078125,-2267.360595703125,6335.57666015625,14189.8798828125,-21485.486328125,-9208.51953125,-1160.3037109375,986.2581787109375,-9791.8505859375,-1828.6705322265625,-3918.806640625,-16225.97265625,345.7069396972656,-1464.684814453125,1624.42529296875,-11150.8369140625,-3133.61474609375,0.0,-1397.1328125,0.0,-3450.71142578125,-0.0,2230.80322265625
-14786.720703125,-15887.4189453125,-5517.005859375,-1459.91650390625,-1650.6513671875,8403.4609375,-5523.36376953125,-2817.31298828125,-1391.5697021484375,5729.1982421875,-8107.8212890625,-12992.22265625,-3517.46875,4814.4658203125,-205.03997802734375,-9535.1533203125,-881.35400390625,-94.57270050048828,2615.451904296875,12681.484375,1922.448486328125,5803.1083984375,-1235.802978515625,11608.6005859375,-3914.8330078125,-6519.953125,-4516.44287109375,-4235.9033203125,-8009.2744140625,-3194.80908203125,3214.677001953125,1667.340576171875,-507.036865234375,-1565.6153564453125,-2652.80419921875,3387.927978515625,-4348.7548828125,15101.4326171875,-5461.375,-0.0,-8343.060546875,4948.77490234375,-6265.64013671875,-4585.583984375,-1076.0625,5249.18212890625,-7611.11572265625,797.11279296875,-6041.52685546875,-3653.3671875,-2262.59228515625,6337.9609375,12693.4052734375,-21485.486328125,-9210.109375,-1146.7933349609375,1002.9474487304688,-9767.21484375,-1825.4915771484375,-3936.290771484375,-16215.642578125,346.5016784667969,-1467.8636474609375,1614.8885498046875,-11152.4267578125,-3120.899169921875,0.0,-1413.8221435546875,0.0,-3468.990234375,-0.0,2237.955810546875
