-14882.087890625,-16866.525390625,-5411.306640625,-1379.6488037109375,-1470.2479248046875,8560.021484375,-5420.84375,-2684.59326171875,-1356.6016845703125,5815.029296875,-8042.6533203125,-13009.70703125,-3504.753173828125,4893.14404296875,-139.07749938964844,-9336.4716796875,-836.0545043945312,-58.80991744995117,2701.282470703125,12775.26171875,2012.2528076171875,5955.6962890625,-1173.814208984375,11729.3994140625,-3844.10205078125,-6385.64453125,-4430.6123046875,-4168.3515625,-8029.9375,-3117.720458984375,3290.17626953125,1819.928466796875,-428.35870361328125,-1392.364501953125,-2589.225830078125,3537.337158203125,-4246.23486328125,15202.36328125,-5406.53857421875,-0.0,-8208.751953125,5019.505859375,-6171.06787109375,-4498.16357421875,-948.9059448242188,5381.107421875,-7490.31689453125,889.30126953125,-5904.0390625,-3567.53662109375,-2187.887939453125,6441.27490234375,10852.01953125,-21508.53515625,-9138.583984375,-1076.857177734375,1071.294189453125,-9704.4306640625,-1745.2239990234375,-3877.480712890625,-16289.552734375,414.0535888671875,-1378.059326171875,1628.39892578125,-11151.6318359375,-3116.130859375,0.0,-1461.505859375,0.0,-3419.717041015625,-0.0,2284.8447265625
-14917.8505859375,-16919.771484375,-5414.48583984375,-1362.164794921875,-1470.2479248046875,8560.021484375,-5424.8173828125,-2692.54052734375,-1359.7806396484375,5792.7763671875,-8045.037109375,-13016.8603515625,-3504.753173828125,4897.91259765625,-141.46168518066406,-9339.650390625,-839.2333984375,-61.98883056640625,2696.51416015625,12764.13671875,2009.86865234375,5952.51708984375,-1175.403564453125,11724.630859375,-3845.691650390625,-6394.38623046875,-4432.201171875,-4166.76171875,-8033.1162109375,-3113.74658203125,3287.792236328125,1811.981201171875,-433.1270751953125,-1394.7486572265625,-2591.60986328125,3534.157958984375,-4251.79833984375,15196.005859375,-5412.1015625,-0.0,-8208.751953125,5017.12158203125,-6173.45166015625,-4499.75341796875,-955.2637939453125,5366.00732421875,-7499.853515625,905.1958618164062,-5902.44921875,-3568.33154296875,-2191.861328125,6437.3017578125,10278.224609375,-21516.48046875,-9143.3525390625,-1062.5521240234375,1075.267822265625,-9714.7626953125,-1757.1448974609375,-3901.322509765625,-16314.9833984375,410.0799560546875,-1385.2119140625,1635.551513671875,-11159.5791015625,-3122.48876953125,0.0,-1466.2742919921875,0.0,-3432.432861328125,-0.0,2273.718505859375
-14918.64453125,-16914.208984375,-5427.20166015625,-1370.112060546875,-1472.632080078125,8566.3798828125,-5429.5859375,-2686.977294921875,-1355.0123291015625,5791.98193359375,-8047.42138671875,-13001.759765625,-3504.753173828125,4901.8857421875,-133.514404296875,-9330.9091796875,-837.6439208984375,-65.1677474975586,2694.924560546875,12774.4677734375,2005.1002197265625,5953.31201171875,-1178.58251953125,11726.2197265625,-3850.4599609375,-6388.8232421875,-4436.9697265625,-4152.45654296875,-8030.73193359375,-3096.2626953125,3286.20263671875,1814.3653564453125,-434.716552734375,-1392.364501953125,-2595.583740234375,3536.542236328125,-4255.771484375,15198.3896484375,-5398.59130859375,-0.0,-8214.314453125,5023.4794921875,-6177.42529296875,-4491.01123046875,-956.0584716796875,5369.9814453125,-7512.5693359375,897.2485961914062,-5906.4228515625,-3552.436767578125,-2185.503662109375,6447.63330078125,10178.8837890625,-21487.87109375,-9141.7626953125,-1056.1943359375,1076.857177734375,-9703.6357421875,-1761.1185302734375,-3896.55419921875,-16292.73046875,408.4905090332031,-1384.417236328125,1629.193603515625,-11154.810546875,-3111.362548828125,0.0,-1471.0426025390625,0.0,-3438.79052734375,-0.0,2277.692138671875
-14876.525390625,-16876.85546875,-5430.38037109375,-1389.9803466796875,-1478.1951904296875,8567.173828125,-5434.3544921875,-2682.208984375,-1350.243896484375,5809.4658203125,-8040.26904296875,-12987.4541015625,-3507.931884765625,4913.01220703125,-149.4089813232422,-9318.1923828125,-838.4386596679688,-70.73084259033203,2690.15625,12787.978515625,2001.1265869140625,5948.54345703125,-1184.9403076171875,11724.630859375,-3852.049560546875,-6383.26025390625,-4444.9169921875,-4149.2783203125,-8028.34814453125,-3073.215576171875,3282.229248046875,1822.312744140625,-437.1007385253906,-1394.7486572265625,-2601.94140625,3534.157958984375,-4259.7451171875,15198.3896484375,-5399.3857421875,-0.0,-8217.494140625,5021.09521484375,-6182.98876953125,-4492.60107421875,-957.64794921875,5381.107421875,-7494.291015625,875.7908935546875,-5915.1650390625,-3542.10546875,-2201.398193359375,6453.1962890625,10337.830078125,-21468.00390625,-9137.7900390625,-1054.6048583984375,1068.115234375,-9708.404296875,-1763.502685546875,-3882.2490234375,-16263.326171875,405.31158447265625,-1382.032958984375,1626.8094482421875,-11139.7099609375,-3106.593994140625,0.0,-1472.632080078125,0.0,-3433.2275390625,-0.0,2289.613037109375
-14804.2041015625,-16859.373046875,-5422.43359375,-1373.291015625,-1469.4532470703125,8572.7373046875,-5426.40673828125,-2669.493408203125,-1336.7335205078125,5828.53955078125,-8037.09033203125,-12974.7392578125,-3496.805908203125,4934.4697265625,-142.2564239501953,-9284.8134765625,-832.080810546875,-65.96247100830078,2697.308837890625,12805.4619140625,2007.484375,5952.51708984375,-1177.787841796875,11731.7841796875,-3841.718017578125,-6368.16015625,-4437.7646484375,-4134.17822265625,-8019.6064453125,-3054.14208984375,3285.407958984375,1839.001953125,-430.7428894042969,-1388.390869140625,-2594.788818359375,3538.92626953125,-4251.79833984375,15206.3369140625,-5388.259765625,-0.0,-8208.751953125,5028.248046875,-6174.24609375,-4484.6533203125,-948.9059448242188,5394.61767578125,-7481.5751953125,892.480224609375,-5924.70166015625,-3542.10546875,-2194.24560546875,6470.68017578125,9991.328125,-21486.283203125,-9129.0478515625,-1049.8365478515625,1075.267822265625,-9686.947265625,-1746.018798828125,-3872.71240234375,-16245.841796875,409.28521728515625,-1370.112060546875,1645.8829345703125,-11129.37890625,-3086.725830078125,0.0,-1467.8636474609375,0.0,-3434.817138671875,-0.0,2284.8447265625
-14799.435546875,-16930.103515625,-5422.43359375,-1335.14404296875,-1456.737548828125,8579.890625,-5415.28076171875,-2668.698486328125,-1334.3492431640625,5821.38671875,-8044.24267578125,-12977.123046875,-3484.090087890625,4936.0595703125,-121.59347534179688,-9311.8349609375,-823.3388061523438,-54.836273193359375,2705.256103515625,12805.4619140625,2014.636962890625,5966.822265625,-1167.456298828125,11736.5517578125,-3844.89697265625,-6339.5498046875,-4426.63818359375,-4144.509765625,-8014.04296875,-3057.32080078125,3293.355224609375,1844.5650634765625,-424.38507080078125,-1374.8804931640625,-2584.45751953125,3548.463134765625,-4243.0556640625,15207.9267578125,-5384.28662109375,-0.0,-8205.5732421875,5049.70556640625,-6161.53076171875,-4483.8583984375,-940.1639404296875,5390.64404296875,-7516.54296875,930.627197265625,-5980.3330078125,-3548.463134765625,-2172.787841796875,6467.5009765625,10019.9384765625,-21532.376953125,-9124.279296875,-1051.4259033203125,1092.7518310546875,-9666.283203125,-1737.2767333984375,-3881.45458984375,-16237.1005859375,418.0272521972656,-1366.138427734375,1646.6776123046875,-11125.4052734375,-3071.6259765625,0.0,-1436.0745849609375,0.0,-3424.4853515625,-0.0,2266.56591796875
-14824.8671875,-16926.130859375,-5426.40673828125,-1348.6544189453125,-1441.6376953125,8578.30078125,-5416.0751953125,-2679.82470703125,-1337.5281982421875,5783.23974609375,-8045.83251953125,-12981.8916015625,-3502.368896484375,4932.88037109375,-116.82510375976562,-9325.3447265625,-827.3125,-55.63100051879883,2702.8720703125,12784.798828125,2013.84228515625,5966.822265625,-1164.2774658203125,11732.578125,-3851.254638671875,-6335.57666015625,-4421.0751953125,-4159.609375,-8033.91162109375,-3085.136474609375,3294.94482421875,1833.4388427734375,-425.9745178222656,-1377.2646484375,-2582.0732421875,3546.873779296875,-4243.0556640625,15201.568359375,-5395.41259765625,-0.0,-8204.77734375,5055.2685546875,-6150.404296875,-4491.80615234375,-941.75341796875,5377.92822265625,-7524.490234375,914.7326049804688,-5923.1123046875,-3554.821044921875,-2168.814453125,6457.169921875,11003.8115234375,-21538.734375,-9144.9423828125,-1073.6783447265625,1086.3939208984375,-9644.826171875,-1732.50830078125,-3908.475341796875,-16270.4794921875,416.4377746582031,-1376.469970703125,1629.98828125,-11134.9423828125,-3080.3681640625,0.0,-1466.2742919921875,0.0,-3461.043212890625,-0.0,2246.69775390625
-14824.0732421875,-16889.572265625,-5431.97021484375,-1356.6016845703125,-1440.843017578125,8563.9951171875,-5419.25439453125,-2699.69287109375,-1332.7598876953125,5789.59814453125,-8049.01123046875,-12989.0439453125,-3514.289794921875,4939.23828125,-127.95130920410156,-9334.0869140625,-832.8755493164062,-60.39937210083008,2698.8984375,12790.3623046875,2009.073974609375,5958.080078125,-1165.8668212890625,11723.0419921875,-3842.512939453125,-6353.06005859375,-4429.0224609375,-4174.70947265625,-8048.216796875,-3101.031005859375,3290.970947265625,1829.4652099609375,-433.1270751953125,-1388.390869140625,-2584.45751953125,3538.92626953125,-4246.23486328125,15191.2373046875,-5405.744140625,-0.0,-8207.95703125,5036.98974609375,-6149.60986328125,-4502.93212890625,-944.1375732421875,5359.6494140625,-7516.54296875,908.374755859375,-5891.3232421875,-3564.357666015625,-2181.530029296875,6428.5595703125,12416.83984375,-21533.966796875,-9156.0673828125,-1078.44677734375,1070.4993896484375,-9666.283203125,-1722.9715576171875,-3914.0380859375,-16275.248046875,411.6694030761719,-1381.23828125,1641.9093017578125,-11162.7578125,-3101.82568359375,0.0,-1499.65283203125,0.0,-3464.221923828125,-0.0,2264.9765625
-14803.4091796875,-16843.4765625,-5436.73828125,-1351.8333740234375,-1473.4267578125,8557.6376953125,-5427.20166015625,-2702.8720703125,-1335.14404296875,5813.43994140625,-8037.09033203125,-12986.66015625,-3492.03759765625,4931.291015625,-127.15657043457031,-9330.11328125,-836.8492431640625,-67.55193328857422,2692.54052734375,12792.74609375,2001.92138671875,5949.33837890625,-1178.58251953125,11717.478515625,-3844.89697265625,-6379.2861328125,-4435.38037109375,-4171.5302734375,-8031.52734375,-3076.394287109375,3285.407958984375,1830.2598876953125,-437.1007385253906,-1391.5697021484375,-2597.173095703125,3534.952880859375,-4255.771484375,15187.263671875,-5411.306640625,-0.0,-8219.8779296875,5024.2744140625,-6175.041015625,-4503.72705078125,-948.9059448242188,5358.85498046875,-7507.80126953125,914.7326049804688,-5888.14404296875,-3565.15234375,-2182.32470703125,6427.7646484375,13097.126953125,-21502.17578125,-9140.96875,-1064.1416015625,1081.6256103515625,-9691.71484375,-1737.2767333984375,-3918.01220703125,-16268.888671875,403.7221374511719,-1384.417236328125,1642.7039794921875,-11157.9892578125,-3097.85205078125,0.0,-1511.57373046875,0.0,-3461.043212890625,-0.0,2276.102783203125
-14803.4091796875,-16891.95703125,-5435.14892578125,-1373.291015625,-1500.4476318359375,8553.6640625,-5439.12255859375,-2700.48779296875,-1351.03857421875,5812.64501953125,-8033.91162109375,-12997.7861328125,-3503.95849609375,4909.83349609375,-139.8722381591797,-9353.1611328125,-839.2333984375,-76.2939453125,2684.59326171875,12785.59375,1994.768798828125,5944.56982421875,-1196.0665283203125,11713.5048828125,-3851.254638671875,-6380.0810546875,-4437.7646484375,-4174.70947265625,-8025.16943359375,-3092.2890625,3281.434326171875,1830.2598876953125,-441.0743713378906,-1394.7486572265625,-2612.27294921875,3530.979248046875,-4268.4873046875,15184.87890625,-5411.306640625,-0.0,-8224.646484375,5019.505859375,-6207.625,-4508.4951171875,-959.2374267578125,5365.212890625,-7506.2119140625,894.0697021484375,-5877.01806640625,-3577.0732421875,-2192.65625,6433.328125,13798.0771484375,-21479.92578125,-9135.4052734375,-1070.4993896484375,1077.6519775390625,-9687.7412109375,-1754.7607421875,-3906.091064453125,-16269.68359375,392.5959167480469,-1388.390869140625,1633.167236328125,-11140.505859375,-3105.79931640625,0.0,-1465.4794921875,0.0,-3428.459228515625,-0.0,2280.076171875
-14829.6357421875,-16916.59375,-5447.86474609375,-1379.6488037109375,-1492.500244140625,8553.6640625,-5440.7119140625,-2701.282470703125,-1360.5753173828125,5803.1083984375,-8043.4482421875,-13014.4755859375,-3515.08447265625,4909.83349609375,-147.81951904296875,-9352.3662109375,-843.20703125,-77.8833999633789,2679.82470703125,12777.646484375,1991.58984375,5942.98046875,-1195.2718505859375,11710.326171875,-3859.996826171875,-6363.39208984375,-4440.14892578125,-4185.041015625,-8042.6533203125,-3110.56787109375,3276.666015625,1827.0810546875,-445.0480041503906,-1397.9276123046875,-2612.27294921875,3528.594970703125,-4269.28173828125,15179.31640625,-5420.04931640625,-0.0,-8229.4150390625,5021.09521484375,-6198.8828125,-4512.46875,-967.1846923828125,5362.03369140625,-7520.51708984375,886.9171142578125,-5900.85986328125,-3578.662841796875,-2199.013916015625,6433.328125,15164.2158203125,-21480.71875,-9151.2998046875,-1092.7518310546875,1068.9100341796875,-9690.125,-1761.1185302734375,-3914.8330078125,-16266.50390625,389.4170227050781,-1393.9539794921875,1642.7039794921875,-11153.220703125,-3139.177978515625,0.0,-1475.0162353515625,0.0,-3433.2275390625,-0.0,2288.818359375
-14835.994140625,-16874.470703125,-5441.5068359375,-1386.0067138671875,-1487.73193359375,8544.1279296875,-5436.73828125,-2699.69287109375,-1351.8333740234375,5814.234375,-8038.68017578125,-13014.4755859375,-3508.726806640625,4917.7802734375,-145.43533325195312,-9347.59765625,-841.6175537109375,-76.2939453125,2682.208984375,12787.1826171875,1993.9739990234375,5943.775390625,-1191.298095703125,11709.53125,-3856.023193359375,-6399.15478515625,-4440.14892578125,-4182.65673828125,-8042.6533203125,-3097.85205078125,3277.460693359375,1826.286376953125,-442.663818359375,-1397.1328125,-2609.093994140625,3527.00537109375,-4264.513671875,15183.2890625,-5416.8701171875,-0.0,-8227.0302734375,5014.73779296875,-6191.73046875,-4512.46875,-961.62158203125,5367.59716796875,-7513.3642578125,879.7645263671875,-5910.396484375,-3588.994384765625,-2198.21923828125,6435.71240234375,15352.56640625,-21522.83984375,-9152.0947265625,-1087.188720703125,1059.373291015625,-9716.3515625,-1752.3765869140625,-3898.143798828125,-16260.9423828125,390.21173095703125,-1388.390869140625,1660.9827880859375,-11165.9365234375,-3143.9462890625,0.0,-1521.9052734375,0.0,-3440.380126953125,-0.0,2301.533935546875
-14835.994140625,-16868.91015625,-5439.12255859375,-1392.364501953125,-1488.5267333984375,8542.5380859375,-5435.14892578125,-2706.05078125,-1342.296630859375,5830.12890625,-8043.4482421875,-13008.1171875,-3498.395263671875,4924.93310546875,-143.8458709716797,-9365.08203125,-844.0017700195312,-77.08867645263672,2684.59326171875,12797.5146484375,1995.5634765625,5942.18603515625,-1188.9139404296875,11707.9423828125,-3858.4072265625,-6408.69140625,-4443.32763671875,-4195.3720703125,-8035.50048828125,-3095.4677734375,3278.25537109375,1820.72314453125,-443.45855712890625,-1399.51708984375,-2607.504638671875,3524.621337890625,-4262.12939453125,15182.4951171875,-5415.28076171875,-0.0,-8225.44140625,5012.353515625,-6190.935546875,-4518.8271484375,-956.8532104492188,5370.77587890625,-7505.4169921875,871.8172607421875,-5913.57568359375,-3591.37841796875,-2195.835205078125,6423.79150390625,15231.7685546875,-21516.48046875,-9148.12109375,-1076.0625,1068.115234375,-9757.677734375,-1753.9659423828125,-3883.0439453125,-16290.345703125,391.0064697265625,-1384.417236328125,1666.5458984375,-11162.7578125,-3150.30419921875,0.0,-1532.2366943359375,0.0,-3423.69091796875,-0.0,2297.560546875
-14837.5830078125,-16881.625,-5433.5595703125,-1361.3701171875,-1479.78466796875,8546.51171875,-5431.17529296875,-2697.308837890625,-1342.296630859375,5816.61865234375,-8043.4482421875,-12989.0439453125,-3500.779296875,4921.75439453125,-137.48805236816406,-9357.134765625,-844.0017700195312,-73.90975952148438,2688.56689453125,12794.3349609375,1999.5372314453125,5942.18603515625,-1184.1456298828125,11713.5048828125,-3852.049560546875,-6407.896484375,-4439.35400390625,-4185.83544921875,-8032.32177734375,-3091.494384765625,3279.844970703125,1817.5443115234375,-441.0743713378906,-1401.1064453125,-2603.53076171875,3528.594970703125,-4258.95068359375,15187.263671875,-5414.48583984375,-0.0,-8219.8779296875,5006.7900390625,-6184.578125,-4513.263671875,-955.2637939453125,5376.3388671875,-7514.15869140625,905.9906005859375,-5908.01220703125,-3569.9208984375,-2187.887939453125,6433.328125,15828.609375,-21456.083984375,-9142.5576171875,-1059.373291015625,1079.241455078125,-9752.1142578125,-1755.5555419921875,-3881.45458984375,-16289.552734375,396.569580078125,-1383.62255859375,1655.419677734375,-11152.4267578125,-3135.204345703125,0.0,-1516.3421630859375,0.0,-3452.301025390625,-0.0,2264.181884765625
-14874.140625,-17027.85546875,-5433.5595703125,-1356.6016845703125,-1478.989990234375,8541.7431640625,-5435.943359375,-2717.9716796875,-1347.8597412109375,5807.08154296875,-8044.24267578125,-12991.4287109375,-3511.111083984375,4925.72802734375,-144.64060974121094,-9391.3076171875,-844.7965087890625,-77.08867645263672,2681.414306640625,12787.978515625,1996.358154296875,5938.2119140625,-1189.708740234375,11705.5576171875,-3855.228515625,-6400.744140625,-4443.32763671875,-4199.34619140625,-8036.2958984375,-3081.16259765625,3275.871337890625,1819.1337890625,-442.663818359375,-1401.1064453125,-2606.709716796875,3524.621337890625,-4264.513671875,15176.13671875,-5404.154296875,-0.0,-8223.056640625,5006.7900390625,-6187.7568359375,-4520.416015625,-959.2374267578125,5353.2919921875,-7522.90087890625,909.9642333984375,-5911.19140625,-3571.51025390625,-2196.6298828125,6407.10205078125,16357.8984375,-21467.208984375,-9145.736328125,-1060.962646484375,1066.5257568359375,-9745.7568359375,-1754.7607421875,-3910.859619140625,-16262.53125,392.5959167480469,-1391.5697021484375,1655.419677734375,-11154.015625,-3131.230712890625,0.0,-1529.057861328125,0.0,-3474.553466796875,-0.0,2269.744873046875
-14897.1875,-16976.9921875,-5428.791015625,-1369.3173828125,-1471.0426025390625,8554.458984375,-5425.61181640625,-2705.256103515625,-1334.3492431640625,5818.2080078125,-8047.42138671875,-12993.0185546875,-3510.316162109375,4940.82763671875,-136.6933135986328,-9376.2080078125,-836.0545043945312,-66.7572021484375,2694.1298828125,12803.8720703125,2003.5107421875,5950.1328125,-1180.1719970703125,11717.478515625,-3847.28125,-6384.849609375,-4432.201171875,-4188.2197265625,-8033.91162109375,-3063.6787109375,3286.20263671875,1831.0546875,-433.92181396484375,-1389.185546875,-2594.788818359375,3536.542236328125,-4251.79833984375,15187.263671875,-5389.84912109375,-0.0,-8215.904296875,5021.09521484375,-6176.63037109375,-4507.70068359375,-947.3164672851562,5362.03369140625,-7510.97998046875,895.6591186523438,-5904.0390625,-3561.178955078125,-2187.887939453125,6417.43310546875,16829.966796875,-21487.078125,-9142.5576171875,-1060.16796875,1069.7047119140625,-9727.478515625,-1744.42919921875,-3909.269775390625,-16260.9423828125,402.1326599121094,-1378.059326171875,1671.314208984375,-11153.220703125,-3126.462158203125,0.0,-1531.4420166015625,0.0,-3472.169189453125,-0.0,2299.149658203125
-14852.6826171875,-16853.013671875,-5427.20166015625,-1383.62255859375,-1460.711181640625,8566.3798828125,-5415.28076171875,-2683.798583984375,-1324.8125,5824.56591796875,-8044.24267578125,-12987.4541015625,-3507.13720703125,4944.80126953125,-119.20928955078125,-9341.240234375,-833.6702880859375,-60.39937210083008,2703.666748046875,12818.1767578125,2009.073974609375,5954.10693359375,-1169.8404541015625,11729.3994140625,-3838.5390625,-6374.51806640625,-4420.2802734375,-4160.404296875,-8027.5537109375,-3062.884033203125,3290.970947265625,1835.822998046875,-429.94818115234375,-1388.390869140625,-2588.43115234375,3545.2841796875,-4241.46630859375,15201.568359375,-5380.3125,-0.0,-8209.5458984375,5027.453125,-6166.29931640625,-4492.60107421875,-935.3955688476562,5384.28662109375,-7508.595703125,882.1487426757812,-5892.1181640625,-3552.436767578125,-2170.40380859375,6446.04345703125,16723.474609375,-21465.619140625,-9136.2001953125,-1066.5257568359375,1078.44677734375,-9732.24609375,-1731.713623046875,-3887.812255859375,-16252.994140625,410.0799560546875,-1366.138427734375,1679.2615966796875,-11152.4267578125,-3124.078125,0.0,-1539.3892822265625,0.0,-3464.221923828125,-0.0,2307.891845703125
-14843.146484375,-16810.89453125,-5424.8173828125,-1389.9803466796875,-1460.711181640625,8560.81640625,-5413.69091796875,-2684.59326171875,-1330.375732421875,5825.36083984375,-8041.85888671875,-12986.66015625,-3499.98486328125,4936.85400390625,-108.87781524658203,-9338.85546875,-839.2333984375,-61.98883056640625,2701.282470703125,12812.6142578125,2009.073974609375,5950.1328125,-1171.429931640625,11727.8095703125,-3836.155029296875,-6379.2861328125,-4420.2802734375,-4161.99365234375,-8028.34814453125,-3074.804931640625,3286.99755859375,1830.2598876953125,-433.1270751953125,-1394.7486572265625,-2592.404541015625,3539.72119140625,-4240.671875,15201.568359375,-5380.3125,-0.0,-8209.5458984375,5020.30029296875,-6166.29931640625,-4494.98486328125,-936.1903076171875,5384.28662109375,-7506.2119140625,876.5856323242188,-5893.70703125,-3571.51025390625,-2160.866943359375,6450.017578125,15650.5908203125,-21438.59765625,-9139.37890625,-1072.883544921875,1088.7781982421875,-9746.5517578125,-1715.8189697265625,-3899.7333984375,-16256.9677734375,410.0799560546875,-1367.7279052734375,1673.698486328125,-11152.4267578125,-3116.925537109375,0.0,-1570.3836669921875,0.0,-3468.990234375,-0.0,2302.328857421875
-14868.5771484375,-16787.84765625,-5429.5859375,-1389.185546875,-1474.2215576171875,8546.51171875,-5426.40673828125,-2702.8720703125,-1332.7598876953125,5826.1552734375,-8048.216796875,-13004.939453125,-3498.395263671875,4938.44384765625,-120.00402069091797,-9371.439453125,-853.5385131835938,-74.7044906616211,2689.361572265625,12807.0517578125,1997.153076171875,5939.0068359375,-1186.52978515625,11713.5048828125,-3851.254638671875,-6397.5654296875,-4432.201171875,-4190.603515625,-8037.09033203125,-3093.87841796875,3272.6923828125,1811.981201171875,-445.0480041503906,-1409.8485107421875,-2604.325439453125,3525.416015625,-4254.18212890625,15185.673828125,-5431.97021484375,-0.0,-8219.8779296875,5005.20068359375,-6177.42529296875,-4512.46875,-945.72705078125,5365.212890625,-7507.00634765625,878.9698486328125,-5911.19140625,-3581.841796875,-2172.787841796875,6425.380859375,14346.4404296875,-21448.931640625,-9148.12109375,-1087.188720703125,1089.5728759765625,-9754.498046875,-1730.1241455078125,-3925.959228515625,-16284.7841796875,394.9801025390625,-1378.8541259765625,1672.9036865234375,-11161.16796875,-3130.43603515625,0.0,-1593.430908203125,0.0,-3476.9375,-0.0,2301.533935546875
-14833.609375,-16795.0,-5431.17529296875,-1388.390869140625,-1475.0162353515625,8547.3056640625,-5425.61181640625,-2693.335205078125,-1324.017822265625,5826.1552734375,-8048.216796875,-13017.654296875,-3488.8583984375,4950.36474609375,-130.3354949951172,-9381.771484375,-854.333251953125,-72.32030487060547,2695.719482421875,12819.7666015625,1996.358154296875,5939.8017578125,-1182.55615234375,11713.5048828125,-3858.4072265625,-6397.5654296875,-4434.58544921875,-4192.193359375,-8032.32177734375,-3099.44140625,3273.487060546875,1810.3917236328125,-446.6374816894531,-1408.259033203125,-2603.53076171875,3527.00537109375,-4251.79833984375,15192.0322265625,-5442.30126953125,-0.0,-8220.6728515625,5006.7900390625,-6176.63037109375,-4510.87939453125,-942.548095703125,5377.1337890625,-7509.39013671875,875.7908935546875,-5912.78076171875,-3579.45751953125,-2180.7353515625,6429.35400390625,13396.740234375,-21472.7734375,-9142.5576171875,-1094.34130859375,1087.188720703125,-9794.2353515625,-1742.0450439453125,-3893.37548828125,-16287.1689453125,395.77484130859375,-1371.7015380859375,1684.0299072265625,-11156.3994140625,-3145.53564453125,0.0,-1531.4420166015625,0.0,-3454.685302734375,-0.0,2304.712890625
-14797.8466796875,-16878.447265625,-5424.0224609375,-1378.059326171875,-1460.711181640625,8564.7900390625,-5409.7177734375,-2675.85107421875,-1315.2757568359375,5836.48681640625,-8033.91162109375,-12993.8125,-3472.169189453125,4958.3115234375,-117.61983489990234,-9335.6767578125,-838.4386596679688,-54.836273193359375,2710.8193359375,12826.919921875,2009.86865234375,5954.9013671875,-1165.0721435546875,11730.98828125,-3842.512939453125,-6376.10791015625,-4418.69091796875,-4171.5302734375,-8017.22216796875,-3089.90478515625,3287.792236328125,1827.0810546875,-432.3323669433594,-1390.7750244140625,-2586.841552734375,3543.69482421875,-4237.4931640625,15206.3369140625,-5413.69091796875,-0.0,-8207.95703125,5026.65869140625,-6161.53076171875,-4491.80615234375,-930.627197265625,5391.43896484375,-7503.03271484375,889.30126953125,-5896.09130859375,-3560.384033203125,-2168.814453125,6452.40185546875,12454.1923828125,-21487.078125,-9127.4580078125,-1094.34130859375,1105.4674072265625,-9787.0830078125,-1724.56103515625,-3900.52783203125,-16273.6572265625,411.6694030761719,-1359.7806396484375,1691.1824951171875,-11143.6845703125,-3133.61474609375,0.0,-1525.0841064453125,0.0,-3447.53271484375,-0.0,2312.66015625
-14801.8193359375,-16910.234375,-5422.43359375,-1370.112060546875,-1457.5322265625,8565.5849609375,-5404.94921875,-2679.0302734375,-1316.8653564453125,5849.9970703125,-8033.1162109375,-12992.22265625,-3477.732421875,4951.1591796875,-109.67254638671875,-9327.7294921875,-835.259765625,-54.04154586791992,2709.229736328125,12824.53515625,2013.0474853515625,5955.6962890625,-1163.482666015625,11730.98828125,-3833.770751953125,-6350.67626953125,-4416.30712890625,-4167.556640625,-8021.99072265625,-3083.546875,3290.17626953125,1831.0546875,-429.94818115234375,-1391.5697021484375,-2585.251953125,3542.10546875,-4232.724609375,15206.3369140625,-5405.744140625,-0.0,-8203.1884765625,5026.65869140625,-6155.1728515625,-4491.01123046875,-927.4482421875,5389.84912109375,-7497.46923828125,896.453857421875,-5889.73388671875,-3566.741943359375,-2162.45654296875,6447.63330078125,11198.5205078125,-21478.333984375,-9130.63671875,-1101.493896484375,1107.0570068359375,-9761.6513671875,-1721.382080078125,-3886.222900390625,-16273.6572265625,410.87469482421875,-1358.191162109375,1686.4140625,-11142.8896484375,-3124.078125,0.0,-1522.699951171875,0.0,-3445.1484375,-0.0,2310.276123046875
-14809.767578125,-16907.849609375,-5416.0751953125,-1377.2646484375,-1453.55859375,8563.9951171875,-5403.35986328125,-2673.467041015625,-1307.32861328125,5855.560546875,-8044.24267578125,-12995.40234375,-3474.553466796875,4966.2587890625,-105.69890594482422,-9359.5185546875,-834.4650268554688,-53.2468147277832,2713.998046875,12837.2509765625,2016.2265625,5955.6962890625,-1161.8931884765625,11732.578125,-3821.849853515625,-6358.62353515625,-4414.71728515625,-4173.1201171875,-8035.50048828125,-3078.778564453125,3290.17626953125,1832.6441650390625,-427.5639953613281,-1391.5697021484375,-2582.0732421875,3542.900146484375,-4228.75048828125,15210.310546875,-5413.69091796875,-0.0,-8197.625,5027.453125,-6154.37841796875,-4493.3955078125,-922.679931640625,5404.94921875,-7491.11181640625,889.30126953125,-5884.96533203125,-3575.484130859375,-2157.688232421875,6444.4541015625,10747.115234375,-21475.15625,-9144.146484375,-1116.59375,1098.31494140625,-9753.7041015625,-1720.58740234375,-3858.4072265625,-16263.326171875,412.4641418457031,-1351.03857421875,1695.9508056640625,-11149.2470703125,-3123.283447265625,0.0,-1492.500244140625,0.0,-3417.3330078125,-0.0,2319.812744140625
-14827.2509765625,-16908.646484375,-5409.7177734375,-1382.032958984375,-1453.55859375,8564.7900390625,-5400.1806640625,-2675.056396484375,-1307.32861328125,5848.40771484375,-8060.1376953125,-12988.25,-3480.9111328125,4962.28564453125,-84.2412338256836,-9351.5712890625,-835.259765625,-53.2468147277832,2713.998046875,12835.662109375,2017.021240234375,5954.9013671875,-1161.8931884765625,11731.7841796875,-3817.876220703125,-6385.64453125,-4406.77001953125,-4174.70947265625,-8030.73193359375,-3074.01025390625,3290.17626953125,1831.8494873046875,-425.9745178222656,-1389.185546875,-2582.0732421875,3542.900146484375,-4226.36669921875,15209.515625,-5412.896484375,-0.0,-8196.0361328125,5025.86376953125,-6152.78857421875,-4495.779296875,-920.2957153320312,5402.56494140625,-7498.26416015625,883.7382202148438,-5891.3232421875,-3567.53662109375,-2137.025146484375,6445.2490234375,10619.1630859375,-21478.333984375,-9141.7626953125,-1092.7518310546875,1122.15673828125,-9752.1142578125,-1704.69287109375,-3871.123046875,-16252.994140625,412.4641418457031,-1352.6280517578125,1692.77197265625,-11152.4267578125,-3122.48876953125,0.0,-1505.2159423828125,0.0,-3425.2802734375,-0.0,2319.01806640625
-14870.9609375,-16846.65625,-5412.1015625,-1381.23828125,-1457.5322265625,8560.81640625,-5404.154296875,-2681.414306640625,-1314.4810791015625,5849.20263671875,-8055.369140625,-13000.1708984375,-3489.6533203125,4955.92724609375,-89.00960540771484,-9338.0615234375,-837.6439208984375,-56.42573165893555,2709.229736328125,12829.3037109375,2013.84228515625,5950.927734375,-1164.2774658203125,11728.6044921875,-3822.64453125,-6382.46533203125,-4415.51220703125,-4171.5302734375,-8027.5537109375,-3077.98388671875,3286.20263671875,1831.8494873046875,-425.9745178222656,-1394.7486572265625,-2584.45751953125,3539.72119140625,-4230.34033203125,15206.3369140625,-5398.59130859375,-0.0,-8197.625,5020.30029296875,-6156.7626953125,-4495.779296875,-924.2693481445312,5393.8232421875,-7509.39013671875,885.32763671875,-5900.85986328125,-3578.662841796875,-2141.79345703125,6446.83837890625,9885.62890625,-21466.4140625,-9138.583984375,-1070.4993896484375,1104.6727294921875,-9742.5771484375,-1691.9771728515625,-3884.63330078125,-16257.7626953125,410.87469482421875,-1358.191162109375,1688.79833984375,-11142.0947265625,-3127.257080078125,0.0,-1513.9580078125,0.0,-3430.048583984375,-0.0,2319.01806640625
-14905.9296875,-16849.8359375,-5413.69091796875,-1395.54345703125,-1464.684814453125,8556.048828125,-5411.306640625,-2683.798583984375,-1312.096923828125,5836.48681640625,-8045.037109375,-13013.6806640625,-3488.8583984375,4948.77490234375,-104.9041748046875,-9346.0078125,-846.385986328125,-63.578285217285156,2704.46142578125,12826.919921875,2008.279052734375,5944.56982421875,-1169.8404541015625,11723.0419921875,-3836.94970703125,-6380.0810546875,-4418.69091796875,-4178.6826171875,-8031.52734375,-3094.673095703125,3280.6396484375,1819.1337890625,-432.3323669433594,-1402.696044921875,-2590.815185546875,3531.77392578125,-4238.28759765625,15200.7744140625,-5408.12841796875,-0.0,-8206.3671875,5018.7109375,-6163.9150390625,-4501.3427734375,-926.653564453125,5391.43896484375,-7493.49609375,867.8436279296875,-5902.44921875,-3582.636474609375,-2156.0986328125,6442.06982421875,8447.96484375,-21466.4140625,-9139.37890625,-1068.115234375,1088.7781982421875,-9762.4462890625,-1698.3350830078125,-3874.302001953125,-16292.73046875,402.9273986816406,-1360.5753173828125,1680.0562744140625,-11155.60546875,-3141.562255859375,0.0,-1515.54736328125,0.0,-3441.1748046875,-0.0,2301.533935546875
-14919.4404296875,-16909.44140625,-5420.04931640625,-1403.49072265625,-1471.0426025390625,8553.6640625,-5420.84375,-2689.361572265625,-1316.8653564453125,5837.28173828125,-8048.216796875,-13012.091796875,-3518.263671875,4952.74853515625,-135.10386657714844,-9361.107421875,-847.1806640625,-65.1677474975586,2699.69287109375,12822.1513671875,2005.8948974609375,5942.98046875,-1173.814208984375,11719.86328125,-3847.28125,-6381.67041015625,-4429.8173828125,-4177.09375,-8031.52734375,-3105.004638671875,3278.25537109375,1817.5443115234375,-437.89544677734375,-1403.49072265625,-2593.994140625,3527.80029296875,-4247.02978515625,15195.2109375,-5407.33349609375,-0.0,-8211.9306640625,5011.55859375,-6170.27294921875,-4503.72705078125,-938.574462890625,5384.28662109375,-7489.5224609375,861.4857788085938,-5899.2705078125,-3581.841796875,-2185.503662109375,6432.533203125,6773.4716796875,-21481.513671875,-9139.37890625,-1081.6256103515625,1067.3204345703125,-9779.9296875,-1744.42919921875,-3881.45458984375,-16285.578125,399.74847412109375,-1366.9332275390625,1684.8245849609375,-11166.7314453125,-3143.9462890625,0.0,-1517.931640625,0.0,-3436.406494140625,-0.0,2307.09716796875
-14948.8447265625,-16902.2890625,-5427.20166015625,-1393.9539794921875,-1470.2479248046875,8555.2529296875,-5421.638671875,-2686.1826171875,-1320.8388671875,5837.28173828125,-8061.7265625,-13016.064453125,-3530.1845703125,4951.1591796875,-136.6933135986328,-9358.7236328125,-847.9754028320312,-66.7572021484375,2697.308837890625,12816.5888671875,2003.5107421875,5943.775390625,-1176.1983642578125,11721.4521484375,-3850.4599609375,-6403.1279296875,-4427.43310546875,-4169.14599609375,-8042.6533203125,-3101.82568359375,3276.666015625,1817.5443115234375,-439.48492431640625,-1402.696044921875,-2593.994140625,3527.00537109375,-4248.619140625,15197.5947265625,-5406.53857421875,-0.0,-8215.904296875,5008.37939453125,-6170.27294921875,-4500.5478515625,-940.1639404296875,5385.87548828125,-7511.7744140625,874.2014770507812,-5893.70703125,-3564.357666015625,-2187.887939453125,6438.0966796875,5294.48193359375,-21502.17578125,-9152.8896484375,-1078.44677734375,1062.5521240234375,-9802.1826171875,-1753.9659423828125,-3889.401611328125,-16287.1689453125,402.1326599121094,-1368.522705078125,1677.6719970703125,-11169.91015625,-3146.33056640625,0.0,-1532.2366943359375,0.0,-3453.095703125,-0.0,2296.765625
-14881.29296875,-16895.9296875,-5444.685546875,-1423.35888671875,-1481.3741455078125,8542.5380859375,-5431.17529296875,-2706.05078125,-1326.402099609375,5834.8974609375,-8064.90625,-13026.396484375,-3527.80029296875,4951.9541015625,-150.20370483398438,-9369.0556640625,-858.306884765625,-78.67813110351562,2686.977294921875,12814.2041015625,1992.3846435546875,5932.64892578125,-1186.52978515625,11710.326171875,-3857.612548828125,-6423.79150390625,-4437.7646484375,-4192.193359375,-8050.60107421875,-3105.004638671875,3266.33447265625,1804.82861328125,-452.2005615234375,-1414.616943359375,-2606.709716796875,3514.289794921875,-4258.15576171875,15184.87890625,-5415.28076171875,-0.0,-8226.2353515625,5002.02197265625,-6180.6044921875,-4516.44287109375,-948.9059448242188,5369.1865234375,-7529.2587890625,840.0281372070312,-5908.80712890625,-3576.27880859375,-2202.193115234375,6418.22802734375,4274.84521484375,-21514.892578125,-9160.0419921875,-1064.1416015625,1051.4259033203125,-9802.9775390625,-1750.787109375,-3894.96484375,-16299.8828125,392.5959167480469,-1379.6488037109375,1673.698486328125,-11169.1162109375,-3157.45654296875,0.0,-1529.057861328125,0.0,-3447.53271484375,-0.0,2297.560546875
-14824.8671875,-16891.16015625,-5447.06982421875,-1428.1273193359375,-1491.70556640625,8531.4111328125,-5439.9169921875,-2713.998046875,-1329.5809326171875,5829.33447265625,-8060.93212890625,-13025.6015625,-3533.36328125,4952.74853515625,-170.8666534423828,-9367.4658203125,-864.6647338867188,-84.2412338256836,2682.208984375,12812.6142578125,1985.2320556640625,5925.49658203125,-1196.0665283203125,11703.173828125,-3868.73876953125,-6417.43310546875,-4457.63232421875,-4207.29296875,-8051.3955078125,-3113.74658203125,3259.181884765625,1802.4444580078125,-456.96893310546875,-1422.564208984375,-2614.6572265625,3507.13720703125,-4266.10302734375,15178.521484375,-5433.5595703125,-0.0,-8232.59375,4992.48486328125,-6191.73046875,-4528.36376953125,-956.0584716796875,5365.212890625,-7527.66943359375,837.6439208984375,-5928.67529296875,-3596.941650390625,-2221.2666015625,6415.04931640625,3257.592529296875,-21513.3046875,-9160.0419921875,-1065.7310791015625,1041.094482421875,-9787.0830078125,-1748.4029541015625,-3902.912109375,-16291.1416015625,387.0328369140625,-1384.417236328125,1671.314208984375,-11162.7578125,-3155.867431640625,0.0,-1529.057861328125,0.0,-3453.890625,-0.0,2292.7919921875
-14805.7939453125,-16890.3671875,-5434.3544921875,-1409.0538330078125,-1479.78466796875,8542.5380859375,-5429.5859375,-2696.51416015625,-1330.375732421875,5830.92333984375,-8056.16357421875,-13012.091796875,-3511.111083984375,4948.77490234375,-146.2300567626953,-9345.2138671875,-857.5121459960938,-74.7044906616211,2690.15625,12816.5888671875,1993.9739990234375,5932.64892578125,-1186.52978515625,11713.5048828125,-3856.023193359375,-6405.51220703125,-4444.9169921875,-4184.24609375,-8038.68017578125,-3113.74658203125,3266.33447265625,1808.007568359375,-448.2269287109375,-1415.41162109375,-2606.709716796875,3516.674072265625,-4256.56640625,15188.0576171875,-5447.06982421875,-0.0,-8223.056640625,4995.6640625,-6182.19384765625,-4514.85302734375,-948.9059448242188,5379.51806640625,-7523.6953125,857.5121459960938,-5915.1650390625,-3585.8154296875,-2195.835205078125,6434.12255859375,2687.77197265625,-21506.9453125,-9148.12109375,-1072.0888671875,1062.5521240234375,-9770.3935546875,-1738.0714111328125,-3894.96484375,-16287.9619140625,394.9801025390625,-1376.469970703125,1670.51953125,-11159.5791015625,-3138.383056640625,0.0,-1531.4420166015625,0.0,-3457.864013671875,-0.0,2289.613037109375
-14816.125,-16912.619140625,-5435.943359375,-1409.8485107421875,-1480.579345703125,8556.048828125,-5427.99609375,-2692.54052734375,-1329.5809326171875,5834.8974609375,-8055.369140625,-13009.70703125,-3504.753173828125,4941.6220703125,-135.89859008789062,-9334.0869140625,-854.333251953125,-70.73084259033203,2692.54052734375,12812.6142578125,1997.153076171875,5939.8017578125,-1183.3509521484375,11719.86328125,-3855.228515625,-6381.67041015625,-4442.533203125,-4171.5302734375,-8035.50048828125,-3102.620361328125,3271.8974609375,1810.3917236328125,-447.43218994140625,-1409.8485107421875,-2604.325439453125,3524.621337890625,-4254.9765625,15193.6220703125,-5447.86474609375,-0.0,-8223.056640625,5014.73779296875,-6179.8095703125,-4504.52197265625,-948.9059448242188,5377.1337890625,-7517.337890625,855.1279907226562,-5916.75439453125,-3561.9736328125,-2187.887939453125,6438.0966796875,3016.789794921875,-21495.0234375,-9144.146484375,-1066.5257568359375,1070.4993896484375,-9767.21484375,-1737.2767333984375,-3897.34912109375,-16297.4990234375,397.3642883300781,-1376.469970703125,1669.724853515625,-11157.9892578125,-3127.257080078125,0.0,-1548.926025390625,0.0,-3453.890625,-0.0,2291.20263671875
-14830.4296875,-16868.91015625,-5437.53271484375,-1370.112060546875,-1482.1688232421875,8561.611328125,-5426.40673828125,-2681.414306640625,-1326.402099609375,5828.53955078125,-8049.01123046875,-13012.8857421875,-3508.726806640625,4943.2119140625,-137.48805236816406,-9316.603515625,-852.7437744140625,-67.55193328857422,2695.719482421875,12814.2041015625,1997.94775390625,5939.8017578125,-1180.9666748046875,11724.630859375,-3861.58642578125,-6384.849609375,-4444.1220703125,-4164.3779296875,-8034.7060546875,-3081.95751953125,3271.8974609375,1811.1864013671875,-445.8427429199219,-1411.43798828125,-2602.736328125,3527.80029296875,-4252.5927734375,15198.3896484375,-5435.943359375,-0.0,-8224.646484375,5008.37939453125,-6179.8095703125,-4497.369140625,-948.9059448242188,5390.64404296875,-7515.74853515625,899.6327514648438,-5927.880859375,-3550.847412109375,-2191.066650390625,6453.1962890625,3649.393798828125,-21467.208984375,-9144.146484375,-1060.962646484375,1068.9100341796875,-9780.724609375,-1746.8134765625,-3896.55419921875,-16294.3212890625,399.74847412109375,-1372.4962158203125,1668.9300537109375,-11161.9638671875,-3134.40966796875,0.0,-1535.4156494140625,0.0,-3462.63232421875,-0.0,2288.023681640625
-14836.7880859375,-16814.07421875,-5437.53271484375,-1375.6751708984375,-1476.605712890625,8551.2802734375,-5424.0224609375,-2690.951171875,-1326.402099609375,5831.71826171875,-8039.474609375,-13004.939453125,-3503.16357421875,4944.80126953125,-133.514404296875,-9350.7763671875,-853.5385131835938,-67.55193328857422,2694.924560546875,12816.5888671875,1996.358154296875,5939.0068359375,-1178.58251953125,11719.86328125,-3871.917724609375,-6404.7177734375,-4437.7646484375,-4183.451171875,-8029.1435546875,-3083.546875,3271.10302734375,1810.3917236328125,-445.8427429199219,-1410.6431884765625,-2598.762451171875,3523.82666015625,-4251.00341796875,15192.0322265625,-5427.99609375,-0.0,-8227.8251953125,4998.8427734375,-6174.24609375,-4506.90625,-944.9323120117188,5384.28662109375,-7520.51708984375,892.480224609375,-5993.04833984375,-3570.715576171875,-2186.29833984375,6439.68603515625,3840.128662109375,-21464.82421875,-9138.583984375,-1072.0888671875,1076.0625,-9788.6728515625,-1743.634521484375,-3893.37548828125,-16285.578125,399.74847412109375,-1372.4962158203125,1671.314208984375,-11152.4267578125,-3134.40966796875,0.0,-1495.67919921875,0.0,-3444.353759765625,-0.0,2295.17626953125
-14843.9404296875,-16834.736328125,-5438.32763671875,-1388.390869140625,-1457.5322265625,8548.1005859375,-5420.84375,-2700.48779296875,-1324.017822265625,5840.46044921875,-8045.83251953125,-13004.939453125,-3517.46875,4954.337890625,-138.28277587890625,-9371.439453125,-856.7174072265625,-69.93611907958984,2694.924560546875,12820.5615234375,1997.94775390625,5937.41748046875,-1173.814208984375,11716.68359375,-3879.864990234375,-6399.94970703125,-4426.63818359375,-4189.80908203125,-8049.01123046875,-3088.315185546875,3269.513427734375,1808.80224609375,-446.6374816894531,-1410.6431884765625,-2594.788818359375,3521.4423828125,-4247.02978515625,15190.4423828125,-5429.5859375,-0.0,-8223.8515625,4998.8427734375,-6159.14697265625,-4514.05859375,-942.548095703125,5377.1337890625,-7526.87451171875,878.9698486328125,-5945.3642578125,-3578.662841796875,-2188.6826171875,6423.79150390625,3994.30615234375,-21468.796875,-9159.2470703125,-1075.267822265625,1077.6519775390625,-9768.0087890625,-1737.2767333984375,-3887.017578125,-16281.6044921875,398.9537658691406,-1369.3173828125,1676.0826416015625,-11168.3203125,-3140.767333984375,0.0,-1501.2423095703125,0.0,-3433.2275390625,-0.0,2298.35498046875
-14853.4775390625,-16862.55078125,-5443.09619140625,-1397.9276123046875,-1450.3797607421875,8541.7431640625,-5415.28076171875,-2698.103759765625,-1318.4547119140625,5842.8447265625,-8052.9853515625,-13007.3232421875,-3513.4951171875,4959.9013671875,-128.74603271484375,-9352.3662109375,-858.306884765625,-73.11502838134766,2698.8984375,12825.330078125,2000.3319091796875,5932.64892578125,-1169.8404541015625,11715.0947265625,-3864.76513671875,-6412.6650390625,-4425.84375,-4185.041015625,-8058.5478515625,-3092.2890625,3267.924072265625,1807.212890625,-448.2269287109375,-1417.0010986328125,-2593.199462890625,3519.05810546875,-4242.26123046875,15193.6220703125,-5427.99609375,-0.0,-8221.466796875,4992.48486328125,-6150.404296875,-4514.05859375,-936.1903076171875,5380.3125,-7523.6953125,868.6383666992188,-5895.29638671875,-3581.841796875,-2179.9404296875,6426.97021484375,4285.1767578125,-21479.12890625,-9168.7841796875,-1075.267822265625,1071.294189453125,-9759.2666015625,-1723.766357421875,-3876.68603515625,-16289.552734375,400.543212890625,-1366.138427734375,1679.2615966796875,-11176.2685546875,-3139.177978515625,0.0,-1504.4212646484375,0.0,-3434.817138671875,-0.0,2299.944580078125
-14869.3720703125,-16861.7578125,-5437.53271484375,-1393.1593017578125,-1471.0426025390625,8545.7158203125,-5415.28076171875,-2695.719482421875,-1315.2757568359375,5843.63916015625,-8045.83251953125,-13002.5546875,-3494.421630859375,4966.2587890625,-117.61983489990234,-9359.5185546875,-855.9227294921875,-73.90975952148438,2700.48779296875,12829.3037109375,2000.3319091796875,5935.033203125,-1173.0194091796875,11715.888671875,-3844.10205078125,-6393.59130859375,-4428.22802734375,-4182.65673828125,-8045.83251953125,-3085.136474609375,3269.513427734375,1809.5970458984375,-446.6374816894531,-1414.616943359375,-2597.9677734375,3521.4423828125,-4243.8505859375,15194.416015625,-5421.638671875,-0.0,-8220.6728515625,4996.45849609375,-6162.3251953125,-4511.67431640625,-934.600830078125,5384.28662109375,-7512.5693359375,875.7908935546875,-5887.349609375,-3581.047119140625,-2169.609130859375,6429.35400390625,4739.76123046875,-21473.56640625,-9155.2734375,-1088.7781982421875,1082.42041015625,-9765.625,-1724.56103515625,-3870.328125,-16296.705078125,399.74847412109375,-1364.549072265625,1684.0299072265625,-11161.9638671875,-3126.462158203125,0.0,-1501.2423095703125,0.0,-3427.66455078125,-0.0,2304.712890625
-14860.6298828125,-16870.498046875,-5433.5595703125,-1401.9012451171875,-1494.884521484375,8548.8955078125,-5427.20166015625,-2691.745849609375,-1326.402099609375,5831.71826171875,-8035.50048828125,-13002.5546875,-3474.553466796875,4940.82763671875,-125.56712341308594,-9335.6767578125,-859.8963623046875,-79.47286224365234,2691.745849609375,12817.3828125,1993.9739990234375,5932.64892578125,-1188.9139404296875,11714.298828125,-3829.00244140625,-6394.38623046875,-4429.0224609375,-4170.73583984375,-8029.9375,-3097.057373046875,3265.539794921875,1806.4180908203125,-447.43218994140625,-1414.616943359375,-2611.47802734375,3518.263671875,-4254.9765625,15192.826171875,-5415.28076171875,-0.0,-8216.6982421875,5003.611328125,-6194.90966796875,-4507.70068359375,-945.72705078125,5381.90234375,-7503.03271484375,863.8699951171875,-5860.32861328125,-3573.099853515625,-2175.172119140625,6442.06982421875,4687.30908203125,-21487.87109375,-9139.37890625,-1098.31494140625,1095.9306640625,-9746.5517578125,-1742.83984375,-3888.60693359375,-16295.1142578125,391.80120849609375,-1370.9068603515625,1668.13525390625,-11150.8369140625,-3120.899169921875,0.0,-1524.2894287109375,0.0,-3449.1220703125,-0.0,2287.228759765625
-14847.9150390625,-16884.8046875,-5441.5068359375,-1405.8748779296875,-1494.884521484375,8546.51171875,-5430.38037109375,-2696.51416015625,-1329.5809326171875,5824.56591796875,-8042.6533203125,-13003.349609375,-3489.6533203125,4943.2119140625,-145.43533325195312,-9347.59765625,-860.6910400390625,-81.06231689453125,2690.15625,12815.79296875,1989.20556640625,5934.23828125,-1190.50341796875,11711.9150390625,-3855.228515625,-6395.18115234375,-4440.14892578125,-4177.88818359375,-8027.5537109375,-3112.1572265625,3262.36083984375,1803.2392578125,-452.2005615234375,-1415.41162109375,-2612.27294921875,3514.289794921875,-4257.36083984375,15189.6474609375,-5422.43359375,-0.0,-8227.0302734375,5002.81689453125,-6193.31982421875,-4511.67431640625,-947.3164672851562,5376.3388671875,-7532.43798828125,860.6910400390625,-5890.5283203125,-3578.662841796875,-2195.04052734375,6437.3017578125,4658.69921875,-21514.09765625,-9136.2001953125,-1101.493896484375,1085.5992431640625,-9738.6044921875,-1743.634521484375,-3894.96484375,-16291.1416015625,391.0064697265625,-1374.8804931640625,1664.9564208984375,-11143.6845703125,-3124.078125,0.0,-1518.726318359375,0.0,-3460.248291015625,-0.0,2279.28173828125
-14856.65625,-16898.314453125,-5435.943359375,-1393.1593017578125,-1482.963623046875,8540.1533203125,-5424.0224609375,-2700.48779296875,-1321.6336669921875,5830.12890625,-8030.73193359375,-13016.8603515625,-3492.03759765625,4952.74853515625,-127.95130920410156,-9377.796875,-858.306884765625,-77.8833999633789,2694.1298828125,12822.1513671875,1994.768798828125,5932.64892578125,-1183.3509521484375,11711.9150390625,-3848.87060546875,-6397.5654296875,-4432.201171875,-4194.57763671875,-8032.32177734375,-3122.48876953125,3266.33447265625,1803.2392578125,-449.8163757324219,-1417.0010986328125,-2604.325439453125,3516.674072265625,-4250.20849609375,15188.0576171875,-5424.0224609375,-0.0,-8222.2626953125,4999.6376953125,-6180.6044921875,-4519.62158203125,-940.9586791992188,5379.51806640625,-7518.92724609375,874.2014770507812,-5892.1181640625,-3598.531005859375,-2179.145751953125,6423.79150390625,5981.12744140625,-21532.376953125,-9140.96875,-1122.15673828125,1087.188720703125,-9771.1875,-1732.50830078125,-3886.222900390625,-16294.3212890625,395.77484130859375,-1369.3173828125,1672.9036865234375,-11154.810546875,-3135.204345703125,0.0,-1502.831787109375,0.0,-3452.301025390625,-0.0,2285.639404296875
-14878.11328125,-16900.697265625,-5435.14892578125,-1370.112060546875,-1467.0689697265625,8557.6376953125,-5411.306640625,-2686.977294921875,-1311.30224609375,5845.228515625,-8038.68017578125,-13011.2958984375,-3481.705810546875,4970.232421875,-104.10944366455078,-9364.287109375,-847.1806640625,-62.78356170654297,2705.256103515625,12834.072265625,2005.8948974609375,5946.9541015625,-1169.0457763671875,11726.2197265625,-3834.5654296875,-6379.2861328125,-4416.30712890625,-4172.3251953125,-8033.1162109375,-3111.362548828125,3280.6396484375,1814.3653564453125,-441.0743713378906,-1403.49072265625,-2592.404541015625,3533.36328125,-4237.4931640625,15201.568359375,-5406.53857421875,-0.0,-8214.314453125,5018.7109375,-6165.50439453125,-4504.52197265625,-929.0377197265625,5387.46484375,-7511.7744140625,900.427490234375,-5881.7861328125,-3567.53662109375,-2156.8935546875,6438.89111328125,7965.56494140625,-21533.169921875,-9140.173828125,-1101.493896484375,1106.26220703125,-9764.03515625,-1719.792724609375,-3875.0966796875,-16291.9365234375,408.4905090332031,-1357.396484375,1684.8245849609375,-11154.015625,-3125.66748046875,0.0,-1488.5267333984375,0.0,-3423.69091796875,-0.0,2304.712890625
-14872.55078125,-16915.798828125,-5447.06982421875,-1370.112060546875,-1473.4267578125,8562.4052734375,-5411.306640625,-2686.1826171875,-1315.2757568359375,5845.228515625,-8050.60107421875,-13008.912109375,-3483.29541015625,4959.1064453125,-94.57270050048828,-9344.4189453125,-848.7701416015625,-61.98883056640625,2706.05078125,12820.5615234375,2001.92138671875,5950.1328125,-1171.429931640625,11730.1943359375,-3849.665283203125,-6371.33935546875,-4419.4853515625,-4161.19921875,-8034.7060546875,-3104.2099609375,3280.6396484375,1813.5706787109375,-445.8427429199219,-1401.1064453125,-2593.199462890625,3537.337158203125,-4238.28759765625,15201.568359375,-5393.0283203125,-0.0,-8221.466796875,5026.65869140625,-6169.47802734375,-4499.75341796875,-927.4482421875,5383.49169921875,-7525.28515625,896.453857421875,-5893.70703125,-3563.56298828125,-2148.946044921875,6446.04345703125,9017.78515625,-21543.501953125,-9144.9423828125,-1078.44677734375,1100.6990966796875,-9739.3994140625,-1706.2822265625,-3914.0380859375,-16286.373046875,409.28521728515625,-1359.7806396484375,1674.4931640625,-11148.453125,-3130.43603515625,0.0,-1519.5211181640625,0.0,-3441.9697265625,-0.0,2302.328857421875
-14885.2666015625,-16946.79296875,-5448.6591796875,-1401.9012451171875,-1490.1160888671875,8549.6904296875,-5425.61181640625,-2687.77197265625,-1331.17041015625,5822.181640625,-8057.75341796875,-13015.2705078125,-3507.13720703125,4930.49609375,-125.56712341308594,-9334.8818359375,-863.0752563476562,-76.2939453125,2694.924560546875,12805.4619140625,1988.410888671875,5935.033203125,-1185.735107421875,11719.86328125,-3868.73876953125,-6396.7705078125,-4439.35400390625,-4166.76171875,-8046.626953125,-3131.230712890625,3265.539794921875,1797.676025390625,-456.96893310546875,-1416.206298828125,-2608.29931640625,3525.416015625,-4251.79833984375,15196.005859375,-5439.12255859375,-0.0,-8235.7724609375,5006.7900390625,-6183.783203125,-4506.90625,-944.1375732421875,5381.107421875,-7531.64306640625,864.6647338867188,-5916.75439453125,-3576.27880859375,-2177.556396484375,6449.22265625,9024.1435546875,-21552.244140625,-9155.2734375,-1076.857177734375,1077.6519775390625,-9744.1669921875,-1726.9453125,-3905.29638671875,-16295.91015625,398.1590270996094,-1371.7015380859375,1656.21435546875,-11165.1416015625,-3145.53564453125,0.0,-1520.3157958984375,0.0,-3472.169189453125,-0.0,2277.692138671875
-14879.703125,-16930.8984375,-5449.45361328125,-1408.259033203125,-1493.2950439453125,8540.1533203125,-5431.97021484375,-2698.8984375,-1335.14404296875,5832.51318359375,-8060.93212890625,-13020.8330078125,-3511.111083984375,4923.34375,-150.99842834472656,-9356.33984375,-867.8436279296875,-83.44650268554688,2689.361572265625,12806.255859375,1985.2320556640625,5926.291015625,-1191.298095703125,11710.326171875,-3868.73876953125,-6413.4599609375,-4445.71142578125,-4190.603515625,-8047.42138671875,-3131.230712890625,3260.771484375,1794.4971923828125,-460.1478576660156,-1421.76953125,-2613.067626953125,3515.87939453125,-4258.95068359375,15188.853515625,-5445.48046875,-0.0,-8235.7724609375,4994.869140625,-6189.34619140625,-4519.62158203125,-954.4690551757812,5379.51806640625,-7526.87451171875,859.1016235351562,-5919.138671875,-3592.968017578125,-2203.7822265625,6428.5595703125,8665.720703125,-21550.65625,-9156.86328125,-1082.42041015625,1075.267822265625,-9728.2724609375,-1757.1448974609375,-3867.944091796875,-16296.705078125,391.80120849609375,-1376.469970703125,1661.7774658203125,-11166.7314453125,-3137.58837890625,0.0,-1494.0897216796875,0.0,-3434.022216796875,-0.0,2291.997314453125
-14874.935546875,-16899.904296875,-5440.7119140625,-1405.0802001953125,-1483.75830078125,8547.3056640625,-5424.0224609375,-2696.51416015625,-1322.4283447265625,5848.40771484375,-8060.1376953125,-13008.1171875,-3500.779296875,4947.98046875,-148.61424255371094,-9353.955078125,-859.8963623046875,-73.90975952148438,2697.308837890625,12819.7666015625,1995.5634765625,5935.033203125,-1182.55615234375,11717.478515625,-3856.023193359375,-6397.5654296875,-4439.35400390625,-4187.42529296875,-8038.68017578125,-3093.083740234375,3270.308349609375,1803.2392578125,-451.4058532714844,-1414.616943359375,-2605.120361328125,3523.82666015625,-4251.79833984375,15195.2109375,-5442.30126953125,-0.0,-8225.44140625,5000.4326171875,-6179.8095703125,-4514.05859375,-944.9323120117188,5380.3125,-7517.337890625,862.280517578125,-5911.19140625,-3579.45751953125,-2200.603515625,6426.17578125,8149.14697265625,-21514.892578125,-9148.9150390625,-1084.009765625,1074.4730224609375,-9725.888671875,-1756.3502197265625,-3879.0703125,-16295.91015625,401.33795166015625,-1366.138427734375,1676.0826416015625,-11160.3740234375,-3130.43603515625,0.0,-1491.70556640625,0.0,-3425.2802734375,-0.0,2303.918212890625
-14881.29296875,-16925.333984375,-5449.45361328125,-1408.259033203125,-1488.5267333984375,8544.1279296875,-5424.8173828125,-2694.924560546875,-1323.22314453125,5834.8974609375,-8064.11083984375,-13012.8857421875,-3512.700439453125,4947.98046875,-141.46168518066406,-9357.9296875,-869.43310546875,-79.47286224365234,2695.719482421875,12819.7666015625,1988.410888671875,5929.47021484375,-1187.324462890625,11711.9150390625,-3867.1494140625,-6395.9755859375,-4441.73828125,-4185.041015625,-8044.24267578125,-3102.620361328125,3260.771484375,1793.7025146484375,-460.1478576660156,-1422.564208984375,-2611.47802734375,3519.05810546875,-4253.3876953125,15192.0322265625,-5443.89111328125,-0.0,-8234.18359375,4995.6640625,-6181.39892578125,-4516.44287109375,-944.1375732421875,5381.107421875,-7541.1796875,859.1016235351562,-5915.1650390625,-3581.047119140625,-2192.65625,6430.14892578125,7487.13818359375,-21501.3828125,-9153.68359375,-1098.31494140625,1063.346923828125,-9747.345703125,-1745.2239990234375,-3879.0703125,-16303.0625,394.9801025390625,-1369.3173828125,1672.1090087890625,-11171.5,-3141.562255859375,0.0,-1510.779052734375,0.0,-3444.353759765625,-0.0,2292.7919921875
-14867.7822265625,-16970.634765625,-5447.06982421875,-1413.0274658203125,-1483.75830078125,8552.07421875,-5418.45947265625,-2689.361572265625,-1313.6864013671875,5844.43408203125,-8058.5478515625,-13007.3232421875,-3521.4423828125,4959.1064453125,-127.15657043457031,-9345.2138671875,-864.6647338867188,-75.49921417236328,2702.8720703125,12828.509765625,1992.3846435546875,5933.443359375,-1180.9666748046875,11719.0673828125,-3865.559814453125,-6391.20703125,-4436.9697265625,-4176.298828125,-8049.01123046875,-3105.004638671875,3263.15576171875,1798.4708251953125,-459.3531188964844,-1417.7957763671875,-2605.120361328125,3523.82666015625,-4245.43994140625,15197.5947265625,-5435.14892578125,-0.0,-8231.00390625,5001.22705078125,-6176.63037109375,-4507.70068359375,-935.3955688476562,5385.0810546875,-7531.64306640625,851.9490356445312,-5911.19140625,-3572.304931640625,-2179.145751953125,6435.71240234375,7082.62109375,-21506.150390625,-9156.0673828125,-1092.7518310546875,1068.115234375,-9747.345703125,-1730.9189453125,-3875.891357421875,-16291.9365234375,398.9537658691406,-1362.164794921875,1682.4404296875,-11177.0625,-3130.43603515625,0.0,-1513.1632080078125,0.0,-3436.406494140625,-0.0,2303.12353515625
-14877.3193359375,-16962.6875,-5450.24853515625,-1413.0274658203125,-1485.3477783203125,8549.6904296875,-5417.6650390625,-2691.745849609375,-1308.91796875,5857.1494140625,-8067.29052734375,-13001.759765625,-3523.82666015625,4976.5908203125,-132.7196807861328,-9348.392578125,-865.45947265625,-76.2939453125,2702.0771484375,12831.6875,1987.6163330078125,5931.0595703125,-1180.9666748046875,11718.2734375,-3871.123046875,-6403.1279296875,-4438.55908203125,-4178.6826171875,-8057.75341796875,-3098.64697265625,3261.566162109375,1797.676025390625,-460.1478576660156,-1419.38525390625,-2607.504638671875,3521.4423828125,-4244.6455078125,15196.7998046875,-5434.3544921875,-0.0,-8234.9775390625,4995.6640625,-6178.22021484375,-4510.08447265625,-933.8060913085938,5386.67041015625,-7533.232421875,853.5385131835938,-5915.1650390625,-3569.9208984375,-2183.9140625,6432.533203125,7393.3603515625,-21503.767578125,-9165.6044921875,-1080.8309326171875,1062.5521240234375,-9754.498046875,-1722.1768798828125,-3875.891357421875,-16298.2939453125,399.74847412109375,-1358.98583984375,1691.9771728515625,-11180.2412109375,-3126.462158203125,0.0,-1491.70556640625,0.0,-3420.511962890625,-0.0,2313.454833984375
-14890.830078125,-16885.599609375,-5438.32763671875,-1392.364501953125,-1470.2479248046875,8560.81640625,-5406.53857421875,-2677.440673828125,-1304.9443359375,5859.53369140625,-8056.16357421875,-12996.9912109375,-3506.342529296875,4969.43798828125,-110.46727752685547,-9331.703125,-856.7174072265625,-68.3466567993164,2711.614013671875,12837.2509765625,1999.5372314453125,5939.8017578125,-1170.63525390625,11729.3994140625,-3856.023193359375,-6388.02880859375,-4422.66455078125,-4164.3779296875,-8043.4482421875,-3088.315185546875,3271.8974609375,1805.6234130859375,-446.6374816894531,-1412.2327880859375,-2597.9677734375,3533.36328125,-4233.51904296875,15208.720703125,-5438.32763671875,-0.0,-8222.2626953125,5005.9951171875,-6166.29931640625,-4496.57421875,-925.0640869140625,5397.001953125,-7522.90087890625,874.2014770507812,-5901.65478515625,-3561.178955078125,-2164.046142578125,6450.017578125,8118.947265625,-21491.05078125,-9153.68359375,-1065.7310791015625,1084.009765625,-9742.5771484375,-1718.9979248046875,-3872.71240234375,-16307.03515625,410.0799560546875,-1350.243896484375,1691.9771728515625,-11164.34765625,-3122.48876953125,0.0,-1482.963623046875,0.0,-3417.3330078125,-0.0,2319.812744140625
-14875.7294921875,-16863.345703125,-5437.53271484375,-1386.8013916015625,-1469.4532470703125,8562.4052734375,-5409.7177734375,-2664.72509765625,-1311.30224609375,5850.7919921875,-8056.9580078125,-13000.1708984375,-3496.805908203125,4956.72216796875,-125.56712341308594,-9304.6826171875,-854.333251953125,-66.7572021484375,2711.614013671875,12833.27734375,2001.92138671875,5942.18603515625,-1169.8404541015625,11734.16796875,-3847.28125,-6396.7705078125,-4427.43310546875,-4148.4833984375,-8033.91162109375,-3086.725830078125,3274.28173828125,1808.007568359375,-445.0480041503906,-1409.8485107421875,-2595.583740234375,3535.74755859375,-4236.6982421875,15212.6953125,-5431.97021484375,-0.0,-8215.904296875,5008.37939453125,-6165.50439453125,-4489.421875,-929.8324584960938,5404.94921875,-7520.51708984375,878.1751098632812,-5901.65478515625,-3565.947265625,-2176.76171875,6472.26953125,8602.142578125,-21492.638671875,-9145.736328125,-1059.373291015625,1078.44677734375,-9729.0673828125,-1734.8924560546875,-3887.017578125,-16295.1142578125,411.6694030761719,-1351.03857421875,1684.0299072265625,-11155.60546875,-3122.48876953125,0.0,-1516.3421630859375,0.0,-3445.1484375,-0.0,2307.891845703125
-14848.708984375,-16911.029296875,-5429.5859375,-1401.1064453125,-1466.2742919921875,8561.611328125,-5408.12841796875,-2671.082763671875,-1311.30224609375,5853.97119140625,-8048.216796875,-13009.70703125,-3498.395263671875,4953.54296875,-120.00402069091797,-9311.8349609375,-854.333251953125,-64.37301635742188,2710.8193359375,12835.662109375,2004.3055419921875,5943.775390625,-1169.0457763671875,11730.98828125,-3840.92333984375,-6396.7705078125,-4421.0751953125,-4153.25146484375,-8031.52734375,-3101.031005859375,3274.28173828125,1812.7760009765625,-442.663818359375,-1408.259033203125,-2591.60986328125,3535.74755859375,-4235.10888671875,15210.310546875,-5435.943359375,-0.0,-8209.5458984375,5013.14794921875,-6162.3251953125,-4492.60107421875,-930.627197265625,5401.77001953125,-7510.18505859375,862.280517578125,-5894.501953125,-3557.999755859375,-2171.198486328125,6461.9384765625,7877.349609375,-21489.4609375,-9142.5576171875,-1064.936279296875,1084.8045654296875,-9741.783203125,-1731.713623046875,-3869.533447265625,-16291.9365234375,409.28521728515625,-1352.6280517578125,1682.4404296875,-11150.04296875,-3131.230712890625,0.0,-1527.4683837890625,0.0,-3445.943115234375,-0.0,2296.765625
-14842.3505859375,-16922.15625,-5427.20166015625,-1404.285400390625,-1459.1217041015625,8560.021484375,-5403.35986328125,-2675.056396484375,-1308.91796875,5849.9970703125,-8034.7060546875,-13015.2705078125,-3484.090087890625,4951.9541015625,-101.72525787353516,-9326.9345703125,-851.154296875,-61.98883056640625,2713.998046875,12830.8935546875,2008.279052734375,5946.1591796875,-1163.482666015625,11730.1943359375,-3836.94970703125,-6393.59130859375,-4407.564453125,-4162.78857421875,-8030.73193359375,-3103.415283203125,3275.871337890625,1815.16015625,-441.0743713378906,-1406.669677734375,-2587.63623046875,3532.568603515625,-4229.54541015625,15208.720703125,-5427.99609375,-0.0,-8206.3671875,5012.353515625,-6155.9677734375,-4496.57421875,-925.8588256835938,5402.56494140625,-7504.6220703125,863.0752563476562,-5879.40234375,-3561.178955078125,-2153.71435546875,6453.99072265625,6581.94189453125,-21502.17578125,-9139.37890625,-1068.115234375,1107.8516845703125,-9751.3203125,-1715.8189697265625,-3867.944091796875,-16295.1142578125,410.87469482421875,-1354.217529296875,1684.8245849609375,-11143.6845703125,-3134.40966796875,0.0,-1517.931640625,0.0,-3432.432861328125,-0.0,2300.7392578125
-14862.2197265625,-16904.671875,-5438.32763671875,-1409.8485107421875,-1470.2479248046875,8548.8955078125,-5415.28076171875,-2683.798583984375,-1318.4547119140625,5828.53955078125,-8045.037109375,-13029.5751953125,-3490.447998046875,4947.185546875,-122.38819885253906,-9336.4716796875,-858.306884765625,-72.32030487060547,2702.0771484375,12815.79296875,1999.5372314453125,5934.23828125,-1176.1983642578125,11722.2470703125,-3845.691650390625,-6405.51220703125,-4425.048828125,-4169.94091796875,-8035.50048828125,-3099.44140625,3266.33447265625,1804.82861328125,-450.6111145019531,-1416.206298828125,-2597.173095703125,3522.237060546875,-4243.0556640625,15199.978515625,-5431.97021484375,-0.0,-8218.2880859375,4998.04833984375,-6167.09375,-4506.90625,-936.9849853515625,5392.2333984375,-7518.1328125,857.5121459960938,-5892.91259765625,-3576.27880859375,-2175.172119140625,6448.427734375,4859.765625,-21511.712890625,-9143.3525390625,-1076.0625,1093.5465087890625,-9775.162109375,-1726.9453125,-3875.891357421875,-16299.08984375,398.9537658691406,-1366.138427734375,1669.724853515625,-11155.60546875,-3136.7939453125,0.0,-1514.752685546875,0.0,-3452.301025390625,-0.0,2283.25537109375
-14874.140625,-16911.82421875,-5452.6328125,-1439.25341796875,-1483.75830078125,8536.974609375,-5428.791015625,-2706.05078125,-1327.19677734375,5834.8974609375,-8055.369140625,-13035.93359375,-3522.237060546875,4949.56982421875,-139.07749938964844,-9371.439453125,-871.8172607421875,-84.2412338256836,2687.77197265625,12814.9990234375,1986.8214111328125,5923.1123046875,-1188.9139404296875,11708.736328125,-3853.638916015625,-6412.6650390625,-4446.50634765625,-4193.78271484375,-8034.7060546875,-3119.3095703125,3256.7978515625,1793.7025146484375,-461.7373046875,-1427.33251953125,-2609.888671875,3510.316162109375,-4257.36083984375,15184.87890625,-5439.12255859375,-0.0,-8231.00390625,4990.10107421875,-6182.19384765625,-4522.80029296875,-948.1112060546875,5371.57080078125,-7529.2587890625,824.133544921875,-5915.9599609375,-3592.17333984375,-2191.066650390625,6422.20166015625,3178.11962890625,-21518.072265625,-9142.5576171875,-1094.34130859375,1073.6783447265625,-9789.466796875,-1738.0714111328125,-3887.812255859375,-16302.2666015625,385.443359375,-1377.2646484375,1668.9300537109375,-11156.3994140625,-3151.8935546875,0.0,-1490.1160888671875,0.0,-3432.432861328125,-0.0,2294.38134765625
-14889.240234375,-16915.001953125,-5451.837890625,-1436.8692626953125,-1489.3214111328125,8533.794921875,-5435.14892578125,-2706.845458984375,-1328.7862548828125,5834.8974609375,-8067.29052734375,-13025.6015625,-3530.979248046875,4950.36474609375,-147.81951904296875,-9378.5927734375,-877.38037109375,-89.00960540771484,2683.798583984375,12811.8203125,1982.0531005859375,5918.34423828125,-1194.47705078125,11705.5576171875,-3859.2021484375,-6407.10205078125,-4450.47998046875,-4194.57763671875,-8054.57421875,-3136.7939453125,3250.43994140625,1787.3446044921875,-464.9162292480469,-1432.8956298828125,-2613.8623046875,3504.753173828125,-4262.12939453125,15180.9052734375,-5457.4013671875,-0.0,-8233.3876953125,4986.921875,-6187.7568359375,-4524.3896484375,-954.4690551757812,5373.15966796875,-7531.64306640625,828.107177734375,-5921.5224609375,-3588.994384765625,-2198.21923828125,6419.02294921875,1950.263916015625,-21502.17578125,-9162.42578125,-1107.8516845703125,1052.220703125,-9793.4404296875,-1749.1976318359375,-3881.45458984375,-16321.3408203125,383.0591735839844,-1380.443603515625,1664.9564208984375,-11174.6787109375,-3158.25146484375,0.0,-1484.552978515625,0.0,-3435.61181640625,-0.0,2286.43408203125
-14886.0615234375,-16905.466796875,-5455.81201171875,-1412.2327880859375,-1488.5267333984375,8531.4111328125,-5438.32763671875,-2711.614013671875,-1331.17041015625,5829.33447265625,-8063.31640625,-13021.6279296875,-3530.1845703125,4948.77490234375,-150.20370483398438,-9360.3134765625,-877.38037109375,-92.98324584960938,2679.82470703125,12807.0517578125,1980.4637451171875,5915.9599609375,-1196.861328125,11701.583984375,-3863.970458984375,-6414.2548828125,-4450.47998046875,-4192.98779296875,-8056.16357421875,-3128.0517578125,3248.8505859375,1785.755126953125,-467.3004150390625,-1435.27978515625,-2617.041259765625,3501.57421875,-4264.513671875,15176.13671875,-5459.78564453125,-0.0,-8234.9775390625,4981.35888671875,-6187.7568359375,-4525.9794921875,-956.8532104492188,5365.212890625,-7541.1796875,853.5385131835938,-5919.93310546875,-3588.994384765625,-2202.98779296875,6419.02294921875,1887.4803466796875,-21506.150390625,-9166.400390625,-1106.26220703125,1052.220703125,-9773.572265625,-1749.992431640625,-3895.759521484375,-16311.8037109375,381.4697265625,-1385.2119140625,1655.419677734375,-11179.447265625,-3146.33056640625,0.0,-1488.5267333984375,0.0,-3444.353759765625,-0.0,2269.744873046875
-14876.525390625,-16903.876953125,-5458.1962890625,-1423.35888671875,-1490.1160888671875,8540.1533203125,-5435.943359375,-2702.0771484375,-1332.7598876953125,5826.9501953125,-8064.11083984375,-13013.6806640625,-3519.05810546875,4944.80126953125,-143.8458709716797,-9338.85546875,-874.2014770507812,-89.00960540771484,2681.414306640625,12807.0517578125,1981.2584228515625,5923.1123046875,-1194.47705078125,11707.146484375,-3867.944091796875,-6411.07568359375,-4448.890625,-4183.451171875,-8053.77978515625,-3117.720458984375,3253.618896484375,1788.93408203125,-466.50567626953125,-1428.1273193359375,-2615.451904296875,3509.521484375,-4262.12939453125,15182.4951171875,-5449.45361328125,-0.0,-8234.9775390625,4990.8955078125,-6186.9619140625,-4519.62158203125,-954.4690551757812,5369.1865234375,-7543.56396484375,840.8228759765625,-5923.1123046875,-3575.484130859375,-2195.835205078125,6430.94384765625,2334.117919921875,-21518.865234375,-9162.42578125,-1082.42041015625,1066.5257568359375,-9735.4248046875,-1746.8134765625,-3897.34912109375,-16309.419921875,384.6486511230469,-1382.8277587890625,1651.446044921875,-11177.0625,-3135.204345703125,0.0,-1493.2950439453125,0.0,-3455.47998046875,-0.0,2266.56591796875
-14868.5771484375,-16906.26171875,-5439.9169921875,-1401.9012451171875,-1470.2479248046875,8563.201171875,-5414.48583984375,-2678.2353515625,-1318.4547119140625,5849.20263671875,-8052.9853515625,-12993.0185546875,-3488.8583984375,4945.59619140625,-107.28836059570312,-9325.3447265625,-854.333251953125,-65.96247100830078,2704.46142578125,12826.919921875,2003.5107421875,5943.775390625,-1173.0194091796875,11729.3994140625,-3848.075927734375,-6386.43896484375,-4423.45947265625,-4160.404296875,-8036.2958984375,-3093.083740234375,3274.28173828125,1806.4180908203125,-446.6374816894531,-1408.259033203125,-2593.199462890625,3531.77392578125,-4239.87744140625,15207.1318359375,-5429.5859375,-0.0,-8214.314453125,5012.353515625,-6164.70947265625,-4495.779296875,-933.0113525390625,5396.20751953125,-7526.87451171875,864.6647338867188,-5900.06494140625,-3556.41064453125,-2160.866943359375,6455.580078125,2756.913330078125,-21510.125,-9145.736328125,-1059.373291015625,1093.5465087890625,-9725.09375,-1722.9715576171875,-3861.58642578125,-16299.8828125,405.31158447265625,-1360.5753173828125,1663.366943359375,-11157.1953125,-3108.18359375,0.0,-1453.55859375,0.0,-3418.92236328125,-0.0,2292.7919921875
-14894.0087890625,-16906.26171875,-5449.45361328125,-1405.8748779296875,-1476.605712890625,8558.4326171875,-5414.48583984375,-2682.208984375,-1314.4810791015625,5853.17626953125,-8056.9580078125,-13002.5546875,-3491.24267578125,4949.56982421875,-103.3147201538086,-9332.498046875,-864.6647338867188,-72.32030487060547,2702.8720703125,12828.509765625,1997.94775390625,5935.82763671875,-1176.1983642578125,11723.0419921875,-3856.023193359375,-6391.20703125,-4420.2802734375,-4164.3779296875,-8031.52734375,-3105.004638671875,3267.129150390625,1797.676025390625,-455.3794860839844,-1419.38525390625,-2598.762451171875,3527.00537109375,-4241.46630859375,15203.158203125,-5431.17529296875,-0.0,-8221.466796875,5001.22705078125,-6167.09375,-4500.5478515625,-932.2166748046875,5393.8232421875,-7538.00048828125,861.4857788085938,-5901.65478515625,-3561.178955078125,-2156.8935546875,6449.22265625,2667.109130859375,-21521.25,-9140.96875,-1076.857177734375,1087.9835205078125,-9747.345703125,-1716.61376953125,-3866.354736328125,-16311.8037109375,400.543212890625,-1362.164794921875,1672.9036865234375,-11154.015625,-3114.541259765625,0.0,-1470.2479248046875,0.0,-3422.101318359375,-0.0,2291.20263671875
-14894.0087890625,-16893.544921875,-5440.7119140625,-1395.54345703125,-1470.2479248046875,8562.4052734375,-5411.306640625,-2675.056396484375,-1312.096923828125,5852.38134765625,-8044.24267578125,-12998.5810546875,-3492.03759765625,4959.9013671875,-100.93053436279297,-9307.861328125,-859.1016235351562,-66.7572021484375,2705.256103515625,12829.3037109375,2002.716064453125,5941.39111328125,-1173.814208984375,11728.6044921875,-3848.87060546875,-6386.43896484375,-4416.30712890625,-4154.04638671875,-8033.1162109375,-3110.56787109375,3271.8974609375,1801.649658203125,-449.02166748046875,-1414.616943359375,-2594.788818359375,3532.568603515625,-4237.4931640625,15207.9267578125,-5442.30126953125,-0.0,-8215.904296875,5007.5849609375,-6163.1201171875,-4494.98486328125,-929.8324584960938,5399.3857421875,-7524.490234375,872.6119995117188,-5899.2705078125,-3561.178955078125,-2152.919677734375,6459.55419921875,2419.15380859375,-21508.53515625,-9140.96875,-1076.0625,1101.493896484375,-9707.6103515625,-1714.2296142578125,-3863.970458984375,-16306.2421875,402.9273986816406,-1359.7806396484375,1676.8773193359375,-11153.220703125,-3110.56787109375,0.0,-1459.1217041015625,0.0,-3419.717041015625,-0.0,2283.25537109375
-14866.1923828125,-16881.625,-5432.7646484375,-1382.032958984375,-1464.684814453125,8573.5322265625,-5406.53857421875,-2666.314453125,-1312.8916015625,5847.61279296875,-8034.7060546875,-12988.25,-3486.474365234375,4951.9541015625,-105.69890594482422,-9276.8671875,-847.1806640625,-58.80991744995117,2710.024658203125,12826.125,2009.86865234375,5951.72265625,-1168.2509765625,11738.140625,-3841.718017578125,-6361.0078125,-4417.1015625,-4140.53564453125,-8028.34814453125,-3098.64697265625,3279.844970703125,1810.3917236328125,-439.48492431640625,-1403.49072265625,-2588.43115234375,3541.310546875,-4233.51904296875,15215.0791015625,-5425.61181640625,-0.0,-8211.1357421875,5022.6845703125,-6158.35205078125,-4485.4482421875,-925.0640869140625,5402.56494140625,-7513.3642578125,885.32763671875,-5919.138671875,-3550.847412109375,-2158.48291015625,6474.65380859375,2538.36328125,-21495.818359375,-9134.6103515625,-1064.1416015625,1099.109619140625,-9684.5625,-1699.9244384765625,-3872.71240234375,-16295.91015625,406.9010314941406,-1355.0123291015625,1675.287841796875,-11148.453125,-3094.673095703125,0.0,-1460.711181640625,0.0,-3419.717041015625,-0.0,2296.765625
-14854.271484375,-16873.677734375,-5427.99609375,-1380.443603515625,-1451.1744384765625,8572.7373046875,-5400.1806640625,-2659.956787109375,-1304.9443359375,5845.228515625,-8029.1435546875,-13001.759765625,-3488.063720703125,4957.51708984375,-95.367431640625,-9283.224609375,-844.7965087890625,-55.63100051879883,2716.38232421875,12838.0458984375,2012.2528076171875,5953.31201171875,-1162.6878662109375,11739.73046875,-3847.28125,-6350.67626953125,-4409.154296875,-4144.509765625,-8012.4541015625,-3089.110107421875,3283.02392578125,1813.5706787109375,-434.716552734375,-1400.311767578125,-2585.251953125,3543.69482421875,-4227.16162109375,15218.2578125,-5420.04931640625,-0.0,-8210.341796875,5025.06884765625,-6147.22607421875,-4484.6533203125,-920.2957153320312,5408.9228515625,-7509.39013671875,887.7118530273438,-5962.8486328125,-3558.794677734375,-2148.946044921875,6479.421875,3243.287353515625,-21502.17578125,-9122.689453125,-1069.7047119140625,1100.6990966796875,-9690.9208984375,-1714.2296142578125,-3876.68603515625,-16288.7578125,410.0799560546875,-1348.6544189453125,1680.8509521484375,-11143.6845703125,-3108.978271484375,0.0,-1481.3741455078125,0.0,-3430.84326171875,-0.0,2307.891845703125
-14884.4716796875,-16894.33984375,-5439.9169921875,-1394.7486572265625,-1447.9954833984375,8555.2529296875,-5404.94921875,-2673.467041015625,-1306.5338134765625,5854.765625,-8056.9580078125,-13019.244140625,-3494.421630859375,4960.69580078125,-98.54634857177734,-9340.4453125,-859.8963623046875,-66.7572021484375,2708.43505859375,12836.4560546875,2002.716064453125,5939.8017578125,-1168.2509765625,11727.8095703125,-3868.73876953125,-6395.9755859375,-4414.71728515625,-4161.19921875,-8031.52734375,-3089.90478515625,3271.8974609375,1800.060302734375,-447.43218994140625,-1415.41162109375,-2593.199462890625,3530.979248046875,-4233.51904296875,15207.9267578125,-5435.943359375,-0.0,-8221.466796875,5005.9951171875,-6146.43115234375,-4498.16357421875,-926.653564453125,5404.94921875,-7530.0537109375,870.227783203125,-5914.3701171875,-3576.27880859375,-2152.125,6457.96435546875,3788.47119140625,-21521.25,-9141.7626953125,-1080.8309326171875,1107.0570068359375,-9720.3251953125,-1744.42919921875,-3878.275634765625,-16301.4736328125,401.33795166015625,-1354.217529296875,1680.0562744140625,-11154.015625,-3122.48876953125,0.0,-1482.963623046875,0.0,-3415.74365234375,-0.0,2311.07080078125
-14897.1875,-16926.923828125,-5454.22216796875,-1409.8485107421875,-1466.2742919921875,8552.869140625,-5417.6650390625,-2679.0302734375,-1313.6864013671875,5846.818359375,-8079.21142578125,-13024.806640625,-3512.700439453125,4955.1328125,-136.6933135986328,-9351.5712890625,-872.6119995117188,-75.49921417236328,2700.48779296875,12829.3037109375,1991.58984375,5931.8544921875,-1176.9930419921875,11719.86328125,-3879.0703125,-6402.33349609375,-4443.32763671875,-4164.3779296875,-8055.369140625,-3113.74658203125,3261.566162109375,1788.93408203125,-460.1478576660156,-1424.1536865234375,-2602.736328125,3523.031982421875,-4246.23486328125,15201.568359375,-5457.4013671875,-0.0,-8234.18359375,5000.4326171875,-6158.35205078125,-4503.72705078125,-935.3955688476562,5402.56494140625,-7545.9482421875,853.5385131835938,-5907.21728515625,-3580.25244140625,-2188.6826171875,6450.81201171875,4440.943359375,-21532.376953125,-9165.6044921875,-1102.28857421875,1081.6256103515625,-9756.8828125,-1745.2239990234375,-3868.73876953125,-16314.1884765625,393.3906555175781,-1361.3701171875,1675.287841796875,-11169.91015625,-3136.7939453125,0.0,-1509.1895751953125,0.0,-3437.201171875,-0.0,2298.35498046875
-14891.6240234375,-16995.271484375,-5458.99072265625,-1411.43798828125,-1501.2423095703125,8540.1533203125,-5435.14892578125,-2693.335205078125,-1323.22314453125,5836.48681640625,-8072.85302734375,-13027.19140625,-3515.87939453125,4947.185546875,-159.74044799804688,-9373.82421875,-878.9698486328125,-88.21487426757812,2687.77197265625,12822.1513671875,1979.6688232421875,5923.1123046875,-1196.0665283203125,11707.9423828125,-3867.1494140625,-6413.4599609375,-4460.0166015625,-4183.451171875,-8045.83251953125,-3143.151611328125,3253.618896484375,1781.781494140625,-466.50567626953125,-1430.511474609375,-2618.630615234375,3513.4951171875,-4261.3349609375,15188.0576171875,-5460.58056640625,-0.0,-8241.3359375,4990.8955078125,-6191.73046875,-4518.0322265625,-948.9059448242188,5389.84912109375,-7538.79541015625,854.333251953125,-5904.83349609375,-3597.736328125,-2210.934814453125,6432.533203125,5687.078125,-21553.0390625,-9153.68359375,-1107.8516845703125,1056.1943359375,-9794.2353515625,-1745.2239990234375,-3879.0703125,-16325.3154296875,379.8802795410156,-1370.9068603515625,1669.724853515625,-11169.1162109375,-3147.919921875,0.0,-1517.136962890625,0.0,-3447.53271484375,-0.0,2289.613037109375
-14887.650390625,-17004.013671875,-5450.24853515625,-1419.38525390625,-1513.1632080078125,8528.232421875,-5441.5068359375,-2700.48779296875,-1326.402099609375,5822.9765625,-8070.46875,-13029.5751953125,-3513.4951171875,4944.00634765625,-154.97207641601562,-9365.08203125,-880.5592651367188,-93.7779769897461,2681.414306640625,12817.3828125,1978.07958984375,5915.9599609375,-1204.80859375,11700.7890625,-3852.84423828125,-6419.8173828125,-4454.4541015625,-4196.1669921875,-8047.42138671875,-3155.072509765625,3250.43994140625,1779.3973388671875,-466.50567626953125,-1435.27978515625,-2624.988525390625,3505.5478515625,-4266.10302734375,15182.4951171875,-5451.04345703125,-0.0,-8238.15625,4981.35888671875,-6210.80419921875,-4526.77392578125,-951.2901611328125,5379.51806640625,-7534.02734375,847.1806640625,-5886.5546875,-3609.6572265625,-2206.96142578125,6430.14892578125,7461.70654296875,-21549.06640625,-9155.2734375,-1115.7989501953125,1047.4522705078125,-9749.73046875,-1730.1241455078125,-3882.2490234375,-16332.4677734375,373.5224304199219,-1375.6751708984375,1668.13525390625,-11169.1162109375,-3150.30419921875,0.0,-1530.647216796875,0.0,-3459.45361328125,-0.0,2272.129150390625
-14884.4716796875,-16941.228515625,-5445.48046875,-1424.1536865234375,-1494.884521484375,8536.1796875,-5431.97021484375,-2713.998046875,-1320.8388671875,5844.43408203125,-8063.31640625,-13024.806640625,-3499.190185546875,4946.390625,-136.6933135986328,-9375.4130859375,-872.6119995117188,-85.03595733642578,2686.1826171875,12814.9990234375,1987.6163330078125,5921.5224609375,-1192.0928955078125,11702.3779296875,-3847.28125,-6399.15478515625,-4442.533203125,-4207.29296875,-8045.83251953125,-3140.767333984375,3258.38720703125,1789.728759765625,-458.55841064453125,-1429.7166748046875,-2615.451904296875,3511.90576171875,-4258.15576171875,15180.9052734375,-5450.24853515625,-0.0,-8231.798828125,4992.48486328125,-6190.14111328125,-4528.36376953125,-944.9323120117188,5367.59716796875,-7527.66943359375,842.4122924804688,-5898.4755859375,-3597.736328125,-2187.093017578125,6411.07568359375,8709.4306640625,-21540.32421875,-9155.2734375,-1126.1304931640625,1073.6783447265625,-9738.6044921875,-1734.0977783203125,-3896.55419921875,-16320.546875,380.67498779296875,-1374.8804931640625,1679.2615966796875,-11166.7314453125,-3144.740966796875,0.0,-1533.031494140625,0.0,-3450.71142578125,-0.0,2286.43408203125
-14900.3671875,-16916.59375,-5451.04345703125,-1417.0010986328125,-1494.884521484375,8533.794921875,-5431.17529296875,-2705.256103515625,-1318.4547119140625,5844.43408203125,-8060.93212890625,-13031.1650390625,-3505.5478515625,4952.74853515625,-137.48805236816406,-9376.2080078125,-872.6119995117188,-85.8306884765625,2688.56689453125,12818.97265625,1985.2320556640625,5921.5224609375,-1189.708740234375,11704.7626953125,-3859.996826171875,-6399.15478515625,-4442.533203125,-4201.73046875,-8045.037109375,-3142.35693359375,3256.003173828125,1792.1129150390625,-460.9425964355469,-1429.7166748046875,-2615.451904296875,3513.4951171875,-4256.56640625,15182.4951171875,-5440.7119140625,-0.0,-8234.9775390625,4988.51171875,-6189.34619140625,-4525.9794921875,-944.1375732421875,5377.1337890625,-7526.87451171875,848.7701416015625,-5907.21728515625,-3599.325927734375,-2187.093017578125,6417.43310546875,8966.1279296875,-21564.9609375,-9155.2734375,-1124.5408935546875,1076.0625,-9765.625,-1747.608154296875,-3890.196533203125,-16318.9560546875,380.67498779296875,-1372.4962158203125,1680.0562744140625,-11173.0888671875,-3150.30419921875,0.0,-1528.2630615234375,0.0,-3453.095703125,-0.0,2295.970947265625
-14909.1083984375,-16920.56640625,-5448.6591796875,-1415.41162109375,-1497.2686767578125,8535.384765625,-5431.97021484375,-2702.0771484375,-1317.6600341796875,5847.61279296875,-8067.29052734375,-13031.9599609375,-3523.031982421875,4951.9541015625,-151.7931671142578,-9364.287109375,-871.0225219726562,-85.03595733642578,2686.977294921875,12822.9453125,1984.437255859375,5921.5224609375,-1192.8876953125,11704.7626953125,-3867.1494140625,-6402.33349609375,-4450.47998046875,-4192.98779296875,-8052.18994140625,-3123.283447265625,3255.208251953125,1792.1129150390625,-458.55841064453125,-1428.1273193359375,-2617.8359375,3511.90576171875,-4258.95068359375,15184.0849609375,-5439.12255859375,-0.0,-8240.5400390625,4986.12744140625,-6190.935546875,-4521.2109375,-945.72705078125,5379.51806640625,-7535.6162109375,851.154296875,-5918.34423828125,-3592.17333984375,-2200.603515625,6423.79150390625,8859.634765625,-21546.681640625,-9161.6318359375,-1101.493896484375,1057.78369140625,-9770.3935546875,-1746.018798828125,-3891.785888671875,-16314.9833984375,381.4697265625,-1373.291015625,1680.8509521484375,-11172.294921875,-3143.9462890625,0.0,-1534.620849609375,0.0,-3450.71142578125,-0.0,2303.918212890625
-14885.2666015625,-16901.4921875,-5435.14892578125,-1397.1328125,-1482.963623046875,8554.458984375,-5423.22802734375,-2685.387939453125,-1313.6864013671875,5859.53369140625,-8059.34228515625,-13013.6806640625,-3509.521484375,4953.54296875,-147.02479553222656,-9342.0341796875,-862.280517578125,-73.90975952148438,2697.308837890625,12834.8662109375,1996.358154296875,5934.23828125,-1182.55615234375,11718.2734375,-3855.228515625,-6393.59130859375,-4441.73828125,-4176.298828125,-8048.216796875,-3105.004638671875,3267.129150390625,1801.649658203125,-446.6374816894531,-1416.206298828125,-2606.709716796875,3523.82666015625,-4252.5927734375,15199.1845703125,-5442.30126953125,-0.0,-8229.4150390625,5002.02197265625,-6178.22021484375,-4506.111328125,-936.9849853515625,5395.41259765625,-7523.6953125,871.0225219726562,-5906.4228515625,-3567.53662109375,-2197.424560546875,6442.06982421875,8472.6015625,-21501.3828125,-9159.2470703125,-1073.6783447265625,1064.1416015625,-9748.935546875,-1736.4820556640625,-3870.328125,-16304.6513671875,393.3906555175781,-1359.7806396484375,1683.235107421875,-11169.1162109375,-3132.820068359375,0.0,-1516.3421630859375,0.0,-3440.380126953125,-0.0,2303.918212890625
-14867.7822265625,-16899.109375,-5421.638671875,-1386.0067138671875,-1467.8636474609375,8563.201171875,-5412.1015625,-2670.2880859375,-1302.5601806640625,5867.4814453125,-8041.85888671875,-13008.912109375,-3491.24267578125,4959.1064453125,-127.95130920410156,-9328.5244140625,-850.359619140625,-62.78356170654297,2710.024658203125,12849.966796875,2008.279052734375,5942.98046875,-1168.2509765625,11729.3994140625,-3836.155029296875,-6390.41259765625,-4425.048828125,-4162.78857421875,-8030.73193359375,-3105.79931640625,3277.460693359375,1811.1864013671875,-437.89544677734375,-1405.8748779296875,-2594.788818359375,3535.74755859375,-4239.87744140625,15210.310546875,-5424.0224609375,-0.0,-8213.5205078125,5009.96923828125,-6165.50439453125,-4494.1904296875,-925.8588256835938,5407.33349609375,-7509.39013671875,882.1487426757812,-5893.70703125,-3559.58935546875,-2179.145751953125,6458.75927734375,7624.6259765625,-21497.408203125,-9142.5576171875,-1065.7310791015625,1085.5992431640625,-9733.8359375,-1726.9453125,-3856.023193359375,-16300.6787109375,405.31158447265625,-1346.270263671875,1691.1824951171875,-11159.5791015625,-3126.462158203125,0.0,-1506.805419921875,0.0,-3428.459228515625,-0.0,2303.12353515625
-14900.3671875,-16904.671875,-5415.28076171875,-1382.8277587890625,-1458.326904296875,8575.916015625,-5399.3857421875,-2653.598876953125,-1290.6392822265625,5877.81298828125,-8037.09033203125,-12999.375,-3477.732421875,4964.669921875,-108.08309173583984,-9306.271484375,-840.8228759765625,-50.067901611328125,2720.35595703125,12864.2724609375,2019.4053955078125,5953.31201171875,-1158.71435546875,11741.3203125,-3826.6181640625,-6384.849609375,-4409.154296875,-4141.33056640625,-8021.99072265625,-3087.5205078125,3288.5869140625,1819.928466796875,-429.1534423828125,-1397.9276123046875,-2584.45751953125,3546.078857421875,-4227.16162109375,15223.8203125,-5397.796875,-0.0,-8201.599609375,5017.916015625,-6154.37841796875,-4479.09033203125,-917.1168212890625,5423.22802734375,-7502.23779296875,882.1487426757812,-5884.96533203125,-3544.489501953125,-2160.866943359375,6481.01171875,6686.84619140625,-21493.435546875,-9132.2255859375,-1055.3995361328125,1110.23583984375,-9730.65625,-1717.4085693359375,-3856.023193359375,-16291.9365234375,417.2325134277344,-1336.7335205078125,1700.71923828125,-11149.2470703125,-3124.078125,0.0,-1513.1632080078125,0.0,-3430.84326171875,-0.0,2303.12353515625
-14947.2548828125,-16926.130859375,-5420.84375,-1398.7222900390625,-1463.0953369140625,8569.55859375,-5405.744140625,-2662.3408203125,-1300.970703125,5863.5078125,-8060.93212890625,-13007.3232421875,-3484.090087890625,4957.51708984375,-112.05673217773438,-9326.140625,-846.385986328125,-55.63100051879883,2713.998046875,12852.3515625,2015.431640625,5949.33837890625,-1165.0721435546875,11734.962890625,-3836.94970703125,-6395.18115234375,-4412.3330078125,-4152.45654296875,-8029.9375,-3085.93115234375,3282.229248046875,1810.3917236328125,-434.716552734375,-1402.696044921875,-2590.815185546875,3541.310546875,-4232.724609375,15215.0791015625,-5411.306640625,-0.0,-8207.95703125,5012.353515625,-6159.94140625,-4487.03759765625,-923.474609375,5412.1015625,-7515.74853515625,865.45947265625,-5886.5546875,-3546.078857421875,-2160.072265625,6469.88525390625,6875.19677734375,-21491.05078125,-9139.37890625,-1053.81005859375,1117.388427734375,-9749.73046875,-1722.9715576171875,-3879.0703125,-16300.6787109375,414.84832763671875,-1344.6807861328125,1684.0299072265625,-11156.3994140625,-3128.846435546875,0.0,-1522.699951171875,0.0,-3438.79052734375,-0.0,2292.7919921875
-14913.876953125,-16891.16015625,-5436.73828125,-1418.590576171875,-1477.400390625,8549.6904296875,-5420.84375,-2686.977294921875,-1314.4810791015625,5854.765625,-8070.46875,-13024.806640625,-3507.931884765625,4947.98046875,-130.3354949951172,-9340.4453125,-859.8963623046875,-68.3466567993164,2699.69287109375,12831.6875,2001.1265869140625,5933.443359375,-1176.9930419921875,11717.478515625,-3852.84423828125,-6407.10205078125,-4432.201171875,-4175.50439453125,-8046.626953125,-3093.87841796875,3271.10302734375,1802.4444580078125,-448.2269287109375,-1415.41162109375,-2602.736328125,3526.210693359375,-4247.02978515625,15197.5947265625,-5433.5595703125,-0.0,-8223.8515625,4999.6376953125,-6175.041015625,-4508.4951171875,-937.7797241210938,5387.46484375,-7528.4638671875,847.9754028320312,-5909.6015625,-3576.27880859375,-2180.7353515625,6440.48046875,7658.0048828125,-21496.615234375,-9155.2734375,-1074.4730224609375,1084.8045654296875,-9761.6513671875,-1732.50830078125,-3885.42822265625,-16306.2421875,402.1326599121094,-1362.95947265625,1667.340576171875,-11161.9638671875,-3143.151611328125,0.0,-1512.3685302734375,0.0,-3422.101318359375,-0.0,2293.586669921875
-14870.1669921875,-16875.267578125,-5437.53271484375,-1424.9483642578125,-1484.552978515625,8545.7158203125,-5427.20166015625,-2694.924560546875,-1324.017822265625,5842.05029296875,-8062.52197265625,-13033.548828125,-3507.13720703125,4938.44384765625,-132.7196807861328,-9348.392578125,-863.8699951171875,-73.90975952148438,2693.335205078125,12814.2041015625,1993.9739990234375,5927.0859375,-1183.3509521484375,11713.5048828125,-3860.79150390625,-6399.94970703125,-4443.32763671875,-4184.24609375,-8049.01123046875,-3114.541259765625,3266.33447265625,1800.85498046875,-453.7900390625,-1420.9747314453125,-2608.29931640625,3520.647705078125,-4253.3876953125,15189.6474609375,-5447.06982421875,-0.0,-8228.619140625,4995.6640625,-6181.39892578125,-4516.44287109375,-944.1375732421875,5381.90234375,-7529.2587890625,843.20703125,-5922.3173828125,-3581.841796875,-2185.503662109375,6430.14892578125,8144.37890625,-21509.328125,-9159.2470703125,-1102.28857421875,1061.7574462890625,-9756.8828125,-1734.8924560546875,-3879.0703125,-16295.1142578125,398.1590270996094,-1370.9068603515625,1652.24072265625,-11160.3740234375,-3156.662109375,0.0,-1500.4476318359375,0.0,-3418.92236328125,-0.0,2290.407958984375
-14866.98828125,-16891.95703125,-5435.943359375,-1409.8485107421875,-1480.579345703125,8548.8955078125,-5424.8173828125,-2698.103759765625,-1327.19677734375,5829.33447265625,-8049.8056640625,-13021.6279296875,-3496.805908203125,4949.56982421875,-122.38819885253906,-9359.5185546875,-856.7174072265625,-72.32030487060547,2693.335205078125,12803.8720703125,1997.153076171875,5931.0595703125,-1180.9666748046875,11714.298828125,-3859.996826171875,-6390.41259765625,-4436.1748046875,-4187.42529296875,-8039.474609375,-3127.257080078125,3268.71875,1808.007568359375,-448.2269287109375,-1416.206298828125,-2605.9150390625,3523.031982421875,-4249.4140625,15188.853515625,-5435.943359375,-0.0,-8226.2353515625,4999.6376953125,-6178.22021484375,-4514.85302734375,-942.548095703125,5377.92822265625,-7526.07958984375,855.9227294921875,-5917.54931640625,-3578.662841796875,-2176.76171875,6423.79150390625,7741.451171875,-21518.072265625,-9148.12109375,-1111.030517578125,1072.883544921875,-9763.2412109375,-1727.739990234375,-3871.917724609375,-16291.9365234375,398.9537658691406,-1374.0858154296875,1672.1090087890625,-11152.4267578125,-3152.688232421875,0.0,-1491.70556640625,0.0,-3410.97509765625,-0.0,2307.891845703125
-14867.7822265625,-16925.333984375,-5434.3544921875,-1418.590576171875,-1471.83740234375,8557.6376953125,-5415.28076171875,-2690.951171875,-1324.017822265625,5826.9501953125,-8033.1162109375,-13014.4755859375,-3496.010986328125,4952.74853515625,-108.08309173583984,-9347.59765625,-851.154296875,-65.96247100830078,2699.69287109375,12805.4619140625,2004.3055419921875,5940.59619140625,-1173.814208984375,11721.4521484375,-3849.665283203125,-6375.31298828125,-4423.45947265625,-4176.298828125,-8034.7060546875,-3121.69384765625,3273.487060546875,1811.1864013671875,-441.8691101074219,-1407.46435546875,-2598.762451171875,3530.979248046875,-4241.46630859375,15196.005859375,-5421.638671875,-0.0,-8221.466796875,5013.94287109375,-6170.27294921875,-4503.72705078125,-933.0113525390625,5381.107421875,-7515.74853515625,844.0017700195312,-5903.244140625,-3573.099853515625,-2161.661865234375,6434.91748046875,6825.923828125,-21520.45703125,-9142.5576171875,-1093.5465087890625,1085.5992431640625,-9766.4189453125,-1710.2559814453125,-3882.2490234375,-16300.6787109375,407.6957702636719,-1370.112060546875,1683.235107421875,-11149.2470703125,-3140.767333984375,0.0,-1503.62646484375,0.0,-3429.25390625,-0.0,2314.249755859375
-14887.650390625,-16957.125,-5426.40673828125,-1390.7750244140625,-1464.684814453125,8552.869140625,-5409.7177734375,-2688.56689453125,-1312.8916015625,5834.1025390625,-8022.78515625,-13021.6279296875,-3484.090087890625,4961.49072265625,-98.54634857177734,-9356.33984375,-850.359619140625,-64.37301635742188,2702.8720703125,12817.3828125,2009.073974609375,5938.2119140625,-1169.0457763671875,11723.0419921875,-3836.94970703125,-6383.26025390625,-4413.1279296875,-4178.6826171875,-8041.85888671875,-3128.0517578125,3274.28173828125,1811.981201171875,-438.690185546875,-1408.259033203125,-2596.37841796875,3529.3896484375,-4236.6982421875,15199.978515625,-5419.25439453125,-0.0,-8215.904296875,5005.20068359375,-6161.53076171875,-4504.52197265625,-928.2429809570312,5387.46484375,-7505.4169921875,877.38037109375,-5888.14404296875,-3577.8681640625,-2152.125,6436.5068359375,5548.79541015625,-21528.40234375,-9147.326171875,-1094.34130859375,1105.4674072265625,-9798.208984375,-1711.845458984375,-3883.838623046875,-16307.8310546875,409.28521728515625,-1363.7542724609375,1692.77197265625,-11155.60546875,-3145.53564453125,0.0,-1531.4420166015625,0.0,-3448.327392578125,-0.0,2322.197021484375
-14884.4716796875,-16964.27734375,-5453.427734375,-1401.9012451171875,-1486.9371337890625,8538.5634765625,-5425.61181640625,-2696.51416015625,-1316.8653564453125,5834.1025390625,-8060.1376953125,-13026.396484375,-3512.700439453125,4968.64306640625,-125.56712341308594,-9369.8505859375,-863.8699951171875,-77.8833999633789,2691.745849609375,12818.97265625,1989.20556640625,5922.3173828125,-1184.1456298828125,11710.326171875,-3865.559814453125,-6403.9228515625,-4436.1748046875,-4189.80908203125,-8039.474609375,-3140.767333984375,3259.181884765625,1801.649658203125,-455.3794860839844,-1423.35888671875,-2613.8623046875,3512.700439453125,-4251.00341796875,15189.6474609375,-5424.8173828125,-0.0,-8234.9775390625,4989.30615234375,-6179.0146484375,-4518.0322265625,-939.3692016601562,5381.107421875,-7538.79541015625,864.6647338867188,-5916.75439453125,-3595.35205078125,-2175.967041015625,6425.380859375,3762.2451171875,-21544.298828125,-9148.12109375,-1098.31494140625,1083.215087890625,-9814.8984375,-1734.8924560546875,-3877.480712890625,-16318.9560546875,396.569580078125,-1369.3173828125,1695.1561279296875,-11161.9638671875,-3155.867431640625,0.0,-1521.9052734375,0.0,-3431.637939453125,-0.0,2327.760009765625
-14882.087890625,-16884.8046875,-5444.685546875,-1405.0802001953125,-1485.3477783203125,8544.921875,-5425.61181640625,-2691.745849609375,-1316.8653564453125,5846.818359375,-8061.7265625,-13016.064453125,-3519.852783203125,4956.72216796875,-140.66696166992188,-9358.7236328125,-863.0752563476562,-72.32030487060547,2693.335205078125,12824.53515625,1993.9739990234375,5930.26513671875,-1182.55615234375,11715.888671875,-3861.58642578125,-6400.744140625,-4437.7646484375,-4177.09375,-8039.474609375,-3120.899169921875,3263.950439453125,1802.4444580078125,-451.4058532714844,-1419.38525390625,-2610.683349609375,3516.674072265625,-4249.4140625,15193.6220703125,-5447.06982421875,-0.0,-8229.4150390625,4996.45849609375,-6180.6044921875,-4509.2900390625,-940.1639404296875,5385.0810546875,-7536.4111328125,860.6910400390625,-5915.1650390625,-3581.841796875,-2191.066650390625,6435.71240234375,1765.09228515625,-21528.40234375,-9148.12109375,-1093.5465087890625,1068.115234375,-9802.9775390625,-1738.0714111328125,-3890.9912109375,-16318.1630859375,399.74847412109375,-1366.9332275390625,1678.466796875,-11159.5791015625,-3145.53564453125,0.0,-1518.726318359375,0.0,-3440.380126953125,-0.0,2307.891845703125
-14889.240234375,-16875.267578125,-5439.12255859375,-1400.311767578125,-1482.963623046875,8550.484375,-5424.8173828125,-2689.361572265625,-1319.24951171875,5847.61279296875,-8049.01123046875,-13012.091796875,-3517.46875,4947.98046875,-146.2300567626953,-9351.5712890625,-859.8963623046875,-71.52557373046875,2694.1298828125,12827.7138671875,1997.94775390625,5931.0595703125,-1180.9666748046875,11718.2734375,-3852.84423828125,-6392.001953125,-4437.7646484375,-4179.4775390625,-8045.037109375,-3109.77294921875,3263.15576171875,1801.649658203125,-449.02166748046875,-1417.7957763671875,-2608.29931640625,3519.05810546875,-4251.00341796875,15195.2109375,-5436.73828125,-0.0,-8224.646484375,4998.04833984375,-6178.22021484375,-4506.111328125,-942.548095703125,5389.0546875,-7531.64306640625,869.43310546875,-5911.19140625,-3577.8681640625,-2199.013916015625,6439.68603515625,1084.8045654296875,-21506.9453125,-9153.68359375,-1106.26220703125,1062.5521240234375,-9792.6455078125,-1749.1976318359375,-3899.7333984375,-16322.1357421875,401.33795166015625,-1367.7279052734375,1666.5458984375,-11155.60546875,-3135.9990234375,0.0,-1535.4156494140625,0.0,-3464.221923828125,-0.0,2276.102783203125
-14884.4716796875,-16899.904296875,-5439.12255859375,-1398.7222900390625,-1482.963623046875,8552.07421875,-5421.638671875,-2686.1826171875,-1318.4547119140625,5849.9970703125,-8052.18994140625,-13016.8603515625,-3516.674072265625,4949.56982421875,-142.2564239501953,-9346.0078125,-859.1016235351562,-69.93611907958984,2695.719482421875,12830.0986328125,1997.94775390625,5931.0595703125,-1180.9666748046875,11718.2734375,-3848.075927734375,-6389.6181640625,-4440.14892578125,-4177.09375,-8044.24267578125,-3105.79931640625,3265.539794921875,1800.85498046875,-448.2269287109375,-1416.206298828125,-2606.709716796875,3521.4423828125,-4249.4140625,15196.7998046875,-5420.84375,-0.0,-8223.8515625,5000.4326171875,-6177.42529296875,-4505.31640625,-943.3428344726562,5390.64404296875,-7525.28515625,869.43310546875,-5912.78076171875,-3577.0732421875,-2194.24560546875,6438.0966796875,1810.3917236328125,-21494.23046875,-9154.4794921875,-1099.109619140625,1060.16796875,-9783.904296875,-1746.018798828125,-3869.533447265625,-16311.8037109375,402.9273986816406,-1365.34375,1668.9300537109375,-11162.7578125,-3135.9990234375,0.0,-1516.3421630859375,0.0,-3448.327392578125,-0.0,2273.718505859375
-14892.4189453125,-16918.978515625,-5448.6591796875,-1402.696044921875,-1489.3214111328125,8548.8955078125,-5426.40673828125,-2690.15625,-1327.19677734375,5816.61865234375,-8056.9580078125,-13012.8857421875,-3517.46875,4951.9541015625,-139.8722381591797,-9336.4716796875,-863.8699951171875,-73.11502838134766,2689.361572265625,12813.4091796875,1992.3846435546875,5928.67529296875,-1184.1456298828125,11715.888671875,-3862.380859375,-6405.51220703125,-4439.35400390625,-4171.5302734375,-8040.26904296875,-3093.083740234375,3262.36083984375,1798.4708251953125,-453.7900390625,-1417.7957763671875,-2611.47802734375,3519.05810546875,-4253.3876953125,15193.6220703125,-5433.5595703125,-0.0,-8233.3876953125,4994.869140625,-6180.6044921875,-4508.4951171875,-948.1112060546875,5381.107421875,-7533.232421875,866.254150390625,-5915.9599609375,-3571.51025390625,-2191.861328125,6436.5068359375,2593.994140625,-21503.767578125,-9148.9150390625,-1074.4730224609375,1066.5257568359375,-9753.7041015625,-1743.634521484375,-3875.891357421875,-16311.0107421875,398.1590270996094,-1373.291015625,1668.9300537109375,-11162.7578125,-3126.462158203125,0.0,-1512.3685302734375,0.0,-3445.943115234375,-0.0,2289.613037109375
-14873.345703125,-16914.208984375,-5435.943359375,-1397.9276123046875,-1481.3741455078125,8552.07421875,-5420.84375,-2690.15625,-1330.375732421875,5815.82421875,-8046.626953125,-12998.5810546875,-3503.16357421875,4947.185546875,-128.74603271484375,-9341.240234375,-859.1016235351562,-69.14138793945312,2695.719482421875,12799.103515625,1998.7423095703125,5931.8544921875,-1178.58251953125,11719.86328125,-3856.023193359375,-6405.51220703125,-4428.22802734375,-4170.73583984375,-8033.1162109375,-3093.87841796875,3267.924072265625,1804.82861328125,-446.6374816894531,-1413.8221435546875,-2605.120361328125,3523.031982421875,-4247.82421875,15195.2109375,-5455.81201171875,-0.0,-8223.8515625,4997.25341796875,-6173.45166015625,-4506.90625,-944.9323120117188,5380.3125,-7521.3115234375,871.8172607421875,-5906.4228515625,-3573.099853515625,-2181.530029296875,6436.5068359375,2314.249755859375,-21512.5078125,-9143.3525390625,-1069.7047119140625,1076.857177734375,-9755.2939453125,-1733.3031005859375,-3888.60693359375,-16308.6259765625,401.33795166015625,-1375.6751708984375,1665.7510986328125,-11152.4267578125,-3115.336181640625,0.0,-1509.984375,0.0,-3435.61181640625,-0.0,2305.507568359375
-14866.98828125,-16902.2890625,-5435.943359375,-1390.7750244140625,-1481.3741455078125,8556.048828125,-5421.638671875,-2686.1826171875,-1327.19677734375,5822.181640625,-8049.01123046875,-12996.9912109375,-3489.6533203125,4946.390625,-131.13021850585938,-9328.5244140625,-855.9227294921875,-69.93611907958984,2695.719482421875,12799.8994140625,2000.3319091796875,5935.033203125,-1179.377197265625,11722.2470703125,-3854.433837890625,-6394.38623046875,-4433.79052734375,-4162.78857421875,-8032.32177734375,-3095.4677734375,3269.513427734375,1808.007568359375,-444.2532958984375,-1409.8485107421875,-2601.94140625,3527.00537109375,-4249.4140625,15199.1845703125,-5442.30126953125,-0.0,-8223.056640625,5001.22705078125,-6175.8359375,-4502.1376953125,-944.1375732421875,5382.69677734375,-7513.3642578125,877.38037109375,-5911.19140625,-3569.126220703125,-2183.11962890625,6446.04345703125,1556.07861328125,-21519.66015625,-9141.7626953125,-1068.115234375,1077.6519775390625,-9768.0087890625,-1736.4820556640625,-3887.812255859375,-16303.857421875,401.33795166015625,-1374.8804931640625,1659.393310546875,-11150.04296875,-3122.48876953125,0.0,-1511.57373046875,0.0,-3445.1484375,-0.0,2290.407958984375
-14878.9091796875,-16918.181640625,-5440.7119140625,-1390.7750244140625,-1486.9371337890625,8550.484375,-5424.8173828125,-2690.951171875,-1325.6072998046875,5827.7451171875,-8060.93212890625,-13013.6806640625,-3493.626953125,4951.1591796875,-121.59347534179688,-9346.0078125,-864.6647338867188,-77.08867645263672,2691.745849609375,12804.6669921875,1995.5634765625,5927.880859375,-1183.3509521484375,11715.888671875,-3859.2021484375,-6401.5390625,-4437.7646484375,-4171.5302734375,-8037.09033203125,-3114.541259765625,3261.566162109375,1798.4708251953125,-450.6111145019531,-1416.206298828125,-2610.683349609375,3519.05810546875,-4251.79833984375,15194.416015625,-5449.45361328125,-0.0,-8227.8251953125,4997.25341796875,-6179.0146484375,-4510.08447265625,-944.1375732421875,5378.72314453125,-7524.490234375,878.9698486328125,-5945.3642578125,-3581.047119140625,-2172.787841796875,6438.0966796875,693.0033569335938,-21546.681640625,-9146.53125,-1079.241455078125,1088.7781982421875,-9772.77734375,-1730.1241455078125,-3898.143798828125,-16318.9560546875,396.569580078125,-1374.0858154296875,1667.340576171875,-11158.7841796875,-3138.383056640625,0.0,-1501.2423095703125,0.0,-3439.58544921875,-0.0,2291.20263671875
-14880.498046875,-16923.74609375,-5439.9169921875,-1397.1328125,-1477.400390625,8549.6904296875,-5420.04931640625,-2686.1826171875,-1326.402099609375,5812.64501953125,-8053.77978515625,-13021.6279296875,-3495.21630859375,4942.4169921875,-104.9041748046875,-9330.9091796875,-862.280517578125,-74.7044906616211,2695.719482421875,12803.078125,1997.153076171875,5929.47021484375,-1179.377197265625,11717.478515625,-3869.533447265625,-6403.9228515625,-4425.048828125,-4174.70947265625,-8031.52734375,-3126.462158203125,3264.7451171875,1797.676025390625,-449.8163757324219,-1416.206298828125,-2605.9150390625,3519.852783203125,-4247.02978515625,15196.7998046875,-5439.12255859375,-0.0,-8225.44140625,4998.8427734375,-6164.70947265625,-4507.70068359375,-939.3692016601562,5381.90234375,-7523.6953125,868.6383666992188,-5993.04833984375,-3582.636474609375,-2156.8935546875,6445.2490234375,-105.69890594482422,-21576.880859375,-9140.173828125,-1084.009765625,1095.135986328125,-9760.0625,-1729.3294677734375,-3890.9912109375,-16322.931640625,400.543212890625,-1372.4962158203125,1666.5458984375,-11154.810546875,-3139.97265625,0.0,-1506.0106201171875,0.0,-3451.50634765625,-0.0,2289.613037109375
-14878.11328125,-16913.4140625,-5426.40673828125,-1406.669677734375,-1445.611328125,8552.07421875,-5408.12841796875,-2690.15625,-1315.2757568359375,5822.181640625,-8042.6533203125,-13012.091796875,-3491.24267578125,4955.92724609375,-102.51998901367188,-9364.287109375,-854.333251953125,-66.7572021484375,2702.8720703125,12817.3828125,2010.663330078125,5935.82763671875,-1164.2774658203125,11719.86328125,-3857.612548828125,-6389.6181640625,-4413.1279296875,-4182.65673828125,-8031.52734375,-3119.3095703125,3273.487060546875,1805.6234130859375,-438.690185546875,-1412.2327880859375,-2592.404541015625,3522.237060546875,-4236.6982421875,15197.5947265625,-5430.38037109375,-0.0,-8210.341796875,5005.20068359375,-6144.046875,-4509.2900390625,-930.627197265625,5381.107421875,-7509.39013671875,859.8963623046875,-5910.396484375,-3584.225830078125,-2154.50927734375,6432.533203125,-1153.151123046875,-21562.576171875,-9140.96875,-1087.188720703125,1098.31494140625,-9775.162109375,-1724.56103515625,-3879.864990234375,-16314.1884765625,405.31158447265625,-1367.7279052734375,1683.235107421875,-11148.453125,-3132.025390625,0.0,-1490.910888671875,0.0,-3430.048583984375,-0.0,2308.6865234375
-14878.9091796875,-16921.361328125,-5431.17529296875,-1417.0010986328125,-1451.9691162109375,8548.8955078125,-5415.28076171875,-2698.103759765625,-1318.4547119140625,5834.1025390625,-8048.216796875,-13012.091796875,-3494.421630859375,4956.72216796875,-115.23564910888672,-9373.0283203125,-859.1016235351562,-73.11502838134766,2696.51416015625,12814.2041015625,2005.1002197265625,5931.0595703125,-1168.2509765625,11716.68359375,-3849.665283203125,-6397.5654296875,-4425.048828125,-4186.63037109375,-8033.91162109375,-3115.336181640625,3266.33447265625,1803.2392578125,-443.45855712890625,-1417.0010986328125,-2594.788818359375,3517.46875,-4242.26123046875,15192.0322265625,-5439.12255859375,-0.0,-8215.109375,4994.869140625,-6147.22607421875,-4514.05859375,-936.9849853515625,5376.3388671875,-7523.6953125,851.154296875,-5889.73388671875,-3577.0732421875,-2167.224853515625,6422.20166015625,-1856.4859619140625,-21537.146484375,-9140.96875,-1089.5728759765625,1093.5465087890625,-9789.466796875,-1739.660888671875,-3886.222900390625,-16311.0107421875,402.1326599121094,-1371.7015380859375,1682.4404296875,-11152.4267578125,-3135.204345703125,0.0,-1500.4476318359375,0.0,-3428.459228515625,-0.0,2307.09716796875
-14886.8564453125,-16923.74609375,-5440.7119140625,-1414.616943359375,-1499.65283203125,8539.359375,-5435.943359375,-2711.614013671875,-1327.991455078125,5830.92333984375,-8057.75341796875,-13029.5751953125,-3499.190185546875,4955.1328125,-138.28277587890625,-9375.4130859375,-869.43310546875,-89.00960540771484,2679.82470703125,12806.255859375,1986.0267333984375,5918.34423828125,-1192.8876953125,11703.9677734375,-3855.228515625,-6401.5390625,-4450.47998046875,-4197.75634765625,-8042.6533203125,-3125.66748046875,3252.029296875,1796.086669921875,-456.96893310546875,-1424.9483642578125,-2618.630615234375,3507.931884765625,-4261.3349609375,15179.31640625,-5452.6328125,-0.0,-8233.3876953125,4988.51171875,-6188.55126953125,-4523.59521484375,-952.0848388671875,5363.623046875,-7526.07958984375,855.1279907226562,-5900.06494140625,-3585.8154296875,-2190.27197265625,6412.6650390625,-1271.5657958984375,-21518.865234375,-9149.7109375,-1105.4674072265625,1080.8309326171875,-9799.7978515625,-1753.9659423828125,-3907.680419921875,-16308.6259765625,383.8539123535156,-1382.8277587890625,1673.698486328125,-11157.1953125,-3148.71484375,0.0,-1525.0841064453125,0.0,-3442.76416015625,-0.0,2299.149658203125
-14889.240234375,-16908.646484375,-5442.30126953125,-1413.8221435546875,-1516.3421630859375,8537.76953125,-5446.275390625,-2708.43505859375,-1331.17041015625,5826.1552734375,-8059.34228515625,-13024.806640625,-3502.368896484375,4955.92724609375,-154.17735290527344,-9361.107421875,-873.40673828125,-93.7779769897461,2673.467041015625,12805.4619140625,1978.07958984375,5913.57568359375,-1207.9874267578125,11699.19921875,-3856.023193359375,-6401.5390625,-4455.24853515625,-4196.1669921875,-8043.4482421875,-3141.562255859375,3244.876953125,1793.7025146484375,-460.9425964355469,-1428.9219970703125,-2629.7568359375,3503.16357421875,-4271.666015625,15174.5478515625,-5451.837890625,-0.0,-8236.5673828125,4988.51171875,-6214.77734375,-4527.56884765625,-956.0584716796875,5362.82861328125,-7520.51708984375,852.7437744140625,-5886.5546875,-3585.8154296875,-2206.16650390625,6417.43310546875,-98.54634857177734,-21504.560546875,-9150.5048828125,-1101.493896484375,1070.4993896484375,-9788.6728515625,-1752.3765869140625,-3907.680419921875,-16309.419921875,375.9066162109375,-1386.0067138671875,1668.9300537109375,-11154.015625,-3143.9462890625,0.0,-1525.87890625,0.0,-3444.353759765625,-0.0,2294.38134765625
-14889.240234375,-16912.619140625,-5449.45361328125,-1428.1273193359375,-1500.4476318359375,8541.7431640625,-5438.32763671875,-2705.256103515625,-1329.5809326171875,5829.33447265625,-8053.77978515625,-13022.4228515625,-3515.87939453125,4950.36474609375,-144.64060974121094,-9351.5712890625,-872.6119995117188,-89.80432891845703,2680.619384765625,12807.845703125,1982.847900390625,5917.54931640625,-1196.861328125,11704.7626953125,-3858.4072265625,-6396.7705078125,-4447.30126953125,-4189.80908203125,-8039.474609375,-3135.9990234375,3248.0556640625,1794.4971923828125,-460.1478576660156,-1428.9219970703125,-2621.809814453125,3507.931884765625,-4265.30859375,15180.9052734375,-5447.06982421875,-0.0,-8234.18359375,4992.48486328125,-6197.2939453125,-4523.59521484375,-952.8795776367188,5369.1865234375,-7530.0537109375,837.6439208984375,-5900.06494140625,-3586.610107421875,-2197.424560546875,6421.4072265625,831.2861328125,-21502.17578125,-9146.53125,-1107.8516845703125,1069.7047119140625,-9775.9560546875,-1746.8134765625,-3895.759521484375,-16314.9833984375,381.4697265625,-1382.032958984375,1665.7510986328125,-11153.220703125,-3139.177978515625,0.0,-1503.62646484375,0.0,-3430.84326171875,-0.0,2294.38134765625
-14892.4189453125,-16926.923828125,-5455.01708984375,-1432.8956298828125,-1498.858154296875,8533.794921875,-5439.9169921875,-2712.40869140625,-1335.9388427734375,5819.00244140625,-8051.3955078125,-13026.396484375,-3524.621337890625,4944.80126953125,-139.07749938964844,-9355.544921875,-875.7908935546875,-92.18851470947266,2676.64599609375,12800.693359375,1980.4637451171875,5912.78076171875,-1198.45068359375,11696.8154296875,-3863.970458984375,-6408.69140625,-4449.685546875,-4196.1669921875,-8045.83251953125,-3132.820068359375,3244.082275390625,1787.3446044921875,-465.7109680175781,-1435.27978515625,-2625.783203125,3503.16357421875,-4266.8974609375,15176.13671875,-5447.86474609375,-0.0,-8238.9521484375,4982.9482421875,-6195.7041015625,-4529.953125,-955.2637939453125,5362.82861328125,-7534.82177734375,834.4650268554688,-5910.396484375,-3600.12060546875,-2192.65625,6415.04931640625,1333.5545654296875,-21517.27734375,-9155.2734375,-1132.48828125,1065.7310791015625,-9784.6982421875,-1746.8134765625,-3905.29638671875,-16322.1357421875,379.0855407714844,-1386.0067138671875,1657.8038330078125,-11162.7578125,-3143.9462890625,0.0,-1519.5211181640625,0.0,-3452.301025390625,-0.0,2277.692138671875
-14903.544921875,-16930.8984375,-5462.96435546875,-1437.6640625,-1503.62646484375,8518.6962890625,-5447.06982421875,-2723.534912109375,-1343.885986328125,5811.0556640625,-8057.75341796875,-13039.1123046875,-3522.237060546875,4939.23828125,-157.35626220703125,-9389.7177734375,-883.7382202148438,-99.34107208251953,2667.109130859375,12793.541015625,1970.927001953125,5901.65478515625,-1207.1927490234375,11688.0732421875,-3870.328125,-6428.5595703125,-4463.99072265625,-4216.03515625,-8056.9580078125,-3134.40966796875,3236.134765625,1778.6025390625,-470.4793395996094,-1441.6376953125,-2632.935791015625,3492.03759765625,-4274.05029296875,15164.2158203125,-5455.81201171875,-0.0,-8245.30859375,4969.43798828125,-6201.26708984375,-4541.8740234375,-963.2110595703125,5351.7021484375,-7543.56396484375,828.9019165039062,-5923.1123046875,-3610.451904296875,-2210.934814453125,6399.15478515625,1529.8525390625,-21538.734375,-9166.400390625,-1136.4619140625,1049.8365478515625,-9809.3349609375,-1752.3765869140625,-3914.8330078125,-16332.4677734375,370.3435363769531,-1395.54345703125,1652.24072265625,-11171.5,-3166.993408203125,0.0,-1534.620849609375,0.0,-3470.579833984375,-0.0,2268.9501953125
-14905.134765625,-16930.103515625,-5458.1962890625,-1431.3062744140625,-1497.2686767578125,8527.4384765625,-5437.53271484375,-2713.998046875,-1331.965087890625,5823.77099609375,-8055.369140625,-13035.1376953125,-3510.316162109375,4949.56982421875,-144.64060974121094,-9380.9765625,-878.9698486328125,-91.39379119873047,2676.64599609375,12804.6669921875,1978.07958984375,5908.80712890625,-1199.2454833984375,11696.021484375,-3866.354736328125,-6422.20166015625,-4451.27490234375,-4207.29296875,-8049.01123046875,-3126.462158203125,3243.287353515625,1783.3709716796875,-464.9162292480469,-1437.6640625,-2625.783203125,3499.98486328125,-4266.10302734375,15172.1640625,-5452.6328125,-0.0,-8238.9521484375,4974.20654296875,-6192.525390625,-4533.1318359375,-954.4690551757812,5361.23876953125,-7539.59033203125,833.6702880859375,-5922.3173828125,-3602.504638671875,-2199.808837890625,6403.9228515625,2153.71435546875,-21536.349609375,-9157.6572265625,-1115.004150390625,1060.962646484375,-9783.1083984375,-1743.634521484375,-3898.9384765625,-16328.4931640625,378.2908020019531,-1386.0067138671875,1664.16162109375,-11160.3740234375,-3166.19873046875,0.0,-1517.136962890625,0.0,-3449.1220703125,-0.0,2288.023681640625
-14883.677734375,-16907.056640625,-5438.32763671875,-1405.0802001953125,-1472.632080078125,8554.458984375,-5416.0751953125,-2689.361572265625,-1312.096923828125,5846.0234375,-8037.884765625,-13009.70703125,-3495.21630859375,4967.0537109375,-115.23564910888672,-9346.802734375,-858.306884765625,-70.73084259033203,2699.69287109375,12826.919921875,1997.94775390625,5933.443359375,-1176.1983642578125,11719.86328125,-3846.486328125,-6399.94970703125,-4426.63818359375,-4177.88818359375,-8029.9375,-3103.415283203125,3263.950439453125,1804.82861328125,-447.43218994140625,-1416.206298828125,-2604.325439453125,3523.82666015625,-4243.8505859375,15196.005859375,-5432.7646484375,-0.0,-8219.0830078125,4996.45849609375,-6169.47802734375,-4507.70068359375,-932.2166748046875,5385.87548828125,-7522.90087890625,859.8963623046875,-5897.6806640625,-3573.89453125,-2168.814453125,6433.328125,3050.963134765625,-21510.125,-9138.583984375,-1075.267822265625,1086.3939208984375,-9752.1142578125,-1723.766357421875,-3886.222900390625,-16313.39453125,401.33795166015625,-1365.34375,1684.0299072265625,-11145.2744140625,-3131.230712890625,0.0,-1498.0634765625,0.0,-3427.66455078125,-0.0,2311.07080078125
-14887.650390625,-16911.82421875,-5446.275390625,-1409.8485107421875,-1480.579345703125,8549.6904296875,-5424.0224609375,-2690.951171875,-1322.4283447265625,5830.92333984375,-8047.42138671875,-13014.4755859375,-3503.95849609375,4950.36474609375,-127.15657043457031,-9337.265625,-866.254150390625,-77.8833999633789,2693.335205078125,12814.2041015625,1990.795166015625,5925.49658203125,-1182.55615234375,11714.298828125,-3856.023193359375,-6407.10205078125,-4435.38037109375,-4177.09375,-8038.68017578125,-3110.56787109375,3253.618896484375,1796.88134765625,-455.3794860839844,-1424.1536865234375,-2612.27294921875,3517.46875,-4250.20849609375,15191.2373046875,-5447.86474609375,-0.0,-8227.0302734375,4992.48486328125,-6178.22021484375,-4511.67431640625,-940.9586791992188,5383.49169921875,-7530.84814453125,856.7174072265625,-5904.83349609375,-3576.27880859375,-2179.145751953125,6438.89111328125,3277.460693359375,-21522.044921875,-9147.326171875,-1076.857177734375,1080.0361328125,-9752.9091796875,-1735.687255859375,-3902.912109375,-16321.3408203125,394.1853942871094,-1373.291015625,1668.13525390625,-11154.810546875,-3131.230712890625,0.0,-1519.5211181640625,0.0,-3455.47998046875,-0.0,2291.997314453125
-14894.802734375,-16915.001953125,-5443.89111328125,-1414.616943359375,-1484.552978515625,8550.484375,-5425.61181640625,-2690.951171875,-1324.8125,5830.12890625,-8051.3955078125,-13016.064453125,-3506.342529296875,4944.80126953125,-139.8722381591797,-9329.3193359375,-865.45947265625,-78.67813110351562,2692.54052734375,12814.2041015625,1990.00048828125,5923.1123046875,-1184.1456298828125,11713.5048828125,-3855.228515625,-6406.30712890625,-4438.55908203125,-4173.1201171875,-8042.6533203125,-3116.130859375,3252.823974609375,1793.7025146484375,-454.5847473144531,-1424.1536865234375,-2612.27294921875,3516.674072265625,-4251.79833984375,15191.2373046875,-5447.86474609375,-0.0,-8227.8251953125,4993.27978515625,-6180.6044921875,-4510.08447265625,-944.1375732421875,5382.69677734375,-7530.0537109375,850.359619140625,-5908.01220703125,-3573.099853515625,-2191.861328125,6438.0966796875,3867.944091796875,-21525.224609375,-9151.2998046875,-1076.857177734375,1069.7047119140625,-9764.8310546875,-1738.8662109375,-3893.37548828125,-16322.1357421875,394.1853942871094,-1372.4962158203125,1667.340576171875,-11156.3994140625,-3135.9990234375,0.0,-1525.87890625,0.0,-3457.0693359375,-0.0,2287.228759765625
-14887.650390625,-16912.619140625,-5438.32763671875,-1413.8221435546875,-1474.2215576171875,8554.458984375,-5416.0751953125,-2692.54052734375,-1316.070556640625,5841.25537109375,-8046.626953125,-13010.501953125,-3492.03759765625,4948.77490234375,-114.44091796875,-9354.7509765625,-859.8963623046875,-73.11502838134766,2698.8984375,12819.7666015625,1997.94775390625,5928.67529296875,-1175.403564453125,11719.86328125,-3845.691650390625,-6396.7705078125,-4421.0751953125,-4170.73583984375,-8029.9375,-3110.56787109375,3260.771484375,1801.649658203125,-449.02166748046875,-1417.0010986328125,-2605.9150390625,3523.031982421875,-4243.8505859375,15195.2109375,-5436.73828125,-0.0,-8219.0830078125,5001.22705078125,-6168.68359375,-4506.90625,-933.8060913085938,5381.90234375,-7522.90087890625,851.9490356445312,-5898.4755859375,-3569.9208984375,-2166.43017578125,6430.94384765625,5114.87353515625,-21529.9921875,-9140.173828125,-1078.44677734375,1087.188720703125,-9772.77734375,-1726.1505126953125,-3884.63330078125,-16314.9833984375,399.74847412109375,-1366.9332275390625,1676.0826416015625,-11150.04296875,-3128.846435546875,0.0,-1513.9580078125,0.0,-3432.432861328125,-0.0,2300.7392578125
-14892.4189453125,-16918.181640625,-5440.7119140625,-1411.43798828125,-1473.4267578125,8547.3056640625,-5417.6650390625,-2696.51416015625,-1317.6600341796875,5843.63916015625,-8050.60107421875,-13015.2705078125,-3473.7587890625,4948.77490234375,-105.69890594482422,-9359.5185546875,-861.4857788085938,-73.90975952148438,2696.51416015625,12818.97265625,1996.358154296875,5927.0859375,-1178.58251953125,11716.68359375,-3848.075927734375,-6399.94970703125,-4419.4853515625,-4181.86181640625,-8025.9638671875,-3117.720458984375,3259.181884765625,1799.2655029296875,-450.6111145019531,-1420.179931640625,-2606.709716796875,3520.647705078125,-4243.0556640625,15192.826171875,-5438.32763671875,-0.0,-8219.8779296875,4997.25341796875,-6168.68359375,-4512.46875,-933.0113525390625,5379.51806640625,-7516.54296875,853.5385131835938,-5899.2705078125,-3580.25244140625,-2158.48291015625,6426.17578125,6203.6513671875,-21549.859375,-9133.8154296875,-1089.5728759765625,1103.083251953125,-9759.2666015625,-1728.53466796875,-3883.0439453125,-16317.3671875,397.3642883300781,-1366.9332275390625,1674.4931640625,-11150.8369140625,-3132.820068359375,0.0,-1506.0106201171875,0.0,-3428.459228515625,-0.0,2298.35498046875
