-14092.921875,-16475.51953125,-5225.34033203125,-1335.14404296875,-1198.45068359375,8731.6826171875,-5244.4140625,-2528.031494140625,-1248.5185546875,5938.2119140625,-7751.78271484375,-13379.255859375,-3413.359375,5135.5361328125,40.531158447265625,-9298.32421875,-783.6024169921875,3.9736428260803223,2795.855224609375,12895.2666015625,2155.303955078125,6129.74169921875,-1057.78369140625,11876.423828125,-3587.405029296875,-6372.9287109375,-4245.43994140625,-4150.86767578125,-7952.05419921875,-3266.33447265625,3410.97509765625,1986.0267333984375,-328.222900390625,-1196.0665283203125,-2455.71142578125,3672.440673828125,-4077.752685546875,15369.255859375,-5297.66064453125,-0.0,-7965.56494140625,5059.2421875,-5924.70166015625,-4468.75927734375,-726.3819580078125,5529.7216796875,-7185.14111328125,934.600830078125,-5721.2509765625,-3487.26904296875,-2005.8948974609375,6620.8837890625,5155.40478515625,-21237.53125,-8965.3330078125,-1099.9044189453125,1267.592041015625,-9806.15625,-1581.5098876953125,-3857.612548828125,-15773.7734375,532.4681396484375,-1215.1400146484375,1748.4029541015625,-10878.2451171875,-3273.487060546875,0.0,-1606.941162109375,0.0,-3521.4423828125,-0.0,2298.35498046875
-14074.6435546875,-16500.94921875,-5225.34033203125,-1331.17041015625,-1202.4244384765625,8726.1201171875,-5246.7978515625,-2529.62109375,-1247.723876953125,5939.8017578125,-7741.451171875,-13391.9716796875,-3415.74365234375,5134.7412109375,40.531158447265625,-9302.298828125,-788.3707885742188,0.7947285771369934,2795.060302734375,12896.85546875,2148.946044921875,6124.97314453125,-1061.7574462890625,11874.8349609375,-3594.5576171875,-6375.31298828125,-4247.02978515625,-4153.25146484375,-7958.412109375,-3262.36083984375,3404.6171875,1981.2584228515625,-331.4018249511719,-1201.629638671875,-2459.68505859375,3667.67236328125,-4080.13671875,15367.6669921875,-5297.66064453125,-0.0,-7968.7431640625,5050.50048828125,-5927.880859375,-4472.732421875,-724.79248046875,5528.1318359375,-7210.57275390625,943.3428344726562,-5726.01953125,-3499.98486328125,-2005.8948974609375,6620.8837890625,4503.72705078125,-21229.5859375,-8971.69140625,-1110.23583984375,1263.618408203125,-9822.845703125,-1575.94677734375,-3863.175537109375,-15789.6669921875,528.4945068359375,-1214.3453369140625,1749.992431640625,-10875.861328125,-3285.407958984375,0.0,-1606.941162109375,0.0,-3515.08447265625,-0.0,2302.328857421875
-14114.3798828125,-16543.0703125,-5233.28759765625,-1331.17041015625,-1207.9874267578125,8726.9140625,-5252.361328125,-2531.210693359375,-1251.697509765625,5928.67529296875,-7743.83544921875,-13399.9189453125,-3439.58544921875,5137.12548828125,30.994415283203125,-9299.119140625,-797.11279296875,-3.1789143085479736,2790.2919921875,12892.0869140625,2141.79345703125,6120.205078125,-1065.7310791015625,11874.0400390625,-3604.888916015625,-6374.51806640625,-4250.20849609375,-4150.07275390625,-7962.38623046875,-3261.566162109375,3398.259521484375,1970.927001953125,-340.1438293457031,-1207.1927490234375,-2464.453369140625,3663.698974609375,-4086.494384765625,15364.4873046875,-5305.6083984375,-0.0,-7977.48583984375,5047.3212890625,-5933.443359375,-4473.52734375,-730.3555908203125,5524.15869140625,-7222.49365234375,940.1639404296875,-5723.63525390625,-3485.6796875,-2015.431640625,6624.06298828125,4170.73583984375,-21242.30078125,-8976.4599609375,-1121.362060546875,1252.4923095703125,-9829.998046875,-1589.4571533203125,-3875.0966796875,-15792.0517578125,526.905029296875,-1219.9083251953125,1749.1976318359375,-10877.4501953125,-3285.407958984375,0.0,-1622.8358154296875,0.0,-3534.952880859375,-0.0,2286.43408203125
-14159.6796875,-16548.6328125,-5234.08251953125,-1335.9388427734375,-1200.8348388671875,8734.0673828125,-5246.00341796875,-2527.23681640625,-1243.750244140625,5939.8017578125,-7756.55126953125,-13386.4091796875,-3435.61181640625,5144.27783203125,42.91534423828125,-9297.5302734375,-790.7549438476562,0.0,2795.855224609375,12900.8291015625,2148.1513671875,6125.76806640625,-1060.962646484375,11878.013671875,-3592.17333984375,-6375.31298828125,-4243.8505859375,-4143.71484375,-7955.2333984375,-3261.566162109375,3404.6171875,1974.1058349609375,-336.9649353027344,-1202.4244384765625,-2458.89013671875,3667.67236328125,-4080.13671875,15367.6669921875,-5313.55517578125,-0.0,-7967.94873046875,5052.08984375,-5927.0859375,-4467.16943359375,-723.9977416992188,5528.1318359375,-7210.57275390625,932.2166748046875,-5710.919921875,-3468.990234375,-2005.1002197265625,6623.26806640625,3806.75,-21253.427734375,-8968.5126953125,-1146.7933349609375,1265.2078857421875,-9825.2294921875,-1582.3045654296875,-3860.79150390625,-15793.6416015625,531.6734619140625,-1214.3453369140625,1762.7080078125,-10878.2451171875,-3278.25537109375,0.0,-1614.09375,0.0,-3525.416015625,-0.0,2298.35498046875
-14164.4482421875,-16529.560546875,-5216.5986328125,-1340.7071533203125,-1192.8876953125,8736.451171875,-5241.2353515625,-2521.673828125,-1238.1871337890625,5946.9541015625,-7757.345703125,-13376.0771484375,-3439.58544921875,5149.04638671875,44.50480270385742,-9309.451171875,-783.6024169921875,5.563100337982178,2799.828857421875,12907.9814453125,2158.48291015625,6131.3310546875,-1054.6048583984375,11880.3974609375,-3570.715576171875,-6384.849609375,-4235.9033203125,-4142.12548828125,-7955.2333984375,-3251.23486328125,3411.769775390625,1982.847900390625,-325.8387145996094,-1198.45068359375,-2450.1484375,3670.8515625,-4076.162841796875,15371.640625,-5295.27685546875,-0.0,-7954.43798828125,5053.67919921875,-5919.93310546875,-4463.99072265625,-717.639892578125,5536.07958984375,-7211.3671875,929.0377197265625,-5702.177734375,-3473.7587890625,-2001.1265869140625,6626.447265625,2058.346923828125,-21248.658203125,-8968.5126953125,-1115.7989501953125,1269.976318359375,-9841.125,-1573.5626220703125,-3858.4072265625,-15785.6943359375,535.6470947265625,-1210.37158203125,1765.886962890625,-10879.833984375,-3272.6923828125,0.0,-1603.7623291015625,0.0,-3515.08447265625,-0.0,2306.30224609375
-14079.4111328125,-16520.0234375,-5216.5986328125,-1335.14404296875,-1192.0928955078125,8742.0146484375,-5238.05615234375,-2519.289794921875,-1235.802978515625,5950.1328125,-7755.75634765625,-13375.2822265625,-3417.3330078125,5152.2255859375,42.91534423828125,-9307.861328125,-779.6287841796875,9.5367431640625,2802.212890625,12909.5712890625,2160.866943359375,6136.89404296875,-1050.6312255859375,11886.755859375,-3568.33154296875,-6374.51806640625,-4235.10888671875,-4140.53564453125,-7946.4912109375,-3247.260986328125,3414.94873046875,1991.58984375,-321.8650817871094,-1193.682373046875,-2448.558837890625,3675.619873046875,-4072.984130859375,15376.408203125,-5275.408203125,-0.0,-7956.02783203125,5060.037109375,-5919.93310546875,-4460.0166015625,-715.2557373046875,5543.23193359375,-7208.98291015625,936.9849853515625,-5702.97265625,-3469.784912109375,-2002.716064453125,6630.4208984375,71.52557373046875,-21224.021484375,-8962.154296875,-1076.857177734375,1269.181640625,-9838.740234375,-1570.3836669921875,-3845.691650390625,-15761.8525390625,535.6470947265625,-1206.39794921875,1768.2711181640625,-10876.6552734375,-3269.513427734375,0.0,-1596.6097412109375,0.0,-3508.726806640625,-0.0,2311.865478515625
-14069.875,-16537.5078125,-5234.876953125,-1348.6544189453125,-1208.7822265625,8723.7353515625,-5251.56640625,-2533.5947265625,-1249.3133544921875,5935.82763671875,-7778.0087890625,-13395.9453125,-3415.74365234375,5137.92041015625,34.96805953979492,-9313.423828125,-795.5233154296875,-3.9736428260803223,2789.497314453125,12896.85546875,2144.97265625,6120.205078125,-1064.936279296875,11871.6552734375,-3595.35205078125,-6386.43896484375,-4247.82421875,-4158.81494140625,-7938.54443359375,-3269.513427734375,3400.6435546875,1973.3111572265625,-337.7596435546875,-1209.576904296875,-2463.65869140625,3660.519775390625,-4085.699462890625,15362.8984375,-5315.14501953125,-0.0,-7975.89599609375,5040.1689453125,-5933.443359375,-4478.2958984375,-727.9713745117188,5526.54248046875,-7212.95703125,923.474609375,-5720.45654296875,-3499.98486328125,-2009.86865234375,6615.32080078125,-377.49609375,-21231.173828125,-8952.6171875,-1091.95703125,1266.002685546875,-9853.0458984375,-1579.125732421875,-3854.433837890625,-15786.4892578125,520.5472412109375,-1221.4979248046875,1753.9659423828125,-10873.4765625,-3292.560546875,0.0,-1607.7359619140625,0.0,-3521.4423828125,-0.0,2295.970947265625
-14111.201171875,-16515.255859375,-5231.69873046875,-1348.6544189453125,-1204.0137939453125,8722.94140625,-5246.7978515625,-2532.00537109375,-1248.5185546875,5936.62255859375,-7782.77734375,-13392.765625,-3425.2802734375,5137.92041015625,44.50480270385742,-9315.80859375,-794.7285766601562,-3.1789143085479736,2792.67626953125,12897.650390625,2150.53564453125,6121.0,-1064.1416015625,11873.2451171875,-3595.35205078125,-6392.796875,-4240.671875,-4158.02001953125,-7940.92822265625,-3266.33447265625,3402.233154296875,1971.7216796875,-333.7860107421875,-1209.576904296875,-2459.68505859375,3662.109375,-4080.93115234375,15366.0771484375,-5316.734375,-0.0,-7971.12744140625,5036.98974609375,-5927.880859375,-4476.7060546875,-724.79248046875,5530.51611328125,-7203.419921875,923.474609375,-5718.072265625,-3504.753173828125,-2001.1265869140625,6617.705078125,406.9010314941406,-21224.81640625,-8954.20703125,-1086.3939208984375,1273.1552734375,-9845.09765625,-1575.94677734375,-3853.638916015625,-15807.1513671875,526.1103515625,-1218.3189697265625,1754.7607421875,-10867.119140625,-3292.560546875,0.0,-1605.351806640625,0.0,-3522.237060546875,-0.0,2293.586669921875
-14152.52734375,-16518.43359375,-5222.9560546875,-1341.5018310546875,-1198.45068359375,8731.6826171875,-5239.6455078125,-2522.468505859375,-1245.3397216796875,5935.82763671875,-7756.55126953125,-13385.61328125,-3411.769775390625,5135.5361328125,58.01518630981445,-9317.3984375,-791.5496826171875,2.384185791015625,2799.0341796875,12900.8291015625,2156.0986328125,6125.76806640625,-1057.78369140625,11880.3974609375,-3591.37841796875,-6392.796875,-4231.134765625,-4147.6884765625,-7939.3388671875,-3261.566162109375,3406.206787109375,1973.3111572265625,-329.01763916015625,-1205.603271484375,-2453.3271484375,3669.261962890625,-4075.368408203125,15373.23046875,-5307.19775390625,-0.0,-7963.97509765625,5044.93701171875,-5922.3173828125,-4468.75927734375,-720.81884765625,5538.46337890625,-7192.29345703125,929.0377197265625,-5707.74072265625,-3480.11669921875,-1989.20556640625,6627.24169921875,1103.8780517578125,-21220.048828125,-8952.6171875,-1074.4730224609375,1288.255126953125,-9841.9189453125,-1569.5889892578125,-3841.718017578125,-15803.97265625,530.8787231445312,-1213.550537109375,1756.3502197265625,-10867.119140625,-3283.818603515625,0.0,-1601.3780517578125,0.0,-3509.521484375,-0.0,2296.765625
-14122.3271484375,-16528.765625,-5216.5986328125,-1335.14404296875,-1196.861328125,8736.451171875,-5238.85107421875,-2524.852783203125,-1242.1607666015625,5939.8017578125,-7721.5830078125,-13380.05078125,-3418.127685546875,5139.509765625,50.067901611328125,-9307.0673828125,-786.7813110351562,7.9472856521606445,2799.828857421875,12904.8037109375,2160.866943359375,6130.53662109375,-1055.3995361328125,11883.576171875,-3588.994384765625,-6388.02880859375,-4233.51904296875,-4142.12548828125,-7940.92822265625,-3256.7978515625,3411.769775390625,1977.28466796875,-324.249267578125,-1199.2454833984375,-2450.1484375,3673.235595703125,-4074.573486328125,15374.8193359375,-5311.1708984375,-0.0,-7959.20654296875,5052.884765625,-5921.5224609375,-4465.580078125,-718.4346313476562,5533.6953125,-7189.115234375,932.2166748046875,-5704.5615234375,-3466.606201171875,-1997.153076171875,6627.24169921875,1419.38525390625,-21232.763671875,-8955.001953125,-1070.4993896484375,1277.923583984375,-9841.9189453125,-1569.5889892578125,-3856.81787109375,-15803.1787109375,533.2628784179688,-1211.961181640625,1760.3238525390625,-10863.14453125,-3271.8974609375,0.0,-1612.50439453125,0.0,-3523.82666015625,-0.0,2302.328857421875
-14034.9072265625,-16521.611328125,-5218.18798828125,-1337.5281982421875,-1194.47705078125,8740.4248046875,-5238.05615234375,-2517.7001953125,-1236.59765625,5951.72265625,-7701.71484375,-13374.48828125,-3423.69091796875,5141.89404296875,47.6837158203125,-9299.119140625,-782.012939453125,11.920928955078125,2803.802490234375,12911.9560546875,2164.046142578125,6134.51025390625,-1053.015380859375,11885.9609375,-3581.047119140625,-6386.43896484375,-4234.31396484375,-4138.9462890625,-7948.87548828125,-3252.823974609375,3416.538330078125,1986.8214111328125,-321.8650817871094,-1192.0928955078125,-2446.96923828125,3676.41455078125,-4072.189453125,15377.998046875,-5316.734375,-0.0,-7956.822265625,5056.85791015625,-5919.93310546875,-4465.580078125,-714.4609985351562,5543.23193359375,-7202.62548828125,932.2166748046875,-5703.76708984375,-3466.606201171875,-1998.7423095703125,6633.599609375,1623.6304931640625,-21229.5859375,-8961.3603515625,-1067.3204345703125,1270.77099609375,-9836.3564453125,-1567.204833984375,-3850.4599609375,-15792.8466796875,534.8523559570312,-1206.39794921875,1758.734375,-10862.3505859375,-3261.566162109375,0.0,-1606.146484375,0.0,-3523.82666015625,-0.0,2305.507568359375
-14011.8603515625,-16516.05078125,-5228.51953125,-1347.8597412109375,-1203.2191162109375,8733.2724609375,-5242.82470703125,-2513.7265625,-1238.1871337890625,5957.28564453125,-7710.45703125,-13381.640625,-3429.25390625,5134.7412109375,48.47844314575195,-9287.9931640625,-785.986572265625,7.152557373046875,2798.239501953125,12918.3134765625,2159.277587890625,6130.53662109375,-1057.78369140625,11881.9873046875,-3594.5576171875,-6391.20703125,-4238.28759765625,-4139.7412109375,-7954.43798828125,-3256.7978515625,3411.769775390625,1983.642578125,-328.222900390625,-1196.861328125,-2454.121826171875,3670.8515625,-4077.752685546875,15376.408203125,-5323.88671875,-0.0,-7967.94873046875,5052.08984375,-5925.49658203125,-4467.16943359375,-719.2293701171875,5549.58984375,-7224.8779296875,922.679931640625,-5714.0986328125,-3482.500732421875,-1997.94775390625,6640.75244140625,1503.62646484375,-21239.916015625,-8967.716796875,-1075.267822265625,1270.77099609375,-9818.0771484375,-1569.5889892578125,-3841.718017578125,-15794.435546875,529.2892456054688,-1207.1927490234375,1745.2239990234375,-10871.0927734375,-3266.33447265625,0.0,-1623.6304931640625,0.0,-3530.1845703125,-0.0,2299.149658203125
-14050.0068359375,-16520.818359375,-5230.90380859375,-1351.03857421875,-1199.2454833984375,8736.451171875,-5242.82470703125,-2517.7001953125,-1240.5714111328125,5968.412109375,-7718.404296875,-13379.255859375,-3426.86962890625,5129.97314453125,53.2468147277832,-9292.76171875,-782.012939453125,8.74201488494873,2797.444580078125,12921.4921875,2161.661865234375,6133.71533203125,-1056.1943359375,11881.9873046875,-3597.736328125,-6387.23388671875,-4231.9296875,-4140.53564453125,-7949.669921875,-3249.645263671875,3414.94873046875,1988.410888671875,-325.04400634765625,-1194.47705078125,-2453.3271484375,3672.440673828125,-4076.957763671875,15374.0244140625,-5313.55517578125,-0.0,-7965.56494140625,5056.06298828125,-5922.3173828125,-4466.375,-718.4346313476562,5540.84765625,-7218.51953125,921.0904541015625,-5705.3564453125,-3479.32177734375,-1992.3846435546875,6639.16259765625,1395.54345703125,-21242.30078125,-8963.744140625,-1078.44677734375,1272.3604736328125,-9826.0244140625,-1567.99951171875,-3865.559814453125,-15792.0517578125,529.2892456054688,-1208.7822265625,1742.0450439453125,-10877.4501953125,-3271.8974609375,0.0,-1620.4515380859375,0.0,-3527.00537109375,-0.0,2287.228759765625
-14063.517578125,-16523.99609375,-5222.9560546875,-1335.9388427734375,-1192.0928955078125,8738.041015625,-5238.05615234375,-2520.08447265625,-1238.9818115234375,5958.080078125,-7712.8408203125,-13374.48828125,-3421.306640625,5145.07275390625,58.80991744995117,-9307.861328125,-776.4498291015625,14.30511474609375,2800.62353515625,12914.33984375,2167.224853515625,6138.4833984375,-1052.220703125,11883.576171875,-3584.225830078125,-6384.0546875,-4227.16162109375,-4141.33056640625,-7941.72265625,-3248.0556640625,3420.511962890625,1995.5634765625,-316.3019714355469,-1187.324462890625,-2445.3798828125,3676.41455078125,-4072.189453125,15376.408203125,-5298.45556640625,-0.0,-7956.822265625,5056.06298828125,-5915.9599609375,-4463.99072265625,-715.2557373046875,5541.642578125,-7204.21435546875,934.600830078125,-5696.61474609375,-3476.142822265625,-1984.437255859375,6635.18896484375,1321.6336669921875,-21239.916015625,-8955.7958984375,-1084.009765625,1278.7183837890625,-9853.0458984375,-1564.02587890625,-3857.612548828125,-15786.4892578125,534.0576171875,-1209.576904296875,1742.83984375,-10871.88671875,-3271.8974609375,0.0,-1606.146484375,0.0,-3523.031982421875,-0.0,2277.692138671875
-14061.1337890625,-16515.255859375,-5222.9560546875,-1334.3492431640625,-1195.2718505859375,8734.0673828125,-5240.4404296875,-2532.00537109375,-1231.829345703125,5942.18603515625,-7719.99365234375,-13384.0244140625,-3423.69091796875,5177.65673828125,63.578285217285156,-9325.3447265625,-779.6287841796875,7.9472856521606445,2797.444580078125,12911.9560546875,2164.046142578125,6134.51025390625,-1055.3995361328125,11878.8076171875,-3583.43115234375,-6384.0546875,-4228.75048828125,-4148.4833984375,-7944.9013671875,-3258.38720703125,3416.538330078125,1990.795166015625,-318.6861572265625,-1192.0928955078125,-2450.1484375,3676.41455078125,-4072.984130859375,15369.255859375,-5301.63427734375,-0.0,-7958.412109375,5052.884765625,-5919.93310546875,-4471.9375,-714.4609985351562,5529.7216796875,-7206.5986328125,938.574462890625,-5702.97265625,-3483.29541015625,-1979.6688232421875,6618.5,2378.622802734375,-21235.1484375,-8958.9755859375,-1095.135986328125,1288.255126953125,-9857.0185546875,-1559.257568359375,-3846.486328125,-15788.078125,529.2892456054688,-1211.961181640625,1781.781494140625,-10861.5556640625,-3279.050048828125,0.0,-1592.6361083984375,0.0,-3506.342529296875,-0.0,2318.22314453125
-14073.8486328125,-16500.154296875,-5229.314453125,-1339.11767578125,-1201.629638671875,8729.298828125,-5244.4140625,-2536.773681640625,-1234.2135009765625,5941.39111328125,-7735.09375,-13385.61328125,-3415.74365234375,5172.88818359375,55.63100051879883,-9326.140625,-781.2182006835938,3.1789143085479736,2792.67626953125,12908.7763671875,2158.48291015625,6130.53662109375,-1061.7574462890625,11874.8349609375,-3592.17333984375,-6382.46533203125,-4233.51904296875,-4161.19921875,-7951.259765625,-3257.592529296875,3410.97509765625,1988.410888671875,-324.249267578125,-1197.656005859375,-2453.3271484375,3671.64599609375,-4077.752685546875,15363.693359375,-5299.25,-0.0,-7963.97509765625,5051.294921875,-5925.49658203125,-4479.88525390625,-717.639892578125,5525.74755859375,-7215.34130859375,935.3955688476562,-5714.0986328125,-3486.474365234375,-1990.795166015625,6614.5263671875,4034.04248046875,-21227.994140625,-8963.744140625,-1094.34130859375,1285.076171875,-9826.0244140625,-1563.2310791015625,-3848.87060546875,-15791.2578125,523.7261352539062,-1214.3453369140625,1774.6290283203125,-10862.3505859375,-3283.02392578125,0.0,-1592.6361083984375,0.0,-3499.190185546875,-0.0,2321.40234375
-14079.4111328125,-16489.82421875,-5222.9560546875,-1334.3492431640625,-1199.2454833984375,8733.2724609375,-5245.208984375,-2532.800048828125,-1245.3397216796875,5935.033203125,-7722.3779296875,-13376.0771484375,-3394.285888671875,5141.099609375,52.45208740234375,-9315.80859375,-778.039306640625,6.357828617095947,2791.881591796875,12896.060546875,2160.072265625,6133.71533203125,-1060.16796875,11877.21875,-3587.405029296875,-6371.33935546875,-4236.6982421875,-4151.662109375,-7942.51708984375,-3257.592529296875,3412.564453125,1992.3846435546875,-321.8650817871094,-1192.8876953125,-2452.532470703125,3672.440673828125,-4079.341796875,15363.693359375,-5296.86572265625,-0.0,-7961.5908203125,5056.85791015625,-5926.291015625,-4476.7060546875,-722.4083251953125,5526.54248046875,-7187.525390625,936.1903076171875,-5718.072265625,-3483.29541015625,-1994.768798828125,6622.47314453125,5879.40234375,-21219.25390625,-8955.7958984375,-1093.5465087890625,1283.4866943359375,-9807.74609375,-1571.97314453125,-3852.049560546875,-15784.8984375,524.5208740234375,-1216.7294921875,1746.8134765625,-10855.9921875,-3270.308349609375,0.0,-1597.404541015625,0.0,-3500.779296875,-0.0,2292.7919921875
-14084.9755859375,-16498.56640625,-5209.44580078125,-1326.402099609375,-1189.708740234375,8733.2724609375,-5244.4140625,-2536.773681640625,-1256.4659423828125,5914.3701171875,-7720.78857421875,-13380.05078125,-3393.490966796875,5129.1787109375,61.98883056640625,-9314.2197265625,-774.065673828125,7.152557373046875,2791.0869140625,12879.3720703125,2167.224853515625,6136.89404296875,-1056.1943359375,11876.423828125,-3569.9208984375,-6367.365234375,-4228.75048828125,-4152.45654296875,-7940.13330078125,-3263.950439453125,3414.94873046875,1990.795166015625,-313.91778564453125,-1188.1192626953125,-2448.558837890625,3674.0302734375,-4078.547119140625,15361.30859375,-5304.0185546875,-0.0,-7951.259765625,5062.42138671875,-5919.138671875,-4477.5009765625,-726.3819580078125,5521.7744140625,-7175.6044921875,943.3428344726562,-5706.94580078125,-3505.5478515625,-1985.2320556640625,6620.8837890625,6256.103515625,-21221.638671875,-8955.7958984375,-1115.004150390625,1296.2022705078125,-9813.30859375,-1573.5626220703125,-3866.354736328125,-15784.8984375,523.7261352539062,-1224.6767578125,1753.9659423828125,-10863.9404296875,-3265.539794921875,0.0,-1600.5833740234375,0.0,-3515.87939453125,-0.0,2290.407958984375
-14081.7958984375,-16540.685546875,-5207.8564453125,-1340.7071533203125,-1190.50341796875,8719.76171875,-5246.7978515625,-2547.89990234375,-1260.4395751953125,5900.85986328125,-7746.2197265625,-13386.4091796875,-3410.97509765625,5136.3310546875,65.1677474975586,-9322.9609375,-778.8340454101562,0.7947285771369934,2785.523681640625,12874.603515625,2164.046142578125,6130.53662109375,-1059.373291015625,11868.4765625,-3564.357666015625,-6386.43896484375,-4229.54541015625,-4168.3515625,-7936.16015625,-3270.308349609375,3408.591064453125,1985.2320556640625,-316.3019714355469,-1192.0928955078125,-2451.737548828125,3663.698974609375,-4081.72607421875,15354.951171875,-5312.7607421875,-0.0,-7951.259765625,5051.294921875,-5921.5224609375,-4487.83251953125,-729.5608520507812,5506.67431640625,-7186.73095703125,929.0377197265625,-5700.58837890625,-3516.674072265625,-1980.4637451171875,6608.16796875,5065.60009765625,-21230.37890625,-8951.0283203125,-1131.6934814453125,1289.0498046875,-9819.6669921875,-1564.8206787109375,-3882.2490234375,-15788.078125,517.3682861328125,-1231.829345703125,1761.1185302734375,-10863.9404296875,-3271.8974609375,0.0,-1604.5570068359375,0.0,-3537.337158203125,-0.0,2291.20263671875
-14065.9013671875,-16585.984375,-5210.24072265625,-1345.4755859375,-1194.47705078125,8727.7099609375,-5248.3876953125,-2545.515869140625,-1258.0552978515625,5909.6015625,-7780.39306640625,-13381.640625,-3419.717041015625,5131.5625,54.836273193359375,-9326.9345703125,-777.2445678710938,2.384185791015625,2785.523681640625,12878.5771484375,2163.251220703125,6130.53662109375,-1060.962646484375,11873.2451171875,-3566.741943359375,-6372.9287109375,-4235.10888671875,-4158.02001953125,-7940.92822265625,-3266.33447265625,3410.97509765625,1989.20556640625,-317.8914489746094,-1190.50341796875,-2454.916748046875,3666.0830078125,-4082.52099609375,15355.74609375,-5309.58154296875,-0.0,-7952.05419921875,5056.06298828125,-5923.90673828125,-4480.68017578125,-728.76611328125,5507.46923828125,-7173.22021484375,921.8851928710938,-5729.1982421875,-3477.732421875,-1988.410888671875,6612.9365234375,3378.391357421875,-21239.123046875,-8953.412109375,-1103.8780517578125,1275.5394287109375,-9850.6611328125,-1562.4364013671875,-3879.864990234375,-15789.6669921875,516.5736083984375,-1232.6240234375,1749.992431640625,-10871.0927734375,-3274.28173828125,0.0,-1610.1201171875,0.0,-3530.979248046875,-0.0,2291.20263671875
-14066.6962890625,-16554.197265625,-5204.677734375,-1331.965087890625,-1191.298095703125,8739.630859375,-5249.97705078125,-2538.36328125,-1250.108154296875,5919.138671875,-7761.31982421875,-13376.8720703125,-3417.3330078125,5141.099609375,34.96805953979492,-9316.603515625,-772.4761962890625,3.9736428260803223,2786.318603515625,12888.1142578125,2167.224853515625,6137.68896484375,-1059.373291015625,11877.21875,-3581.047119140625,-6347.49755859375,-4246.23486328125,-4151.662109375,-7940.92822265625,-3259.181884765625,3414.94873046875,1996.358154296875,-312.3283386230469,-1183.3509521484375,-2450.94287109375,3671.64599609375,-4084.1103515625,15361.30859375,-5296.0712890625,-0.0,-7949.669921875,5067.98388671875,-5921.5224609375,-4475.11669921875,-729.5608520507812,5517.80078125,-7181.16748046875,936.9849853515625,-5798.33984375,-3467.40087890625,-2009.073974609375,6623.26806640625,1870.7911376953125,-21242.30078125,-8951.8232421875,-1098.31494140625,1259.6448974609375,-9852.25,-1586.2783203125,-3871.123046875,-15788.078125,520.5472412109375,-1230.2398681640625,1749.992431640625,-10879.0400390625,-3271.10302734375,0.0,-1613.299072265625,0.0,-3532.568603515625,-0.0,2290.407958984375
-14090.5380859375,-16532.740234375,-5207.0615234375,-1319.24951171875,-1173.0194091796875,8734.8623046875,-5243.61962890625,-2535.97900390625,-1239.776611328125,5933.443359375,-7742.24609375,-13384.0244140625,-3425.2802734375,5146.662109375,40.531158447265625,-9317.3984375,-770.092041015625,3.1789143085479736,2790.2919921875,12904.0078125,2169.609130859375,6139.2783203125,-1051.4259033203125,11877.21875,-3590.583740234375,-6344.318359375,-4232.724609375,-4158.81494140625,-7952.849609375,-3262.36083984375,3415.74365234375,2001.92138671875,-311.5335998535156,-1181.7613525390625,-2445.3798828125,3670.8515625,-4076.162841796875,15364.4873046875,-5274.61376953125,-0.0,-7950.46533203125,5067.98388671875,-5905.62841796875,-4479.88525390625,-722.4083251953125,5526.54248046875,-7194.677734375,949.70068359375,-5741.119140625,-3492.832275390625,-2003.5107421875,6623.26806640625,528.4945068359375,-21239.916015625,-8965.3330078125,-1099.9044189453125,1263.618408203125,-9833.1767578125,-1583.8941650390625,-3858.4072265625,-15772.1845703125,522.931396484375,-1222.2926025390625,1756.3502197265625,-10884.6025390625,-3271.10302734375,0.0,-1602.9676513671875,0.0,-3520.647705078125,-0.0,2290.407958984375
-14147.7587890625,-16529.560546875,-5210.24072265625,-1327.19677734375,-1180.9666748046875,8724.5302734375,-5249.18212890625,-2544.720947265625,-1251.697509765625,5923.1123046875,-7777.2138671875,-13392.765625,-3408.591064453125,5130.767578125,41.32588577270508,-9331.703125,-782.012939453125,-3.9736428260803223,2783.139404296875,12890.498046875,2161.661865234375,6129.74169921875,-1059.373291015625,11868.4765625,-3586.610107421875,-6371.33935546875,-4239.87744140625,-4161.19921875,-7966.359375,-3274.28173828125,3404.6171875,1991.58984375,-319.48089599609375,-1192.8876953125,-2451.737548828125,3659.72509765625,-4083.3154296875,15355.74609375,-5299.25,-0.0,-7960.79638671875,5058.447265625,-5907.21728515625,-4484.6533203125,-731.945068359375,5511.44287109375,-7188.3203125,940.9586791992188,-5721.2509765625,-3498.395263671875,-2004.3055419921875,6615.32080078125,-77.08867645263672,-21266.9375,-8978.84375,-1091.95703125,1271.5657958984375,-9856.2236328125,-1585.4835205078125,-3894.96484375,-15758.6728515625,517.3682861328125,-1232.6240234375,1741.2503662109375,-10898.11328125,-3280.6396484375,0.0,-1624.42529296875,0.0,-3537.337158203125,-0.0,2272.923828125
-14140.60546875,-16517.638671875,-5207.8564453125,-1328.7862548828125,-1204.0137939453125,8730.888671875,-5256.3349609375,-2544.720947265625,-1266.002685546875,5909.6015625,-7763.70361328125,-13375.2822265625,-3423.69091796875,5122.02587890625,29.404958724975586,-9322.166015625,-777.2445678710938,-6.357828617095947,2779.166015625,12874.603515625,2158.48291015625,6129.74169921875,-1067.3204345703125,11870.06640625,-3577.8681640625,-6388.8232421875,-4251.00341796875,-4155.6357421875,-7949.669921875,-3264.7451171875,3403.02783203125,2001.1265869140625,-317.0967102050781,-1190.50341796875,-2459.68505859375,3658.930419921875,-4092.0576171875,15354.15625,-5282.56103515625,-0.0,-7963.1806640625,5059.2421875,-5927.880859375,-4482.26953125,-740.6870727539062,5508.26416015625,-7176.3994140625,940.9586791992188,-5702.97265625,-3476.142822265625,-2017.021240234375,6620.8837890625,-736.71337890625,-21252.6328125,-8959.7705078125,-1084.8045654296875,1269.976318359375,-9857.0185546875,-1593.430908203125,-3893.37548828125,-15744.3671875,514.984130859375,-1237.3924560546875,1729.3294677734375,-10868.708984375,-3275.871337890625,0.0,-1617.272705078125,0.0,-3538.1318359375,-0.0,2272.923828125
-14107.2275390625,-16529.560546875,-5192.7568359375,-1324.8125,-1219.1136474609375,8723.7353515625,-5260.30859375,-2543.131591796875,-1263.618408203125,5922.3173828125,-7719.19873046875,-13369.7197265625,-3422.101318359375,5127.5888671875,33.37860107421875,-9315.013671875,-774.065673828125,-7.152557373046875,2779.960693359375,12884.9345703125,2157.688232421875,6127.357421875,-1075.267822265625,11868.4765625,-3563.56298828125,-6392.001953125,-4242.26123046875,-4157.22509765625,-7932.98046875,-3256.7978515625,3403.02783203125,1998.7423095703125,-313.91778564453125,-1193.682373046875,-2466.837646484375,3658.1357421875,-4095.236328125,15356.541015625,-5295.27685546875,-0.0,-7954.43798828125,5049.70556640625,-5954.10693359375,-4485.4482421875,-739.0975952148438,5517.005859375,-7172.42578125,944.9323120117188,-5663.236328125,-3486.474365234375,-2013.84228515625,6621.6787109375,-1962.9796142578125,-21235.1484375,-8946.259765625,-1079.241455078125,1273.949951171875,-9844.302734375,-1591.046630859375,-3868.73876953125,-15770.59375,514.1893920898438,-1231.829345703125,1748.4029541015625,-10853.6083984375,-3267.924072265625,0.0,-1594.2255859375,0.0,-3514.289794921875,-0.0,2301.533935546875
-14104.8427734375,-16541.48046875,-5215.8037109375,-1338.322998046875,-1216.7294921875,8725.3251953125,-5256.3349609375,-2534.389404296875,-1259.6448974609375,5934.23828125,-7719.19873046875,-13373.6923828125,-3414.154052734375,5125.99951171875,39.73643112182617,-9307.0673828125,-781.2182006835938,-7.152557373046875,2783.139404296875,12892.0869140625,2152.919677734375,6124.97314453125,-1073.6783447265625,11869.271484375,-3590.583740234375,-6392.796875,-4242.26123046875,-4149.2783203125,-7934.5703125,-3248.0556640625,3399.848876953125,1990.00048828125,-322.6598205566406,-1198.45068359375,-2466.837646484375,3658.1357421875,-4088.878662109375,15361.30859375,-5296.0712890625,-0.0,-7965.56494140625,5048.91064453125,-5943.775390625,-4480.68017578125,-735.1239624023438,5524.15869140625,-7211.3671875,928.2429809570312,-5689.46240234375,-3486.474365234375,-2004.3055419921875,6629.6259765625,-3781.318603515625,-21227.994140625,-8947.0546875,-1074.4730224609375,1273.949951171875,-9852.25,-1585.4835205078125,-3856.81787109375,-15797.615234375,518.1630249023438,-1227.855712890625,1751.581787109375,-10852.01953125,-3267.924072265625,0.0,-1597.404541015625,0.0,-3507.931884765625,-0.0,2311.865478515625
-14112.7900390625,-16516.84375,-5217.3935546875,-1343.885986328125,-1211.961181640625,8734.0673828125,-5254.74560546875,-2525.6474609375,-1262.82373046875,5946.9541015625,-7730.3251953125,-13368.1298828125,-3416.538330078125,5116.462890625,38.14697265625,-9292.76171875,-782.012939453125,-2.384185791015625,2788.70263671875,12893.6767578125,2157.688232421875,6130.53662109375,-1068.115234375,11875.6298828125,-3589.7890625,-6376.90234375,-4242.26123046875,-4143.71484375,-7936.16015625,-3239.313720703125,3402.233154296875,1986.0267333984375,-321.0703430175781,-1197.656005859375,-2462.0693359375,3665.288330078125,-4086.494384765625,15368.4619140625,-5294.48193359375,-0.0,-7964.7705078125,5054.4736328125,-5936.62255859375,-4473.52734375,-733.5344848632812,5534.490234375,-7211.3671875,925.0640869140625,-5700.58837890625,-3481.705810546875,-2005.8948974609375,6638.3681640625,-5511.44287109375,-21223.2265625,-8948.6435546875,-1091.162353515625,1269.181640625,-9848.27734375,-1590.251953125,-3838.5390625,-15810.3310546875,523.7261352539062,-1225.471435546875,1754.7607421875,-10846.4560546875,-3258.38720703125,0.0,-1587.86767578125,0.0,-3485.6796875,-0.0,2326.96533203125
-14126.30078125,-16506.513671875,-5219.77734375,-1340.7071533203125,-1206.39794921875,8735.65625,-5253.15625,-2526.4423828125,-1266.79736328125,5943.775390625,-7722.3779296875,-13363.361328125,-3417.3330078125,5116.462890625,38.14697265625,-9295.9404296875,-781.2182006835938,-0.7947285771369934,2789.497314453125,12890.498046875,2156.8935546875,6132.9208984375,-1066.5257568359375,11878.8076171875,-3581.047119140625,-6365.77587890625,-4240.671875,-4145.30419921875,-7939.3388671875,-3236.134765625,3403.82275390625,1992.3846435546875,-322.6598205566406,-1195.2718505859375,-2459.68505859375,3666.0830078125,-4086.494384765625,15367.6669921875,-5308.787109375,-0.0,-7960.79638671875,5054.4736328125,-5931.8544921875,-4473.52734375,-735.918701171875,5533.6953125,-7208.1884765625,929.8324584960938,-5698.2041015625,-3485.6796875,-2009.073974609375,6638.3681640625,-6339.5498046875,-21222.43359375,-8951.8232421875,-1098.31494140625,1270.77099609375,-9849.8662109375,-1592.6361083984375,-3844.89697265625,-15799.2041015625,525.3156127929688,-1223.882080078125,1756.3502197265625,-10852.8134765625,-3255.208251953125,0.0,-1587.072998046875,0.0,-3484.885009765625,-0.0,2322.197021484375
-14123.1220703125,-16527.970703125,-5228.51953125,-1343.885986328125,-1209.576904296875,8730.09375,-5254.74560546875,-2532.800048828125,-1266.002685546875,5931.8544921875,-7726.35107421875,-13370.513671875,-3422.101318359375,5120.43603515625,36.55751419067383,-9308.6552734375,-785.1918334960938,-7.152557373046875,2784.72900390625,12890.498046875,2151.330322265625,6126.5625,-1068.9100341796875,11874.0400390625,-3587.405029296875,-6373.7236328125,-4240.671875,-4150.07275390625,-7940.92822265625,-3247.260986328125,3397.46484375,1991.58984375,-327.4281921386719,-1200.8348388671875,-2462.864013671875,3658.930419921875,-4088.083740234375,15363.693359375,-5311.9658203125,-0.0,-7966.359375,5044.93701171875,-5932.64892578125,-4478.2958984375,-735.918701171875,5525.74755859375,-7234.41455078125,928.2429809570312,-5703.76708984375,-3483.29541015625,-2009.073974609375,6631.21533203125,-6692.40966796875,-21232.763671875,-8952.6171875,-1091.95703125,1264.4132080078125,-9861.787109375,-1587.072998046875,-3865.559814453125,-15798.41015625,522.13671875,-1226.2662353515625,1751.581787109375,-10860.7607421875,-3265.539794921875,0.0,-1606.146484375,0.0,-3527.80029296875,-0.0,2293.586669921875
-14148.552734375,-16517.638671875,-5239.6455078125,-1342.296630859375,-1216.7294921875,8723.7353515625,-5257.1298828125,-2534.389404296875,-1264.4132080078125,5928.67529296875,-7747.80908203125,-13374.48828125,-3421.306640625,5118.8466796875,31.789142608642578,-9311.8349609375,-789.16552734375,-12.715657234191895,2783.934326171875,12888.908203125,2144.177734375,6117.82080078125,-1073.6783447265625,11870.861328125,-3596.146728515625,-6399.15478515625,-4245.43994140625,-4153.25146484375,-7938.54443359375,-3256.003173828125,3391.10693359375,1987.6163330078125,-333.7860107421875,-1207.1927490234375,-2467.63232421875,3653.3671875,-4092.85205078125,15360.5146484375,-5290.50830078125,-0.0,-7973.51171875,5038.57958984375,-5937.41748046875,-4481.474609375,-736.71337890625,5522.5693359375,-7230.4404296875,929.0377197265625,-5713.30419921875,-3481.705810546875,-2013.0474853515625,6625.65234375,-8172.98876953125,-21239.123046875,-8952.6171875,-1080.8309326171875,1257.2606201171875,-9874.5029296875,-1588.6624755859375,-3871.917724609375,-15783.3095703125,518.957763671875,-1230.2398681640625,1743.634521484375,-10863.9404296875,-3270.308349609375,0.0,-1614.09375,0.0,-3539.72119140625,-0.0,2289.613037109375
-14102.458984375,-16493.001953125,-5236.466796875,-1344.6807861328125,-1211.961181640625,8728.50390625,-5253.15625,-2528.826416015625,-1262.029052734375,5942.18603515625,-7740.65625,-13376.8720703125,-3435.61181640625,5122.8203125,39.73643112182617,-9299.9140625,-792.3444213867188,-9.5367431640625,2789.497314453125,12898.4453125,2146.561767578125,6121.0,-1072.0888671875,11875.6298828125,-3596.941650390625,-6395.18115234375,-4243.0556640625,-4144.509765625,-7935.36474609375,-3257.592529296875,3392.6962890625,1985.2320556640625,-332.99127197265625,-1206.39794921875,-2465.248046875,3658.1357421875,-4089.673583984375,15365.283203125,-5325.47607421875,-0.0,-7971.12744140625,5042.552734375,-5932.64892578125,-4475.11669921875,-733.5344848632812,5526.54248046875,-7219.314453125,926.653564453125,-5709.330078125,-3476.142822265625,-2007.484375,6635.98388671875,-9733.041015625,-21236.73828125,-8951.0283203125,-1076.0625,1260.4395751953125,-9880.8603515625,-1589.4571533203125,-3866.354736328125,-15781.720703125,523.7261352539062,-1225.471435546875,1738.0714111328125,-10858.376953125,-3276.666015625,0.0,-1622.0411376953125,0.0,-3527.00537109375,-0.0,2294.38134765625
-14060.337890625,-16481.876953125,-5225.34033203125,-1347.06494140625,-1200.8348388671875,8732.478515625,-5244.4140625,-2526.4423828125,-1258.85009765625,5940.59619140625,-7722.3779296875,-13375.2822265625,-3431.637939453125,5124.41015625,60.39937210083008,-9300.708984375,-789.16552734375,-2.384185791015625,2795.855224609375,12896.85546875,2156.0986328125,6127.357421875,-1060.962646484375,11879.603515625,-3583.43115234375,-6377.69677734375,-4231.134765625,-4142.12548828125,-7928.21240234375,-3256.7978515625,3398.259521484375,1986.8214111328125,-329.01763916015625,-1204.0137939453125,-2456.506103515625,3665.288330078125,-4079.341796875,15370.845703125,-5316.734375,-0.0,-7963.1806640625,5050.50048828125,-5922.3173828125,-4472.732421875,-725.5872192382812,5529.7216796875,-7215.34130859375,924.2693481445312,-5694.23046875,-3488.8583984375,-1986.0267333984375,6638.3681640625,-9606.6787109375,-21228.791015625,-8941.4912109375,-1077.6519775390625,1283.4866943359375,-9861.787109375,-1580.7152099609375,-3864.76513671875,-15783.3095703125,529.2892456054688,-1220.703125,1735.687255859375,-10844.8671875,-3270.308349609375,0.0,-1615.6832275390625,0.0,-3519.852783203125,-0.0,2277.692138671875
-14077.02734375,-16498.56640625,-5219.77734375,-1345.4755859375,-1190.50341796875,8731.6826171875,-5238.85107421875,-2539.157958984375,-1254.081787109375,5915.9599609375,-7739.06689453125,-13391.9716796875,-3387.13330078125,5132.35693359375,81.85704803466797,-9330.11328125,-789.16552734375,0.0,2795.855224609375,12883.345703125,2157.688232421875,6127.357421875,-1057.78369140625,11875.6298828125,-3565.15234375,-6372.1337890625,-4213.6513671875,-4161.19921875,-7915.4970703125,-3252.823974609375,3399.05419921875,1982.847900390625,-328.222900390625,-1204.0137939453125,-2453.3271484375,3665.288330078125,-4074.573486328125,15365.283203125,-5325.47607421875,-0.0,-7956.822265625,5052.884765625,-5915.9599609375,-4480.68017578125,-719.2293701171875,5516.2109375,-7185.93603515625,924.2693481445312,-5685.48828125,-3481.705810546875,-1964.569091796875,6620.8837890625,-8237.3623046875,-21238.326171875,-8929.5703125,-1078.44677734375,1314.4810791015625,-9864.1708984375,-1564.02587890625,-3879.0703125,-15792.8466796875,529.2892456054688,-1223.0872802734375,1749.992431640625,-10855.9921875,-3278.25537109375,0.0,-1601.3780517578125,0.0,-3529.3896484375,-0.0,2275.307861328125
-14127.095703125,-16531.1484375,-5212.625,-1355.0123291015625,-1193.682373046875,8721.3515625,-5243.61962890625,-2547.10498046875,-1258.0552978515625,5896.09130859375,-7783.57177734375,-13391.1767578125,-3372.033447265625,5131.5625,68.3466567993164,-9330.11328125,-798.7022705078125,-9.5367431640625,2787.11328125,12876.9873046875,2152.125,6117.02587890625,-1065.7310791015625,11868.4765625,-3550.847412109375,-6388.02880859375,-4220.8037109375,-4165.96728515625,-7929.00732421875,-3276.666015625,3390.312255859375,1970.132080078125,-335.3754577636719,-1214.3453369140625,-2458.89013671875,3656.54638671875,-4080.13671875,15358.130859375,-5338.19189453125,-0.0,-7952.849609375,5037.78466796875,-5923.1123046875,-4487.03759765625,-724.79248046875,5506.67431640625,-7173.22021484375,917.9114990234375,-5699.79345703125,-3494.421630859375,-1978.874267578125,6615.32080078125,-6798.1083984375,-21265.34765625,-8944.6708984375,-1100.6990966796875,1308.123291015625,-9862.58203125,-1560.846923828125,-3884.63330078125,-15810.3310546875,519.7525024414062,-1231.03466796875,1739.660888671875,-10884.6025390625,-3278.25537109375,0.0,-1614.09375,0.0,-3546.078857421875,-0.0,2272.129150390625
-14133.453125,-16550.22265625,-5223.7509765625,-1366.138427734375,-1214.3453369140625,8704.662109375,-5260.30859375,-2555.84716796875,-1271.5657958984375,5884.96533203125,-7794.6982421875,-13394.35546875,-3414.154052734375,5121.23095703125,50.86262893676758,-9334.0869140625,-813.00732421875,-27.815500259399414,2772.013427734375,12863.4765625,2136.23046875,6100.33642578125,-1081.6256103515625,11852.58203125,-3581.841796875,-6415.04931640625,-4246.23486328125,-4175.50439453125,-7955.2333984375,-3294.94482421875,3373.622802734375,1955.8270263671875,-348.09112548828125,-1229.445068359375,-2477.1689453125,3640.651611328125,-4096.826171875,15343.8251953125,-5334.21826171875,-0.0,-7970.3330078125,5019.505859375,-5942.98046875,-4500.5478515625,-739.892333984375,5498.7275390625,-7205.80419921875,903.6064453125,-5721.2509765625,-3516.674072265625,-1997.153076171875,6606.57861328125,-5764.16650390625,-21289.189453125,-8970.1015625,-1118.18310546875,1274.74462890625,-9869.734375,-1578.3310546875,-3887.812255859375,-15819.072265625,500.67901611328125,-1245.3397216796875,1734.0977783203125,-10883.013671875,-3286.20263671875,0.0,-1624.42529296875,0.0,-3550.052734375,-0.0,2268.9501953125
-14093.716796875,-16535.91796875,-5235.671875,-1353.4227294921875,-1211.961181640625,8712.609375,-5256.3349609375,-2552.668212890625,-1266.002685546875,5904.0390625,-7733.50390625,-13384.0244140625,-3441.1748046875,5137.12548828125,50.86262893676758,-9333.29296875,-804.2653198242188,-23.047128677368164,2775.98681640625,12869.0400390625,2140.2041015625,6109.0791015625,-1078.44677734375,11858.1455078125,-3596.941650390625,-6408.69140625,-4239.87744140625,-4171.5302734375,-7951.259765625,-3277.460693359375,3378.391357421875,1968.5428466796875,-343.32275390625,-1219.1136474609375,-2473.1953125,3648.598876953125,-4092.0576171875,15347.00390625,-5302.42919921875,-0.0,-7976.69140625,5028.248046875,-5935.033203125,-4494.1904296875,-736.71337890625,5501.90576171875,-7215.34130859375,915.52734375,-5710.919921875,-3502.368896484375,-1995.5634765625,6607.37353515625,-4756.45068359375,-21259.78515625,-8966.1279296875,-1109.441162109375,1272.3604736328125,-9864.966796875,-1583.8941650390625,-3886.222900390625,-15803.1787109375,504.6526794433594,-1240.5714111328125,1750.787109375,-10862.3505859375,-3279.844970703125,0.0,-1610.1201171875,0.0,-3529.3896484375,-0.0,2284.050048828125
-14060.337890625,-16544.66015625,-5238.05615234375,-1348.6544189453125,-1208.7822265625,8725.3251953125,-5250.77197265625,-2541.5419921875,-1253.2869873046875,5919.138671875,-7700.125,-13379.255859375,-3445.1484375,5146.662109375,43.7100715637207,-9316.603515625,-796.3180541992188,-12.715657234191895,2784.72900390625,12886.5244140625,2144.97265625,6118.61572265625,-1070.4993896484375,11869.271484375,-3601.7099609375,-6388.8232421875,-4242.26123046875,-4157.22509765625,-7942.51708984375,-3267.924072265625,3387.927978515625,1975.6953125,-337.7596435546875,-1210.37158203125,-2466.837646484375,3658.930419921875,-4084.905029296875,15357.3349609375,-5307.99267578125,-0.0,-7979.0751953125,5043.34765625,-5932.64892578125,-4484.6533203125,-727.1766357421875,5512.2373046875,-7215.34130859375,922.679931640625,-5709.330078125,-3484.090087890625,-2002.716064453125,6623.26806640625,-3665.288330078125,-21241.505859375,-8956.591796875,-1096.7254638671875,1262.82373046875,-9852.25,-1572.767822265625,-3888.60693359375,-15796.8193359375,514.1893920898438,-1229.445068359375,1757.1448974609375,-10849.634765625,-3274.28173828125,0.0,-1610.914794921875,0.0,-3528.594970703125,-0.0,2291.997314453125
-14061.1337890625,-16587.576171875,-5256.3349609375,-1370.9068603515625,-1228.650390625,8708.63671875,-5266.66650390625,-2555.84716796875,-1275.5394287109375,5893.70703125,-7731.91455078125,-13407.0712890625,-3436.406494140625,5114.07861328125,23.84185791015625,-9324.55078125,-814.5968017578125,-27.02077293395996,2768.039794921875,12863.4765625,2129.87255859375,6102.720703125,-1087.9835205078125,11853.376953125,-3617.6044921875,-6403.9228515625,-4260.5400390625,-4167.556640625,-7951.259765625,-3291.765869140625,3373.622802734375,1956.621826171875,-358.422607421875,-1228.650390625,-2484.321533203125,3642.2412109375,-4103.18359375,15340.6455078125,-5342.96044921875,-0.0,-7994.96923828125,5027.453125,-5951.72265625,-4500.5478515625,-746.2501220703125,5497.1376953125,-7220.90380859375,901.2222290039062,-5731.58251953125,-3505.5478515625,-2021.78955078125,6613.7314453125,-3079.573486328125,-21262.96484375,-8964.5390625,-1115.004150390625,1258.0552978515625,-9876.091796875,-1587.86767578125,-3902.117431640625,-15823.0458984375,499.08953857421875,-1249.3133544921875,1723.766357421875,-10867.119140625,-3293.355224609375,0.0,-1645.8829345703125,0.0,-3559.58935546875,-0.0,2256.234375
-14078.6171875,-16567.70703125,-5252.361328125,-1376.469970703125,-1227.0609130859375,8707.8408203125,-5270.64013671875,-2554.257568359375,-1289.0498046875,5889.73388671875,-7756.55126953125,-13410.2509765625,-3408.591064453125,5091.03173828125,25.43131446838379,-9311.8349609375,-814.5968017578125,-28.6102294921875,2767.2451171875,12849.171875,2129.077880859375,6102.720703125,-1090.36767578125,11851.787109375,-3601.7099609375,-6405.51220703125,-4261.3349609375,-4170.73583984375,-7951.259765625,-3302.097412109375,3372.828125,1955.8270263671875,-358.422607421875,-1230.2398681640625,-2484.321533203125,3641.4462890625,-4106.36279296875,15340.6455078125,-5352.4970703125,-0.0,-7988.6123046875,5027.453125,-5953.31201171875,-4501.3427734375,-752.6079711914062,5497.1376953125,-7229.64599609375,893.2749633789062,-5738.7353515625,-3511.111083984375,-2021.78955078125,6616.11572265625,-2682.208984375,-21269.322265625,-8964.5390625,-1124.5408935546875,1265.2078857421875,-9871.3232421875,-1596.6097412109375,-3899.7333984375,-15815.099609375,497.5001220703125,-1252.4923095703125,1721.382080078125,-10871.0927734375,-3290.970947265625,0.0,-1642.7039794921875,0.0,-3554.821044921875,-0.0,2263.386962890625
-14117.55859375,-16570.091796875,-5255.54052734375,-1379.6488037109375,-1231.829345703125,8699.8935546875,-5275.408203125,-2561.41015625,-1290.6392822265625,5895.29638671875,-7786.7509765625,-13408.6611328125,-3414.94873046875,5097.38916015625,25.43131446838379,-9344.4189453125,-818.5704345703125,-34.1733283996582,2763.271240234375,12852.3515625,2124.3095703125,6096.36328125,-1095.135986328125,11845.4296875,-3599.325927734375,-6415.04931640625,-4265.30859375,-4180.2724609375,-7957.61767578125,-3306.071044921875,3368.8544921875,1950.263916015625,-360.8067932128906,-1235.00830078125,-2487.50048828125,3635.88330078125,-4110.33642578125,15334.2890625,-5366.00732421875,-0.0,-7990.99658203125,5020.30029296875,-5958.080078125,-4510.87939453125,-757.3763427734375,5493.1640625,-7247.9248046875,890.8907470703125,-5745.8876953125,-3521.4423828125,-2024.1737060546875,6604.19482421875,-1023.6104736328125,-21273.294921875,-8971.69140625,-1133.282958984375,1257.2606201171875,-9865.7607421875,-1610.914794921875,-3902.912109375,-15817.484375,492.73175048828125,-1254.081787109375,1734.8924560546875,-10884.6025390625,-3302.89208984375,0.0,-1629.193603515625,0.0,-3541.310546875,-0.0,2276.8974609375
-14122.3271484375,-16572.474609375,-5256.3349609375,-1368.522705078125,-1227.0609130859375,8697.509765625,-5271.4345703125,-2559.82080078125,-1275.5394287109375,5912.78076171875,-7786.7509765625,-13406.2763671875,-3439.58544921875,5119.6416015625,29.404958724975586,-9356.33984375,-815.3915405273438,-30.19968605041504,2768.83447265625,12872.21875,2127.48828125,6099.5419921875,-1089.5728759765625,11847.8134765625,-3604.09423828125,-6419.02294921875,-4258.95068359375,-4188.2197265625,-7956.02783203125,-3289.3818359375,3372.033447265625,1952.648193359375,-358.422607421875,-1229.445068359375,-2483.52685546875,3639.85693359375,-4104.77294921875,15338.26171875,-5325.47607421875,-0.0,-7990.201171875,5021.89013671875,-5952.51708984375,-4512.46875,-748.6343383789062,5500.31640625,-7229.64599609375,902.8117065429688,-5733.171875,-3516.674072265625,-2017.021240234375,6601.810546875,1714.2296142578125,-21272.501953125,-8971.69140625,-1134.8724365234375,1244.544921875,-9841.9189453125,-1608.5306396484375,-3889.401611328125,-15815.099609375,495.91064453125,-1245.3397216796875,1753.1712646484375,-10900.4970703125,-3302.097412109375,0.0,-1612.50439453125,0.0,-3523.82666015625,-0.0,2293.586669921875
-14133.453125,-16585.984375,-5261.10302734375,-1374.8804931640625,-1231.03466796875,8696.7158203125,-5270.64013671875,-2561.41015625,-1266.002685546875,5916.75439453125,-7772.44580078125,-13407.8662109375,-3444.353759765625,5133.94677734375,15.09984302520752,-9345.2138671875,-816.186279296875,-30.994415283203125,2771.218505859375,12878.5771484375,2123.514892578125,6100.33642578125,-1090.36767578125,11846.224609375,-3611.246826171875,-6418.22802734375,-4258.15576171875,-4184.24609375,-7970.3330078125,-3285.407958984375,3372.033447265625,1952.648193359375,-360.8067932128906,-1231.03466796875,-2485.1162109375,3641.4462890625,-4105.56787109375,15338.26171875,-5311.1708984375,-0.0,-7996.55908203125,5019.505859375,-5954.10693359375,-4510.87939453125,-747.0448608398438,5502.70068359375,-7226.46728515625,894.8643798828125,-5741.9140625,-3524.621337890625,-2029.73681640625,6603.39990234375,4969.43798828125,-21280.447265625,-8984.40625,-1130.8988037109375,1250.90283203125,-9829.203125,-1601.3780517578125,-3880.659912109375,-15823.8408203125,496.7053527832031,-1242.95556640625,1753.1712646484375,-10898.11328125,-3299.713134765625,0.0,-1625.219970703125,0.0,-3530.1845703125,-0.0,2289.613037109375
-14140.60546875,-16603.470703125,-5254.74560546875,-1373.291015625,-1231.03466796875,8703.072265625,-5265.87158203125,-2557.436767578125,-1268.3868408203125,5909.6015625,-7744.63037109375,-13404.6865234375,-3437.201171875,5118.8466796875,18.278757095336914,-9340.4453125,-813.00732421875,-26.226043701171875,2772.80810546875,12873.013671875,2128.283203125,6106.69482421875,-1087.188720703125,11850.9931640625,-3618.3994140625,-6406.30712890625,-4257.36083984375,-4178.6826171875,-7961.5908203125,-3283.02392578125,3375.21240234375,1956.621826171875,-357.62786865234375,-1226.2662353515625,-2483.52685546875,3648.598876953125,-4102.388671875,15341.44140625,-5315.939453125,-0.0,-7995.7646484375,5026.65869140625,-5952.51708984375,-4506.111328125,-745.4554443359375,5502.70068359375,-7240.7724609375,897.2485961914062,-5738.7353515625,-3515.87939453125,-2026.557861328125,6605.7841796875,7297.19775390625,-21289.189453125,-8976.4599609375,-1123.7462158203125,1250.108154296875,-9814.8984375,-1595.8150634765625,-3881.45458984375,-15818.27734375,501.4737243652344,-1241.3660888671875,1734.8924560546875,-10882.21875,-3292.560546875,0.0,-1623.6304931640625,0.0,-3539.72119140625,-0.0,2272.129150390625
-14129.4794921875,-16598.701171875,-5263.4873046875,-1374.8804931640625,-1229.445068359375,8700.6884765625,-5267.46142578125,-2559.026123046875,-1270.77099609375,5908.80712890625,-7719.99365234375,-13407.8662109375,-3432.432861328125,5111.6943359375,22.25240135192871,-9349.982421875,-813.8020629882812,-27.815500259399414,2771.218505859375,12873.013671875,2125.104248046875,6106.69482421875,-1088.7781982421875,11849.4033203125,-3624.757080078125,-6401.5390625,-4256.56640625,-4180.2724609375,-7948.0810546875,-3285.407958984375,3373.622802734375,1959.80078125,-360.0120544433594,-1227.855712890625,-2485.9111328125,3647.009521484375,-4101.59423828125,15339.8515625,-5313.55517578125,-0.0,-8002.91748046875,5024.2744140625,-5954.10693359375,-4507.70068359375,-747.0448608398438,5501.90576171875,-7232.0302734375,894.0697021484375,-5733.171875,-3525.416015625,-2024.1737060546875,6601.810546875,8975.6650390625,-21301.111328125,-8962.94921875,-1124.5408935546875,1249.3133544921875,-9815.693359375,-1598.993896484375,-3879.0703125,-15807.947265625,499.08953857421875,-1240.5714111328125,1737.2767333984375,-10874.271484375,-3294.150146484375,0.0,-1615.6832275390625,0.0,-3538.92626953125,-0.0,2271.33447265625
-14132.6591796875,-16566.119140625,-5255.54052734375,-1362.95947265625,-1226.2662353515625,8708.63671875,-5262.69287109375,-2555.052490234375,-1267.592041015625,5911.19140625,-7719.19873046875,-13397.5341796875,-3428.459228515625,5116.462890625,30.19968605041504,-9338.0615234375,-809.8284301757812,-23.047128677368164,2774.397705078125,12875.3974609375,2129.077880859375,6107.4892578125,-1084.8045654296875,11854.9658203125,-3620.783447265625,-6397.5654296875,-4254.9765625,-4173.91455078125,-7942.51708984375,-3275.871337890625,3377.5966796875,1962.1849365234375,-354.4489440917969,-1225.471435546875,-2481.142822265625,3650.1884765625,-4098.41552734375,15345.4140625,-5316.734375,-0.0,-7998.14892578125,5027.453125,-5949.33837890625,-4502.1376953125,-743.865966796875,5505.0849609375,-7226.46728515625,909.1694946289062,-5729.9931640625,-3500.779296875,-2015.431640625,6607.37353515625,10005.6337890625,-21292.3671875,-8958.9755859375,-1115.004150390625,1257.2606201171875,-9811.71875,-1596.6097412109375,-3875.891357421875,-15808.740234375,501.4737243652344,-1238.1871337890625,1740.45556640625,-10863.14453125,-3289.3818359375,0.0,-1623.6304931640625,0.0,-3537.337158203125,-0.0,2275.307861328125
-14181.931640625,-16531.943359375,-5243.61962890625,-1365.34375,-1222.2926025390625,8703.072265625,-5264.2822265625,-2551.87353515625,-1267.592041015625,5910.396484375,-7739.06689453125,-13396.740234375,-3431.637939453125,5115.66796875,37.35224533081055,-9338.0615234375,-809.8284301757812,-23.047128677368164,2775.98681640625,12876.9873046875,2131.462158203125,6104.310546875,-1084.009765625,11852.58203125,-3605.68359375,-6416.638671875,-4251.79833984375,-4176.298828125,-7940.92822265625,-3276.666015625,3377.5966796875,1960.5953369140625,-348.8858642578125,-1228.650390625,-2477.1689453125,3649.393798828125,-4097.62060546875,15343.8251953125,-5308.787109375,-0.0,-7990.201171875,5020.30029296875,-5946.9541015625,-4503.72705078125,-742.2764892578125,5509.853515625,-7224.0830078125,909.1694946289062,-5724.43017578125,-3505.5478515625,-2007.484375,6610.55224609375,10336.240234375,-21281.2421875,-8956.591796875,-1110.23583984375,1262.029052734375,-9807.74609375,-1592.6361083984375,-3875.0966796875,-15820.6611328125,502.26849365234375,-1238.1871337890625,1734.8924560546875,-10848.044921875,-3289.3818359375,0.0,-1631.577880859375,0.0,-3551.64208984375,-0.0,2268.9501953125
-14152.52734375,-16519.228515625,-5242.82470703125,-1378.059326171875,-1219.9083251953125,8690.357421875,-5267.46142578125,-2564.58935546875,-1275.5394287109375,5902.44921875,-7759.72998046875,-13403.09765625,-3429.25390625,5107.720703125,30.994415283203125,-9352.3662109375,-814.5968017578125,-29.404958724975586,2769.629150390625,12867.451171875,2130.66748046875,6097.9521484375,-1087.188720703125,11844.634765625,-3596.146728515625,-6430.14892578125,-4251.00341796875,-4190.603515625,-7936.16015625,-3286.99755859375,3372.033447265625,1955.8270263671875,-352.06475830078125,-1235.802978515625,-2479.55322265625,3640.651611328125,-4100.7998046875,15335.876953125,-5313.55517578125,-0.0,-7988.6123046875,5009.96923828125,-5949.33837890625,-4514.85302734375,-747.0448608398438,5496.34326171875,-7220.109375,896.453857421875,-5719.66162109375,-3523.031982421875,-2011.4581298828125,6599.42626953125,10340.2138671875,-21273.294921875,-8951.0283203125,-1112.6199951171875,1263.618408203125,-9831.587890625,-1593.430908203125,-3886.222900390625,-15822.251953125,498.2948303222656,-1245.3397216796875,1729.3294677734375,-10852.01953125,-3296.5341796875,0.0,-1620.4515380859375,0.0,-3543.69482421875,-0.0,2267.360595703125
-14102.458984375,-16552.607421875,-5251.56640625,-1386.0067138671875,-1221.4979248046875,8694.3310546875,-5268.255859375,-2563.79443359375,-1278.7183837890625,5901.65478515625,-7768.47216796875,-13407.0712890625,-3431.637939453125,5097.38916015625,26.226043701171875,-9340.4453125,-819.3651733398438,-30.19968605041504,2766.4501953125,12865.06640625,2129.87255859375,6097.15771484375,-1088.7781982421875,11845.4296875,-3590.583740234375,-6421.4072265625,-4253.3876953125,-4184.24609375,-7941.72265625,-3286.99755859375,3369.649169921875,1952.648193359375,-357.62786865234375,-1237.3924560546875,-2479.55322265625,3639.85693359375,-4103.18359375,15336.6728515625,-5326.27099609375,-0.0,-7989.40673828125,5014.73779296875,-5950.927734375,-4511.67431640625,-750.2238159179688,5494.75341796875,-7220.109375,883.7382202148438,-5722.0458984375,-3515.87939453125,-2019.4053955078125,6603.39990234375,10960.896484375,-21275.677734375,-8955.7958984375,-1110.23583984375,1262.82373046875,-9836.3564453125,-1597.404541015625,-3900.52783203125,-15819.8681640625,497.5001220703125,-1247.723876953125,1728.53466796875,-10865.529296875,-3306.071044921875,0.0,-1622.0411376953125,0.0,-3543.69482421875,-0.0,2268.1552734375
-14115.9697265625,-16581.216796875,-5249.97705078125,-1392.364501953125,-1227.0609130859375,8689.5625,-5273.81884765625,-2562.999755859375,-1279.5130615234375,5902.44921875,-7772.44580078125,-13412.634765625,-3418.92236328125,5096.59423828125,25.43131446838379,-9336.4716796875,-825.7230224609375,-34.1733283996582,2764.06591796875,12866.65625,2125.104248046875,6090.7998046875,-1094.34130859375,11839.8662109375,-3592.968017578125,-6423.79150390625,-4259.7451171875,-4184.24609375,-7951.259765625,-3294.94482421875,3364.880859375,1940.727294921875,-365.5751647949219,-1243.750244140625,-2485.9111328125,3637.472900390625,-4108.7470703125,15334.2890625,-5342.96044921875,-0.0,-7993.38037109375,5010.763671875,-5954.9013671875,-4514.05859375,-752.6079711914062,5494.75341796875,-7211.3671875,876.5856323242188,-5736.35107421875,-3522.237060546875,-2021.78955078125,6604.19482421875,11750.0615234375,-21280.447265625,-8965.3330078125,-1131.6934814453125,1267.592041015625,-9826.0244140625,-1603.7623291015625,-3895.759521484375,-15840.5302734375,492.73175048828125,-1250.108154296875,1724.56103515625,-10880.6298828125,-3305.276123046875,0.0,-1627.6041259765625,0.0,-3548.463134765625,-0.0,2265.771240234375
-14139.0166015625,-16574.859375,-5241.2353515625,-1375.6751708984375,-1227.855712890625,8696.7158203125,-5271.4345703125,-2559.026123046875,-1280.3077392578125,5901.65478515625,-7768.47216796875,-13407.8662109375,-3411.769775390625,5089.44189453125,31.789142608642578,-9336.4716796875,-823.3388061523438,-30.994415283203125,2766.4501953125,12863.4765625,2125.104248046875,6094.77392578125,-1091.95703125,11843.8408203125,-3601.7099609375,-6409.486328125,-4259.7451171875,-4177.09375,-7944.10693359375,-3298.12353515625,3364.880859375,1939.1378173828125,-363.19097900390625,-1239.776611328125,-2485.1162109375,3640.651611328125,-4103.978515625,15336.6728515625,-5344.5498046875,-0.0,-7994.1748046875,5017.12158203125,-5954.9013671875,-4510.08447265625,-748.6343383789062,5499.52197265625,-7196.267578125,895.6591186523438,-5737.9404296875,-3527.00537109375,-2013.84228515625,6606.57861328125,11562.5068359375,-21284.421875,-8957.3857421875,-1132.48828125,1273.1552734375,-9824.435546875,-1588.6624755859375,-3890.196533203125,-15836.5576171875,494.3211669921875,-1247.723876953125,1711.0506591796875,-10873.4765625,-3296.5341796875,0.0,-1629.98828125,0.0,-3546.078857421875,-0.0,2260.2080078125
-14147.7587890625,-16609.033203125,-5261.10302734375,-1377.2646484375,-1230.2398681640625,8692.7412109375,-5273.02392578125,-2560.615478515625,-1277.923583984375,5908.01220703125,-7765.29296875,-13417.4033203125,-3422.896240234375,5095.0048828125,32.5838737487793,-9339.650390625,-828.107177734375,-36.55751419067383,2766.4501953125,12867.451171875,2116.3623046875,6093.18408203125,-1093.5465087890625,11842.2509765625,-3610.451904296875,-6419.8173828125,-4256.56640625,-4184.24609375,-7939.3388671875,-3312.4287109375,3360.9072265625,1936.753662109375,-367.9593505859375,-1241.3660888671875,-2489.08984375,3635.88330078125,-4103.978515625,15335.876953125,-5335.0126953125,-0.0,-8004.50634765625,5015.5322265625,-5958.080078125,-4511.67431640625,-747.839599609375,5501.111328125,-7227.26220703125,894.0697021484375,-5729.9931640625,-3529.3896484375,-2013.84228515625,6604.19482421875,10150.2734375,-21317.80078125,-8951.0283203125,-1136.4619140625,1269.181640625,-9833.9716796875,-1592.6361083984375,-3879.0703125,-15830.1982421875,491.9369812011719,-1246.92919921875,1716.61376953125,-10869.5029296875,-3300.5078125,0.0,-1633.9620361328125,0.0,-3542.900146484375,-0.0,2267.360595703125
-14153.3212890625,-16637.64453125,-5265.0771484375,-1396.338134765625,-1232.6240234375,8691.947265625,-5269.845703125,-2559.82080078125,-1267.592041015625,5919.138671875,-7759.72998046875,-13421.3759765625,-3407.796142578125,5113.28369140625,40.531158447265625,-9338.0615234375,-826.5177612304688,-40.531158447265625,2768.039794921875,12882.5498046875,2113.97802734375,6093.18408203125,-1096.7254638671875,11843.044921875,-3609.6572265625,-6419.02294921875,-4252.5927734375,-4184.24609375,-7942.51708984375,-3320.376220703125,3361.701904296875,1940.727294921875,-368.7540588378906,-1238.9818115234375,-2490.679443359375,3634.293701171875,-4103.978515625,15338.26171875,-5323.091796875,-0.0,-8008.47998046875,5017.916015625,-5957.28564453125,-4511.67431640625,-743.865966796875,5505.8798828125,-7232.82470703125,872.6119995117188,-5733.171875,-3523.82666015625,-2006.6898193359375,6605.7841796875,8236.5673828125,-21345.615234375,-8953.412109375,-1142.0250244140625,1281.1025390625,-9842.712890625,-1599.7886962890625,-3877.480712890625,-15834.1728515625,491.9369812011719,-1240.5714111328125,1737.2767333984375,-10868.708984375,-3310.83935546875,0.0,-1631.577880859375,0.0,-3536.542236328125,-0.0,2282.46044921875
-14166.037109375,-16615.390625,-5240.4404296875,-1370.9068603515625,-1219.9083251953125,8718.9677734375,-5253.15625,-2537.568359375,-1252.4923095703125,5932.64892578125,-7728.7353515625,-13395.150390625,-3408.591064453125,5128.3837890625,49.27317428588867,-9311.8349609375,-805.8547973632812,-21.457672119140625,2786.318603515625,12897.650390625,2134.640869140625,6115.4365234375,-1079.241455078125,11863.708984375,-3601.7099609375,-6374.51806640625,-4239.87744140625,-4157.22509765625,-7934.5703125,-3292.560546875,3383.954345703125,1964.569091796875,-346.5016784667969,-1215.1400146484375,-2472.400634765625,3656.54638671875,-4087.289306640625,15356.541015625,-5290.50830078125,-0.0,-7994.1748046875,5043.34765625,-5940.59619140625,-4487.83251953125,-731.1503295898438,5522.5693359375,-7202.62548828125,898.8380126953125,-5722.8408203125,-3493.626953125,-1996.358154296875,6630.4208984375,7351.23974609375,-21317.80078125,-8947.0546875,-1111.8253173828125,1289.0498046875,-9828.408203125,-1585.4835205078125,-3864.76513671875,-15813.5087890625,511.0104675292969,-1223.882080078125,1746.8134765625,-10862.3505859375,-3294.150146484375,0.0,-1616.47802734375,0.0,-3526.210693359375,-0.0,2291.997314453125
-14171.6005859375,-16604.265625,-5230.10888671875,-1352.6280517578125,-1215.1400146484375,8723.7353515625,-5251.56640625,-2531.210693359375,-1243.750244140625,5947.74853515625,-7730.3251953125,-13389.587890625,-3413.359375,5143.4833984375,39.73643112182617,-9304.6826171875,-800.2916870117188,-15.09984302520752,2788.70263671875,12909.5712890625,2144.177734375,6120.205078125,-1075.267822265625,11868.4765625,-3587.405029296875,-6372.1337890625,-4247.02978515625,-4154.8408203125,-7937.7490234375,-3276.666015625,3387.927978515625,1966.1585693359375,-340.1438293457031,-1211.1663818359375,-2466.837646484375,3661.314697265625,-4085.699462890625,15361.30859375,-5310.37646484375,-0.0,-7984.63818359375,5044.14208984375,-5941.39111328125,-4485.4482421875,-727.1766357421875,5529.7216796875,-7190.7041015625,918.7062377929688,-5719.66162109375,-3486.474365234375,-2003.5107421875,6633.599609375,7873.3759765625,-21283.626953125,-8950.2333984375,-1105.4674072265625,1273.949951171875,-9820.4609375,-1578.3310546875,-3853.638916015625,-15811.919921875,514.984130859375,-1218.3189697265625,1760.3238525390625,-10862.3505859375,-3284.61328125,0.0,-1607.7359619140625,0.0,-3515.87939453125,-0.0,2306.30224609375
-14137.427734375,-16523.203125,-5226.13525390625,-1349.44921875,-1210.37158203125,8726.9140625,-5245.208984375,-2523.26318359375,-1239.776611328125,5966.822265625,-7733.50390625,-13379.255859375,-3414.154052734375,5138.71533203125,44.50480270385742,-9305.4775390625,-795.5233154296875,-8.74201488494873,2796.64990234375,12923.876953125,2152.125,6124.97314453125,-1068.9100341796875,11874.0400390625,-3579.45751953125,-6393.59130859375,-4244.6455078125,-4152.45654296875,-7938.54443359375,-3267.129150390625,3391.901611328125,1974.1058349609375,-335.3754577636719,-1208.7822265625,-2462.0693359375,3664.49365234375,-4078.547119140625,15368.4619140625,-5311.1708984375,-0.0,-7976.69140625,5038.57958984375,-5937.41748046875,-4479.88525390625,-719.2293701171875,5542.43701171875,-7208.98291015625,921.0904541015625,-5718.86669921875,-3476.9375,-1999.5372314453125,6639.16259765625,7644.49462890625,-21256.60546875,-8951.8232421875,-1094.34130859375,1273.949951171875,-9813.30859375,-1574.357421875,-3844.10205078125,-15791.2578125,519.7525024414062,-1208.7822265625,1761.1185302734375,-10852.01953125,-3276.666015625,0.0,-1601.3780517578125,0.0,-3504.753173828125,-0.0,2308.6865234375
-14086.564453125,-16489.029296875,-5234.08251953125,-1344.6807861328125,-1205.603271484375,8727.7099609375,-5241.2353515625,-2514.521240234375,-1242.1607666015625,5973.18017578125,-7729.5302734375,-13376.0771484375,-3419.717041015625,5135.5361328125,44.50480270385742,-9294.3505859375,-794.7285766601562,-3.9736428260803223,2804.59716796875,12923.0810546875,2152.919677734375,6126.5625,-1064.936279296875,11880.3974609375,-3571.51025390625,-6400.744140625,-4239.87744140625,-4142.919921875,-7938.54443359375,-3266.33447265625,3395.08056640625,1977.28466796875,-333.7860107421875,-1210.37158203125,-2458.095458984375,3666.877685546875,-4076.162841796875,15375.6142578125,-5315.939453125,-0.0,-7973.51171875,5039.3740234375,-5933.443359375,-4475.91162109375,-717.639892578125,5550.384765625,-7215.34130859375,926.653564453125,-5713.30419921875,-3479.32177734375,-2000.3319091796875,6650.2890625,6398.35986328125,-21261.373046875,-8951.0283203125,-1094.34130859375,1269.976318359375,-9809.3349609375,-1575.94677734375,-3837.744384765625,-15788.8740234375,523.7261352539062,-1203.2191162109375,1756.3502197265625,-10859.171875,-3268.71875,0.0,-1589.4571533203125,0.0,-3495.21630859375,-0.0,2299.149658203125
-14072.2587890625,-16509.69140625,-5249.97705078125,-1347.8597412109375,-1212.755859375,8718.9677734375,-5249.97705078125,-2532.00537109375,-1257.2606201171875,5926.291015625,-7768.47216796875,-13381.640625,-3426.074951171875,5125.99951171875,46.09425735473633,-9311.8349609375,-804.2653198242188,-12.715657234191895,2792.67626953125,12889.703125,2141.79345703125,6116.2314453125,-1072.0888671875,11867.6826171875,-3569.126220703125,-6403.9228515625,-4243.0556640625,-4154.04638671875,-7947.28564453125,-3271.10302734375,3387.13330078125,1966.1585693359375,-342.52801513671875,-1219.1136474609375,-2465.248046875,3658.1357421875,-4086.494384765625,15362.103515625,-5330.24462890625,-0.0,-7981.45947265625,5033.81103515625,-5939.0068359375,-4487.83251953125,-730.3555908203125,5524.15869140625,-7220.109375,922.679931640625,-5715.68798828125,-3489.6533203125,-1998.7423095703125,6632.8046875,5618.73095703125,-21269.322265625,-8959.7705078125,-1094.34130859375,1270.77099609375,-9825.2294921875,-1583.8941650390625,-3868.73876953125,-15792.8466796875,515.7788696289062,-1223.0872802734375,1736.4820556640625,-10875.861328125,-3273.487060546875,0.0,-1603.7623291015625,0.0,-3519.05810546875,-0.0,2276.8974609375
-14081.7958984375,-16536.712890625,-5251.56640625,-1360.5753173828125,-1213.550537109375,8713.404296875,-5255.54052734375,-2543.92626953125,-1265.2078857421875,5891.3232421875,-7763.70361328125,-13384.8193359375,-3429.25390625,5118.8466796875,42.1206169128418,-9318.1923828125,-809.8284301757812,-15.894571304321289,2783.934326171875,12869.0400390625,2137.820068359375,6109.0791015625,-1074.4730224609375,11861.32421875,-3582.636474609375,-6407.896484375,-4238.28759765625,-4164.3779296875,-7950.46533203125,-3278.25537109375,3379.980712890625,1958.211181640625,-350.4753112792969,-1224.6767578125,-2470.0166015625,3652.57275390625,-4090.468017578125,15350.9775390625,-5345.3447265625,-0.0,-7987.81689453125,5029.04248046875,-5940.59619140625,-4493.3955078125,-736.71337890625,5505.8798828125,-7225.67236328125,909.1694946289062,-5712.50927734375,-3496.010986328125,-2002.716064453125,6620.0888671875,5688.66748046875,-21270.1171875,-8962.94921875,-1095.9306640625,1272.3604736328125,-9826.8193359375,-1588.6624755859375,-3884.63330078125,-15800.794921875,511.0104675292969,-1236.59765625,1744.42919921875,-10868.708984375,-3276.666015625,0.0,-1617.272705078125,0.0,-3538.1318359375,-0.0,2278.487060546875
-14089.7431640625,-16543.0703125,-5271.4345703125,-1391.5697021484375,-1227.855712890625,8700.6884765625,-5267.46142578125,-2558.2314453125,-1274.74462890625,5887.349609375,-7735.09375,-13400.7138671875,-3442.76416015625,5112.4892578125,19.868215560913086,-9328.5244140625,-819.3651733398438,-26.226043701171875,2773.602783203125,12861.8876953125,2121.92529296875,6100.33642578125,-1086.3939208984375,11851.787109375,-3622.372802734375,-6419.02294921875,-4250.20849609375,-4176.298828125,-7946.4912109375,-3293.355224609375,3371.23876953125,1946.2904052734375,-363.9856872558594,-1231.829345703125,-2481.9375,3641.4462890625,-4103.18359375,15338.26171875,-5332.62890625,-0.0,-8008.47998046875,5018.7109375,-5952.51708984375,-4508.4951171875,-747.839599609375,5495.54833984375,-7241.56689453125,877.38037109375,-5719.66162109375,-3511.90576171875,-2024.1737060546875,6605.7841796875,5711.71435546875,-21278.0625,-8958.9755859375,-1130.10400390625,1249.3133544921875,-9833.1767578125,-1596.6097412109375,-3893.37548828125,-15839.7353515625,499.8843078613281,-1245.3397216796875,1728.53466796875,-10861.5556640625,-3290.17626953125,0.0,-1630.7830810546875,0.0,-3555.61572265625,-0.0,2264.9765625
-14115.9697265625,-16554.197265625,-5289.71337890625,-1405.0802001953125,-1243.750244140625,8684.7939453125,-5280.1767578125,-2574.920654296875,-1288.255126953125,5886.5546875,-7749.39892578125,-13411.83984375,-3447.53271484375,5099.7734375,12.715657234191895,-9360.3134765625,-832.8755493164062,-39.73643112182617,2760.88720703125,12849.966796875,2110.00439453125,6088.41552734375,-1099.9044189453125,11838.27734375,-3643.035888671875,-6431.73828125,-4267.6923828125,-4197.75634765625,-7952.849609375,-3302.097412109375,3358.523193359375,1928.0115966796875,-375.9066162109375,-1246.1343994140625,-2496.242431640625,3627.93603515625,-4115.8994140625,15324.751953125,-5341.37109375,-0.0,-8024.375,5006.7900390625,-5966.822265625,-4524.3896484375,-758.9658203125,5484.42236328125,-7259.05078125,865.45947265625,-5742.70849609375,-3528.594970703125,-2032.915771484375,6585.916015625,5088.6474609375,-21284.421875,-8966.1279296875,-1129.309326171875,1247.723876953125,-9862.58203125,-1603.7623291015625,-3903.706787109375,-15851.65625,487.9633483886719,-1256.4659423828125,1708.66650390625,-10870.2978515625,-3306.071044921875,0.0,-1626.8094482421875,0.0,-3553.2314453125,-0.0,2253.0556640625
-14111.99609375,-16570.091796875,-5280.9716796875,-1392.364501953125,-1233.4188232421875,8691.947265625,-5271.4345703125,-2564.58935546875,-1280.3077392578125,5899.2705078125,-7755.75634765625,-13398.330078125,-3434.022216796875,5106.130859375,25.43131446838379,-9346.802734375,-828.9019165039062,-30.19968605041504,2768.039794921875,12861.8876953125,2121.92529296875,6094.77392578125,-1091.95703125,11845.4296875,-3631.114990234375,-6422.20166015625,-4253.3876953125,-4185.83544921875,-7951.259765625,-3290.970947265625,3365.67578125,1936.753662109375,-367.9593505859375,-1242.95556640625,-2487.50048828125,3635.088623046875,-4106.36279296875,15332.69921875,-5355.67626953125,-0.0,-8013.24853515625,5011.55859375,-5957.28564453125,-4512.46875,-751.0185546875,5495.54833984375,-7257.46142578125,878.9698486328125,-5736.35107421875,-3519.852783203125,-2020.994873046875,6599.42626953125,4166.76171875,-21268.525390625,-8965.3330078125,-1109.441162109375,1265.2078857421875,-9860.9921875,-1597.404541015625,-3902.117431640625,-15842.119140625,495.1159362792969,-1249.3133544921875,1722.1768798828125,-10872.681640625,-3290.970947265625,0.0,-1622.8358154296875,0.0,-3544.489501953125,-0.0,2263.386962890625
-14102.458984375,-16600.291015625,-5275.408203125,-1380.443603515625,-1227.855712890625,8699.8935546875,-5263.4873046875,-2552.668212890625,-1263.618408203125,5923.90673828125,-7736.68310546875,-13387.998046875,-3432.432861328125,5123.615234375,32.5838737487793,-9328.5244140625,-824.9282836914062,-23.047128677368164,2774.397705078125,12886.5244140625,2127.48828125,6101.13134765625,-1085.5992431640625,11851.787109375,-3627.93603515625,-6415.04931640625,-4248.619140625,-4174.70947265625,-7947.28564453125,-3279.050048828125,3372.033447265625,1943.1114501953125,-363.9856872558594,-1235.802978515625,-2477.963623046875,3641.4462890625,-4098.41552734375,15342.2353515625,-5346.1396484375,-0.0,-8007.685546875,5015.5322265625,-5951.72265625,-4504.52197265625,-739.892333984375,5510.6484375,-7247.9248046875,893.2749633789062,-5729.9931640625,-3511.111083984375,-2013.84228515625,6615.32080078125,3601.7099609375,-21266.142578125,-8963.744140625,-1106.26220703125,1262.82373046875,-9851.4560546875,-1586.2783203125,-3879.0703125,-15834.966796875,499.8843078613281,-1235.802978515625,1746.018798828125,-10867.119140625,-3279.844970703125,0.0,-1617.272705078125,0.0,-3529.3896484375,-0.0,2292.7919921875
-14131.86328125,-16641.6171875,-5273.81884765625,-1386.8013916015625,-1231.03466796875,8694.3310546875,-5264.2822265625,-2550.2841796875,-1251.697509765625,5954.9013671875,-7740.65625,-13401.5087890625,-3446.738037109375,5127.5888671875,30.19968605041504,-9324.55078125,-828.9019165039062,-27.815500259399414,2776.78173828125,12910.3662109375,2124.3095703125,6095.568359375,-1088.7781982421875,11849.4033203125,-3630.3203125,-6422.99658203125,-4254.18212890625,-4175.50439453125,-7952.05419921875,-3289.3818359375,3368.059814453125,1935.1640625,-367.9593505859375,-1239.776611328125,-2479.55322265625,3638.267578125,-4100.0048828125,15343.0302734375,-5349.31787109375,-0.0,-8009.2744140625,5009.96923828125,-5954.9013671875,-4506.111328125,-736.71337890625,5520.9794921875,-7243.15625,886.9171142578125,-5731.58251953125,-3515.08447265625,-2012.2528076171875,6616.91064453125,3163.814453125,-21292.3671875,-8966.9228515625,-1116.59375,1254.081787109375,-9860.1982421875,-1579.92041015625,-3850.4599609375,-15849.271484375,496.7053527832031,-1228.650390625,1761.913330078125,-10876.6552734375,-3290.970947265625,0.0,-1614.8885498046875,0.0,-3508.726806640625,-0.0,2314.249755859375
-14158.884765625,-16601.0859375,-5261.10302734375,-1388.390869140625,-1223.0872802734375,8694.3310546875,-5262.69287109375,-2546.310546875,-1254.081787109375,5973.18017578125,-7747.80908203125,-13408.6611328125,-3430.84326171875,5108.51513671875,35.762786865234375,-9322.166015625,-825.7230224609375,-29.404958724975586,2777.576416015625,12919.1083984375,2127.48828125,6095.568359375,-1086.3939208984375,11851.787109375,-3614.42578125,-6424.5859375,-4245.43994140625,-4174.70947265625,-7952.05419921875,-3293.355224609375,3368.8544921875,1931.9852294921875,-365.5751647949219,-1240.5714111328125,-2477.1689453125,3637.472900390625,-4096.826171875,15347.00390625,-5348.5234375,-0.0,-8000.533203125,5008.37939453125,-5950.1328125,-4506.111328125,-734.3292236328125,5528.9267578125,-7231.2353515625,883.7382202148438,-5720.45654296875,-3518.263671875,-2009.86865234375,6620.8837890625,2586.841552734375,-21296.34375,-8966.9228515625,-1118.18310546875,1257.2606201171875,-9861.787109375,-1585.4835205078125,-3847.28125,-15850.8623046875,495.91064453125,-1224.6767578125,1737.2767333984375,-10883.80859375,-3297.328857421875,0.0,-1625.219970703125,0.0,-3513.4951171875,-0.0,2288.818359375
-14154.1162109375,-16551.017578125,-5256.3349609375,-1383.62255859375,-1217.524169921875,8697.509765625,-5260.30859375,-2542.336669921875,-1257.2606201171875,5967.6171875,-7759.72998046875,-13402.302734375,-3400.6435546875,5104.5419921875,46.09425735473633,-9320.5771484375,-821.7493896484375,-26.226043701171875,2778.37109375,12921.4921875,2132.2568359375,6100.33642578125,-1081.6256103515625,11852.58203125,-3600.915283203125,-6420.6123046875,-4238.28759765625,-4169.94091796875,-7946.4912109375,-3292.560546875,3372.828125,1938.343017578125,-359.2173156738281,-1235.802978515625,-2473.1953125,3641.4462890625,-4093.64697265625,15349.3876953125,-5335.8076171875,-0.0,-7992.5849609375,5013.14794921875,-5946.1591796875,-4503.72705078125,-732.73974609375,5529.7216796875,-7228.8515625,888.506591796875,-5719.66162109375,-3515.08447265625,-2000.3319091796875,6622.47314453125,3194.014404296875,-21282.83203125,-8960.564453125,-1113.414794921875,1281.1025390625,-9845.09765625,-1589.4571533203125,-3864.76513671875,-15831.7890625,497.5001220703125,-1222.2926025390625,1727.739990234375,-10883.80859375,-3289.3818359375,0.0,-1645.088134765625,0.0,-3542.900146484375,-0.0,2276.102783203125
-14141.400390625,-16535.123046875,-5255.54052734375,-1377.2646484375,-1219.9083251953125,8699.8935546875,-5264.2822265625,-2547.10498046875,-1266.79736328125,5924.70166015625,-7782.77734375,-13391.9716796875,-3389.517578125,5107.720703125,46.88898849487305,-9318.1923828125,-817.7757568359375,-23.047128677368164,2775.1923828125,12890.498046875,2134.640869140625,6102.720703125,-1083.215087890625,11854.171875,-3597.736328125,-6415.04931640625,-4246.23486328125,-4165.17236328125,-7936.95458984375,-3286.99755859375,3376.007080078125,1947.0850830078125,-356.0384216308594,-1232.6240234375,-2472.400634765625,3644.62548828125,-4096.03125,15344.6201171875,-5324.681640625,-0.0,-7990.201171875,5018.7109375,-5952.51708984375,-4499.75341796875,-739.892333984375,5513.82666015625,-7232.0302734375,894.8643798828125,-5732.37744140625,-3507.931884765625,-2000.3319091796875,6620.8837890625,5047.3212890625,-21274.884765625,-8952.6171875,-1112.6199951171875,1292.228759765625,-9835.560546875,-1592.6361083984375,-3890.9912109375,-15825.4296875,496.7053527832031,-1234.2135009765625,1730.9189453125,-10882.21875,-3281.434326171875,0.0,-1643.498779296875,0.0,-3549.258056640625,-0.0,2264.9765625
-14175.57421875,-16550.22265625,-5242.82470703125,-1372.4962158203125,-1213.550537109375,8707.8408203125,-5261.89794921875,-2545.515869140625,-1268.3868408203125,5892.91259765625,-7793.9033203125,-13387.203125,-3425.2802734375,5125.20458984375,38.14697265625,-9290.3779296875,-813.00732421875,-18.278757095336914,2776.78173828125,12871.4248046875,2143.383056640625,6108.2841796875,-1080.0361328125,11858.9404296875,-3591.37841796875,-6408.69140625,-4247.82421875,-4154.04638671875,-7939.3388671875,-3282.229248046875,3381.570068359375,1948.674560546875,-347.29638671875,-1226.2662353515625,-2466.042724609375,3651.778076171875,-4096.03125,15345.4140625,-5326.27099609375,-0.0,-7980.6640625,5025.86376953125,-5948.54345703125,-4491.80615234375,-743.865966796875,5502.70068359375,-7215.34130859375,897.2485961914062,-5719.66162109375,-3496.805908203125,-2008.279052734375,6628.03662109375,7071.4951171875,-21278.857421875,-8952.6171875,-1109.441162109375,1270.77099609375,-9814.8984375,-1588.6624755859375,-3904.501708984375,-15823.0458984375,501.4737243652344,-1238.9818115234375,1742.83984375,-10869.5029296875,-3277.460693359375,0.0,-1631.577880859375,0.0,-3542.900146484375,-0.0,2274.51318359375
-14181.931640625,-16564.52734375,-5235.671875,-1369.3173828125,-1211.1663818359375,8711.0205078125,-5261.10302734375,-2548.694580078125,-1269.181640625,5868.27587890625,-7760.52490234375,-13387.998046875,-3434.817138671875,5145.86767578125,46.09425735473633,-9296.734375,-809.03369140625,-15.894571304321289,2775.98681640625,12856.32421875,2147.356689453125,6113.05224609375,-1077.6519775390625,11858.9404296875,-3595.35205078125,-6407.10205078125,-4244.6455078125,-4157.22509765625,-7936.95458984375,-3286.20263671875,3386.33837890625,1951.0587158203125,-343.32275390625,-1221.4979248046875,-2463.65869140625,3653.3671875,-4095.236328125,15344.6201171875,-5297.66064453125,-0.0,-7979.0751953125,5028.248046875,-5945.3642578125,-4492.60107421875,-742.2764892578125,5496.34326171875,-7205.00927734375,900.427490234375,-5711.71435546875,-3496.805908203125,-2000.3319091796875,6625.65234375,7956.02783203125,-21284.421875,-8949.439453125,-1103.083251953125,1270.77099609375,-9813.30859375,-1585.4835205078125,-3901.322509765625,-15813.5087890625,504.6526794433594,-1242.1607666015625,1772.2447509765625,-10861.5556640625,-3277.460693359375,0.0,-1602.1728515625,0.0,-3534.157958984375,-0.0,2303.918212890625
-14139.8115234375,-16574.064453125,-5226.93017578125,-1366.138427734375,-1207.9874267578125,8709.4306640625,-5260.30859375,-2554.257568359375,-1273.1552734375,5867.4814453125,-7723.1728515625,-13384.0244140625,-3418.92236328125,5142.68896484375,49.27317428588867,-9334.8818359375,-804.2653198242188,-12.715657234191895,2776.78173828125,12849.171875,2149.740966796875,6117.82080078125,-1076.857177734375,11858.1455078125,-3590.583740234375,-6399.15478515625,-4240.671875,-4169.14599609375,-7929.8017578125,-3283.02392578125,3389.517578125,1959.006103515625,-338.55438232421875,-1218.3189697265625,-2458.89013671875,3654.956787109375,-4094.44189453125,15344.6201171875,-5317.529296875,-0.0,-7975.89599609375,5031.4267578125,-5942.98046875,-4498.95849609375,-743.0712280273438,5497.1376953125,-7177.98876953125,906.7853393554688,-5710.125,-3499.190185546875,-1997.94775390625,6612.9365234375,7892.44921875,-21290.779296875,-8943.875,-1099.109619140625,1281.1025390625,-9829.203125,-1590.251953125,-3887.017578125,-15813.5087890625,507.036865234375,-1244.544921875,1754.7607421875,-10853.6083984375,-3273.487060546875,0.0,-1584.6888427734375,0.0,-3518.263671875,-0.0,2294.38134765625
-14101.6640625,-16576.44921875,-5205.47265625,-1353.4227294921875,-1192.8876953125,8722.94140625,-5246.00341796875,-2537.568359375,-1258.0552978515625,5910.396484375,-7713.6357421875,-13367.3349609375,-3414.94873046875,5145.07275390625,55.63100051879883,-9324.55078125,-789.960205078125,-0.7947285771369934,2791.881591796875,12879.3720703125,2163.251220703125,6132.1259765625,-1062.5521240234375,11874.8349609375,-3567.53662109375,-6386.43896484375,-4227.9560546875,-4152.45654296875,-7916.291015625,-3267.129150390625,3402.233154296875,1977.28466796875,-321.8650817871094,-1204.0137939453125,-2445.3798828125,3668.46728515625,-4080.93115234375,15361.30859375,-5311.9658203125,-0.0,-7958.412109375,5044.93701171875,-5930.26513671875,-4486.24267578125,-729.5608520507812,5517.80078125,-7154.94140625,920.2957153320312,-5696.61474609375,-3500.779296875,-1992.3846435546875,6625.65234375,7635.75244140625,-21274.884765625,-8930.365234375,-1087.188720703125,1282.69189453125,-9820.4609375,-1580.7152099609375,-3859.996826171875,-15802.3837890625,522.931396484375,-1227.0609130859375,1765.886962890625,-10842.482421875,-3252.029296875,0.0,-1575.152099609375,0.0,-3489.6533203125,-0.0,2312.66015625
-14109.611328125,-16565.322265625,-5221.36669921875,-1358.98583984375,-1201.629638671875,8721.3515625,-5246.7978515625,-2538.36328125,-1258.0552978515625,5919.93310546875,-7741.451171875,-13372.8984375,-3423.69091796875,5137.92041015625,56.42573165893555,-9315.013671875,-797.9075317382812,-4.76837158203125,2791.0869140625,12884.1396484375,2155.303955078125,6124.17822265625,-1064.936279296875,11871.6552734375,-3573.099853515625,-6394.38623046875,-4229.54541015625,-4154.8408203125,-7921.0595703125,-3271.10302734375,3395.875244140625,1966.1585693359375,-332.1965637207031,-1210.37158203125,-2453.3271484375,3662.109375,-4081.72607421875,15357.3349609375,-5315.939453125,-0.0,-7966.359375,5040.1689453125,-5933.443359375,-4486.24267578125,-729.5608520507812,5518.59521484375,-7191.4990234375,913.9378662109375,-5700.58837890625,-3483.29541015625,-1989.20556640625,6625.65234375,6761.55078125,-21271.705078125,-8935.9287109375,-1098.31494140625,1276.3341064453125,-9812.5146484375,-1580.7152099609375,-3863.970458984375,-15811.919921875,521.3419799804688,-1227.0609130859375,1773.0394287109375,-10834.5341796875,-3260.771484375,0.0,-1579.92041015625,0.0,-3488.8583984375,-0.0,2319.812744140625
-14127.095703125,-16559.759765625,-5236.466796875,-1371.7015380859375,-1212.755859375,8707.8408203125,-5258.71875,-2551.87353515625,-1272.3604736328125,5893.70703125,-7766.88232421875,-13385.61328125,-3420.511962890625,5118.8466796875,46.09425735473633,-9330.11328125,-812.212646484375,-18.278757095336914,2777.576416015625,12864.2724609375,2144.177734375,6110.66796875,-1079.241455078125,11858.1455078125,-3573.89453125,-6404.7177734375,-4241.46630859375,-4169.14599609375,-7936.95458984375,-3282.229248046875,3381.570068359375,1950.263916015625,-347.29638671875,-1226.2662353515625,-2467.63232421875,3648.598876953125,-4095.236328125,15343.8251953125,-5326.27099609375,-0.0,-7977.48583984375,5026.65869140625,-5945.3642578125,-4500.5478515625,-742.2764892578125,5501.111328125,-7204.21435546875,901.2222290039062,-5714.8935546875,-3500.779296875,-1997.153076171875,6612.9365234375,5299.25,-21286.01171875,-8951.0283203125,-1106.26220703125,1281.897216796875,-9841.9189453125,-1595.020263671875,-3893.37548828125,-15840.5302734375,507.8315734863281,-1241.3660888671875,1748.4029541015625,-10848.044921875,-3275.871337890625,0.0,-1610.1201171875,0.0,-3523.82666015625,-0.0,2291.20263671875
-14157.294921875,-16570.091796875,-5231.69873046875,-1374.0858154296875,-1211.1663818359375,8711.0205078125,-5261.89794921875,-2558.2314453125,-1283.4866943359375,5888.14404296875,-7753.3720703125,-13390.3818359375,-3418.92236328125,5108.51513671875,36.55751419067383,-9330.11328125,-813.00732421875,-18.278757095336914,2774.397705078125,12854.7353515625,2141.79345703125,6111.462890625,-1080.0361328125,11856.5556640625,-3573.099853515625,-6391.20703125,-4246.23486328125,-4169.94091796875,-7940.92822265625,-3283.02392578125,3382.364990234375,1948.674560546875,-347.29638671875,-1227.0609130859375,-2468.427001953125,3648.598876953125,-4099.21044921875,15340.6455078125,-5323.091796875,-0.0,-7975.1015625,5030.6318359375,-5947.74853515625,-4501.3427734375,-746.2501220703125,5494.75341796875,-7214.54638671875,898.0433349609375,-5714.0986328125,-3511.90576171875,-2009.86865234375,6607.37353515625,4571.27880859375,-21288.39453125,-8955.7958984375,-1104.6727294921875,1277.1287841796875,-9845.892578125,-1593.430908203125,-3901.322509765625,-15840.5302734375,506.2420959472656,-1246.92919921875,1732.50830078125,-10862.3505859375,-3279.050048828125,0.0,-1626.0146484375,0.0,-3547.66845703125,-0.0,2268.1552734375
-14158.884765625,-16582.01171875,-5249.18212890625,-1379.6488037109375,-1217.524169921875,8709.4306640625,-5262.69287109375,-2553.462890625,-1281.897216796875,5892.91259765625,-7739.06689453125,-13385.61328125,-3422.101318359375,5106.130859375,32.5838737487793,-9316.603515625,-813.8020629882812,-18.278757095336914,2777.576416015625,12855.529296875,2137.025146484375,6111.462890625,-1081.6256103515625,11856.5556640625,-3596.146728515625,-6399.15478515625,-4244.6455078125,-4165.96728515625,-7943.3125,-3278.25537109375,3379.980712890625,1948.674560546875,-352.06475830078125,-1227.0609130859375,-2471.60595703125,3650.983154296875,-4098.41552734375,15343.0302734375,-5318.32373046875,-0.0,-7990.201171875,5028.248046875,-5950.1328125,-4499.75341796875,-744.6607055664062,5498.7275390625,-7237.59326171875,892.480224609375,-5718.86669921875,-3529.3896484375,-2013.0474853515625,6614.5263671875,4729.4296875,-21282.037109375,-8958.9755859375,-1103.8780517578125,1262.82373046875,-9835.560546875,-1585.4835205078125,-3890.9912109375,-15822.251953125,508.62628173828125,-1244.544921875,1732.50830078125,-10869.5029296875,-3273.487060546875,0.0,-1621.246337890625,0.0,-3543.69482421875,-0.0,2271.33447265625
-14164.4482421875,-16599.49609375,-5261.89794921875,-1389.9803466796875,-1229.445068359375,8695.919921875,-5273.81884765625,-2565.3837890625,-1286.66552734375,5890.5283203125,-7756.55126953125,-13394.35546875,-3429.25390625,5104.5419921875,20.66294288635254,-9345.2138671875,-822.5440673828125,-27.815500259399414,2768.83447265625,12851.5556640625,2128.283203125,6103.515625,-1093.5465087890625,11846.224609375,-3606.478515625,-6411.87060546875,-4262.92431640625,-4182.65673828125,-7953.6435546875,-3294.94482421875,3368.059814453125,1937.54833984375,-362.396240234375,-1235.802978515625,-2480.347900390625,3641.4462890625,-4107.1572265625,15335.0830078125,-5322.29736328125,-0.0,-8002.91748046875,5020.30029296875,-5961.25927734375,-4512.46875,-754.9921875,5493.1640625,-7235.208984375,878.9698486328125,-5731.58251953125,-3531.77392578125,-2025.7633056640625,6598.63134765625,4221.59814453125,-21294.751953125,-8967.716796875,-1122.15673828125,1251.697509765625,-9860.1982421875,-1606.146484375,-3888.60693359375,-15833.3779296875,497.5001220703125,-1253.2869873046875,1727.739990234375,-10882.21875,-3287.792236328125,0.0,-1607.7359619140625,0.0,-3533.36328125,-0.0,2272.923828125
-14168.421875,-16605.853515625,-5270.64013671875,-1379.6488037109375,-1238.1871337890625,8695.1259765625,-5284.150390625,-2572.536376953125,-1290.6392822265625,5884.17041015625,-7807.41357421875,-13406.2763671875,-3422.101318359375,5101.36279296875,12.715657234191895,-9349.1865234375,-832.080810546875,-34.96805953979492,2762.4765625,12847.5830078125,2120.3359375,6097.15771484375,-1101.493896484375,11840.6611328125,-3596.146728515625,-6406.30712890625,-4278.0244140625,-4189.0146484375,-7958.412109375,-3315.607666015625,3360.112548828125,1928.0115966796875,-370.3435363769531,-1242.95556640625,-2489.08984375,3631.90966796875,-4116.69384765625,15328.724609375,-5331.83447265625,-0.0,-8005.30126953125,5019.505859375,-5972.38525390625,-4518.8271484375,-763.7341918945312,5486.01171875,-7240.7724609375,891.6854858398438,-5753.04052734375,-3519.05810546875,-2033.71044921875,6591.47900390625,2161.661865234375,-21323.36328125,-8972.4853515625,-1147.588134765625,1253.2869873046875,-9886.423828125,-1618.8621826171875,-3902.912109375,-15850.0673828125,489.55279541015625,-1258.0552978515625,1720.58740234375,-10894.9345703125,-3288.5869140625,0.0,-1627.6041259765625,0.0,-3555.61572265625,-0.0,2257.823974609375
-14143.7841796875,-16585.984375,-5267.46142578125,-1353.4227294921875,-1234.2135009765625,8708.63671875,-5271.4345703125,-2555.052490234375,-1273.949951171875,5905.62841796875,-7814.56640625,-13400.7138671875,-3419.717041015625,5125.99951171875,18.278757095336914,-9318.98828125,-825.7230224609375,-26.226043701171875,2775.1923828125,12870.62890625,2128.283203125,6108.2841796875,-1091.162353515625,11853.376953125,-3608.06787109375,-6401.5390625,-4262.92431640625,-4169.94091796875,-7948.0810546875,-3314.018310546875,3369.649169921875,1933.57470703125,-363.9856872558594,-1233.4188232421875,-2481.142822265625,3643.83056640625,-4104.77294921875,15342.2353515625,-5360.4443359375,-0.0,-8002.91748046875,5033.01611328125,-5962.8486328125,-4503.72705078125,-749.4290771484375,5503.49560546875,-7251.10400390625,919.5009765625,-5745.8876953125,-3503.95849609375,-2027.3525390625,6612.9365234375,-288.4864807128906,-21332.10546875,-8962.154296875,-1142.0250244140625,1258.85009765625,-9868.939453125,-1603.7623291015625,-3889.401611328125,-15846.09375,502.26849365234375,-1242.1607666015625,1742.83984375,-10871.0927734375,-3276.666015625,0.0,-1622.0411376953125,0.0,-3544.489501953125,-0.0,2279.28173828125
-14189.083984375,-16597.11328125,-5260.30859375,-1355.0123291015625,-1228.650390625,8711.814453125,-5264.2822265625,-2552.668212890625,-1266.79736328125,5912.78076171875,-7769.2666015625,-13399.9189453125,-3438.79052734375,5133.15185546875,23.047128677368164,-9332.498046875,-820.9546508789062,-20.66294288635254,2779.960693359375,12880.166015625,2130.66748046875,6113.05224609375,-1084.009765625,11858.1455078125,-3617.6044921875,-6396.7705078125,-4254.9765625,-4169.14599609375,-7945.69677734375,-3312.4287109375,3375.21240234375,1939.9324951171875,-361.60150146484375,-1227.0609130859375,-2475.57958984375,3646.21484375,-4100.0048828125,15346.2099609375,-5354.08642578125,-0.0,-8000.533203125,5035.400390625,-5954.9013671875,-4502.1376953125,-742.2764892578125,5508.26416015625,-7245.54052734375,917.1168212890625,-5726.01953125,-3503.95849609375,-2023.3790283203125,6611.34716796875,-1931.1904296875,-21332.8984375,-8960.564453125,-1123.7462158203125,1250.108154296875,-9868.939453125,-1595.8150634765625,-3879.0703125,-15839.7353515625,506.2420959472656,-1235.00830078125,1749.1976318359375,-10874.271484375,-3286.99755859375,0.0,-1617.272705078125,0.0,-3538.92626953125,-0.0,2282.46044921875
-14206.568359375,-16616.98046875,-5252.361328125,-1366.138427734375,-1225.471435546875,8714.9931640625,-5261.89794921875,-2551.078857421875,-1263.618408203125,5918.34423828125,-7727.14599609375,-13396.740234375,-3437.201171875,5136.3310546875,27.02077293395996,-9340.4453125,-814.5968017578125,-19.073486328125,2782.3447265625,12885.7294921875,2131.462158203125,6113.84716796875,-1084.009765625,11859.734375,-3616.809814453125,-6386.43896484375,-4251.79833984375,-4174.70947265625,-7943.3125,-3297.328857421875,3376.8017578125,1949.46923828125,-356.8331298828125,-1223.882080078125,-2473.990234375,3647.009521484375,-4097.62060546875,15348.59375,-5318.32373046875,-0.0,-7998.943359375,5038.57958984375,-5951.72265625,-4502.1376953125,-737.5081176757812,5511.44287109375,-7219.314453125,905.1958618164062,-5722.0458984375,-3507.13720703125,-2020.2000732421875,6611.34716796875,-2411.20654296875,-21321.7734375,-8956.591796875,-1124.5408935546875,1252.4923095703125,-9862.58203125,-1590.251953125,-3875.0966796875,-15830.994140625,508.62628173828125,-1231.03466796875,1752.3765869140625,-10873.4765625,-3286.20263671875,0.0,-1609.325439453125,0.0,-3530.979248046875,-0.0,2287.228759765625
-14165.2421875,-16605.05859375,-5251.56640625,-1360.5753173828125,-1226.2662353515625,8712.609375,-5259.513671875,-2543.131591796875,-1256.4659423828125,5923.1123046875,-7708.86767578125,-13387.998046875,-3433.2275390625,5143.4833984375,28.6102294921875,-9322.9609375,-814.5968017578125,-19.073486328125,2786.318603515625,12892.8828125,2133.051513671875,6113.84716796875,-1083.215087890625,11862.119140625,-3618.3994140625,-6397.5654296875,-4251.79833984375,-4169.94091796875,-7940.92822265625,-3280.6396484375,3378.391357421875,1947.8797607421875,-352.8594970703125,-1222.2926025390625,-2473.1953125,3648.598876953125,-4092.85205078125,15354.15625,-5326.27099609375,-0.0,-7999.73779296875,5034.60546875,-5950.1328125,-4498.95849609375,-734.3292236328125,5518.59521484375,-7204.21435546875,909.9642333984375,-5726.01953125,-3512.700439453125,-2017.021240234375,6620.8837890625,-2876.91748046875,-21323.36328125,-8955.001953125,-1126.9251708984375,1256.4659423828125,-9857.0185546875,-1585.4835205078125,-3870.328125,-15838.94140625,512.5999755859375,-1225.471435546875,1766.681640625,-10855.9921875,-3272.6923828125,0.0,-1597.404541015625,0.0,-3519.05810546875,-0.0,2302.328857421875
-14128.6845703125,-16569.294921875,-5244.4140625,-1356.6016845703125,-1221.4979248046875,8715.7890625,-5254.74560546875,-2535.18408203125,-1251.697509765625,5930.26513671875,-7736.68310546875,-13378.4609375,-3426.86962890625,5148.251953125,31.789142608642578,-9306.271484375,-811.4179077148438,-13.51038646697998,2791.881591796875,12900.8291015625,2139.409423828125,6117.82080078125,-1076.857177734375,11867.6826171875,-3608.862548828125,-6411.87060546875,-4247.02978515625,-4158.02001953125,-7944.10693359375,-3274.28173828125,3382.364990234375,1950.263916015625,-350.4753112792969,-1221.4979248046875,-2466.042724609375,3653.3671875,-4088.083740234375,15359.7197265625,-5331.83447265625,-0.0,-7992.5849609375,5030.6318359375,-5945.3642578125,-4490.216796875,-729.5608520507812,5527.33740234375,-7192.29345703125,913.9378662109375,-5724.43017578125,-3503.16357421875,-2012.2528076171875,6632.009765625,-3784.49755859375,-21305.083984375,-8958.9755859375,-1101.493896484375,1260.4395751953125,-9860.9921875,-1581.5098876953125,-3860.79150390625,-15825.4296875,517.3682861328125,-1221.4979248046875,1772.2447509765625,-10861.5556640625,-3266.33447265625,0.0,-1593.430908203125,0.0,-3508.726806640625,-0.0,2312.66015625
-14126.30078125,-16528.765625,-5226.93017578125,-1355.8070068359375,-1212.755859375,8723.7353515625,-5247.5927734375,-2528.826416015625,-1247.723876953125,5940.59619140625,-7754.1669921875,-13370.513671875,-3417.3330078125,5152.2255859375,42.91534423828125,-9300.708984375,-801.8811645507812,-2.384185791015625,2799.0341796875,12906.392578125,2152.125,6125.76806640625,-1066.5257568359375,11877.21875,-3594.5576171875,-6400.744140625,-4238.28759765625,-4148.4833984375,-7938.54443359375,-3266.33447265625,3390.312255859375,1959.80078125,-340.9385681152344,-1215.1400146484375,-2458.095458984375,3662.109375,-4081.72607421875,15366.8720703125,-5324.681640625,-0.0,-7979.86962890625,5037.78466796875,-5938.2119140625,-4480.68017578125,-723.9977416992188,5532.900390625,-7198.65185546875,916.3220825195312,-5715.68798828125,-3495.21630859375,-2001.1265869140625,6637.5732421875,-3820.26025390625,-21258.990234375,-8951.0283203125,-1092.7518310546875,1273.1552734375,-9851.4560546875,-1577.5362548828125,-3859.996826171875,-15816.6884765625,525.3156127929688,-1216.7294921875,1775.4237060546875,-10856.7880859375,-3261.566162109375,0.0,-1595.020263671875,0.0,-3503.16357421875,-0.0,2315.839111328125
-14109.611328125,-16545.453125,-5234.08251953125,-1366.138427734375,-1211.961181640625,8727.7099609375,-5246.00341796875,-2527.23681640625,-1250.108154296875,5939.8017578125,-7735.88818359375,-13370.513671875,-3405.411865234375,5145.86767578125,54.836273193359375,-9303.8876953125,-802.6759033203125,-0.7947285771369934,2799.828857421875,12903.2138671875,2150.53564453125,6127.357421875,-1064.936279296875,11877.21875,-3598.531005859375,-6398.35986328125,-4235.10888671875,-4145.30419921875,-7932.18603515625,-3267.924072265625,3390.312255859375,1962.9796142578125,-340.1438293457031,-1214.3453369140625,-2455.71142578125,3663.698974609375,-4080.13671875,15366.0771484375,-5323.091796875,-0.0,-7983.04833984375,5040.1689453125,-5936.62255859375,-4477.5009765625,-723.2030029296875,5532.900390625,-7228.8515625,905.1958618164062,-5717.27734375,-3485.6796875,-1990.00048828125,6638.3681640625,-3053.347412109375,-21251.04296875,-8945.46484375,-1095.135986328125,1285.870849609375,-9841.125,-1574.357421875,-3859.2021484375,-15816.6884765625,526.1103515625,-1218.3189697265625,1769.06591796875,-10846.4560546875,-3262.36083984375,0.0,-1600.5833740234375,0.0,-3511.111083984375,-0.0,2305.507568359375
-14100.869140625,-16549.4296875,-5253.95068359375,-1378.8541259765625,-1214.3453369140625,8727.7099609375,-5246.7978515625,-2532.800048828125,-1251.697509765625,5932.64892578125,-7727.14599609375,-13369.7197265625,-3414.154052734375,5139.509765625,56.42573165893555,-9311.0400390625,-807.4442749023438,-3.9736428260803223,2797.444580078125,12896.85546875,2143.383056640625,6123.3837890625,-1068.115234375,11875.6298828125,-3601.7099609375,-6395.9755859375,-4234.31396484375,-4150.86767578125,-7932.98046875,-3267.924072265625,3386.33837890625,1960.5953369140625,-348.8858642578125,-1217.524169921875,-2458.89013671875,3661.314697265625,-4082.52099609375,15364.4873046875,-5315.14501953125,-0.0,-7990.201171875,5040.9638671875,-5936.62255859375,-4481.474609375,-723.2030029296875,5526.54248046875,-7232.82470703125,890.8907470703125,-5714.8935546875,-3480.11669921875,-1987.6163330078125,6631.21533203125,-2291.20263671875,-21258.1953125,-8944.6708984375,-1088.7781982421875,1283.4866943359375,-9839.53515625,-1567.204833984375,-3863.175537109375,-15819.8681640625,522.931396484375,-1219.9083251953125,1762.7080078125,-10852.8134765625,-3265.539794921875,0.0,-1601.3780517578125,0.0,-3523.031982421875,-0.0,2291.997314453125
-14115.173828125,-16542.27734375,-5250.77197265625,-1374.8804931640625,-1211.961181640625,8732.478515625,-5247.5927734375,-2535.18408203125,-1253.2869873046875,5929.47021484375,-7732.70947265625,-13367.3349609375,-3420.511962890625,5133.94677734375,53.2468147277832,-9311.8349609375,-809.03369140625,-5.563100337982178,2799.0341796875,12892.8828125,2144.97265625,6124.97314453125,-1068.9100341796875,11877.21875,-3596.146728515625,-6385.64453125,-4233.51904296875,-4141.33056640625,-7930.59619140625,-3261.566162109375,3387.13330078125,1954.2376708984375,-347.29638671875,-1217.524169921875,-2460.479736328125,3665.288330078125,-4080.93115234375,15363.693359375,-5329.4501953125,-0.0,-7987.81689453125,5044.14208984375,-5936.62255859375,-4477.5009765625,-723.9977416992188,5523.36376953125,-7221.69873046875,894.8643798828125,-5712.50927734375,-3477.732421875,-1990.795166015625,6630.4208984375,-2338.091552734375,-21258.1953125,-8943.875,-1075.267822265625,1277.1287841796875,-9857.0185546875,-1558.4627685546875,-3868.73876953125,-15822.251953125,522.13671875,-1221.4979248046875,1760.3238525390625,-10857.58203125,-3264.7451171875,0.0,-1616.47802734375,0.0,-3528.594970703125,-0.0,2290.407958984375
-14168.421875,-16575.654296875,-5253.95068359375,-1378.059326171875,-1219.1136474609375,8727.7099609375,-5253.15625,-2537.568359375,-1257.2606201171875,5930.26513671875,-7765.29296875,-13379.255859375,-3416.538330078125,5128.3837890625,45.299530029296875,-9315.013671875,-817.7757568359375,-14.30511474609375,2791.881591796875,12892.8828125,2137.025146484375,6120.205078125,-1076.0625,11873.2451171875,-3608.06787109375,-6394.38623046875,-4239.87744140625,-4143.71484375,-7934.5703125,-3271.8974609375,3379.18603515625,1940.727294921875,-354.4489440917969,-1224.6767578125,-2468.427001953125,3658.930419921875,-4086.494384765625,15359.7197265625,-5354.08642578125,-0.0,-7993.38037109375,5040.9638671875,-5946.1591796875,-4483.06396484375,-729.5608520507812,5520.9794921875,-7230.4404296875,892.480224609375,-5719.66162109375,-3480.11669921875,-1998.7423095703125,6628.03662109375,-2891.22265625,-21277.26953125,-8948.6435546875,-1080.8309326171875,1271.5657958984375,-9868.14453125,-1568.794189453125,-3866.354736328125,-15835.76171875,515.7788696289062,-1225.471435546875,1755.5555419921875,-10880.6298828125,-3274.28173828125,0.0,-1614.8885498046875,0.0,-3524.621337890625,-0.0,2293.586669921875
-14164.4482421875,-16605.853515625,-5259.513671875,-1378.8541259765625,-1227.855712890625,8700.6884765625,-5265.87158203125,-2547.89990234375,-1260.4395751953125,5929.47021484375,-7774.830078125,-13394.35546875,-3446.738037109375,5138.71533203125,23.84185791015625,-9316.603515625,-824.9282836914062,-23.047128677368164,2779.166015625,12892.0869140625,2127.48828125,6105.89990234375,-1087.188720703125,11857.3505859375,-3607.273193359375,-6430.94384765625,-4256.56640625,-4174.70947265625,-7945.69677734375,-3283.02392578125,3368.8544921875,1934.369384765625,-360.8067932128906,-1234.2135009765625,-2477.963623046875,3642.2412109375,-4099.21044921875,15346.2099609375,-5351.7021484375,-0.0,-7997.353515625,5018.7109375,-5958.080078125,-4505.31640625,-741.4818115234375,5515.41650390625,-7237.59326171875,894.8643798828125,-5729.9931640625,-3511.90576171875,-2020.994873046875,6614.5263671875,-3426.86962890625,-21297.13671875,-8959.7705078125,-1097.520263671875,1243.750244140625,-9857.0185546875,-1596.6097412109375,-3867.1494140625,-15842.9150390625,503.85791015625,-1235.00830078125,1759.529052734375,-10894.1396484375,-3279.844970703125,0.0,-1598.19921875,0.0,-3516.674072265625,-0.0,2298.35498046875
-14119.1484375,-16586.78125,-5263.4873046875,-1367.7279052734375,-1227.0609130859375,8705.45703125,-5261.10302734375,-2544.720947265625,-1257.2606201171875,5933.443359375,-7755.75634765625,-13391.1767578125,-3442.76416015625,5138.71533203125,32.5838737487793,-9318.98828125,-820.159912109375,-19.073486328125,2783.934326171875,12895.2666015625,2130.66748046875,6110.66796875,-1084.009765625,11859.734375,-3612.04150390625,-6420.6123046875,-4254.18212890625,-4170.73583984375,-7951.259765625,-3287.792236328125,3373.622802734375,1942.316650390625,-358.422607421875,-1230.2398681640625,-2475.57958984375,3647.80419921875,-4095.236328125,15350.1826171875,-5339.78125,-0.0,-8001.32763671875,5025.86376953125,-5954.9013671875,-4501.3427734375,-736.71337890625,5518.59521484375,-7239.18310546875,906.7853393554688,-5728.40380859375,-3507.931884765625,-2013.0474853515625,6619.29443359375,-3631.90966796875,-21296.34375,-8965.3330078125,-1104.6727294921875,1254.87646484375,-9861.787109375,-1587.86767578125,-3875.891357421875,-15835.76171875,507.036865234375,-1231.829345703125,1764.2974853515625,-10875.861328125,-3275.871337890625,0.0,-1593.430908203125,0.0,-3512.700439453125,-0.0,2303.12353515625
-14088.9482421875,-16574.064453125,-5266.66650390625,-1358.191162109375,-1229.445068359375,8718.1728515625,-5258.71875,-2538.36328125,-1258.85009765625,5929.47021484375,-7737.4775390625,-13372.8984375,-3437.995849609375,5134.7412109375,33.37860107421875,-9315.013671875,-812.212646484375,-14.30511474609375,2789.497314453125,12894.470703125,2133.051513671875,6118.61572265625,-1080.8309326171875,11867.6826171875,-3619.194091796875,-6400.744140625,-4257.36083984375,-4159.609375,-7957.61767578125,-3280.6396484375,3378.391357421875,1948.674560546875,-357.62786865234375,-1221.4979248046875,-2471.60595703125,3658.1357421875,-4093.64697265625,15354.951171875,-5344.5498046875,-0.0,-8002.91748046875,5038.57958984375,-5954.10693359375,-4491.80615234375,-735.1239624023438,5520.18505859375,-7243.15625,912.3484497070312,-5733.966796875,-3492.03759765625,-2013.0474853515625,6629.6259765625,-3554.821044921875,-21296.34375,-8970.896484375,-1095.9306640625,1262.82373046875,-9860.1982421875,-1586.2783203125,-3882.2490234375,-15828.609375,511.0104675292969,-1230.2398681640625,1761.1185302734375,-10863.14453125,-3274.28173828125,0.0,-1605.351806640625,0.0,-3521.4423828125,-0.0,2295.970947265625
-14101.6640625,-16601.0859375,-5266.66650390625,-1355.8070068359375,-1232.6240234375,8721.3515625,-5261.10302734375,-2541.5419921875,-1258.85009765625,5928.67529296875,-7723.96728515625,-13365.7451171875,-3446.738037109375,5136.3310546875,28.6102294921875,-9313.423828125,-812.212646484375,-15.09984302520752,2787.11328125,12894.470703125,2131.462158203125,6121.79443359375,-1081.6256103515625,11868.4765625,-3623.167724609375,-6395.9755859375,-4259.7451171875,-4160.404296875,-7956.02783203125,-3275.871337890625,3379.18603515625,1950.263916015625,-356.0384216308594,-1221.4979248046875,-2471.60595703125,3658.930419921875,-4094.44189453125,15351.7724609375,-5346.93408203125,-0.0,-8003.7119140625,5039.3740234375,-5954.9013671875,-4492.60107421875,-735.918701171875,5518.59521484375,-7247.9248046875,914.7326049804688,-5734.76171875,-3488.063720703125,-2016.2265625,6623.26806640625,-2587.63623046875,-21305.083984375,-8970.1015625,-1087.188720703125,1258.0552978515625,-9845.892578125,-1588.6624755859375,-3863.175537109375,-15827.0205078125,507.8315734863281,-1231.829345703125,1760.3238525390625,-10866.32421875,-3267.129150390625,0.0,-1602.1728515625,0.0,-3516.674072265625,-0.0,2296.765625
-14111.99609375,-16585.19140625,-5260.30859375,-1355.8070068359375,-1226.2662353515625,8721.3515625,-5256.3349609375,-2539.95263671875,-1256.4659423828125,5928.67529296875,-7720.78857421875,-13372.8984375,-3438.79052734375,5137.92041015625,34.96805953979492,-9312.6298828125,-809.8284301757812,-11.126200675964355,2790.2919921875,12896.85546875,2134.640869140625,6121.79443359375,-1078.44677734375,11870.861328125,-3612.04150390625,-6392.796875,-4250.20849609375,-4159.609375,-7945.69677734375,-3274.28173828125,3380.775390625,1951.0587158203125,-353.65423583984375,-1220.703125,-2469.221923828125,3660.519775390625,-4091.2626953125,15354.951171875,-5334.21826171875,-0.0,-7998.14892578125,5040.9638671875,-5950.927734375,-4489.421875,-731.945068359375,5521.7744140625,-7247.9248046875,917.9114990234375,-5725.22509765625,-3489.6533203125,-2007.484375,6621.6787109375,-573.7940673828125,-21292.3671875,-8960.564453125,-1088.7781982421875,1263.618408203125,-9826.0244140625,-1584.6888427734375,-3856.023193359375,-15828.609375,511.0104675292969,-1227.855712890625,1761.913330078125,-10855.9921875,-3267.129150390625,0.0,-1598.993896484375,0.0,-3515.87939453125,-0.0,2295.17626953125
-14118.353515625,-16557.375,-5257.1298828125,-1359.7806396484375,-1223.0872802734375,8720.5576171875,-5257.1298828125,-2541.5419921875,-1257.2606201171875,5926.291015625,-7735.09375,-13378.4609375,-3439.58544921875,5133.15185546875,38.94169998168945,-9314.2197265625,-811.4179077148438,-13.51038646697998,2787.907958984375,12894.470703125,2134.640869140625,6119.41015625,-1080.8309326171875,11867.6826171875,-3600.12060546875,-6397.5654296875,-4249.4140625,-4159.609375,-7944.10693359375,-3276.666015625,3379.18603515625,1948.674560546875,-354.4489440917969,-1224.6767578125,-2470.0166015625,3658.930419921875,-4091.2626953125,15354.15625,-5331.03955078125,-0.0,-7994.1748046875,5036.98974609375,-5950.927734375,-4491.80615234375,-734.3292236328125,5517.005859375,-7233.61962890625,913.9378662109375,-5722.8408203125,-3493.626953125,-2005.1002197265625,6620.8837890625,1547.3365478515625,-21282.83203125,-8959.7705078125,-1095.9306640625,1266.79736328125,-9819.6669921875,-1585.4835205078125,-3862.380859375,-15840.5302734375,507.8315734863281,-1229.445068359375,1758.734375,-10858.376953125,-3272.6923828125,0.0,-1598.993896484375,0.0,-3519.852783203125,-0.0,2291.997314453125
-14139.0166015625,-16562.142578125,-5253.15625,-1370.9068603515625,-1225.471435546875,8717.3779296875,-5260.30859375,-2540.747314453125,-1258.85009765625,5927.880859375,-7750.98779296875,-13384.8193359375,-3444.353759765625,5129.1787109375,33.37860107421875,-9306.271484375,-817.7757568359375,-18.278757095336914,2785.523681640625,12892.8828125,2132.2568359375,6113.84716796875,-1084.8045654296875,11865.2978515625,-3597.736328125,-6399.15478515625,-4251.79833984375,-4154.8408203125,-7946.4912109375,-3284.61328125,3375.21240234375,1942.316650390625,-358.422607421875,-1230.2398681640625,-2473.990234375,3657.341064453125,-4094.44189453125,15354.15625,-5337.39697265625,-0.0,-7996.55908203125,5035.400390625,-5954.10693359375,-4491.01123046875,-735.918701171875,5520.9794921875,-7211.3671875,902.0169677734375,-5727.609375,-3503.95849609375,-2010.663330078125,6624.857421875,2690.951171875,-21281.2421875,-8963.744140625,-1102.28857421875,1262.82373046875,-9819.6669921875,-1587.072998046875,-3867.1494140625,-15847.6826171875,503.85791015625,-1229.445068359375,1757.939697265625,-10867.119140625,-3274.28173828125,0.0,-1609.325439453125,0.0,-3527.80029296875,-0.0,2291.20263671875
-14163.6533203125,-16593.138671875,-5234.876953125,-1375.6751708984375,-1219.1136474609375,8721.3515625,-5257.92431640625,-2533.5947265625,-1257.2606201171875,5928.67529296875,-7770.8564453125,-13382.4345703125,-3421.306640625,5129.97314453125,34.96805953979492,-9298.32421875,-816.186279296875,-15.09984302520752,2787.11328125,12893.6767578125,2137.025146484375,6116.2314453125,-1082.42041015625,11870.06640625,-3577.8681640625,-6395.9755859375,-4251.79833984375,-4145.30419921875,-7944.10693359375,-3292.560546875,3378.391357421875,1939.1378173828125,-352.8594970703125,-1228.650390625,-2469.221923828125,3660.519775390625,-4091.2626953125,15356.541015625,-5338.98681640625,-0.0,-7983.84375,5039.3740234375,-5950.1328125,-4485.4482421875,-735.1239624023438,5526.54248046875,-7207.3935546875,892.480224609375,-5727.609375,-3504.753173828125,-2009.073974609375,6634.39404296875,3678.00390625,-21286.806640625,-8959.7705078125,-1104.6727294921875,1265.2078857421875,-9814.8984375,-1584.6888427734375,-3858.4072265625,-15847.6826171875,507.8315734863281,-1225.471435546875,1757.939697265625,-10871.88671875,-3271.8974609375,0.0,-1607.7359619140625,0.0,-3524.621337890625,-0.0,2290.407958984375
-14189.8798828125,-16609.826171875,-5247.5927734375,-1385.2119140625,-1224.6767578125,8714.9931640625,-5261.89794921875,-2548.694580078125,-1262.82373046875,5931.8544921875,-7790.72412109375,-13384.0244140625,-3394.285888671875,5128.3837890625,41.32588577270508,-9323.755859375,-820.159912109375,-20.66294288635254,2782.3447265625,12892.0869140625,2132.2568359375,6110.66796875,-1087.188720703125,11862.119140625,-3576.27880859375,-6401.5390625,-4257.36083984375,-4165.17236328125,-7948.87548828125,-3300.5078125,3372.033447265625,1936.753662109375,-360.0120544433594,-1233.4188232421875,-2474.784912109375,3653.3671875,-4095.236328125,15347.798828125,-5324.681640625,-0.0,-7987.81689453125,5032.22119140625,-5956.4912109375,-4496.57421875,-737.5081176757812,5513.0322265625,-7216.1357421875,884.532958984375,-5738.7353515625,-3502.368896484375,-2002.716064453125,6612.14208984375,4336.0390625,-21300.31640625,-8962.94921875,-1115.7989501953125,1273.1552734375,-9832.3818359375,-1581.5098876953125,-3867.944091796875,-15840.5302734375,501.4737243652344,-1231.03466796875,1757.939697265625,-10880.6298828125,-3277.460693359375,0.0,-1609.325439453125,0.0,-3516.674072265625,-0.0,2295.970947265625
-14276.5048828125,-16599.49609375,-5249.18212890625,-1385.2119140625,-1230.2398681640625,8714.19921875,-5259.513671875,-2546.310546875,-1260.4395751953125,5931.0595703125,-7783.57177734375,-13387.203125,-3422.101318359375,5128.3837890625,47.6837158203125,-9315.013671875,-823.3388061523438,-22.25240135192871,2785.523681640625,12892.8828125,2129.87255859375,6108.2841796875,-1085.5992431640625,11862.119140625,-3595.35205078125,-6401.5390625,-4253.3876953125,-4165.17236328125,-7949.669921875,-3298.91845703125,3370.444091796875,1938.343017578125,-360.8067932128906,-1235.00830078125,-2476.374267578125,3651.778076171875,-4093.64697265625,15348.59375,-5308.787109375,-0.0,-7996.55908203125,5030.6318359375,-5954.9013671875,-4496.57421875,-734.3292236328125,5516.2109375,-7209.77783203125,885.32763671875,-5740.32470703125,-3503.95849609375,-1997.94775390625,6616.91064453125,3888.60693359375,-21313.826171875,-8964.5390625,-1115.7989501953125,1271.5657958984375,-9828.408203125,-1579.92041015625,-3875.0966796875,-15841.326171875,500.67901611328125,-1231.03466796875,1756.3502197265625,-10890.166015625,-3275.871337890625,0.0,-1610.1201171875,0.0,-3516.674072265625,-0.0,2293.586669921875
-14250.2783203125,-16585.19140625,-5245.208984375,-1372.4962158203125,-1230.2398681640625,8716.5830078125,-5257.92431640625,-2538.36328125,-1257.2606201171875,5931.0595703125,-7740.65625,-13387.998046875,-3442.76416015625,5133.94677734375,42.91534423828125,-9299.9140625,-820.159912109375,-21.457672119140625,2787.907958984375,12895.2666015625,2129.87255859375,6111.462890625,-1081.6256103515625,11867.6826171875,-3622.372802734375,-6394.38623046875,-4247.82421875,-4154.04638671875,-7943.3125,-3293.355224609375,3374.41748046875,1941.52197265625,-356.8331298828125,-1234.2135009765625,-2474.784912109375,3653.3671875,-4090.468017578125,15355.74609375,-5319.11865234375,-0.0,-8002.1220703125,5034.60546875,-5952.51708984375,-4491.01123046875,-731.1503295898438,5520.18505859375,-7229.64599609375,902.0169677734375,-5732.37744140625,-3499.190185546875,-2002.716064453125,6628.83154296875,1919.26953125,-21314.62109375,-8958.1806640625,-1108.6463623046875,1266.002685546875,-9839.53515625,-1579.92041015625,-3878.275634765625,-15832.58203125,503.85791015625,-1226.2662353515625,1757.939697265625,-10876.6552734375,-3276.666015625,0.0,-1613.299072265625,0.0,-3525.416015625,-0.0,2293.586669921875
-14123.9169921875,-16586.78125,-5266.66650390625,-1371.7015380859375,-1237.3924560546875,8713.404296875,-5261.10302734375,-2541.5419921875,-1256.4659423828125,5927.880859375,-7745.4248046875,-13391.1767578125,-3426.074951171875,5137.12548828125,39.73643112182617,-9311.8349609375,-825.7230224609375,-30.994415283203125,2783.139404296875,12893.6767578125,2121.130615234375,6105.89990234375,-1087.9835205078125,11862.9140625,-3643.035888671875,-6401.5390625,-4256.56640625,-4158.81494140625,-7945.69677734375,-3291.765869140625,3366.47021484375,1938.343017578125,-365.5751647949219,-1238.9818115234375,-2482.732177734375,3647.009521484375,-4096.826171875,15351.7724609375,-5340.576171875,-0.0,-8018.0166015625,5027.453125,-5960.46435546875,-4494.98486328125,-734.3292236328125,5517.80078125,-7241.56689453125,903.6064453125,-5741.9140625,-3499.190185546875,-2006.6898193359375,6622.47314453125,220.93455505371094,-21305.083984375,-8958.9755859375,-1113.414794921875,1273.949951171875,-9849.8662109375,-1576.7415771484375,-3875.891357421875,-15840.5302734375,498.2948303222656,-1228.650390625,1754.7607421875,-10865.529296875,-3283.818603515625,0.0,-1621.246337890625,0.0,-3527.80029296875,-0.0,2290.407958984375
-14096.1005859375,-16581.216796875,-5274.61376953125,-1374.8804931640625,-1232.6240234375,8714.19921875,-5254.74560546875,-2539.95263671875,-1249.3133544921875,5937.41748046875,-7759.72998046875,-13391.9716796875,-3424.4853515625,5142.68896484375,55.63100051879883,-9315.013671875,-829.6966552734375,-29.404958724975586,2787.907958984375,12901.6240234375,2121.130615234375,6105.10498046875,-1084.009765625,11863.708984375,-3627.93603515625,-6403.9228515625,-4247.82421875,-4155.6357421875,-7952.05419921875,-3290.17626953125,3364.086181640625,1935.9588623046875,-371.13824462890625,-1238.9818115234375,-2481.142822265625,3649.393798828125,-4089.673583984375,15353.3623046875,-5357.265625,-0.0,-8013.24853515625,5028.248046875,-5953.31201171875,-4493.3955078125,-726.3819580078125,5522.5693359375,-7244.74560546875,898.0433349609375,-5738.7353515625,-3504.753173828125,-1990.00048828125,6624.06298828125,-495.1159362792969,-21289.984375,-8965.3330078125,-1120.5673828125,1285.870849609375,-9845.892578125,-1568.794189453125,-3864.76513671875,-15850.8623046875,501.4737243652344,-1223.882080078125,1763.502685546875,-10863.14453125,-3282.229248046875,0.0,-1611.7095947265625,0.0,-3514.289794921875,-0.0,2300.7392578125
-14108.021484375,-16570.88671875,-5275.408203125,-1378.059326171875,-1226.2662353515625,8713.404296875,-5254.74560546875,-2542.336669921875,-1254.081787109375,5939.8017578125,-7740.65625,-13387.998046875,-3456.274658203125,5140.3046875,50.067901611328125,-9326.140625,-828.9019165039062,-26.226043701171875,2787.11328125,12901.6240234375,2124.3095703125,6105.89990234375,-1083.215087890625,11862.119140625,-3615.22021484375,-6407.10205078125,-4248.619140625,-4161.19921875,-7954.43798828125,-3284.61328125,3364.880859375,1935.9588623046875,-368.7540588378906,-1238.1871337890625,-2478.758544921875,3645.420166015625,-4089.673583984375,15352.56640625,-5349.31787109375,-0.0,-8006.095703125,5024.2744140625,-5950.1328125,-4495.779296875,-730.3555908203125,5521.7744140625,-7251.8984375,893.2749633789062,-5722.0458984375,-3500.779296875,-1995.5634765625,6616.91064453125,-1467.8636474609375,-21280.447265625,-8966.1279296875,-1118.18310546875,1271.5657958984375,-9855.4296875,-1582.3045654296875,-3855.228515625,-15851.65625,502.26849365234375,-1226.2662353515625,1766.681640625,-10866.32421875,-3279.844970703125,0.0,-1599.7886962890625,0.0,-3504.753173828125,-0.0,2309.4814453125
