-15356.541015625,-17642.974609375,-5561.5107421875,-1304.149658203125,-1015.6631469726562,9539.126953125,-5306.40283203125,-2384.98046875,-1305.739013671875,5966.822265625,-8421.73828125,-12803.078125,-3619.98876953125,5288.9189453125,67.55193328857422,-9376.2080078125,-883.7382202148438,-157.35626220703125,2741.01904296875,13116.99609375,2210.14013671875,6637.5732421875,-1203.2191162109375,12013.1181640625,-3853.638916015625,-6319.681640625,-4355.9072265625,-4192.193359375,-8195.2412109375,-3013.61083984375,3587.405029296875,2149.740966796875,-376.70135498046875,-758.9658203125,-2603.53076171875,3786.881591796875,-4144.509765625,15456.6767578125,-5749.06689453125,-0.0,-7898.8076171875,5353.2919921875,-5989.07470703125,-4679.36181640625,-569.8204345703125,5568.6630859375,-7627.80517578125,921.8851928710938,-5995.4326171875,-3395.08056640625,-1934.369384765625,6666.978515625,3801.981689453125,-21001.498046875,-9089.310546875,-915.52734375,1298.5865478515625,-9920.5966796875,-1451.9691162109375,-3760.65576171875,-15958.150390625,696.9769897460938,-1133.282958984375,1761.1185302734375,-11065.005859375,-3081.95751953125,0.0,-1664.16162109375,0.0,-3569.126220703125,-0.0,2375.443603515625
-15399.4560546875,-17708.9375,-5591.71044921875,-1334.3492431640625,-1047.4522705078125,9510.517578125,-5325.47607421875,-2402.464599609375,-1313.6864013671875,5961.25927734375,-8460.6806640625,-12845.9931640625,-3663.698974609375,5277.79248046875,27.02077293395996,-9408.7919921875,-910.7589721679688,-179.60865783691406,2722.740234375,13109.0478515625,2185.503662109375,6611.34716796875,-1224.6767578125,11990.865234375,-3889.401611328125,-6353.85498046875,-4389.2861328125,-4219.2138671875,-8230.208984375,-3061.29443359375,3561.178955078125,2115.5673828125,-405.31158447265625,-785.986572265625,-2630.551513671875,3763.039794921875,-4163.58349609375,15437.6025390625,-5784.82958984375,-0.0,-7929.00732421875,5320.7080078125,-6017.68505859375,-4703.20361328125,-584.9202270507812,5555.15283203125,-7664.3623046875,894.0697021484375,-6034.3740234375,-3418.127685546875,-1971.7216796875,6643.93115234375,3580.25244140625,-21068.25390625,-9125.869140625,-950.4954223632812,1238.1871337890625,-9985.7646484375,-1435.27978515625,-3772.57666015625,-15997.88671875,676.3140258789062,-1144.4091796875,1743.634521484375,-11106.33203125,-3116.925537109375,0.0,-1684.0299072265625,0.0,-3577.8681640625,-0.0,2361.138671875
-15427.271484375,-17764.568359375,-5604.42578125,-1345.4755859375,-1062.5521240234375,9493.033203125,-5336.6025390625,-2414.385498046875,-1316.8653564453125,5963.6435546875,-8478.1650390625,-12865.06640625,-3685.156494140625,5271.4345703125,-2.384185791015625,-9426.2763671875,-923.474609375,-189.9401397705078,2713.998046875,13109.0478515625,2171.9931640625,6599.42626953125,-1235.802978515625,11976.5595703125,-3910.064697265625,-6371.33935546875,-4408.359375,-4255.771484375,-8251.6669921875,-3080.3681640625,3550.847412109375,2096.493896484375,-418.82196044921875,-797.9075317382812,-2640.88330078125,3751.118896484375,-4175.50439453125,15428.06640625,-5802.3134765625,-0.0,-7944.9013671875,5308.787109375,-6029.60595703125,-4724.6611328125,-595.251708984375,5552.7685546875,-7677.873046875,881.35400390625,-6054.24267578125,-3434.022216796875,-2000.3319091796875,6628.83154296875,3161.430419921875,-21089.712890625,-9146.53125,-952.8795776367188,1196.0665283203125,-9993.712890625,-1455.1480712890625,-3764.62939453125,-16021.728515625,666.7772827148438,-1149.177490234375,1742.0450439453125,-11123.81640625,-3131.230712890625,0.0,-1657.0091552734375,0.0,-3567.53662109375,-0.0,2361.138671875
-15434.4248046875,-17757.416015625,-5593.2998046875,-1338.322998046875,-1056.989013671875,9501.7744140625,-5334.21826171875,-2403.25927734375,-1310.5074462890625,5981.92236328125,-8461.4755859375,-12853.9404296875,-3674.0302734375,5300.83984375,-7.9472856521606445,-9404.0234375,-916.3220825195312,-183.58230590820312,2720.35595703125,13124.1484375,2181.530029296875,6608.16796875,-1231.03466796875,11987.6865234375,-3905.29638671875,-6365.77587890625,-4406.77001953125,-4236.6982421875,-8245.30859375,-3068.447021484375,3556.41064453125,2106.03076171875,-408.4905090332031,-791.5496826171875,-2632.935791015625,3757.476806640625,-4172.3251953125,15436.80859375,-5792.7763671875,-0.0,-7938.54443359375,5318.32373046875,-6024.83740234375,-4711.94580078125,-592.0728149414062,5561.5107421875,-7662.77294921875,889.30126953125,-6049.47412109375,-3422.101318359375,-2006.6898193359375,6643.93115234375,1793.7025146484375,-21079.3828125,-9141.7626953125,-936.1903076171875,1199.2454833984375,-9973.048828125,-1482.963623046875,-3749.529541015625,-16015.37109375,672.3403930664062,-1143.6143798828125,1763.502685546875,-11109.51171875,-3132.025390625,0.0,-1630.7830810546875,0.0,-3543.69482421875,-0.0,2386.570068359375
-15417.7353515625,-17711.3203125,-5588.53125,-1335.14404296875,-1058.5784912109375,9502.5703125,-5342.96044921875,-2409.6171875,-1313.6864013671875,5972.38525390625,-8446.3759765625,-12830.8935546875,-3676.41455078125,5304.8134765625,-15.894571304321289,-9405.61328125,-917.9114990234375,-189.14540100097656,2709.229736328125,13116.2001953125,2179.145751953125,6604.98974609375,-1239.776611328125,11982.91796875,-3909.269775390625,-6363.39208984375,-4409.94873046875,-4233.51904296875,-8237.3623046875,-3048.578857421875,3551.64208984375,2112.388671875,-409.28521728515625,-790.7549438476562,-2639.293701171875,3751.118896484375,-4178.6826171875,15428.8603515625,-5788.00830078125,-0.0,-7940.13330078125,5317.529296875,-6028.81103515625,-4714.330078125,-596.0464477539062,5552.7685546875,-7656.41552734375,893.2749633789062,-6046.294921875,-3414.94873046875,-2016.2265625,6634.39404296875,364.7804260253906,-21057.12890625,-9133.021484375,-922.679931640625,1205.603271484375,-9984.17578125,-1476.605712890625,-3744.76123046875,-15999.4755859375,664.3931274414062,-1152.3564453125,1752.3765869140625,-11094.4111328125,-3119.3095703125,0.0,-1639.5250244140625,0.0,-3554.821044921875,-0.0,2382.59619140625
-15387.53515625,-17696.22265625,-5590.91552734375,-1338.322998046875,-1064.1416015625,9493.828125,-5353.2919921875,-2425.51171875,-1312.8916015625,5973.974609375,-8438.427734375,-12819.7666015625,-3689.130126953125,5315.14501953125,-20.66294288635254,-9431.8388671875,-920.2957153320312,-201.0663299560547,2696.51416015625,13116.99609375,2171.9931640625,6593.068359375,-1248.5185546875,11968.6123046875,-3905.29638671875,-6370.54443359375,-4421.0751953125,-4251.79833984375,-8239.74609375,-3040.631591796875,3544.489501953125,2113.97802734375,-413.2588806152344,-797.11279296875,-2647.240966796875,3739.197998046875,-4187.42529296875,15414.5556640625,-5786.4189453125,-0.0,-7944.10693359375,5309.58154296875,-6039.142578125,-4728.63525390625,-605.5831909179688,5544.8212890625,-7655.62060546875,891.6854858398438,-6049.47412109375,-3425.2802734375,-2019.4053955078125,6615.32080078125,-641.345947265625,-21034.875,-9133.8154296875,-929.8324584960938,1194.47705078125,-10002.4541015625,-1478.989990234375,-3743.171630859375,-15987.5546875,650.8826904296875,-1159.509033203125,1753.9659423828125,-11083.28515625,-3116.925537109375,0.0,-1665.7510986328125,0.0,-3561.9736328125,-0.0,2380.212158203125
-15389.9189453125,-17713.705078125,-5584.55810546875,-1338.322998046875,-1065.7310791015625,9486.6748046875,-5350.11279296875,-2425.51171875,-1295.4075927734375,5991.458984375,-8447.96484375,-12822.1513671875,-3692.30908203125,5362.82861328125,-11.920928955078125,-9431.044921875,-922.679931640625,-206.6294403076172,2695.719482421875,13141.6318359375,2168.01953125,6589.0947265625,-1250.90283203125,11965.43359375,-3901.322509765625,-6374.51806640625,-4419.4853515625,-4258.15576171875,-8240.5400390625,-3043.810546875,3541.310546875,2114.772705078125,-414.0535888671875,-801.08642578125,-2651.214599609375,3735.224365234375,-4187.42529296875,15412.1708984375,-5785.6240234375,-0.0,-7941.72265625,5304.0185546875,-6041.52685546875,-4734.9931640625,-599.225341796875,5548.79541015625,-7650.85205078125,891.6854858398438,-6051.8583984375,-3436.406494140625,-2010.663330078125,6617.705078125,-1602.9676513671875,-21031.697265625,-9136.994140625,-942.548095703125,1192.0928955078125,-10015.169921875,-1467.8636474609375,-3747.93994140625,-15977.224609375,646.1143798828125,-1156.330078125,1776.2183837890625,-11078.5166015625,-3122.48876953125,0.0,-1694.361328125,0.0,-3561.9736328125,-0.0,2389.748779296875
-15413.7607421875,-17755.03125,-5594.0947265625,-1351.8333740234375,-1076.0625,9473.9599609375,-5355.67626953125,-2431.86962890625,-1285.870849609375,5989.07470703125,-8465.44921875,-12838.0458984375,-3692.30908203125,5397.001953125,-6.357828617095947,-9435.017578125,-932.2166748046875,-215.37144470214844,2689.361572265625,13150.3740234375,2157.688232421875,6580.3525390625,-1259.6448974609375,11953.5126953125,-3909.269775390625,-6382.46533203125,-4423.45947265625,-4269.28173828125,-8254.05078125,-3062.089111328125,3530.1845703125,2101.262451171875,-423.59033203125,-809.8284301757812,-2662.3408203125,3724.892822265625,-4193.78271484375,15403.4296875,-5799.134765625,-0.0,-7951.259765625,5296.86572265625,-6047.88427734375,-4746.119140625,-598.4306640625,5544.8212890625,-7661.97802734375,875.7908935546875,-6061.39501953125,-3453.890625,-2004.3055419921875,6611.34716796875,-2412.00146484375,-21054.744140625,-9149.7109375,-964.800537109375,1196.0665283203125,-10017.5546875,-1455.1480712890625,-3750.32421875,-15982.7861328125,635.7828979492188,-1157.9195556640625,1793.7025146484375,-11091.232421875,-3132.820068359375,0.0,-1692.77197265625,0.0,-3573.89453125,-0.0,2377.827880859375
-15412.1708984375,-17774.10546875,-5581.37890625,-1345.4755859375,-1063.346923828125,9482.701171875,-5350.90771484375,-2436.637939453125,-1292.228759765625,5980.3330078125,-8456.70703125,-12830.8935546875,-3678.00390625,5358.060546875,0.0,-9440.5810546875,-915.52734375,-201.86106872558594,2693.335205078125,13138.453125,2171.9931640625,6594.65771484375,-1251.697509765625,11959.8701171875,-3901.322509765625,-6365.77587890625,-4413.1279296875,-4265.30859375,-8243.7197265625,-3058.910400390625,3546.873779296875,2116.3623046875,-407.6957702636719,-793.933837890625,-2649.625,3733.635009765625,-4187.42529296875,15406.6083984375,-5782.4453125,-0.0,-7939.3388671875,5314.35009765625,-6038.34765625,-4741.3505859375,-596.8411865234375,5536.07958984375,-7654.03125,880.5592651367188,-6051.0634765625,-3454.685302734375,-1998.7423095703125,6604.98974609375,-1602.1728515625,-21053.15625,-9140.96875,-959.2374267578125,1207.1927490234375,-10016.7587890625,-1455.9427490234375,-3760.65576171875,-15971.66015625,646.1143798828125,-1159.509033203125,1788.93408203125,-11089.642578125,-3120.1044921875,0.0,-1711.0506591796875,0.0,-3583.43115234375,-0.0,2377.033203125
-15379.587890625,-17737.546875,-5556.7421875,-1322.4283447265625,-1042.6839599609375,9500.185546875,-5342.96044921875,-2423.92236328125,-1311.30224609375,5970.0009765625,-8435.2490234375,-12813.4091796875,-3665.288330078125,5297.66064453125,-1.5894571542739868,-9427.865234375,-888.506591796875,-180.4033966064453,2704.46142578125,13118.5849609375,2195.835205078125,6617.705078125,-1233.4188232421875,11977.35546875,-3881.45458984375,-6350.67626953125,-4397.2333984375,-4247.82421875,-8224.646484375,-3048.578857421875,3573.099853515625,2144.97265625,-383.8539123535156,-766.9130859375,-2628.16748046875,3756.68212890625,-4177.88818359375,15417.7353515625,-5749.861328125,-0.0,-7917.880859375,5336.6025390625,-6023.248046875,-4725.4560546875,-598.4306640625,5542.43701171875,-7629.39453125,902.8117065429688,-6034.3740234375,-3448.327392578125,-2000.3319091796875,6619.29443359375,828.107177734375,-21033.287109375,-9120.3046875,-938.574462890625,1216.7294921875,-9991.328125,-1470.2479248046875,-3761.450439453125,-15949.4072265625,663.598388671875,-1155.535400390625,1757.939697265625,-11076.1328125,-3097.057373046875,0.0,-1694.361328125,0.0,-3573.89453125,-0.0,2375.443603515625
-15347.798828125,-17700.1953125,-5549.58984375,-1298.5865478515625,-1035.5313720703125,9520.0537109375,-5337.39697265625,-2410.411865234375,-1326.402099609375,5967.6171875,-8424.91796875,-12797.5146484375,-3658.930419921875,5273.81884765625,-2.384185791015625,-9411.17578125,-875.7908935546875,-171.661376953125,2713.203369140625,13107.458984375,2204.5771484375,6630.4208984375,-1224.6767578125,11991.66015625,-3879.0703125,-6329.21826171875,-4394.05419921875,-4225.572265625,-8223.056640625,-3045.39990234375,3583.43115234375,2156.8935546875,-373.5224304199219,-751.0185546875,-2619.425537109375,3771.781982421875,-4174.70947265625,15431.2451171875,-5743.50341796875,-0.0,-7911.52294921875,5354.08642578125,-6018.47998046875,-4706.3828125,-600.0200805664062,5551.17919921875,-7621.447265625,928.2429809570312,-6027.2216796875,-3407.00146484375,-1999.5372314453125,6635.98388671875,3029.50537109375,-21022.162109375,-9119.5107421875,-922.679931640625,1222.2926025390625,-9963.5126953125,-1482.963623046875,-3748.734619140625,-15934.30859375,674.724609375,-1153.9459228515625,1745.2239990234375,-11077.7216796875,-3085.136474609375,0.0,-1656.21435546875,0.0,-3556.41064453125,-0.0,2377.827880859375
-15370.0517578125,-17747.87890625,-5563.89453125,-1308.91796875,-1046.6575927734375,9517.669921875,-5342.96044921875,-2411.20654296875,-1328.7862548828125,5958.080078125,-8442.40234375,-12803.078125,-3669.261962890625,5276.998046875,0.0,-9394.486328125,-886.9171142578125,-179.60865783691406,2706.05078125,13101.8955078125,2195.04052734375,6622.47314453125,-1231.829345703125,11985.3017578125,-3890.196533203125,-6318.88720703125,-4402.001953125,-4224.77734375,-8241.3359375,-3052.552490234375,3573.099853515625,2141.79345703125,-385.443359375,-759.7605590820312,-2628.962158203125,3764.62939453125,-4179.4775390625,15426.4765625,-5757.013671875,-0.0,-7921.85498046875,5354.08642578125,-6024.83740234375,-4709.56201171875,-603.198974609375,5549.58984375,-7626.21533203125,915.52734375,-6036.75830078125,-3403.82275390625,-1998.7423095703125,6639.95751953125,3176.530029296875,-21030.107421875,-9136.2001953125,-922.679931640625,1219.9083251953125,-9965.896484375,-1481.3741455078125,-3765.424072265625,-15956.560546875,665.9825439453125,-1159.509033203125,1743.634521484375,-11102.3583984375,-3091.494384765625,0.0,-1695.1561279296875,0.0,-3585.8154296875,-0.0,2357.1650390625
-15371.640625,-17789.998046875,-5559.12646484375,-1271.5657958984375,-1043.4786376953125,9523.232421875,-5339.78125,-2404.848876953125,-1328.7862548828125,5949.33837890625,-8441.607421875,-12798.3095703125,-3664.49365234375,5273.02392578125,10.33147144317627,-9380.9765625,-882.9434814453125,-176.42974853515625,2709.229736328125,13100.306640625,2197.424560546875,6625.65234375,-1231.03466796875,11988.48046875,-3881.45458984375,-6318.88720703125,-4396.4384765625,-4221.59814453125,-8235.7724609375,-3035.86328125,3576.27880859375,2150.53564453125,-379.0855407714844,-757.3763427734375,-2625.783203125,3767.80810546875,-4176.298828125,15428.8603515625,-5748.27197265625,-0.0,-7916.291015625,5354.88134765625,-6021.658203125,-4703.99853515625,-600.0200805664062,5550.384765625,-7632.57373046875,956.0584716796875,-6032.78515625,-3397.46484375,-1988.410888671875,6648.69921875,2582.867919921875,-21052.361328125,-9133.021484375,-919.5009765625,1224.6767578125,-9959.5380859375,-1475.81103515625,-3775.755615234375,-15959.7392578125,670.7509155273438,-1160.3037109375,1735.687255859375,-11095.2060546875,-3084.341796875,0.0,-1693.566650390625,0.0,-3604.09423828125,-0.0,2345.244140625
-15373.23046875,-17780.462890625,-5555.15283203125,-1259.6448974609375,-1040.2998046875,9525.6162109375,-5335.0126953125,-2401.669677734375,-1324.8125,5944.56982421875,-8442.40234375,-12808.640625,-3658.930419921875,5280.1767578125,17.48402976989746,-9416.7392578125,-878.9698486328125,-170.8666534423828,2713.998046875,13106.6640625,2199.808837890625,6631.21533203125,-1227.0609130859375,11990.865234375,-3881.45458984375,-6307.7607421875,-4391.67041015625,-4227.16162109375,-8223.056640625,-3043.015625,3581.841796875,2153.71435546875,-373.5224304199219,-747.839599609375,-2622.6044921875,3773.371337890625,-4171.5302734375,15433.62890625,-5748.27197265625,-0.0,-7913.9072265625,5365.212890625,-6016.89013671875,-4703.20361328125,-596.0464477539062,5557.537109375,-7636.546875,967.1846923828125,-6028.0166015625,-3410.97509765625,-1979.6688232421875,6646.31494140625,2538.36328125,-21103.224609375,-9119.5107421875,-941.75341796875,1235.00830078125,-9961.1279296875,-1473.4267578125,-3763.039794921875,-15964.5078125,674.724609375,-1155.535400390625,1738.0714111328125,-11086.4638671875,-3103.415283203125,0.0,-1664.16162109375,0.0,-3595.35205078125,-0.0,2351.601806640625
-15389.9189453125,-17786.822265625,-5554.35791015625,-1248.5185546875,-1040.2998046875,9518.4638671875,-5335.0126953125,-2415.974853515625,-1316.070556640625,5958.080078125,-8450.3486328125,-12824.53515625,-3655.75146484375,5296.0712890625,15.894571304321289,-9421.5078125,-882.1487426757812,-174.8402862548828,2711.614013671875,13116.99609375,2199.808837890625,6625.65234375,-1229.445068359375,11986.0966796875,-3881.45458984375,-6314.9130859375,-4391.67041015625,-4240.671875,-8227.8251953125,-3055.7314453125,3578.662841796875,2144.177734375,-379.0855407714844,-751.0185546875,-2624.988525390625,3766.218994140625,-4171.5302734375,15427.271484375,-5750.65625,-0.0,-7915.4970703125,5354.88134765625,-6017.68505859375,-4712.740234375,-594.4569702148438,5543.23193359375,-7623.03662109375,979.900390625,-6024.83740234375,-3422.896240234375,-1982.0531005859375,6628.03662109375,3149.509521484375,-21133.421875,-9123.484375,-949.70068359375,1238.1871337890625,-9965.1025390625,-1465.4794921875,-3770.9873046875,-15977.224609375,669.9561767578125,-1153.9459228515625,1750.787109375,-11095.2060546875,-3120.899169921875,0.0,-1683.235107421875,0.0,-3583.43115234375,-0.0,2370.67529296875
-15389.9189453125,-17746.291015625,-5537.6689453125,-1249.3133544921875,-1028.3787841796875,9531.1806640625,-5325.47607421875,-2393.72265625,-1308.123291015625,5968.412109375,-8445.580078125,-12805.4619140625,-3639.062255859375,5297.66064453125,19.073486328125,-9377.0029296875,-871.8172607421875,-164.50881958007812,2722.740234375,13128.12109375,2210.14013671875,6639.16259765625,-1217.524169921875,12001.197265625,-3859.996826171875,-6293.45556640625,-4386.10693359375,-4206.49853515625,-8219.0830078125,-3039.8369140625,3590.583740234375,2155.303955078125,-368.7540588378906,-738.3028564453125,-2613.8623046875,3778.9345703125,-4162.78857421875,15443.166015625,-5733.171875,-0.0,-7901.986328125,5368.3916015625,-6008.94287109375,-4692.87255859375,-584.9202270507812,5561.5107421875,-7602.37353515625,976.721435546875,-6015.30078125,-3414.94873046875,-1978.874267578125,6659.82568359375,3346.602294921875,-21076.998046875,-9113.9482421875,-918.7062377929688,1242.95556640625,-9961.1279296875,-1454.353271484375,-3776.55029296875,-15961.328125,684.2613525390625,-1142.8197021484375,1761.913330078125,-11083.28515625,-3092.2890625,0.0,-1717.4085693359375,0.0,-3593.7626953125,-0.0,2377.827880859375
-15375.6142578125,-17700.990234375,-5517.80078125,-1248.5185546875,-1014.868408203125,9552.6376953125,-5311.1708984375,-2380.212158203125,-1297.7918701171875,5977.94873046875,-8436.8388671875,-12784.798828125,-3626.3466796875,5301.63427734375,40.531158447265625,-9378.5927734375,-859.8963623046875,-150.20370483398438,2734.6611328125,13134.4794921875,2222.855712890625,6654.2626953125,-1204.80859375,12017.8857421875,-3844.89697265625,-6266.43505859375,-4367.03369140625,-4189.0146484375,-8203.9833984375,-3024.737060546875,3604.888916015625,2169.609130859375,-355.2436828613281,-726.3819580078125,-2601.146728515625,3796.41845703125,-4149.2783203125,15456.6767578125,-5739.5302734375,-0.0,-7885.296875,5393.0283203125,-5994.63818359375,-4674.59326171875,-572.20458984375,5572.63720703125,-7584.8896484375,975.1319580078125,-6007.353515625,-3383.954345703125,-1958.211181640625,6667.77294921875,3744.76123046875,-21021.365234375,-9098.052734375,-886.9171142578125,1255.671142578125,-9957.154296875,-1443.2271728515625,-3756.68212890625,-15932.71875,698.56640625,-1132.48828125,1767.4764404296875,-11068.98046875,-3072.4208984375,0.0,-1731.713623046875,0.0,-3589.7890625,-0.0,2377.827880859375
-15353.3623046875,-17651.716796875,-5523.36376953125,-1262.029052734375,-1022.815673828125,9538.3330078125,-5319.11865234375,-2395.31201171875,-1299.3812255859375,5981.12744140625,-8440.8125,-12787.978515625,-3631.114990234375,5304.0185546875,27.02077293395996,-9413.5595703125,-866.254150390625,-158.9457244873047,2725.9189453125,13131.30078125,2215.703369140625,6643.93115234375,-1211.961181640625,12007.5537109375,-3859.996826171875,-6306.96630859375,-4376.5703125,-4213.6513671875,-8210.341796875,-3033.47900390625,3597.736328125,2167.224853515625,-359.2173156738281,-738.3028564453125,-2605.9150390625,3786.881591796875,-4154.8408203125,15446.345703125,-5729.9931640625,-0.0,-7892.44921875,5369.9814453125,-6000.99560546875,-4688.8984375,-578.5624389648438,5567.07373046875,-7606.34765625,966.3899536132812,-6016.095703125,-3383.15966796875,-1970.132080078125,6647.10986328125,5056.06298828125,-21064.28125,-9103.6162109375,-929.0377197265625,1244.544921875,-9978.6123046875,-1450.3797607421875,-3751.118896484375,-15938.2822265625,692.2086181640625,-1137.256591796875,1757.939697265625,-11076.9267578125,-3085.136474609375,0.0,-1692.77197265625,0.0,-3570.715576171875,-0.0,2373.8544921875
-15348.59375,-17690.658203125,-5544.8212890625,-1274.74462890625,-1037.120849609375,9514.4912109375,-5335.0126953125,-2418.359130859375,-1309.7127685546875,5985.8955078125,-8447.96484375,-12809.435546875,-3666.0830078125,5300.044921875,-1.5894571542739868,-9457.2705078125,-878.9698486328125,-171.661376953125,2710.024658203125,13124.9423828125,2203.7822265625,6626.447265625,-1225.471435546875,11988.48046875,-3871.917724609375,-6332.3974609375,-4396.4384765625,-4245.43994140625,-8234.9775390625,-3041.426513671875,3583.43115234375,2155.303955078125,-375.9066162109375,-753.4027099609375,-2620.22021484375,3768.60302734375,-4171.5302734375,15428.8603515625,-5742.70849609375,-0.0,-7911.52294921875,5346.93408203125,-6017.68505859375,-4711.94580078125,-592.8675537109375,5551.9736328125,-7628.599609375,952.8795776367188,-6033.57958984375,-3412.564453125,-2000.3319091796875,6615.32080078125,6779.82958984375,-21046.00390625,-9131.431640625,-975.9266967773438,1210.37158203125,-9989.73828125,-1462.3006591796875,-3736.01904296875,-15963.712890625,677.9035034179688,-1149.177490234375,1758.734375,-11092.822265625,-3100.236083984375,0.0,-1669.724853515625,0.0,-3542.900146484375,-0.0,2379.41748046875
-15401.83984375,-17734.369140625,-5546.4111328125,-1327.19677734375,-1033.147216796875,9521.6435546875,-5335.0126953125,-2410.411865234375,-1307.32861328125,5998.611328125,-8442.40234375,-12822.9453125,-3688.33544921875,5304.0185546875,-0.7947285771369934,-9423.8916015625,-877.38037109375,-165.3035430908203,2715.587646484375,13128.9169921875,2206.16650390625,6631.21533203125,-1223.0872802734375,11992.4541015625,-3868.73876953125,-6309.3505859375,-4390.87548828125,-4239.08251953125,-8246.1044921875,-3035.068603515625,3585.8154296875,2152.125,-373.5224304199219,-749.4290771484375,-2617.041259765625,3773.371337890625,-4169.14599609375,15430.4501953125,-5739.5302734375,-0.0,-7911.52294921875,5363.623046875,-6015.30078125,-4707.97216796875,-592.0728149414062,5557.537109375,-7623.03662109375,894.8643798828125,-6027.2216796875,-3416.538330078125,-2000.3319091796875,6626.447265625,7769.2666015625,-20970.501953125,-9142.5576171875,-958.4426879882812,1206.39794921875,-9966.69140625,-1469.4532470703125,-3736.813720703125,-15952.5869140625,681.0823974609375,-1147.588134765625,1766.681640625,-11104.7431640625,-3099.44140625,0.0,-1664.16162109375,0.0,-3538.1318359375,-0.0,2383.39111328125
-15447.1396484375,-17782.052734375,-5527.33740234375,-1300.970703125,-1017.2525634765625,9538.3330078125,-5316.734375,-2388.9541015625,-1296.9970703125,5996.22705078125,-8429.6865234375,-12782.4140625,-3658.930419921875,5305.6083984375,24.636587142944336,-9384.94921875,-856.7174072265625,-148.61424255371094,2731.482177734375,13139.248046875,2225.239990234375,6647.90478515625,-1203.2191162109375,12009.9384765625,-3857.612548828125,-6310.93994140625,-4374.18603515625,-4212.0615234375,-8221.466796875,-3000.100341796875,3604.888916015625,2172.787841796875,-351.2700500488281,-729.5608520507812,-2599.55712890625,3789.265869140625,-4153.25146484375,15448.7294921875,-5679.92529296875,-0.0,-7894.0390625,5366.00732421875,-5997.02197265625,-4687.30908203125,-578.5624389648438,5574.2265625,-7615.88427734375,926.653564453125,-6011.3271484375,-3395.875244140625,-1973.3111572265625,6653.4677734375,7852.71337890625,-20950.63671875,-9117.9208984375,-900.427490234375,1238.1871337890625,-9917.4189453125,-1458.326904296875,-3732.84033203125,-15923.181640625,699.3611450195312,-1132.48828125,1759.529052734375,-11092.0263671875,-3089.110107421875,0.0,-1661.7774658203125,0.0,-3542.10546875,-0.0,2371.47021484375
-15379.587890625,-17734.369140625,-5509.853515625,-1257.2606201171875,-995.794921875,9563.763671875,-5296.0712890625,-2352.396728515625,-1293.818115234375,5971.59033203125,-8420.9443359375,-12746.6513671875,-3613.631103515625,5292.892578125,70.73084259033203,-9346.802734375,-837.6439208984375,-129.54075622558594,2751.350341796875,13135.2744140625,2242.72412109375,6665.388671875,-1184.1456298828125,12035.3701171875,-3846.486328125,-6295.04541015625,-4347.16552734375,-4165.96728515625,-8195.2412109375,-2966.7216796875,3624.757080078125,2191.861328125,-333.7860107421875,-711.2821044921875,-2579.68896484375,3809.13427734375,-4131.7939453125,15474.16015625,-5694.23046875,-0.0,-7874.17138671875,5377.1337890625,-5976.35888671875,-4653.9306640625,-561.8731079101562,5602.04150390625,-7599.19482421875,972.747802734375,-5987.4853515625,-3353.754638671875,-1928.8062744140625,6701.9462890625,7759.72998046875,-20926.794921875,-9092.490234375,-844.0017700195312,1283.4866943359375,-9888.80859375,-1432.8956298828125,-3743.96630859375,-15901.7236328125,721.6135864257812,-1117.388427734375,1746.018798828125,-11075.337890625,-3062.089111328125,0.0,-1660.9827880859375,0.0,-3573.099853515625,-0.0,2353.19140625
-15366.0771484375,-17592.90625,-5534.490234375,-1271.5657958984375,-1000.5632934570312,9553.4326171875,-5294.48193359375,-2362.72802734375,-1293.818115234375,5977.94873046875,-8428.8916015625,-12752.2158203125,-3627.141357421875,5296.0712890625,81.06231689453125,-9338.0615234375,-844.7965087890625,-135.10386657714844,2748.171630859375,13132.8896484375,2235.571533203125,6655.0576171875,-1189.708740234375,12026.6279296875,-3855.228515625,-6316.5029296875,-4343.19140625,-4177.09375,-8203.1884765625,-2956.390380859375,3616.809814453125,2197.424560546875,-344.9122009277344,-723.2030029296875,-2586.046875,3801.981689453125,-4130.9990234375,15467.802734375,-5685.48828125,-0.0,-7883.7080078125,5358.060546875,-5977.15380859375,-4662.67236328125,-559.4889526367188,5593.2998046875,-7606.34765625,958.4426879882812,-5989.86962890625,-3359.31787109375,-1918.474853515625,6686.0517578125,7669.92578125,-20917.2578125,-9099.642578125,-837.6439208984375,1277.923583984375,-9881.6552734375,-1410.6431884765625,-3723.303466796875,-15905.69921875,716.0504760742188,-1119.7725830078125,1753.9659423828125,-11084.080078125,-3058.910400390625,0.0,-1633.167236328125,0.0,-3554.821044921875,-0.0,2365.1123046875
-15362.103515625,-17537.275390625,-5556.7421875,-1287.4603271484375,-1020.4315185546875,9522.4384765625,-5319.11865234375,-2404.848876953125,-1296.9970703125,5996.22705078125,-8436.0439453125,-12780.0302734375,-3661.314697265625,5315.939453125,22.25240135192871,-9378.5927734375,-869.43310546875,-158.15098571777344,2721.945556640625,13128.9169921875,2214.114013671875,6629.6259765625,-1212.755859375,11997.22265625,-3867.944091796875,-6351.470703125,-4374.18603515625,-4219.2138671875,-8223.056640625,-2984.2060546875,3590.583740234375,2177.556396484375,-366.369873046875,-750.2238159179688,-2609.093994140625,3774.166015625,-4156.4306640625,15436.80859375,-5703.76708984375,-0.0,-7901.19189453125,5330.24462890625,-6001.79052734375,-4695.2568359375,-580.15185546875,5555.94775390625,-7617.4736328125,946.521728515625,-6008.1484375,-3391.901611328125,-1976.489990234375,6638.3681640625,7100.10546875,-20950.63671875,-9117.9208984375,-872.6119995117188,1239.776611328125,-9919.802734375,-1444.0218505859375,-3764.62939453125,-15935.1025390625,688.2349853515625,-1141.230224609375,1766.681640625,-11103.947265625,-3091.494384765625,0.0,-1629.98828125,0.0,-3561.178955078125,-0.0,2385.775390625
-15309.6513671875,-17560.32421875,-5560.71630859375,-1277.923583984375,-1024.4051513671875,9518.4638671875,-5326.27099609375,-2412.00146484375,-1297.7918701171875,5991.458984375,-8431.275390625,-12785.59375,-3674.824951171875,5311.1708984375,-2.384185791015625,-9448.5283203125,-876.5856323242188,-162.9193572998047,2716.38232421875,13131.30078125,2207.756103515625,6624.857421875,-1216.7294921875,11991.66015625,-3870.328125,-6335.57666015625,-4385.3125,-4236.6982421875,-8222.2626953125,-3004.86865234375,3586.610107421875,2165.63525390625,-371.9329833984375,-754.1974487304688,-2612.27294921875,3771.781982421875,-4165.17236328125,15432.0400390625,-5723.63525390625,-0.0,-7905.16552734375,5338.19189453125,-6008.94287109375,-4704.79345703125,-586.5097045898438,5560.71630859375,-7624.6259765625,955.2637939453125,-6014.505859375,-3396.670166015625,-2001.1265869140625,6618.5,6874.40234375,-20947.45703125,-9119.5107421875,-886.1223754882812,1210.37158203125,-9971.458984375,-1464.684814453125,-3747.1455078125,-15955.7666015625,682.671875,-1142.8197021484375,1773.0394287109375,-11094.4111328125,-3101.031005859375,0.0,-1653.8302001953125,0.0,-3569.9208984375,-0.0,2390.543701171875
-15319.1884765625,-17738.341796875,-5539.25830078125,-1242.95556640625,-1006.1264038085938,9544.6904296875,-5308.787109375,-2391.33837890625,-1285.870849609375,6008.1484375,-8412.9970703125,-12771.2890625,-3647.009521484375,5327.8603515625,29.404958724975586,-9410.380859375,-859.8963623046875,-143.0511474609375,2734.6611328125,13148.7841796875,2226.034912109375,6647.90478515625,-1198.45068359375,12013.1181640625,-3851.254638671875,-6286.30322265625,-4363.06005859375,-4210.47216796875,-8207.162109375,-3011.2265625,3607.273193359375,2178.35107421875,-353.65423583984375,-733.5344848632812,-2593.199462890625,3793.239501953125,-4144.509765625,15453.498046875,-5725.22509765625,-0.0,-7886.88671875,5370.77587890625,-5989.07470703125,-4682.541015625,-569.0256958007812,5578.19970703125,-7628.599609375,989.4371337890625,-5995.4326171875,-3376.8017578125,-1969.33740234375,6642.341796875,8091.13232421875,-20944.27734375,-9102.02734375,-886.9171142578125,1234.2135009765625,-9936.4921875,-1440.0482177734375,-3724.09814453125,-15935.8974609375,702.5401000976562,-1124.5408935546875,1794.4971923828125,-11066.595703125,-3077.189208984375,0.0,-1672.9036865234375,0.0,-3544.489501953125,-0.0,2414.385498046875
-15363.693359375,-17761.388671875,-5531.31103515625,-1231.03466796875,-991.0265502929688,9551.8427734375,-5295.27685546875,-2382.59619140625,-1278.7183837890625,6009.7373046875,-8389.9501953125,-12777.646484375,-3618.3994140625,5326.27099609375,73.90975952148438,-9383.361328125,-850.359619140625,-132.7196807861328,2743.403076171875,13157.52734375,2237.160888671875,6657.44140625,-1184.1456298828125,12021.859375,-3837.744384765625,-6275.1767578125,-4337.62890625,-4200.140625,-8196.0361328125,-3018.379150390625,3618.3994140625,2186.29833984375,-344.9122009277344,-725.5872192382812,-2583.662841796875,3803.571044921875,-4129.40966796875,15459.060546875,-5706.1513671875,-0.0,-7874.9658203125,5384.28662109375,-5970.7958984375,-4675.38818359375,-555.5152587890625,5579.78955078125,-7623.03662109375,999.7686157226562,-5977.94873046875,-3382.364990234375,-1927.2169189453125,6658.23583984375,9378.5927734375,-20977.65625,-9090.900390625,-900.427490234375,1281.1025390625,-9938.8759765625,-1409.8485107421875,-3740.78759765625,-15919.208984375,713.666259765625,-1117.388427734375,1796.086669921875,-11061.828125,-3081.16259765625,0.0,-1684.8245849609375,0.0,-3554.821044921875,-0.0,2413.590576171875
-15366.0771484375,-17635.02734375,-5557.537109375,-1290.6392822265625,-1020.4315185546875,9518.4638671875,-5318.32373046875,-2407.23291015625,-1293.818115234375,5986.6904296875,-8401.87109375,-12805.4619140625,-3655.75146484375,5304.0185546875,50.86262893676758,-9409.5869140625,-878.1751098632812,-162.9193572998047,2718.766357421875,13136.86328125,2210.14013671875,6626.447265625,-1208.7822265625,11992.4541015625,-3867.1494140625,-6334.78173828125,-4367.03369140625,-4233.51904296875,-8219.8779296875,-3031.0947265625,3588.994384765625,2159.277587890625,-371.13824462890625,-754.1974487304688,-2613.067626953125,3774.166015625,-4152.45654296875,15434.4248046875,-5733.966796875,-0.0,-7901.986328125,5348.5234375,-5996.22705078125,-4705.587890625,-575.3834838867188,5558.33203125,-7626.21533203125,934.600830078125,-6007.353515625,-3414.154052734375,-1949.46923828125,6632.009765625,9748.1416015625,-21008.650390625,-9117.126953125,-915.52734375,1244.544921875,-9973.048828125,-1428.9219970703125,-3750.32421875,-15959.7392578125,687.4402465820312,-1140.435546875,1775.4237060546875,-11082.490234375,-3110.56787109375,0.0,-1684.8245849609375,0.0,-3571.51025390625,-0.0,2391.33837890625
-15350.1826171875,-17615.16015625,-5588.53125,-1329.5809326171875,-1049.8365478515625,9495.41796875,-5346.1396484375,-2419.948486328125,-1306.5338134765625,5981.92236328125,-8418.5595703125,-12810.23046875,-3675.619873046875,5311.9658203125,-12.715657234191895,-9420.712890625,-902.8117065429688,-186.76121520996094,2697.308837890625,13123.3525390625,2183.11962890625,6601.810546875,-1235.00830078125,11974.17578125,-3894.170166015625,-6375.31298828125,-4405.9755859375,-4243.0556640625,-8241.3359375,-3021.55810546875,3562.768310546875,2136.23046875,-398.1590270996094,-778.8340454101562,-2637.7041015625,3751.118896484375,-4182.65673828125,15416.939453125,-5763.3720703125,-0.0,-7931.3916015625,5313.55517578125,-6027.2216796875,-4721.48291015625,-600.8148193359375,5544.02685546875,-7641.3154296875,896.453857421875,-6039.142578125,-3431.637939453125,-2010.663330078125,6620.8837890625,9121.1005859375,-20979.24609375,-9136.2001953125,-923.474609375,1200.8348388671875,-9964.306640625,-1494.0897216796875,-3752.70849609375,-15986.7607421875,664.3931274414062,-1157.9195556640625,1771.4500732421875,-11089.642578125,-3120.1044921875,0.0,-1702.30859375,0.0,-3574.689208984375,-0.0,2388.9541015625
-15358.130859375,-17573.0390625,-5591.71044921875,-1341.5018310546875,-1059.373291015625,9490.6494140625,-5354.08642578125,-2427.10107421875,-1310.5074462890625,5977.94873046875,-8436.8388671875,-12804.6669921875,-3672.440673828125,5316.734375,-37.35224533081055,-9442.9658203125,-912.3484497070312,-193.9137725830078,2691.745849609375,13122.55859375,2175.172119140625,6592.27392578125,-1242.1607666015625,11968.6123046875,-3901.322509765625,-6378.49169921875,-4423.45947265625,-4243.8505859375,-8244.5146484375,-3009.63720703125,3554.821044921875,2124.3095703125,-404.516845703125,-793.13916015625,-2645.651611328125,3743.96630859375,-4190.603515625,15411.376953125,-5774.498046875,-0.0,-7938.54443359375,5299.25,-6039.142578125,-4725.4560546875,-607.9674072265625,5540.052734375,-7649.2626953125,886.9171142578125,-6058.21630859375,-3429.25390625,-2032.915771484375,6611.34716796875,8294.58203125,-20952.224609375,-9139.37890625,-910.7589721679688,1190.50341796875,-10009.6064453125,-1490.910888671875,-3758.271484375,-15978.8134765625,657.2405395507812,-1161.8931884765625,1773.834228515625,-11095.2060546875,-3110.56787109375,0.0,-1717.4085693359375,0.0,-3578.662841796875,-0.0,2387.36474609375
-15344.6201171875,-17565.884765625,-5584.55810546875,-1345.4755859375,-1054.6048583984375,9490.6494140625,-5347.728515625,-2422.332763671875,-1307.32861328125,5970.0009765625,-8441.607421875,-12811.8203125,-3664.49365234375,5321.5029296875,-15.894571304321289,-9419.91796875,-910.7589721679688,-192.32432556152344,2696.51416015625,13126.5322265625,2181.530029296875,6593.86279296875,-1238.9818115234375,11972.5869140625,-3898.143798828125,-6379.2861328125,-4414.71728515625,-4250.20849609375,-8242.9248046875,-3015.9951171875,3557.999755859375,2128.283203125,-399.74847412109375,-791.5496826171875,-2641.677734375,3745.555908203125,-4184.24609375,15415.3505859375,-5762.5771484375,-0.0,-7932.18603515625,5296.86572265625,-6034.3740234375,-4724.6611328125,-601.6095581054688,5546.4111328125,-7658.0048828125,882.9434814453125,-6054.24267578125,-3442.76416015625,-2014.636962890625,6619.29443359375,7448.1962890625,-20949.83984375,-9137.7900390625,-920.2957153320312,1204.80859375,-9999.275390625,-1474.2215576171875,-3757.476806640625,-15962.1240234375,658.0352783203125,-1156.330078125,1772.2447509765625,-11093.6162109375,-3123.283447265625,0.0,-1700.71923828125,0.0,-3582.636474609375,-0.0,2378.622802734375
-15312.03515625,-17582.57421875,-5578.19970703125,-1334.3492431640625,-1045.068115234375,9496.2119140625,-5338.98681640625,-2423.12744140625,-1307.32861328125,5977.15380859375,-8430.48046875,-12808.640625,-3674.824951171875,5309.58154296875,1.5894571542739868,-9418.328125,-901.2222290039062,-183.58230590820312,2701.282470703125,13122.55859375,2188.6826171875,6602.60546875,-1231.829345703125,11976.5595703125,-3890.9912109375,-6359.41845703125,-4395.6435546875,-4247.82421875,-8233.3876953125,-3018.379150390625,3565.947265625,2138.61474609375,-392.5959167480469,-781.2182006835938,-2632.14111328125,3752.70849609375,-4176.298828125,15417.7353515625,-5755.42431640625,-0.0,-7922.6494140625,5309.58154296875,-6022.453125,-4721.48291015625,-594.4569702148438,5544.8212890625,-7658.0048828125,893.2749633789062,-6031.990234375,-3451.50634765625,-1997.94775390625,6616.91064453125,6564.45849609375,-20955.404296875,-9129.0478515625,-926.653564453125,1222.2926025390625,-9972.2548828125,-1458.326904296875,-3763.834716796875,-15948.6142578125,663.598388671875,-1156.330078125,1769.06591796875,-11092.822265625,-3125.66748046875,0.0,-1692.77197265625,0.0,-3573.099853515625,-0.0,2380.212158203125
-15312.8310546875,-17615.16015625,-5578.99462890625,-1327.991455078125,-1042.6839599609375,9502.5703125,-5336.6025390625,-2421.5380859375,-1304.9443359375,5980.3330078125,-8424.123046875,-12807.0517578125,-3677.209228515625,5307.19775390625,6.357828617095947,-9421.5078125,-900.427490234375,-181.1981201171875,2702.0771484375,13123.3525390625,2188.6826171875,6604.98974609375,-1231.829345703125,11977.35546875,-3890.196533203125,-6349.8818359375,-4393.259765625,-4240.671875,-8233.3876953125,-3024.737060546875,3567.53662109375,2135.435791015625,-394.1853942871094,-777.2445678710938,-2629.7568359375,3755.092529296875,-4176.298828125,15419.32421875,-5764.96142578125,-0.0,-7922.6494140625,5319.11865234375,-6020.86376953125,-4716.71435546875,-592.8675537109375,5543.23193359375,-7646.083984375,899.6327514648438,-6030.40087890625,-3437.201171875,-1992.3846435546875,6619.29443359375,5500.31640625,-20975.271484375,-9131.431640625,-929.0377197265625,1223.0872802734375,-9980.99609375,-1456.737548828125,-3773.371337890625,-15960.53515625,664.3931274414062,-1156.330078125,1763.502685546875,-11091.232421875,-3116.130859375,0.0,-1703.8980712890625,0.0,-3577.0732421875,-0.0,2377.827880859375
-15339.056640625,-17652.51171875,-5589.326171875,-1338.322998046875,-1053.81005859375,9490.6494140625,-5348.5234375,-2426.306396484375,-1309.7127685546875,5969.20654296875,-8436.0439453125,-12818.97265625,-3687.540771484375,5311.9658203125,-4.76837158203125,-9440.5810546875,-911.5537109375,-190.73486328125,2693.335205078125,13119.3798828125,2177.556396484375,6594.65771484375,-1242.95556640625,11968.6123046875,-3900.52783203125,-6369.74951171875,-4407.564453125,-4253.3876953125,-8247.693359375,-3046.19482421875,3556.41064453125,2123.514892578125,-404.516845703125,-788.3707885742188,-2641.677734375,3744.76123046875,-4186.63037109375,15408.9931640625,-5773.703125,-0.0,-7932.98046875,5305.6083984375,-6033.57958984375,-4727.84033203125,-603.9937133789062,5537.6689453125,-7653.236328125,889.30126953125,-6044.7060546875,-3438.79052734375,-2004.3055419921875,6613.7314453125,5234.876953125,-20996.728515625,-9143.3525390625,-940.9586791992188,1207.1927490234375,-9993.712890625,-1478.989990234375,-3782.908203125,-15981.9931640625,654.0616455078125,-1161.8931884765625,1759.529052734375,-11098.384765625,-3128.846435546875,0.0,-1692.77197265625,0.0,-3585.8154296875,-0.0,2371.47021484375
-15379.587890625,-17654.099609375,-5589.326171875,-1339.11767578125,-1057.78369140625,9489.853515625,-5350.11279296875,-2428.690673828125,-1310.5074462890625,5970.7958984375,-8452.7333984375,-12822.1513671875,-3686.745849609375,5312.7607421875,-12.715657234191895,-9439.7861328125,-915.52734375,-197.0926971435547,2690.951171875,13120.1748046875,2175.172119140625,6592.27392578125,-1246.92919921875,11967.0224609375,-3900.52783203125,-6368.16015625,-4409.154296875,-4253.3876953125,-8251.6669921875,-3050.168212890625,3553.2314453125,2119.541259765625,-406.9010314941406,-790.7549438476562,-2644.856689453125,3743.171630859375,-4189.80908203125,15407.4033203125,-5772.11376953125,-0.0,-7933.77587890625,5305.6083984375,-6037.55322265625,-4729.4296875,-604.7884521484375,5540.84765625,-7657.2099609375,886.9171142578125,-6047.08984375,-3441.9697265625,-2009.86865234375,6609.7578125,6138.4833984375,-21006.265625,-9147.326171875,-946.521728515625,1205.603271484375,-9992.123046875,-1475.81103515625,-3755.88720703125,-15984.376953125,650.8826904296875,-1162.6878662109375,1760.3238525390625,-11108.7158203125,-3131.230712890625,0.0,-1685.619384765625,0.0,-3576.27880859375,-0.0,2369.880615234375
-15395.482421875,-17653.306640625,-5576.6103515625,-1315.2757568359375,-1049.041748046875,9498.595703125,-5341.37109375,-2427.10107421875,-1304.9443359375,5970.7958984375,-8447.169921875,-12821.3564453125,-3683.567138671875,5315.939453125,2.384185791015625,-9433.4287109375,-907.580078125,-189.9401397705078,2696.51416015625,13126.5322265625,2182.32470703125,6601.015625,-1238.9818115234375,11971.791015625,-3896.55419921875,-6357.0341796875,-4397.2333984375,-4242.26123046875,-8239.74609375,-3041.426513671875,3561.178955078125,2125.104248046875,-397.3642883300781,-781.2182006835938,-2638.4990234375,3750.32421875,-4181.86181640625,15413.7607421875,-5760.19287109375,-0.0,-7927.41796875,5315.939453125,-6028.0166015625,-4721.48291015625,-595.251708984375,5539.25830078125,-7647.67333984375,913.1431884765625,-6035.96337890625,-3432.432861328125,-1993.9739990234375,6608.962890625,7234.41455078125,-21000.703125,-9133.8154296875,-940.9586791992188,1216.7294921875,-9977.8173828125,-1460.711181640625,-3750.32421875,-15978.8134765625,656.44580078125,-1157.1248779296875,1765.09228515625,-11105.537109375,-3125.66748046875,0.0,-1684.0299072265625,0.0,-3570.715576171875,-0.0,2373.0595703125
-15354.15625,-17662.84375,-5569.4580078125,-1295.4075927734375,-1041.094482421875,9512.9013671875,-5335.8076171875,-2412.7958984375,-1296.9970703125,5979.5380859375,-8441.607421875,-12810.23046875,-3671.64599609375,5321.5029296875,3.1789143085479736,-9417.5341796875,-898.0433349609375,-182.78758239746094,2704.46142578125,13130.505859375,2190.27197265625,6612.14208984375,-1231.829345703125,11982.91796875,-3886.222900390625,-6341.13916015625,-4393.259765625,-4231.9296875,-8235.7724609375,-3028.710693359375,3569.9208984375,2137.820068359375,-391.0064697265625,-768.5025634765625,-2632.14111328125,3758.271484375,-4173.1201171875,15423.2978515625,-5757.80859375,-0.0,-7921.0595703125,5331.03955078125,-6022.453125,-4708.76708984375,-589.6885986328125,5548.00048828125,-7639.72607421875,933.8060913085938,-6029.60595703125,-3410.97509765625,-1993.9739990234375,6626.447265625,6699.56201171875,-20994.34375,-9130.63671875,-930.627197265625,1216.7294921875,-9970.6650390625,-1456.737548828125,-3755.092529296875,-15963.712890625,663.598388671875,-1150.7669677734375,1772.2447509765625,-11098.384765625,-3110.56787109375,0.0,-1675.287841796875,0.0,-3569.9208984375,-0.0,2380.212158203125
-15358.130859375,-17676.353515625,-5574.2265625,-1300.176025390625,-1045.86279296875,9508.1328125,-5338.98681640625,-2407.23291015625,-1297.7918701171875,5976.35888671875,-8454.3232421875,-12818.1767578125,-3661.314697265625,5322.29736328125,3.1789143085479736,-9405.61328125,-902.8117065429688,-185.96649169921875,2704.46142578125,13132.8896484375,2183.9140625,6607.37353515625,-1233.4188232421875,11978.1494140625,-3890.196533203125,-6346.70263671875,-4398.82275390625,-4231.9296875,-8240.5400390625,-3032.684326171875,3565.947265625,2135.435791015625,-396.569580078125,-773.2709350585938,-2637.7041015625,3752.70849609375,-4173.91455078125,15424.0927734375,-5770.5244140625,-0.0,-7922.6494140625,5326.27099609375,-6026.4267578125,-4710.3564453125,-589.6885986328125,5556.7421875,-7649.2626953125,929.8324584960938,-6038.34765625,-3420.511962890625,-1995.5634765625,6632.8046875,5011.55859375,-21011.830078125,-9136.2001953125,-933.0113525390625,1219.9083251953125,-9971.458984375,-1461.505859375,-3740.78759765625,-15968.4814453125,661.2141723632812,-1149.177490234375,1772.2447509765625,-11107.126953125,-3111.362548828125,0.0,-1691.9771728515625,0.0,-3577.8681640625,-0.0,2376.238525390625
-15374.8193359375,-17686.685546875,-5567.86865234375,-1304.149658203125,-1043.4786376953125,9511.3115234375,-5332.62890625,-2406.438232421875,-1291.4339599609375,5993.04833984375,-8449.5546875,-12818.97265625,-3660.519775390625,5325.47607421875,15.09984302520752,-9391.3076171875,-899.6327514648438,-181.9928436279297,2710.024658203125,13141.6318359375,2189.477294921875,6611.34716796875,-1231.03466796875,11982.123046875,-3890.9912109375,-6340.3447265625,-4393.259765625,-4224.77734375,-8239.74609375,-3042.22119140625,3568.33154296875,2136.23046875,-392.5959167480469,-770.092041015625,-2634.525390625,3755.88720703125,-4169.94091796875,15427.271484375,-5763.3720703125,-0.0,-7920.26513671875,5331.83447265625,-6023.248046875,-4707.97216796875,-587.304443359375,5557.537109375,-7645.2890625,925.0640869140625,-6035.1689453125,-3423.69091796875,-1984.437255859375,6638.3681640625,3786.881591796875,-21020.5703125,-9135.4052734375,-933.8060913085938,1231.829345703125,-9975.43359375,-1459.1217041015625,-3759.861083984375,-15972.4560546875,664.3931274414062,-1144.4091796875,1783.3709716796875,-11105.537109375,-3121.69384765625,0.0,-1689.593017578125,0.0,-3571.51025390625,-0.0,2390.543701171875
-15383.5615234375,-17708.9375,-5559.12646484375,-1312.096923828125,-1039.5050048828125,9513.6953125,-5330.24462890625,-2407.23291015625,-1294.6129150390625,5989.86962890625,-8441.607421875,-12813.4091796875,-3647.80419921875,5318.32373046875,28.6102294921875,-9407.9970703125,-896.453857421875,-178.0192108154297,2708.43505859375,13141.6318359375,2192.65625,6614.5263671875,-1227.855712890625,11982.91796875,-3889.401611328125,-6329.21826171875,-4384.517578125,-4234.31396484375,-8236.5673828125,-3039.8369140625,3571.51025390625,2137.025146484375,-387.8275451660156,-769.2973022460938,-2631.346435546875,3758.271484375,-4167.556640625,15427.271484375,-5757.013671875,-0.0,-7919.470703125,5335.8076171875,-6017.68505859375,-4711.1513671875,-585.7149658203125,5558.33203125,-7636.546875,917.9114990234375,-6028.81103515625,-3423.69091796875,-1971.7216796875,6635.18896484375,3489.6533203125,-21019.77734375,-9131.431640625,-945.72705078125,1241.3660888671875,-9982.5859375,-1455.9427490234375,-3763.834716796875,-15976.4287109375,666.7772827148438,-1143.6143798828125,1776.2183837890625,-11099.974609375,-3121.69384765625,0.0,-1687.208740234375,0.0,-3584.225830078125,-0.0,2381.801513671875
-15377.998046875,-17704.16796875,-5551.9736328125,-1293.0234375,-1029.96826171875,9526.412109375,-5320.7080078125,-2400.875,-1286.66552734375,6004.1748046875,-8432.0703125,-12810.23046875,-3653.3671875,5327.06591796875,42.1206169128418,-9400.0498046875,-890.0960083007812,-168.4824676513672,2717.17724609375,13148.7841796875,2198.21923828125,6622.47314453125,-1219.1136474609375,11993.2490234375,-3882.2490234375,-6315.7080078125,-4371.8017578125,-4223.982421875,-8228.619140625,-3042.22119140625,3579.45751953125,2141.79345703125,-380.67498779296875,-760.5552978515625,-2621.809814453125,3768.60302734375,-4159.609375,15436.80859375,-5764.16650390625,-0.0,-7912.318359375,5346.1396484375,-6007.353515625,-4700.8193359375,-573.7940673828125,5571.04736328125,-7633.3681640625,933.0113525390625,-6017.68505859375,-3398.259521484375,-1958.211181640625,6639.16259765625,2983.4111328125,-21014.212890625,-9124.279296875,-963.2110595703125,1245.3397216796875,-9984.17578125,-1436.0745849609375,-3736.813720703125,-15971.66015625,675.519287109375,-1134.07763671875,1780.98681640625,-11092.822265625,-3112.951904296875,0.0,-1693.566650390625,0.0,-3569.9208984375,-0.0,2387.36474609375
-15362.103515625,-17708.9375,-5559.12646484375,-1314.4810791015625,-1025.99462890625,9524.02734375,-5315.939453125,-2398.490966796875,-1281.1025390625,6005.76416015625,-8428.0966796875,-12814.9990234375,-3655.75146484375,5341.37109375,41.32588577270508,-9385.7451171875,-888.506591796875,-166.09828186035156,2719.561279296875,13148.7841796875,2200.603515625,6625.65234375,-1216.7294921875,11995.6328125,-3875.0966796875,-6307.7607421875,-4368.623046875,-4227.9560546875,-8223.8515625,-3055.7314453125,3580.25244140625,2145.76708984375,-379.8802795410156,-757.3763427734375,-2620.22021484375,3767.80810546875,-4154.8408203125,15439.1923828125,-5763.3720703125,-0.0,-7909.93408203125,5351.7021484375,-6003.3798828125,-4702.4091796875,-566.6414794921875,5571.84228515625,-7633.3681640625,905.9906005859375,-6007.353515625,-3413.359375,-1959.006103515625,6639.95751953125,2810.955078125,-21015.802734375,-9118.7158203125,-972.747802734375,1245.3397216796875,-9970.6650390625,-1421.76953125,-3731.250732421875,-15966.0966796875,675.519287109375,-1133.282958984375,1783.3709716796875,-11086.4638671875,-3112.1572265625,0.0,-1679.2615966796875,0.0,-3559.58935546875,-0.0,2389.748779296875
-15371.640625,-17725.626953125,-5568.6630859375,-1337.5281982421875,-1038.710205078125,9515.28515625,-5323.091796875,-2410.411865234375,-1273.949951171875,6002.5849609375,-8440.8125,-12813.4091796875,-3656.54638671875,5377.1337890625,26.226043701171875,-9427.0703125,-893.2749633789062,-175.63502502441406,2710.8193359375,13155.9375,2190.27197265625,6618.5,-1227.0609130859375,11986.0966796875,-3886.222900390625,-6318.88720703125,-4382.92822265625,-4235.9033203125,-8236.5673828125,-3054.14208984375,3572.304931640625,2142.58837890625,-388.6222839355469,-764.5289306640625,-2628.962158203125,3759.861083984375,-4163.58349609375,15428.8603515625,-5757.013671875,-0.0,-7919.470703125,5347.728515625,-6012.12158203125,-4710.3564453125,-569.8204345703125,5558.33203125,-7639.72607421875,882.1487426757812,-6026.4267578125,-3418.92236328125,-1973.3111572265625,6624.857421875,3690.7197265625,-21021.365234375,-9132.2255859375,-945.72705078125,1232.6240234375,-9987.3544921875,-1420.9747314453125,-3748.734619140625,-15969.2763671875,667.572021484375,-1137.256591796875,1801.649658203125,-11096.794921875,-3118.51513671875,0.0,-1682.4404296875,0.0,-3561.9736328125,-0.0,2396.106689453125
-15390.7138671875,-17747.083984375,-5565.484375,-1309.7127685546875,-1039.5050048828125,9514.4912109375,-5322.29736328125,-2404.848876953125,-1261.2342529296875,6014.505859375,-8443.1962890625,-12809.435546875,-3664.49365234375,5389.84912109375,25.43131446838379,-9415.9443359375,-895.6591186523438,-178.81393432617188,2713.998046875,13173.4208984375,2189.477294921875,6616.11572265625,-1227.0609130859375,11986.8916015625,-3888.60693359375,-6330.01318359375,-4385.3125,-4226.36669921875,-8237.3623046875,-3041.426513671875,3572.304931640625,2137.025146484375,-388.6222839355469,-766.1183471679688,-2631.346435546875,3760.65576171875,-4161.19921875,15431.2451171875,-5755.42431640625,-0.0,-7919.470703125,5335.0126953125,-6013.71142578125,-4704.79345703125,-565.8467407226562,5563.89453125,-7638.13623046875,916.3220825195312,-6027.2216796875,-3411.769775390625,-1973.3111572265625,6634.39404296875,4865.328125,-21030.107421875,-9133.021484375,-918.7062377929688,1220.703125,-9973.048828125,-1415.41162109375,-3749.529541015625,-15971.66015625,667.572021484375,-1130.10400390625,1811.981201171875,-11101.5634765625,-3108.18359375,0.0,-1698.3350830078125,0.0,-3569.126220703125,-0.0,2392.927978515625
-15384.3564453125,-17722.44921875,-5556.7421875,-1289.844482421875,-1030.7630615234375,9528.0009765625,-5315.939453125,-2387.36474609375,-1254.87646484375,6035.1689453125,-8431.275390625,-12799.103515625,-3670.056640625,5360.4443359375,24.636587142944336,-9380.9765625,-885.32763671875,-168.4824676513672,2725.124267578125,13186.13671875,2201.398193359375,6625.65234375,-1218.3189697265625,11998.8125,-3879.864990234375,-6331.6025390625,-4374.18603515625,-4201.73046875,-8227.0302734375,-3011.2265625,3581.841796875,2148.946044921875,-376.70135498046875,-756.5816040039062,-2621.014892578125,3771.781982421875,-4153.25146484375,15447.1396484375,-5744.29833984375,-0.0,-7912.318359375,5338.98681640625,-6005.76416015625,-4689.693359375,-561.8731079101562,5581.37890625,-7633.3681640625,940.1639404296875,-6013.71142578125,-3390.312255859375,-1974.1058349609375,6658.23583984375,5431.97021484375,-21005.47265625,-9125.0732421875,-896.453857421875,1230.2398681640625,-9961.9228515625,-1431.3062744140625,-3740.78759765625,-15952.5869140625,678.6982421875,-1118.9779052734375,1803.2392578125,-11094.4111328125,-3087.5205078125,0.0,-1701.513916015625,0.0,-3574.689208984375,-0.0,2393.72265625
-15371.640625,-17686.685546875,-5562.3056640625,-1296.2022705078125,-1039.5050048828125,9514.4912109375,-5325.47607421875,-2404.053955078125,-1277.1287841796875,6020.86376953125,-8426.5068359375,-12805.4619140625,-3666.877685546875,5313.55517578125,10.33147144317627,-9419.91796875,-890.0960083007812,-174.04556274414062,2715.587646484375,13166.2685546875,2195.04052734375,6616.91064453125,-1225.471435546875,11987.6865234375,-3884.63330078125,-6347.49755859375,-4384.517578125,-4235.10888671875,-8231.798828125,-3015.9951171875,3577.0732421875,2149.740966796875,-382.26446533203125,-760.5552978515625,-2626.578125,3763.039794921875,-4165.17236328125,15434.4248046875,-5754.62939453125,-0.0,-7917.880859375,5328.6552734375,-6015.30078125,-4707.97216796875,-575.3834838867188,5570.2529296875,-7630.98388671875,931.4219360351562,-6021.658203125,-3408.591064453125,-1988.410888671875,6630.4208984375,5168.1201171875,-20999.11328125,-9130.63671875,-891.6854858398438,1229.445068359375,-9979.4072265625,-1450.3797607421875,-3727.277099609375,-15954.17578125,670.7509155273438,-1130.10400390625,1769.06591796875,-11092.0263671875,-3115.336181640625,0.0,-1654.625,0.0,-3556.41064453125,-0.0,2391.33837890625
-15362.103515625,-17719.26953125,-5567.07373046875,-1309.7127685546875,-1048.2469482421875,9508.1328125,-5342.16552734375,-2418.359130859375,-1316.8653564453125,5982.716796875,-8424.91796875,-12803.078125,-3659.72509765625,5274.61376953125,-2.384185791015625,-9430.2490234375,-895.6591186523438,-184.3770294189453,2700.48779296875,13116.2001953125,2187.887939453125,6611.34716796875,-1237.3924560546875,11977.35546875,-3888.60693359375,-6341.93408203125,-4394.84912109375,-4242.26123046875,-8230.208984375,-3032.684326171875,3569.9208984375,2146.561767578125,-389.4170227050781,-766.9130859375,-2636.11474609375,3754.2978515625,-4181.06689453125,15419.32421875,-5758.603515625,-0.0,-7923.44384765625,5327.06591796875,-6025.63232421875,-4718.3037109375,-600.0200805664062,5547.20556640625,-7627.80517578125,918.7062377929688,-6030.40087890625,-3415.74365234375,-2001.92138671875,6615.32080078125,4638.0361328125,-21004.677734375,-9128.2529296875,-904.401123046875,1220.703125,-9989.73828125,-1477.400390625,-3740.78759765625,-15958.150390625,657.2405395507812,-1157.9195556640625,1718.2032470703125,-11085.669921875,-3124.078125,0.0,-1652.24072265625,0.0,-3554.0263671875,-0.0,2369.0859375
-15370.0517578125,-17664.431640625,-5575.81591796875,-1316.070556640625,-1060.962646484375,9495.41796875,-5359.6494140625,-2428.690673828125,-1349.44921875,5951.72265625,-8434.455078125,-12812.6142578125,-3670.8515625,5267.46142578125,-18.278757095336914,-9430.2490234375,-903.6064453125,-197.0926971435547,2685.387939453125,13077.2587890625,2178.35107421875,6597.8369140625,-1250.108154296875,11967.0224609375,-3894.96484375,-6358.62353515625,-4413.1279296875,-4247.82421875,-8234.18359375,-3045.39990234375,3561.178955078125,2137.820068359375,-397.3642883300781,-778.8340454101562,-2646.4462890625,3739.197998046875,-4196.9619140625,15407.4033203125,-5760.19287109375,-0.0,-7931.3916015625,5313.55517578125,-6039.9375,-4728.63525390625,-623.0671997070312,5533.6953125,-7630.189453125,912.3484497070312,-6045.50048828125,-3438.79052734375,-2018.6107177734375,6608.962890625,3851.254638671875,-21011.033203125,-9129.841796875,-942.548095703125,1203.2191162109375,-9984.9697265625,-1505.2159423828125,-3763.834716796875,-15966.892578125,641.345947265625,-1179.377197265625,1715.8189697265625,-11087.2587890625,-3128.0517578125,0.0,-1676.0826416015625,0.0,-3565.15234375,-0.0,2354.781005859375
-15377.998046875,-17650.126953125,-5571.04736328125,-1312.8916015625,-1056.1943359375,9503.3642578125,-5352.4970703125,-2414.385498046875,-1335.14404296875,5942.98046875,-8440.017578125,-12814.9990234375,-3666.877685546875,5290.50830078125,-8.74201488494873,-9379.38671875,-902.0169677734375,-192.32432556152344,2690.951171875,13089.1796875,2182.32470703125,6603.39990234375,-1245.3397216796875,11974.17578125,-3890.196533203125,-6345.90771484375,-4409.94873046875,-4232.724609375,-8234.18359375,-3042.22119140625,3563.56298828125,2136.23046875,-394.1853942871094,-774.065673828125,-2644.06201171875,3744.76123046875,-4191.3984375,15415.3505859375,-5764.16650390625,-0.0,-7927.41796875,5319.91357421875,-6036.75830078125,-4718.3037109375,-613.5304565429688,5544.02685546875,-7634.1630859375,915.52734375,-6044.7060546875,-3431.637939453125,-2010.663330078125,6631.21533203125,2727.508544921875,-21002.29296875,-9129.0478515625,-946.521728515625,1212.755859375,-9968.28125,-1488.5267333984375,-3759.06640625,-15969.2763671875,646.9090576171875,-1170.63525390625,1741.2503662109375,-11092.0263671875,-3120.899169921875,0.0,-1690.3876953125,0.0,-3591.37841796875,-0.0,2350.80712890625
-15381.1767578125,-17702.580078125,-5555.94775390625,-1312.8916015625,-1040.2998046875,9512.9013671875,-5336.6025390625,-2410.411865234375,-1312.8916015625,5971.59033203125,-8443.9912109375,-12811.0244140625,-3633.4990234375,5308.787109375,17.48402976989746,-9423.8916015625,-893.2749633789062,-179.60865783691406,2703.666748046875,13116.2001953125,2195.835205078125,6615.32080078125,-1231.03466796875,11983.7119140625,-3869.533447265625,-6333.1923828125,-4388.4912109375,-4234.31396484375,-8221.466796875,-3031.8896484375,3577.8681640625,2141.79345703125,-383.0591735839844,-764.5289306640625,-2630.551513671875,3755.092529296875,-4174.70947265625,15424.8876953125,-5765.75634765625,-0.0,-7911.52294921875,5331.83447265625,-6019.2744140625,-4711.94580078125,-595.251708984375,5552.7685546875,-7630.189453125,916.3220825195312,-6024.83740234375,-3418.92236328125,-1981.2584228515625,6627.24169921875,1825.4915771484375,-21006.265625,-9117.9208984375,-937.7797241210938,1251.697509765625,-9977.8173828125,-1466.2742919921875,-3739.197998046875,-15973.2490234375,659.624755859375,-1154.74072265625,1757.939697265625,-11084.080078125,-3107.388671875,0.0,-1648.26708984375,0.0,-3557.999755859375,-0.0,2373.8544921875
-15364.4873046875,-17731.984375,-5559.12646484375,-1306.5338134765625,-1034.736572265625,9516.875,-5331.83447265625,-2412.7958984375,-1316.070556640625,5988.27978515625,-8449.5546875,-12810.23046875,-3622.372802734375,5294.48193359375,37.35224533081055,-9419.1240234375,-886.1223754882812,-174.8402862548828,2706.845458984375,13116.2001953125,2199.808837890625,6622.47314453125,-1223.882080078125,11987.6865234375,-3861.58642578125,-6313.32421875,-4378.16015625,-4231.134765625,-8217.494140625,-3012.816162109375,3585.020751953125,2152.919677734375,-378.2908020019531,-757.3763427734375,-2624.19384765625,3761.450439453125,-4168.3515625,15428.06640625,-5751.451171875,-0.0,-7907.5498046875,5336.6025390625,-6013.71142578125,-4709.56201171875,-592.8675537109375,5551.17919921875,-7637.341796875,922.679931640625,-6023.248046875,-3414.94873046875,-1961.3902587890625,6623.26806640625,2182.32470703125,-21005.47265625,-9113.15234375,-923.474609375,1266.002685546875,-9948.4130859375,-1464.684814453125,-3750.32421875,-15956.560546875,666.7772827148438,-1150.7669677734375,1746.018798828125,-11074.54296875,-3087.5205078125,0.0,-1638.7303466796875,0.0,-3542.900146484375,-0.0,2368.291259765625
-15387.53515625,-17735.162109375,-5567.86865234375,-1312.8916015625,-1043.4786376953125,9504.9541015625,-5338.98681640625,-2415.18017578125,-1316.8653564453125,5972.38525390625,-8452.7333984375,-12812.6142578125,-3662.109375,5296.0712890625,24.636587142944336,-9401.638671875,-894.8643798828125,-185.96649169921875,2702.0771484375,13110.6376953125,2191.066650390625,6608.962890625,-1232.6240234375,11978.943359375,-3871.917724609375,-6347.49755859375,-4387.69677734375,-4233.51904296875,-8239.74609375,-3027.121337890625,3572.304931640625,2147.356689453125,-386.23809814453125,-767.7078247070312,-2635.320068359375,3750.32421875,-4177.09375,15420.119140625,-5752.24560546875,-0.0,-7918.67529296875,5320.7080078125,-6021.658203125,-4718.3037109375,-595.251708984375,5546.4111328125,-7650.85205078125,915.52734375,-6033.57958984375,-3430.048583984375,-1973.3111572265625,6627.24169921875,3151.8935546875,-21024.544921875,-9136.2001953125,-938.574462890625,1239.776611328125,-9940.46484375,-1455.1480712890625,-3766.218994140625,-15953.3828125,658.8300170898438,-1155.535400390625,1755.5555419921875,-11092.0263671875,-3102.620361328125,0.0,-1671.314208984375,0.0,-3567.53662109375,-0.0,2377.827880859375
-15430.4501953125,-17741.521484375,-5567.07373046875,-1308.91796875,-1049.041748046875,9507.3388671875,-5343.75537109375,-2408.822265625,-1311.30224609375,5959.66943359375,-8443.9912109375,-12820.5615234375,-3672.440673828125,5320.7080078125,4.76837158203125,-9389.7177734375,-897.2485961914062,-189.14540100097656,2700.48779296875,13116.99609375,2187.093017578125,6605.7841796875,-1237.3924560546875,11977.35546875,-3890.9912109375,-6354.64990234375,-4398.02783203125,-4224.77734375,-8234.9775390625,-3052.552490234375,3569.126220703125,2145.76708984375,-387.0328369140625,-767.7078247070312,-2638.4990234375,3748.734619140625,-4182.65673828125,15421.7080078125,-5738.7353515625,-0.0,-7925.03369140625,5323.88671875,-6028.0166015625,-4713.53515625,-597.6359252929688,5551.17919921875,-7640.5205078125,920.2957153320312,-6035.1689453125,-3434.022216796875,-1993.1793212890625,6638.3681640625,3662.109375,-21048.38671875,-9130.63671875,-932.2166748046875,1213.550537109375,-9954.7705078125,-1465.4794921875,-3771.781982421875,-15946.2294921875,657.2405395507812,-1155.535400390625,1765.886962890625,-11098.384765625,-3113.74658203125,0.0,-1715.8189697265625,0.0,-3596.941650390625,-0.0,2378.622802734375
-15463.0341796875,-17782.845703125,-5565.484375,-1297.7918701171875,-1046.6575927734375,9509.72265625,-5340.576171875,-2403.25927734375,-1308.123291015625,5975.564453125,-8428.0966796875,-12823.7412109375,-3661.314697265625,5331.83447265625,10.33147144317627,-9399.2548828125,-894.0697021484375,-189.14540100097656,2701.282470703125,13124.1484375,2187.093017578125,6607.37353515625,-1234.2135009765625,11980.533203125,-3897.34912109375,-6342.72900390625,-4392.46533203125,-4223.18798828125,-8219.8779296875,-3064.473388671875,3569.126220703125,2149.740966796875,-386.23809814453125,-764.5289306640625,-2632.935791015625,3750.32421875,-4179.4775390625,15424.8876953125,-5716.482421875,-0.0,-7923.44384765625,5331.83447265625,-6024.83740234375,-4709.56201171875,-595.251708984375,5560.71630859375,-7623.8310546875,929.0377197265625,-6028.0166015625,-3428.459228515625,-1986.8214111328125,6642.341796875,3122.48876953125,-21052.361328125,-9115.537109375,-915.52734375,1222.2926025390625,-9976.2275390625,-1463.0953369140625,-3767.80810546875,-15955.7666015625,662.8036499023438,-1149.9722900390625,1769.06591796875,-11089.642578125,-3120.899169921875,0.0,-1691.1824951171875,0.0,-3590.583740234375,-0.0,2365.906982421875
-15427.271484375,-17731.189453125,-5559.12646484375,-1288.255126953125,-1040.2998046875,9511.3115234375,-5339.78125,-2408.822265625,-1312.8916015625,5967.6171875,-8422.5341796875,-12814.9990234375,-3666.877685546875,5321.5029296875,12.715657234191895,-9419.1240234375,-894.8643798828125,-189.14540100097656,2700.48779296875,13114.611328125,2190.27197265625,6608.16796875,-1233.4188232421875,11979.7392578125,-3886.222900390625,-6349.8818359375,-4387.69677734375,-4231.134765625,-8222.2626953125,-3057.32080078125,3569.9208984375,2144.177734375,-386.23809814453125,-766.9130859375,-2631.346435546875,3748.734619140625,-4179.4775390625,15421.7080078125,-5736.35107421875,-0.0,-7917.880859375,5331.03955078125,-6020.0693359375,-4712.740234375,-596.8411865234375,5559.12646484375,-7613.5,940.1639404296875,-6021.658203125,-3409.3857421875,-1986.0267333984375,6628.83154296875,2417.564453125,-21034.875,-9119.5107421875,-925.8588256835938,1223.0872802734375,-9991.328125,-1460.711181640625,-3759.06640625,-15979.6083984375,662.8036499023438,-1154.74072265625,1763.502685546875,-11085.669921875,-3109.77294921875,0.0,-1682.4404296875,0.0,-3581.841796875,-0.0,2357.1650390625
-15366.0771484375,-17597.67578125,-5562.3056640625,-1285.076171875,-1034.736572265625,9525.6162109375,-5335.8076171875,-2404.053955078125,-1320.044189453125,5931.0595703125,-8425.712890625,-12807.0517578125,-3660.519775390625,5297.66064453125,26.226043701171875,-9372.234375,-894.8643798828125,-181.9928436279297,2701.282470703125,13098.716796875,2194.24560546875,6616.11572265625,-1229.445068359375,11985.3017578125,-3879.0703125,-6323.65576171875,-4379.74951171875,-4204.90869140625,-8227.0302734375,-3051.7578125,3575.484130859375,2144.177734375,-386.23809814453125,-762.1447143554688,-2628.962158203125,3757.476806640625,-4173.91455078125,15427.271484375,-5766.55078125,-0.0,-7913.11279296875,5345.3447265625,-6013.71142578125,-4700.02490234375,-594.4569702148438,5547.20556640625,-7623.8310546875,940.9586791992188,-6019.2744140625,-3395.08056640625,-1972.516357421875,6643.13671875,1947.0850830078125,-21035.671875,-9122.689453125,-969.5689086914062,1236.59765625,-9992.123046875,-1444.0218505859375,-3784.49755859375,-15974.83984375,665.9825439453125,-1159.509033203125,1760.3238525390625,-11084.080078125,-3096.2626953125,0.0,-1707.0770263671875,0.0,-3594.5576171875,-0.0,2370.67529296875
-15385.9453125,-17589.7265625,-5577.4052734375,-1300.176025390625,-1053.015380859375,9520.0537109375,-5350.90771484375,-2407.23291015625,-1326.402099609375,5926.291015625,-8459.8857421875,-12814.9990234375,-3674.824951171875,5304.0185546875,-3.9736428260803223,-9369.0556640625,-910.7589721679688,-195.50323486328125,2689.361572265625,13093.154296875,2176.76171875,6602.60546875,-1243.750244140625,11976.5595703125,-3891.785888671875,-6306.17138671875,-4404.38623046875,-4204.1142578125,-8242.9248046875,-3066.06298828125,3560.384033203125,2124.3095703125,-402.1326599121094,-778.039306640625,-2644.06201171875,3746.3505859375,-4189.80908203125,15418.529296875,-5772.11376953125,-0.0,-7927.41796875,5342.96044921875,-6033.57958984375,-4703.20361328125,-609.5568237304688,5540.052734375,-7649.2626953125,925.8588256835938,-6036.75830078125,-3404.6171875,-2001.92138671875,6648.69921875,1688.0035400390625,-21087.328125,-9137.7900390625,-985.4635009765625,1208.7822265625,-9976.2275390625,-1479.78466796875,-3810.7236328125,-15996.2978515625,651.6774291992188,-1169.8404541015625,1758.734375,-11100.76953125,-3119.3095703125,0.0,-1729.3294677734375,0.0,-3612.836181640625,-0.0,2373.0595703125
-15415.3505859375,-17662.84375,-5579.78955078125,-1343.885986328125,-1064.1416015625,9483.4970703125,-5363.623046875,-2453.3271484375,-1327.19677734375,5960.46435546875,-8467.0380859375,-12834.8662109375,-3669.261962890625,5320.7080078125,-11.126200675964355,-9472.3701171875,-928.2429809570312,-215.37144470214844,2675.056396484375,13099.5107421875,2166.43017578125,6582.73681640625,-1258.85009765625,11948.7451171875,-3893.37548828125,-6332.3974609375,-4413.9228515625,-4271.666015625,-8241.3359375,-3079.573486328125,3543.69482421875,2109.209716796875,-415.64306640625,-796.3180541992188,-2657.572509765625,3720.12451171875,-4201.73046875,15389.125,-5776.08740234375,-0.0,-7937.7490234375,5316.734375,-6043.1162109375,-4746.119140625,-618.298828125,5513.0322265625,-7645.2890625,879.7645263671875,-6048.67919921875,-3446.738037109375,-2011.4581298828125,6578.763671875,1389.185546875,-21108.78515625,-9136.994140625,-964.0057983398438,1212.755859375,-10014.375,-1490.910888671875,-3782.908203125,-15997.88671875,631.0145263671875,-1179.377197265625,1777.01318359375,-11102.3583984375,-3143.151611328125,0.0,-1665.7510986328125,0.0,-3552.436767578125,-0.0,2400.080322265625
-15378.79296875,-17659.6640625,-5567.86865234375,-1335.9388427734375,-1047.4522705078125,9481.1123046875,-5350.11279296875,-2443.79052734375,-1315.2757568359375,5974.76953125,-8436.8388671875,-12811.8203125,-3652.57275390625,5319.91357421875,11.126200675964355,-9450.1181640625,-916.3220825195312,-202.65579223632812,2685.387939453125,13111.431640625,2180.7353515625,6587.50537109375,-1246.92919921875,11954.3076171875,-3872.71240234375,-6366.57080078125,-4395.6435546875,-4275.64013671875,-8221.466796875,-3050.963134765625,3554.821044921875,2128.283203125,-400.543212890625,-787.5760498046875,-2644.06201171875,3724.892822265625,-4188.2197265625,15397.8662109375,-5745.8876953125,-0.0,-7920.26513671875,5307.19775390625,-6027.2216796875,-4746.119140625,-603.198974609375,5528.1318359375,-7625.4208984375,890.0960083007812,-6029.60595703125,-3450.71142578125,-1987.6163330078125,6585.12109375,2100.4677734375,-21061.896484375,-9116.33203125,-926.653564453125,1235.802978515625,-9996.0966796875,-1470.2479248046875,-3751.118896484375,-15972.4560546875,644.52490234375,-1165.8668212890625,1781.781494140625,-11084.8740234375,-3123.283447265625,0.0,-1646.6776123046875,0.0,-3538.92626953125,-0.0,2399.28564453125
-15385.9453125,-17681.91796875,-5562.3056640625,-1308.91796875,-1052.220703125,9477.138671875,-5354.08642578125,-2439.02197265625,-1318.4547119140625,5961.25927734375,-8440.017578125,-12816.5888671875,-3657.341064453125,5305.6083984375,9.5367431640625,-9438.9912109375,-917.1168212890625,-205.83470153808594,2681.414306640625,13107.458984375,2175.172119140625,6582.73681640625,-1252.4923095703125,11953.5126953125,-3883.838623046875,-6376.10791015625,-4399.61767578125,-4260.5400390625,-8224.646484375,-3061.29443359375,3550.847412109375,2124.3095703125,-401.33795166015625,-789.960205078125,-2648.03564453125,3721.714111328125,-4194.57763671875,15398.6611328125,-5773.703125,-0.0,-7925.03369140625,5298.45556640625,-6035.1689453125,-4742.1455078125,-607.9674072265625,5529.7216796875,-7634.9580078125,921.8851928710938,-6038.34765625,-3463.42724609375,-1988.410888671875,6597.8369140625,4294.71337890625,-21045.20703125,-9118.7158203125,-917.1168212890625,1232.6240234375,-9966.69140625,-1468.658447265625,-3756.68212890625,-15974.83984375,641.345947265625,-1169.8404541015625,1761.913330078125,-11096.794921875,-3116.925537109375,0.0,-1664.9564208984375,0.0,-3572.304931640625,-0.0,2376.238525390625
-15359.7197265625,-17658.869140625,-5583.76318359375,-1340.7071533203125,-1066.5257568359375,9471.576171875,-5369.1865234375,-2446.96923828125,-1325.6072998046875,5958.875,-8443.9912109375,-12822.1513671875,-3694.693359375,5300.83984375,-31.789142608642578,-9462.0390625,-925.0640869140625,-216.1661834716797,2671.082763671875,13098.716796875,2162.45654296875,6575.58447265625,-1264.4132080078125,11944.7705078125,-3904.501708984375,-6380.8759765625,-4422.66455078125,-4269.28173828125,-8243.7197265625,-3066.857666015625,3543.69482421875,2120.3359375,-412.4641418457031,-799.4969482421875,-2659.956787109375,3716.15087890625,-4208.087890625,15391.5087890625,-5768.14013671875,-0.0,-7941.72265625,5290.50830078125,-6052.65283203125,-4747.708984375,-620.6830444335938,5525.74755859375,-7665.9521484375,886.9171142578125,-6051.8583984375,-3449.1220703125,-2030.5316162109375,6586.71044921875,7009.50634765625,-21004.677734375,-9137.7900390625,-931.4219360351562,1179.377197265625,-9968.28125,-1482.963623046875,-3755.092529296875,-15967.6875,630.2197875976562,-1180.1719970703125,1747.608154296875,-11107.921875,-3124.078125,0.0,-1656.21435546875,0.0,-3565.947265625,-0.0,2369.0859375
-15361.30859375,-17681.12109375,-5598.86328125,-1365.34375,-1073.6783447265625,9459.6552734375,-5375.5439453125,-2453.3271484375,-1327.19677734375,5958.875,-8444.7861328125,-12830.0986328125,-3702.640625,5304.8134765625,-42.91534423828125,-9444.5546875,-933.8060913085938,-223.31874084472656,2665.519775390625,13097.921875,2154.50927734375,6563.66357421875,-1270.77099609375,11936.0283203125,-3914.8330078125,-6401.5390625,-4432.201171875,-4278.81884765625,-8256.435546875,-3057.32080078125,3534.952880859375,2112.388671875,-422.7956237792969,-809.8284301757812,-2667.90380859375,3707.408935546875,-4214.44580078125,15385.9453125,-5779.2666015625,-0.0,-7955.2333984375,5273.02392578125,-6059.0107421875,-4758.8349609375,-624.6566772460938,5519.39013671875,-7664.3623046875,864.6647338867188,-6059.0107421875,-3465.0166015625,-2040.863037109375,6585.12109375,8521.8740234375,-20991.16796875,-9149.7109375,-952.8795776367188,1165.8668212890625,-9965.896484375,-1491.70556640625,-3762.2451171875,-15966.892578125,626.2461547851562,-1184.9403076171875,1750.787109375,-11107.126953125,-3127.257080078125,0.0,-1660.9827880859375,0.0,-3564.357666015625,-0.0,2373.0595703125
-15397.8662109375,-17839.2734375,-5606.015625,-1362.164794921875,-1076.0625,9462.0390625,-5372.365234375,-2450.94287109375,-1325.6072998046875,5958.080078125,-8449.5546875,-12826.919921875,-3684.36181640625,5305.6083984375,-30.19968605041504,-9436.607421875,-936.9849853515625,-224.11346435546875,2665.519775390625,13097.921875,2152.919677734375,6564.45849609375,-1270.77099609375,11936.0283203125,-3918.01220703125,-6394.38623046875,-4425.84375,-4273.255859375,-8255.640625,-3052.552490234375,3532.568603515625,2105.236083984375,-425.1798095703125,-809.8284301757812,-2670.2880859375,3709.79296875,-4211.26708984375,15385.1513671875,-5779.2666015625,-0.0,-7956.02783203125,5275.408203125,-6055.83203125,-4754.861328125,-620.6830444335938,5519.39013671875,-7665.9521484375,867.8436279296875,-6060.60009765625,-3460.248291015625,-2029.73681640625,6589.0947265625,8052.9853515625,-21017.392578125,-9148.9150390625,-940.1639404296875,1194.47705078125,-9978.6123046875,-1485.3477783203125,-3770.1923828125,-15989.1455078125,626.2461547851562,-1183.3509521484375,1749.1976318359375,-11108.7158203125,-3128.0517578125,0.0,-1662.572265625,0.0,-3572.304931640625,-0.0,2371.47021484375
-15395.482421875,-17753.443359375,-5602.04150390625,-1355.8070068359375,-1069.7047119140625,9473.1650390625,-5365.212890625,-2441.40625,-1317.6600341796875,5972.38525390625,-8447.169921875,-12812.6142578125,-3677.209228515625,5306.40283203125,-17.48402976989746,-9431.044921875,-931.4219360351562,-217.75563049316406,2672.67236328125,13110.6376953125,2159.277587890625,6570.81591796875,-1263.618408203125,11944.7705078125,-3909.269775390625,-6381.67041015625,-4418.69091796875,-4262.12939453125,-8247.693359375,-3038.247314453125,3540.515869140625,2112.388671875,-421.2061462402344,-805.8547973632812,-2663.93017578125,3717.740234375,-4202.52490234375,15394.6875,-5780.85546875,-0.0,-7947.28564453125,5281.7666015625,-6049.47412109375,-4747.708984375,-614.3251953125,5528.9267578125,-7664.3623046875,870.227783203125,-6051.8583984375,-3453.095703125,-2017.021240234375,6601.015625,7103.2841796875,-21007.060546875,-9143.3525390625,-917.9114990234375,1208.7822265625,-9961.9228515625,-1476.605712890625,-3760.65576171875,-15994.70703125,631.0145263671875,-1174.60888671875,1751.581787109375,-11101.5634765625,-3116.130859375,0.0,-1649.8565673828125,0.0,-3555.61572265625,-0.0,2384.185791015625
-15389.125,-17619.1328125,-5595.68408203125,-1350.243896484375,-1060.962646484375,9482.701171875,-5354.08642578125,-2423.92236328125,-1315.2757568359375,5980.3330078125,-8438.427734375,-12799.8994140625,-3665.288330078125,5300.83984375,3.9736428260803223,-9396.87109375,-921.8851928710938,-206.6294403076172,2683.003662109375,13114.611328125,2169.609130859375,6579.55810546875,-1254.87646484375,11956.69140625,-3899.7333984375,-6380.8759765625,-4405.1806640625,-4239.87744140625,-8232.59375,-3027.916015625,3549.258056640625,2123.514892578125,-412.4641418457031,-797.11279296875,-2652.80419921875,3725.687744140625,-4192.193359375,15405.814453125,-5764.16650390625,-0.0,-7938.54443359375,5288.1240234375,-6036.75830078125,-4734.1982421875,-603.9937133789062,5540.84765625,-7658.7998046875,878.1751098632812,-6040.73193359375,-3440.380126953125,-1997.153076171875,6620.0888671875,6477.0380859375,-20990.37109375,-9127.4580078125,-909.1694946289062,1219.1136474609375,-9938.0810546875,-1461.505859375,-3755.092529296875,-15987.5546875,642.1406860351562,-1165.0721435546875,1743.634521484375,-11084.8740234375,-3100.236083984375,0.0,-1640.31982421875,0.0,-3559.58935546875,-0.0,2365.1123046875
-15401.83984375,-17654.896484375,-5576.6103515625,-1343.09130859375,-1054.6048583984375,9489.853515625,-5351.7021484375,-2420.7431640625,-1316.070556640625,5977.94873046875,-8434.455078125,-12796.7197265625,-3664.49365234375,5292.09765625,7.152557373046875,-9378.5927734375,-919.5009765625,-202.65579223632812,2685.387939453125,13112.2275390625,2173.582763671875,6585.916015625,-1250.90283203125,11962.2548828125,-3895.759521484375,-6369.74951171875,-4400.412109375,-4229.54541015625,-8228.619140625,-3027.916015625,3552.436767578125,2120.3359375,-406.9010314941406,-793.933837890625,-2650.419921875,3730.4560546875,-4190.603515625,15408.1982421875,-5779.2666015625,-0.0,-7932.98046875,5296.86572265625,-6032.78515625,-4727.04541015625,-601.6095581054688,5545.6162109375,-7650.05712890625,886.1223754882812,-6033.57958984375,-3432.432861328125,-1993.1793212890625,6627.24169921875,5772.90869140625,-20998.3203125,-9122.689453125,-919.5009765625,1218.3189697265625,-9932.517578125,-1455.9427490234375,-3749.529541015625,-16000.2705078125,643.7301635742188,-1164.2774658203125,1741.2503662109375,-11084.080078125,-3089.110107421875,0.0,-1629.98828125,0.0,-3571.51025390625,-0.0,2347.62841796875
-15397.8662109375,-17762.18359375,-5585.3525390625,-1352.6280517578125,-1060.962646484375,9485.0859375,-5359.6494140625,-2429.4853515625,-1314.4810791015625,5977.15380859375,-8442.40234375,-12816.5888671875,-3683.567138671875,5304.8134765625,-12.715657234191895,-9418.328125,-925.0640869140625,-208.21888732910156,2679.0302734375,13115.40625,2166.43017578125,6579.55810546875,-1257.2606201171875,11955.8974609375,-3901.322509765625,-6360.212890625,-4409.154296875,-4242.26123046875,-8238.15625,-3052.552490234375,3546.873779296875,2110.799072265625,-414.0535888671875,-798.7022705078125,-2655.188232421875,3727.277099609375,-4196.1669921875,15403.4296875,-5790.392578125,-0.0,-7937.7490234375,5300.83984375,-6039.9375,-4733.40380859375,-607.1726684570312,5539.25830078125,-7648.4677734375,875.7908935546875,-6037.55322265625,-3437.995849609375,-2009.86865234375,6610.55224609375,5642.57275390625,-21027.72265625,-9135.4052734375,-933.8060913085938,1204.0137939453125,-9950.001953125,-1478.1951904296875,-3750.32421875,-16005.0390625,638.9617919921875,-1168.2509765625,1752.3765869140625,-11094.4111328125,-3101.031005859375,0.0,-1628.39892578125,0.0,-3564.357666015625,-0.0,2340.475830078125
-15395.482421875,-17837.68359375,-5578.19970703125,-1351.03857421875,-1054.6048583984375,9489.853515625,-5352.4970703125,-2426.306396484375,-1309.7127685546875,5971.59033203125,-8449.5546875,-12825.330078125,-3673.235595703125,5311.1708984375,-2.384185791015625,-9423.0966796875,-918.7062377929688,-203.4505157470703,2685.387939453125,13116.99609375,2173.582763671875,6585.916015625,-1250.108154296875,11959.076171875,-3891.785888671875,-6341.93408203125,-4400.412109375,-4243.8505859375,-8235.7724609375,-3066.857666015625,3551.64208984375,2120.3359375,-407.6957702636719,-788.3707885742188,-2648.03564453125,3734.4296875,-4189.0146484375,15406.6083984375,-5791.1875,-0.0,-7930.59619140625,5312.7607421875,-6032.78515625,-4731.01953125,-602.404296875,5540.052734375,-7642.1103515625,877.38037109375,-6029.60595703125,-3453.095703125,-2001.1265869140625,6609.7578125,6989.6376953125,-21043.619140625,-9133.021484375,-935.3955688476562,1219.1136474609375,-9917.4189453125,-1470.2479248046875,-3763.039794921875,-15993.1181640625,646.1143798828125,-1162.6878662109375,1753.1712646484375,-11095.2060546875,-3104.2099609375,0.0,-1647.472412109375,0.0,-3581.841796875,-0.0,2339.680908203125
-15393.8935546875,-17705.759765625,-5575.81591796875,-1334.3492431640625,-1049.041748046875,9488.2646484375,-5345.3447265625,-2423.92236328125,-1307.32861328125,5963.6435546875,-8451.14453125,-12814.2041015625,-3663.698974609375,5314.35009765625,7.9472856521606445,-9410.380859375,-913.1431884765625,-198.68214416503906,2690.15625,13115.40625,2177.556396484375,6589.8896484375,-1245.3397216796875,11962.2548828125,-3887.017578125,-6353.06005859375,-4393.259765625,-4241.46630859375,-8234.9775390625,-3062.089111328125,3557.205078125,2131.462158203125,-402.1326599121094,-785.986572265625,-2646.4462890625,3736.813720703125,-4184.24609375,15407.4033203125,-5772.90869140625,-0.0,-7927.41796875,5307.99267578125,-6027.2216796875,-4727.84033203125,-597.6359252929688,5538.46337890625,-7659.59423828125,894.0697021484375,-6026.4267578125,-3441.1748046875,-1991.58984375,6612.14208984375,9063.0849609375,-21042.82421875,-9131.431640625,-936.1903076171875,1227.855712890625,-9901.5234375,-1468.658447265625,-3768.60302734375,-15981.197265625,649.2932739257812,-1157.9195556640625,1753.1712646484375,-11092.822265625,-3099.44140625,0.0,-1662.572265625,0.0,-3581.047119140625,-0.0,2357.959716796875
-15385.1513671875,-17626.28515625,-5590.91552734375,-1331.965087890625,-1062.5521240234375,9478.728515625,-5354.88134765625,-2431.074951171875,-1312.096923828125,5961.25927734375,-8454.3232421875,-12822.9453125,-3680.38818359375,5311.1708984375,-8.74201488494873,-9403.228515625,-923.474609375,-207.42416381835938,2680.619384765625,13109.8427734375,2164.8408203125,6579.55810546875,-1252.4923095703125,11955.1015625,-3902.912109375,-6378.49169921875,-4410.74365234375,-4249.4140625,-8242.9248046875,-3065.268310546875,3547.66845703125,2121.92529296875,-412.4641418457031,-797.11279296875,-2657.572509765625,3727.277099609375,-4193.78271484375,15401.0458984375,-5780.06103515625,-0.0,-7939.3388671875,5293.6875,-6039.9375,-4734.9931640625,-604.7884521484375,5531.31103515625,-7674.69384765625,897.2485961914062,-6047.08984375,-3442.76416015625,-2007.484375,6607.37353515625,10465.78125,-21038.0546875,-9136.994140625,-956.0584716796875,1209.576904296875,-9899.93359375,-1475.0162353515625,-3767.80810546875,-15989.9384765625,642.1406860351562,-1165.0721435546875,1749.992431640625,-11099.974609375,-3114.541259765625,0.0,-1675.287841796875,0.0,-3577.8681640625,-0.0,2362.72802734375
-15370.0517578125,-17598.470703125,-5592.5048828125,-1336.7335205078125,-1062.5521240234375,9481.9072265625,-5353.2919921875,-2429.4853515625,-1308.123291015625,5965.23291015625,-8447.96484375,-12827.7138671875,-3670.056640625,5313.55517578125,-1.5894571542739868,-9418.328125,-927.4482421875,-205.83470153808594,2684.59326171875,13113.021484375,2164.8408203125,6577.96875,-1250.90283203125,11955.8974609375,-3904.501708984375,-6378.49169921875,-4408.359375,-4247.82421875,-8242.9248046875,-3051.7578125,3546.873779296875,2118.74658203125,-414.0535888671875,-800.2916870117188,-2656.777587890625,3727.277099609375,-4191.3984375,15404.224609375,-5776.08740234375,-0.0,-7940.92822265625,5291.30322265625,-6039.9375,-4734.9931640625,-602.404296875,5535.28466796875,-7655.62060546875,893.2749633789062,-6049.47412109375,-3438.79052734375,-2001.1265869140625,6607.37353515625,10859.171875,-21028.51953125,-9135.4052734375,-945.72705078125,1211.1663818359375,-9928.5439453125,-1467.8636474609375,-3763.039794921875,-15993.9140625,643.7301635742188,-1164.2774658203125,1751.581787109375,-11099.974609375,-3124.078125,0.0,-1676.0826416015625,0.0,-3573.89453125,-0.0,2362.72802734375
-15377.998046875,-17615.16015625,-5583.76318359375,-1338.322998046875,-1049.041748046875,9484.291015625,-5340.576171875,-2424.717041015625,-1299.3812255859375,5977.94873046875,-8435.2490234375,-12824.53515625,-3650.983154296875,5310.37646484375,23.84185791015625,-9423.8916015625,-922.679931640625,-197.0926971435547,2694.924560546875,13125.7373046875,2173.582763671875,6585.12109375,-1242.1607666015625,11962.2548828125,-3888.60693359375,-6373.7236328125,-4392.46533203125,-4251.79833984375,-8233.3876953125,-3049.37353515625,3554.821044921875,2118.74658203125,-406.9010314941406,-795.5233154296875,-2648.03564453125,3733.635009765625,-4181.06689453125,15413.7607421875,-5769.7294921875,-0.0,-7931.3916015625,5293.6875,-6027.2216796875,-4731.81396484375,-591.278076171875,5545.6162109375,-7640.5205078125,890.8907470703125,-6034.3740234375,-3436.406494140625,-1975.6953125,6612.14208984375,10890.9609375,-21026.134765625,-9127.4580078125,-942.548095703125,1232.6240234375,-9947.6171875,-1457.5322265625,-3754.2978515625,-15981.9931640625,653.2669067382812,-1153.151123046875,1765.886962890625,-11088.84765625,-3119.3095703125,0.0,-1657.0091552734375,0.0,-3559.58935546875,-0.0,2376.238525390625
-15413.7607421875,-17653.306640625,-5577.4052734375,-1335.9388427734375,-1044.2734375,9486.6748046875,-5337.39697265625,-2411.20654296875,-1297.7918701171875,5976.35888671875,-8434.455078125,-12833.27734375,-3650.1884765625,5312.7607421875,28.6102294921875,-9411.17578125,-920.2957153320312,-192.32432556152344,2698.8984375,13134.4794921875,2178.35107421875,6586.71044921875,-1236.59765625,11967.0224609375,-3879.0703125,-6372.1337890625,-4386.90185546875,-4244.6455078125,-8224.646484375,-3055.7314453125,3559.58935546875,2120.3359375,-402.9273986816406,-793.13916015625,-2641.677734375,3736.01904296875,-4175.50439453125,15420.119140625,-5762.5771484375,-0.0,-7924.2392578125,5295.27685546875,-6023.248046875,-4727.04541015625,-585.7149658203125,5558.33203125,-7642.90478515625,892.480224609375,-6024.04248046875,-3446.738037109375,-1972.516357421875,6624.06298828125,10702.6103515625,-21038.8515625,-9117.9208984375,-951.2901611328125,1242.1607666015625,-9935.6962890625,-1453.55859375,-3749.529541015625,-15987.5546875,658.8300170898438,-1145.9986572265625,1779.3973388671875,-11092.0263671875,-3128.0517578125,0.0,-1676.8773193359375,0.0,-3569.9208984375,-0.0,2387.36474609375
-15420.9140625,-17720.857421875,-5584.55810546875,-1333.5545654296875,-1052.220703125,9495.41796875,-5343.75537109375,-2406.438232421875,-1300.970703125,5958.080078125,-8455.1171875,-12855.529296875,-3663.698974609375,5318.32373046875,10.33147144317627,-9423.8916015625,-922.679931640625,-196.29795837402344,2694.924560546875,13129.7109375,2173.582763671875,6586.71044921875,-1242.95556640625,11967.818359375,-3892.580810546875,-6358.62353515625,-4394.05419921875,-4235.10888671875,-8232.59375,-3075.599609375,3556.41064453125,2114.772705078125,-406.1063232421875,-794.7285766601562,-2647.240966796875,3738.4033203125,-4181.06689453125,15420.119140625,-5765.75634765625,-0.0,-7929.8017578125,5303.22412109375,-6031.1953125,-4718.3037109375,-592.8675537109375,5559.12646484375,-7652.44140625,894.0697021484375,-6034.3740234375,-3424.4853515625,-1989.20556640625,6630.4208984375,10093.8486328125,-21063.486328125,-9127.4580078125,-953.67431640625,1223.882080078125,-10024.70703125,-1456.737548828125,-3756.68212890625,-15997.88671875,657.2405395507812,-1149.9722900390625,1777.01318359375,-11102.3583984375,-3152.688232421875,0.0,-1729.3294677734375,0.0,-3602.504638671875,-0.0,2375.443603515625
-15407.4033203125,-17770.1328125,-5580.583984375,-1342.296630859375,-1056.1943359375,9492.23828125,-5347.728515625,-2425.51171875,-1302.5601806640625,5965.23291015625,-8470.2177734375,-12857.119140625,-3658.1357421875,5315.939453125,6.357828617095947,-9439.7861328125,-920.2957153320312,-200.2716064453125,2689.361572265625,13124.1484375,2172.787841796875,6585.12109375,-1246.1343994140625,11961.4599609375,-3890.9912109375,-6355.4443359375,-4399.61767578125,-4251.00341796875,-8234.18359375,-3090.699462890625,3554.0263671875,2113.183349609375,-408.4905090332031,-794.7285766601562,-2648.830322265625,3734.4296875,-4185.041015625,15408.9931640625,-5784.03466796875,-0.0,-7929.00732421875,5309.58154296875,-6034.3740234375,-4727.84033203125,-596.0464477539062,5544.02685546875,-7649.2626953125,882.9434814453125,-6036.75830078125,-3425.2802734375,-1991.58984375,6609.7578125,9471.576171875,-21096.865234375,-9129.841796875,-968.774169921875,1223.882080078125,-10050.9326171875,-1456.737548828125,-3779.729248046875,-15999.4755859375,651.6774291992188,-1157.9195556640625,1773.834228515625,-11094.4111328125,-3165.404052734375,0.0,-1745.2239990234375,0.0,-3608.862548828125,-0.0,2379.41748046875
-15443.166015625,-17820.994140625,-5592.5048828125,-1358.98583984375,-1073.6783447265625,9466.01171875,-5369.9814453125,-2457.30078125,-1320.044189453125,5964.43798828125,-8488.49609375,-12867.451171875,-3674.824951171875,5310.37646484375,-18.278757095336914,-9431.044921875,-938.574462890625,-219.3450927734375,2667.90380859375,13106.6640625,2154.50927734375,6565.2529296875,-1265.2078857421875,11937.6181640625,-3906.091064453125,-6377.69677734375,-4425.048828125,-4283.5869140625,-8246.1044921875,-3113.74658203125,3536.542236328125,2094.10986328125,-425.9745178222656,-808.239013671875,-2667.90380859375,3715.356201171875,-4207.29296875,15382.7666015625,-5807.08154296875,-0.0,-7948.0810546875,5296.0712890625,-6056.626953125,-4758.0400390625,-615.1199340820312,5515.41650390625,-7654.03125,864.6647338867188,-6059.0107421875,-3468.195556640625,-2018.6107177734375,6579.55810546875,10069.2109375,-21135.01171875,-9142.5576171875,-1000.5632934570312,1204.80859375,-10016.7587890625,-1476.605712890625,-3813.107666015625,-16024.1123046875,629.425048828125,-1177.787841796875,1759.529052734375,-11115.07421875,-3177.324951171875,0.0,-1771.4500732421875,0.0,-3614.42578125,-0.0,2372.264892578125
-15478.9287109375,-17842.451171875,-5575.021484375,-1348.6544189453125,-1057.78369140625,9477.138671875,-5355.67626953125,-2438.227294921875,-1310.5074462890625,5977.94873046875,-8474.1904296875,-12856.32421875,-3673.235595703125,5318.32373046875,0.7947285771369934,-9428.66015625,-926.653564453125,-205.03997802734375,2682.208984375,13116.2001953125,2167.224853515625,6577.96875,-1251.697509765625,11949.5390625,-3893.37548828125,-6371.33935546875,-4406.77001953125,-4268.4873046875,-8234.18359375,-3101.82568359375,3549.258056640625,2110.00439453125,-410.87469482421875,-797.11279296875,-2655.188232421875,3727.277099609375,-4192.98779296875,15399.4560546875,-5760.19287109375,-0.0,-7933.77587890625,5297.66064453125,-6041.52685546875,-4747.708984375,-600.0200805664062,5532.10595703125,-7634.1630859375,876.5856323242188,-6047.08984375,-3472.169189453125,-1997.94775390625,6599.42626953125,11440.9130859375,-21108.78515625,-9129.841796875,-980.6951293945312,1212.755859375,-10010.4013671875,-1455.9427490234375,-3792.44482421875,-16013.7802734375,643.7301635742188,-1164.2774658203125,1764.2974853515625,-11115.07421875,-3160.6357421875,0.0,-1732.50830078125,0.0,-3600.915283203125,-0.0,2374.64892578125
-15475.75,-17755.03125,-5551.17919921875,-1362.164794921875,-1035.5313720703125,9488.2646484375,-5331.03955078125,-2422.332763671875,-1283.4866943359375,6004.1748046875,-8468.6279296875,-12843.6083984375,-3635.88330078125,5346.93408203125,38.14697265625,-9462.0390625,-908.374755859375,-186.76121520996094,2704.46142578125,13146.400390625,2187.887939453125,6593.068359375,-1231.03466796875,11967.0224609375,-3866.354736328125,-6360.212890625,-4382.92822265625,-4262.12939453125,-8216.6982421875,-3078.778564453125,3567.53662109375,2133.051513671875,-389.4170227050781,-784.3970947265625,-2635.320068359375,3743.171630859375,-4169.14599609375,15420.119140625,-5733.171875,-0.0,-7909.93408203125,5309.58154296875,-6015.30078125,-4733.40380859375,-572.9993286132812,5558.33203125,-7613.5,860.6910400390625,-6026.4267578125,-3462.63232421875,-1960.5953369140625,6601.810546875,12156.1689453125,-21072.228515625,-9113.15234375,-958.4426879882812,1245.3397216796875,-9982.5859375,-1417.7957763671875,-3737.608642578125,-15991.529296875,665.1878662109375,-1137.256591796875,1790.5235595703125,-11092.0263671875,-3139.177978515625,0.0,-1681.645751953125,0.0,-3548.463134765625,-0.0,2400.080322265625
-15401.83984375,-17679.533203125,-5551.17919921875,-1330.375732421875,-1032.3524169921875,9489.0595703125,-5325.47607421875,-2412.00146484375,-1271.5657958984375,6004.1748046875,-8459.0908203125,-12835.662109375,-3645.420166015625,5358.060546875,39.73643112182617,-9444.5546875,-905.1958618164062,-184.3770294189453,2709.229736328125,13157.52734375,2191.861328125,6595.45263671875,-1227.855712890625,11971.791015625,-3863.175537109375,-6376.10791015625,-4380.5439453125,-4256.56640625,-8227.0302734375,-3068.447021484375,3570.715576171875,2138.61474609375,-388.6222839355469,-782.012939453125,-2632.935791015625,3743.171630859375,-4164.3779296875,15425.681640625,-5738.7353515625,-0.0,-7906.75439453125,5301.63427734375,-6012.12158203125,-4725.4560546875,-566.6414794921875,5568.6630859375,-7613.5,901.2222290039062,-6024.04248046875,-3443.558837890625,-1959.80078125,6613.7314453125,11599.8583984375,-21070.638671875,-9123.484375,-943.3428344726562,1242.95556640625,-9977.8173828125,-1420.9747314453125,-3728.86669921875,-15970.072265625,667.572021484375,-1130.10400390625,1794.4971923828125,-11085.669921875,-3126.462158203125,0.0,-1676.8773193359375,0.0,-3551.64208984375,-0.0,2394.51708984375
-15354.15625,-17700.1953125,-5559.12646484375,-1298.5865478515625,-1038.710205078125,9495.41796875,-5331.03955078125,-2408.027587890625,-1273.1552734375,5997.02197265625,-8432.865234375,-12831.6875,-3671.64599609375,5357.265625,23.047128677368164,-9428.66015625,-901.2222290039062,-184.3770294189453,2706.05078125,13152.7587890625,2191.066650390625,6600.22119140625,-1229.445068359375,11974.17578125,-3877.480712890625,-6367.365234375,-4384.517578125,-4245.43994140625,-8235.7724609375,-3060.5,3571.51025390625,2140.998779296875,-389.4170227050781,-774.8603515625,-2634.525390625,3746.3505859375,-4166.76171875,15427.271484375,-5758.603515625,-0.0,-7916.291015625,5310.37646484375,-6015.30078125,-4719.89306640625,-572.20458984375,5567.86865234375,-7638.13623046875,929.8324584960938,-6024.83740234375,-3434.022216796875,-1977.28466796875,6620.0888671875,10520.6171875,-21073.0234375,-9131.431640625,-942.548095703125,1231.03466796875,-9992.9169921875,-1436.0745849609375,-3736.813720703125,-15951.7919921875,668.3667602539062,-1134.07763671875,1788.139404296875,-11089.642578125,-3130.43603515625,0.0,-1689.593017578125,0.0,-3563.56298828125,-0.0,2390.543701171875
-15335.0830078125,-17741.521484375,-5563.10009765625,-1304.149658203125,-1032.3524169921875,9508.927734375,-5325.47607421875,-2398.490966796875,-1281.897216796875,5990.6640625,-8405.0498046875,-12811.8203125,-3654.162109375,5336.6025390625,44.50480270385742,-9415.1494140625,-895.6591186523438,-174.8402862548828,2710.8193359375,13142.4267578125,2199.013916015625,6610.55224609375,-1220.703125,11983.7119140625,-3871.917724609375,-6345.11328125,-4373.3916015625,-4228.75048828125,-8224.646484375,-3040.631591796875,3579.45751953125,2152.125,-385.443359375,-768.5025634765625,-2626.578125,3756.68212890625,-4161.19921875,15434.4248046875,-5750.65625,-0.0,-7911.52294921875,5323.091796875,-6007.353515625,-4707.97216796875,-572.20458984375,5571.04736328125,-7647.67333984375,925.0640869140625,-6017.68505859375,-3416.538330078125,-1958.211181640625,6628.03662109375,9309.451171875,-21051.564453125,-9119.5107421875,-934.600830078125,1249.3133544921875,-9984.17578125,-1440.0482177734375,-3737.608642578125,-15949.4072265625,675.519287109375,-1135.667236328125,1779.3973388671875,-11072.953125,-3118.51513671875,0.0,-1710.2559814453125,0.0,-3580.25244140625,-0.0,2384.185791015625
-15351.7724609375,-17627.080078125,-5563.89453125,-1311.30224609375,-1024.4051513671875,9516.875,-5315.14501953125,-2392.133056640625,-1291.4339599609375,5983.51123046875,-8399.486328125,-12801.48828125,-3623.167724609375,5314.35009765625,79.47286224365234,-9394.486328125,-896.453857421875,-167.68772888183594,2715.587646484375,13136.86328125,2201.398193359375,6612.14208984375,-1214.3453369140625,11990.865234375,-3864.76513671875,-6336.37109375,-4353.5234375,-4219.2138671875,-8215.109375,-3025.53173828125,3583.43115234375,2149.740966796875,-382.26446533203125,-769.2973022460938,-2619.425537109375,3761.450439453125,-4152.45654296875,15439.9873046875,-5740.32470703125,-0.0,-7908.34423828125,5323.88671875,-5997.02197265625,-4701.6142578125,-566.6414794921875,5571.84228515625,-7632.57373046875,919.5009765625,-6005.76416015625,-3410.97509765625,-1923.2431640625,6639.16259765625,8222.2626953125,-21007.060546875,-9111.5634765625,-921.8851928710938,1282.69189453125,-9973.048828125,-1421.76953125,-3731.250732421875,-15995.5029296875,681.0823974609375,-1134.8724365234375,1778.6025390625,-11066.595703125,-3111.362548828125,0.0,-1701.513916015625,0.0,-3575.484130859375,-0.0,2384.98046875
-15383.5615234375,-17589.7265625,-5573.431640625,-1335.9388427734375,-1038.710205078125,9497.8017578125,-5331.83447265625,-2415.18017578125,-1296.9970703125,5993.84326171875,-8420.1494140625,-12815.79296875,-3647.80419921875,5323.88671875,46.88898849487305,-9407.9970703125,-912.3484497070312,-185.17176818847656,2698.8984375,13132.095703125,2185.503662109375,6596.2470703125,-1231.03466796875,11974.970703125,-3875.0966796875,-6362.59716796875,-4372.5966796875,-4235.9033203125,-8230.208984375,-3039.8369140625,3566.741943359375,2126.69384765625,-396.569580078125,-789.16552734375,-2635.320068359375,3744.76123046875,-4169.14599609375,15422.50390625,-5757.80859375,-0.0,-7921.0595703125,5304.0185546875,-6013.71142578125,-4718.3037109375,-582.5360717773438,5551.9736328125,-7634.9580078125,894.0697021484375,-6019.2744140625,-3428.459228515625,-1952.648193359375,6616.91064453125,7150.96826171875,-20991.9609375,-9125.0732421875,-941.75341796875,1262.029052734375,-9992.9169921875,-1448.7901611328125,-3759.861083984375,-16017.755859375,664.3931274414062,-1148.3828125,1774.6290283203125,-11081.6953125,-3127.257080078125,0.0,-1691.1824951171875,0.0,-3566.741943359375,-0.0,2386.570068359375
-15403.4296875,-17656.484375,-5577.4052734375,-1340.7071533203125,-1053.015380859375,9496.2119140625,-5347.728515625,-2418.359130859375,-1296.9970703125,5986.6904296875,-8433.6591796875,-12826.919921875,-3676.41455078125,5338.19189453125,0.0,-9418.328125,-917.9114990234375,-191.5295867919922,2691.745849609375,13128.9169921875,2176.76171875,6592.27392578125,-1242.1607666015625,11967.818359375,-3890.9912109375,-6342.72900390625,-4400.412109375,-4237.4931640625,-8243.7197265625,-3061.29443359375,3561.178955078125,2114.772705078125,-407.6957702636719,-796.3180541992188,-2645.651611328125,3739.197998046875,-4183.451171875,15414.5556640625,-5772.11376953125,-0.0,-7930.59619140625,5307.19775390625,-6031.1953125,-4722.27734375,-593.6622314453125,5550.384765625,-7644.49462890625,889.30126953125,-6035.1689453125,-3433.2275390625,-1999.5372314453125,6615.32080078125,6783.80322265625,-21001.498046875,-9136.994140625,-955.2637939453125,1213.550537109375,-10011.1962890625,-1475.0162353515625,-3786.881591796875,-16005.0390625,658.0352783203125,-1155.535400390625,1767.4764404296875,-11095.2060546875,-3127.257080078125,0.0,-1703.1033935546875,0.0,-3582.636474609375,-0.0,2373.8544921875
-15413.7607421875,-17689.86328125,-5588.53125,-1327.991455078125,-1055.3995361328125,9505.7490234375,-5347.728515625,-2404.053955078125,-1302.5601806640625,5971.59033203125,-8432.0703125,-12836.4560546875,-3674.824951171875,5317.529296875,-17.48402976989746,-9387.333984375,-914.7326049804688,-187.5559539794922,2695.719482421875,13122.55859375,2175.967041015625,6599.42626953125,-1238.9818115234375,11973.380859375,-3902.117431640625,-6317.29736328125,-4405.1806640625,-4232.724609375,-8242.9248046875,-3085.136474609375,3565.15234375,2121.130615234375,-406.1063232421875,-786.7813110351562,-2644.06201171875,3747.93994140625,-4183.451171875,15423.2978515625,-5768.14013671875,-0.0,-7936.16015625,5327.06591796875,-6032.78515625,-4715.91943359375,-596.0464477539062,5562.3056640625,-7658.7998046875,898.8380126953125,-6042.32177734375,-3429.25390625,-2017.021240234375,6636.7783203125,7683.43603515625,-21017.392578125,-9136.994140625,-953.67431640625,1186.52978515625,-9965.896484375,-1471.0426025390625,-3768.60302734375,-16001.859375,663.598388671875,-1154.74072265625,1763.502685546875,-11094.4111328125,-3130.43603515625,0.0,-1694.361328125,0.0,-3593.7626953125,-0.0,2369.0859375
-15431.2451171875,-17664.431640625,-5575.81591796875,-1339.11767578125,-1049.8365478515625,9489.853515625,-5342.96044921875,-2411.20654296875,-1312.8916015625,5979.5380859375,-8420.9443359375,-12827.7138671875,-3670.056640625,5301.63427734375,-7.152557373046875,-9403.228515625,-909.9642333984375,-185.17176818847656,2695.719482421875,13120.1748046875,2182.32470703125,6597.0419921875,-1235.00830078125,11969.4072265625,-3895.759521484375,-6374.51806640625,-4403.59130859375,-4247.02978515625,-8232.59375,-3078.778564453125,3569.126220703125,2128.283203125,-398.9537658691406,-784.3970947265625,-2640.08837890625,3745.555908203125,-4184.24609375,15420.119140625,-5742.70849609375,-0.0,-7929.8017578125,5307.19775390625,-6029.60595703125,-4724.6611328125,-596.8411865234375,5555.94775390625,-7642.90478515625,887.7118530273438,-6039.9375,-3446.738037109375,-2007.484375,6622.47314453125,9236.3359375,-21026.9296875,-9129.0478515625,-947.3164672851562,1191.298095703125,-9932.517578125,-1460.711181640625,-3743.96630859375,-15988.349609375,664.3931274414062,-1155.535400390625,1774.6290283203125,-11084.8740234375,-3126.462158203125,0.0,-1662.572265625,0.0,-3567.53662109375,-0.0,2384.185791015625
-15462.2392578125,-17646.947265625,-5577.4052734375,-1341.5018310546875,-1051.4259033203125,9483.4970703125,-5346.1396484375,-2433.458984375,-1319.24951171875,5984.30615234375,-8426.5068359375,-12820.5615234375,-3670.8515625,5271.4345703125,1.5894571542739868,-9454.0908203125,-911.5537109375,-188.35067749023438,2690.15625,13111.431640625,2179.9404296875,6593.068359375,-1238.1871337890625,11963.8447265625,-3894.96484375,-6381.67041015625,-4400.412109375,-4259.7451171875,-8238.9521484375,-3054.936767578125,3566.741943359375,2129.87255859375,-402.1326599121094,-787.5760498046875,-2642.472412109375,3738.4033203125,-4185.83544921875,15408.1982421875,-5751.451171875,-0.0,-7931.3916015625,5300.044921875,-6029.60595703125,-4734.9931640625,-594.4569702148438,5539.25830078125,-7640.5205078125,886.9171142578125,-6039.9375,-3453.890625,-1997.94775390625,6591.47900390625,9950.796875,-21028.51953125,-9133.8154296875,-933.0113525390625,1201.629638671875,-9971.458984375,-1433.6904296875,-3755.092529296875,-15978.017578125,658.8300170898438,-1164.2774658203125,1769.06591796875,-11087.2587890625,-3127.257080078125,0.0,-1652.24072265625,0.0,-3540.515869140625,-0.0,2393.72265625
-15401.83984375,-17664.431640625,-5585.3525390625,-1327.19677734375,-1059.373291015625,9491.443359375,-5352.4970703125,-2427.895751953125,-1310.5074462890625,5989.07470703125,-8440.8125,-12813.4091796875,-3685.156494140625,5303.22412109375,-27.815500259399414,-9420.712890625,-911.5537109375,-189.9401397705078,2686.977294921875,13120.1748046875,2174.37744140625,6594.65771484375,-1242.95556640625,11967.0224609375,-3901.322509765625,-6372.9287109375,-4413.9228515625,-4243.0556640625,-8250.0771484375,-3039.042236328125,3564.357666015625,2130.66748046875,-405.31158447265625,-786.7813110351562,-2647.240966796875,3739.992919921875,-4189.80908203125,15412.1708984375,-5757.013671875,-0.0,-7939.3388671875,5307.19775390625,-6035.96337890625,-4727.04541015625,-601.6095581054688,5546.4111328125,-7650.85205078125,902.0169677734375,-6047.88427734375,-3441.1748046875,-2026.557861328125,6602.60546875,8993.943359375,-21037.259765625,-9144.146484375,-925.8588256835938,1190.50341796875,-9976.2275390625,-1485.3477783203125,-3743.96630859375,-15968.4814453125,658.0352783203125,-1163.482666015625,1779.3973388671875,-11099.1796875,-3119.3095703125,0.0,-1672.1090087890625,0.0,-3546.078857421875,-0.0,2394.51708984375
-15372.435546875,-17723.2421875,-5566.27880859375,-1312.8916015625,-1049.041748046875,9497.8017578125,-5344.5498046875,-2419.948486328125,-1310.5074462890625,5987.4853515625,-8438.427734375,-12807.0517578125,-3677.209228515625,5311.1708984375,-11.920928955078125,-9402.4345703125,-905.9906005859375,-182.78758239746094,2694.1298828125,13121.7646484375,2182.32470703125,6602.60546875,-1235.00830078125,11972.5869140625,-3886.222900390625,-6366.57080078125,-4402.001953125,-4241.46630859375,-8238.15625,-3035.86328125,3572.304931640625,2137.820068359375,-398.1590270996094,-779.6287841796875,-2639.293701171875,3745.555908203125,-4181.86181640625,15419.32421875,-5769.7294921875,-0.0,-7925.828125,5313.55517578125,-6026.4267578125,-4721.48291015625,-594.4569702148438,5548.79541015625,-7627.80517578125,916.3220825195312,-6037.55322265625,-3430.048583984375,-2011.4581298828125,6614.5263671875,7492.701171875,-21047.591796875,-9132.2255859375,-926.653564453125,1206.39794921875,-9978.6123046875,-1482.963623046875,-3747.1455078125,-15974.044921875,662.8036499023438,-1156.330078125,1776.2183837890625,-11093.6162109375,-3116.130859375,0.0,-1664.9564208984375,0.0,-3559.58935546875,-0.0,2386.570068359375
-15395.482421875,-17788.41015625,-5554.35791015625,-1307.32861328125,-1041.094482421875,9503.3642578125,-5337.39697265625,-2416.769775390625,-1308.123291015625,5985.8955078125,-8438.427734375,-12802.283203125,-3664.49365234375,5304.8134765625,7.9472856521606445,-9428.66015625,-898.0433349609375,-178.0192108154297,2701.282470703125,13121.7646484375,2191.066650390625,6608.16796875,-1229.445068359375,11978.1494140625,-3875.891357421875,-6351.470703125,-4391.67041015625,-4239.87744140625,-8230.208984375,-3032.684326171875,3577.0732421875,2141.79345703125,-390.21173095703125,-771.6814575195312,-2632.935791015625,3751.913818359375,-4174.70947265625,15420.9140625,-5776.08740234375,-0.0,-7915.4970703125,5323.091796875,-6016.89013671875,-4716.71435546875,-589.6885986328125,5550.384765625,-7627.80517578125,921.8851928710938,-6026.4267578125,-3418.127685546875,-1990.795166015625,6613.7314453125,6572.4052734375,-21044.412109375,-9123.484375,-912.3484497070312,1222.2926025390625,-9972.2548828125,-1464.684814453125,-3747.1455078125,-15987.5546875,667.572021484375,-1151.561767578125,1769.06591796875,-11088.84765625,-3116.925537109375,0.0,-1664.9564208984375,0.0,-3561.9736328125,-0.0,2379.41748046875
-15401.83984375,-17775.693359375,-5563.10009765625,-1318.4547119140625,-1044.2734375,9501.7744140625,-5340.576171875,-2413.590576171875,-1310.5074462890625,5974.76953125,-8451.9384765625,-12814.9990234375,-3660.519775390625,5305.6083984375,11.126200675964355,-9421.5078125,-902.0169677734375,-182.78758239746094,2698.103759765625,13121.7646484375,2187.887939453125,6604.98974609375,-1233.4188232421875,11977.35546875,-3875.891357421875,-6348.2919921875,-4391.67041015625,-4238.28759765625,-8237.3623046875,-3039.8369140625,3572.304931640625,2139.409423828125,-392.5959167480469,-775.6550903320312,-2636.909423828125,3748.734619140625,-4177.88818359375,15421.7080078125,-5762.5771484375,-0.0,-7921.0595703125,5320.7080078125,-6023.248046875,-4717.5087890625,-592.8675537109375,5555.15283203125,-7643.69970703125,910.7589721679688,-6030.40087890625,-3427.66455078125,-1987.6163330078125,6617.705078125,5675.95166015625,-21041.234375,-9133.8154296875,-917.9114990234375,1228.650390625,-9977.8173828125,-1469.4532470703125,-3737.608642578125,-15998.681640625,662.8036499023438,-1154.74072265625,1762.7080078125,-11090.4375,-3123.283447265625,0.0,-1669.724853515625,0.0,-3572.304931640625,-0.0,2369.880615234375
-15401.0458984375,-17654.896484375,-5570.2529296875,-1332.7598876953125,-1048.2469482421875,9493.828125,-5346.1396484375,-2423.92236328125,-1312.8916015625,5962.8486328125,-8451.14453125,-12829.3037109375,-3660.519775390625,5306.40283203125,1.5894571542739868,-9426.2763671875,-905.9906005859375,-189.14540100097656,2691.745849609375,13124.1484375,2183.11962890625,6599.42626953125,-1237.3924560546875,11970.9970703125,-3875.891357421875,-6365.77587890625,-4396.4384765625,-4248.619140625,-8238.9521484375,-3050.963134765625,3566.741943359375,2135.435791015625,-398.9537658691406,-781.2182006835938,-2640.88330078125,3742.376953125,-4181.06689453125,15414.5556640625,-5764.16650390625,-0.0,-7925.828125,5311.1708984375,-6027.2216796875,-4726.2509765625,-597.6359252929688,5543.23193359375,-7639.72607421875,894.8643798828125,-6035.1689453125,-3445.1484375,-1996.358154296875,6609.7578125,5435.14892578125,-21046.00390625,-9135.4052734375,-940.9586791992188,1224.6767578125,-9980.99609375,-1464.684814453125,-3740.78759765625,-15994.70703125,659.624755859375,-1158.71435546875,1764.2974853515625,-11089.642578125,-3122.48876953125,0.0,-1672.1090087890625,0.0,-3571.51025390625,-0.0,2368.291259765625
-15411.376953125,-17612.775390625,-5578.19970703125,-1335.9388427734375,-1052.220703125,9493.828125,-5346.1396484375,-2428.690673828125,-1310.5074462890625,5980.3330078125,-8443.9912109375,-12838.0458984375,-3665.288330078125,5310.37646484375,2.384185791015625,-9422.302734375,-909.1694946289062,-189.9401397705078,2689.361572265625,13119.3798828125,2179.145751953125,6597.0419921875,-1238.9818115234375,11970.2021484375,-3894.96484375,-6361.0078125,-4396.4384765625,-4247.82421875,-8233.3876953125,-3050.963134765625,3564.357666015625,2133.051513671875,-402.1326599121094,-783.6024169921875,-2644.06201171875,3742.376953125,-4182.65673828125,15411.376953125,-5763.3720703125,-0.0,-7932.18603515625,5309.58154296875,-6028.0166015625,-4725.4560546875,-598.4306640625,5539.25830078125,-7644.49462890625,892.480224609375,-6035.1689453125,-3445.1484375,-1996.358154296875,6603.39990234375,6549.3583984375,-21042.82421875,-9127.4580078125,-949.70068359375,1219.1136474609375,-9951.591796875,-1462.3006591796875,-3759.06640625,-15985.9658203125,658.0352783203125,-1162.6878662109375,1769.860595703125,-11089.642578125,-3115.336181640625,0.0,-1666.5458984375,0.0,-3561.9736328125,-0.0,2379.41748046875
-15410.5830078125,-17643.76953125,-5585.3525390625,-1326.402099609375,-1053.015380859375,9494.6220703125,-5345.3447265625,-2428.690673828125,-1311.30224609375,5982.716796875,-8440.017578125,-12832.482421875,-3669.261962890625,5306.40283203125,11.920928955078125,-9419.1240234375,-913.1431884765625,-191.5295867919922,2688.56689453125,13113.021484375,2176.76171875,6595.45263671875,-1239.776611328125,11967.0224609375,-3904.501708984375,-6353.06005859375,-4394.05419921875,-4245.43994140625,-8233.3876953125,-3058.910400390625,3561.178955078125,2126.69384765625,-404.516845703125,-787.5760498046875,-2645.651611328125,3742.376953125,-4182.65673828125,15410.5830078125,-5760.19287109375,-0.0,-7936.95458984375,5309.58154296875,-6028.0166015625,-4725.4560546875,-597.6359252929688,5538.46337890625,-7654.03125,901.2222290039062,-6034.3740234375,-3437.201171875,-1987.6163330078125,6606.57861328125,8256.435546875,-21049.181640625,-9128.2529296875,-941.75341796875,1223.882080078125,-9958.744140625,-1462.3006591796875,-3776.55029296875,-15997.88671875,658.8300170898438,-1163.482666015625,1765.886962890625,-11092.822265625,-3123.283447265625,0.0,-1672.1090087890625,0.0,-3573.099853515625,-0.0,2374.64892578125
-15370.845703125,-17659.6640625,-5584.55810546875,-1320.8388671875,-1050.6312255859375,9500.185546875,-5342.16552734375,-2418.359130859375,-1308.123291015625,5974.76953125,-8433.6591796875,-12816.5888671875,-3668.46728515625,5311.1708984375,9.5367431640625,-9411.970703125,-911.5537109375,-185.96649169921875,2690.15625,13119.3798828125,2178.35107421875,6600.22119140625,-1239.776611328125,11970.9970703125,-3899.7333984375,-6346.70263671875,-4393.259765625,-4237.4931640625,-8234.18359375,-3062.884033203125,3565.947265625,2131.462158203125,-398.9537658691406,-785.986572265625,-2644.856689453125,3747.93994140625,-4180.2724609375,15416.1455078125,-5760.98779296875,-0.0,-7933.77587890625,5315.14501953125,-6027.2216796875,-4717.5087890625,-596.8411865234375,5544.02685546875,-7651.64697265625,906.7853393554688,-6032.78515625,-3426.074951171875,-1990.00048828125,6619.29443359375,9368.2607421875,-21057.923828125,-9129.0478515625,-932.2166748046875,1224.6767578125,-9962.7177734375,-1471.0426025390625,-3786.881591796875,-15997.0908203125,659.624755859375,-1160.3037109375,1769.06591796875,-11091.232421875,-3120.899169921875,0.0,-1685.619384765625,0.0,-3584.225830078125,-0.0,2367.49658203125
-15357.3349609375,-17655.69140625,-5582.96826171875,-1323.22314453125,-1049.8365478515625,9501.7744140625,-5344.5498046875,-2422.332763671875,-1303.3548583984375,5985.8955078125,-8431.275390625,-12820.5615234375,-3666.0830078125,5323.091796875,3.1789143085479736,-9411.17578125,-910.7589721679688,-185.96649169921875,2689.361572265625,13128.12109375,2178.35107421875,6600.22119140625,-1240.5714111328125,11972.5869140625,-3898.9384765625,-6351.470703125,-4396.4384765625,-4235.10888671875,-8233.3876953125,-3052.552490234375,3567.53662109375,2135.435791015625,-399.74847412109375,-783.6024169921875,-2642.472412109375,3747.1455078125,-4180.2724609375,15416.1455078125,-5772.11376953125,-0.0,-7934.5703125,5313.55517578125,-6028.0166015625,-4718.3037109375,-596.8411865234375,5543.23193359375,-7648.4677734375,903.6064453125,-6034.3740234375,-3430.048583984375,-1994.768798828125,6614.5263671875,9702.046875,-21039.64453125,-9129.841796875,-940.1639404296875,1214.3453369140625,-9969.0751953125,-1467.0689697265625,-3767.013671875,-15985.169921875,659.624755859375,-1157.9195556640625,1779.3973388671875,-11088.84765625,-3118.51513671875,0.0,-1681.645751953125,0.0,-3573.099853515625,-0.0,2373.0595703125
-15360.5146484375,-17665.228515625,-5572.63720703125,-1320.8388671875,-1039.5050048828125,9504.1591796875,-5335.8076171875,-2415.18017578125,-1294.6129150390625,6005.76416015625,-8427.302734375,-12818.97265625,-3656.54638671875,5329.4501953125,18.278757095336914,-9403.228515625,-899.6327514648438,-178.0192108154297,2697.308837890625,13143.2216796875,2191.066650390625,6606.57861328125,-1228.650390625,11978.943359375,-3887.812255859375,-6353.06005859375,-4384.517578125,-4229.54541015625,-8222.2626953125,-3049.37353515625,3575.484130859375,2142.58837890625,-390.21173095703125,-774.8603515625,-2632.935791015625,3755.092529296875,-4172.3251953125,15424.0927734375,-5761.7822265625,-0.0,-7923.44384765625,5319.91357421875,-6018.47998046875,-4711.94580078125,-585.7149658203125,5554.35791015625,-7640.5205078125,906.7853393554688,-6026.4267578125,-3434.022216796875,-1978.874267578125,6619.29443359375,9512.1064453125,-21030.90234375,-9117.126953125,-934.600830078125,1227.855712890625,-9937.2861328125,-1455.9427490234375,-3738.4033203125,-15976.4287109375,667.572021484375,-1146.7933349609375,1788.93408203125,-11080.9013671875,-3105.79931640625,0.0,-1655.419677734375,0.0,-3543.69482421875,-0.0,2391.33837890625
-15385.9453125,-17690.658203125,-5559.92138671875,-1315.2757568359375,-1031.5577392578125,9508.1328125,-5328.6552734375,-2402.464599609375,-1289.0498046875,6016.89013671875,-8421.73828125,-12813.4091796875,-3658.1357421875,5327.8603515625,22.25240135192871,-9385.7451171875,-893.2749633789062,-170.07191467285156,2706.845458984375,13151.1689453125,2199.013916015625,6613.7314453125,-1221.4979248046875,11984.5078125,-3878.275634765625,-6349.8818359375,-4377.365234375,-4221.59814453125,-8216.6982421875,-3046.989501953125,3583.43115234375,2144.97265625,-379.8802795410156,-766.1183471679688,-2626.578125,3759.861083984375,-4165.96728515625,15433.62890625,-5750.65625,-0.0,-7912.318359375,5326.27099609375,-6010.5322265625,-4704.79345703125,-577.7677001953125,5568.6630859375,-7633.3681640625,910.7589721679688,-6017.68505859375,-3430.048583984375,-1975.6953125,6632.009765625,8848.5078125,-21042.029296875,-9113.15234375,-925.0640869140625,1229.445068359375,-9908.67578125,-1437.6640625,-3719.329833984375,-15976.4287109375,674.724609375,-1138.8460693359375,1785.755126953125,-11077.7216796875,-3108.18359375,0.0,-1651.446044921875,0.0,-3540.515869140625,-0.0,2399.28564453125
-15436.013671875,-17699.400390625,-5563.89453125,-1335.14404296875,-1037.120849609375,9510.517578125,-5332.62890625,-2401.669677734375,-1283.4866943359375,6039.142578125,-8428.0966796875,-12817.3828125,-3654.162109375,5329.4501953125,9.5367431640625,-9388.923828125,-898.0433349609375,-174.8402862548828,2704.46142578125,13166.2685546875,2192.65625,6609.7578125,-1227.0609130859375,11983.7119140625,-3881.45458984375,-6345.11328125,-4386.10693359375,-4225.572265625,-8230.208984375,-3050.168212890625,3578.662841796875,2138.61474609375,-384.6486511230469,-770.092041015625,-2632.14111328125,3755.092529296875,-4169.14599609375,15432.8349609375,-5755.42431640625,-0.0,-7919.470703125,5324.681640625,-6016.89013671875,-4707.177734375,-577.7677001953125,5575.81591796875,-7635.75244140625,888.506591796875,-6026.4267578125,-3417.3330078125,-1988.410888671875,6632.009765625,7510.18505859375,-21049.181640625,-9126.6630859375,-928.2429809570312,1223.0872802734375,-9937.2861328125,-1431.3062744140625,-3716.15087890625,-15989.1455078125,668.3667602539062,-1134.07763671875,1795.2918701171875,-11081.6953125,-3122.48876953125,0.0,-1671.314208984375,0.0,-3547.66845703125,-0.0,2413.590576171875
-15426.4765625,-17689.0703125,-5567.86865234375,-1347.06494140625,-1042.6839599609375,9514.4912109375,-5329.4501953125,-2386.570068359375,-1267.592041015625,6067.7529296875,-8436.0439453125,-12816.5888671875,-3650.1884765625,5351.7021484375,8.74201488494873,-9378.5927734375,-897.2485961914062,-174.8402862548828,2710.8193359375,13196.46875,2192.65625,6612.14208984375,-1225.471435546875,11988.48046875,-3887.017578125,-6339.5498046875,-4395.6435546875,-4216.82958984375,-8240.5400390625,-3052.552490234375,3577.8681640625,2140.2041015625,-386.23809814453125,-770.092041015625,-2632.935791015625,3757.476806640625,-4167.556640625,15439.9873046875,-5748.27197265625,-0.0,-7921.85498046875,5328.6552734375,-6019.2744140625,-4700.8193359375,-572.20458984375,5592.5048828125,-7638.13623046875,877.38037109375,-6036.75830078125,-3409.3857421875,-1989.20556640625,6647.10986328125,6113.05224609375,-21041.234375,-9135.4052734375,-929.8324584960938,1222.2926025390625,-9955.5654296875,-1434.485107421875,-3712.17724609375,-15992.3232421875,672.3403930664062,-1122.15673828125,1830.2598876953125,-11084.8740234375,-3116.925537109375,0.0,-1657.0091552734375,0.0,-3534.952880859375,-0.0,2435.04833984375
