-16222.0,-19489.130859375,-5364.41796875,-835.259765625,-371.9329833984375,10771.7509765625,-4794.59765625,-1767.4764404296875,-1111.030517578125,6309.3505859375,-9318.98828125,-12427.9658203125,-5057.65283203125,5401.77001953125,-276.5655517578125,-8795.26171875,-371.13824462890625,371.13824462890625,3205.140380859375,13866.4248046875,2510.547607421875,7493.49609375,-728.76611328125,12649.6953125,-6112.25732421875,-6246.56689453125,-3906.091064453125,-3892.580810546875,-8825.4609375,-3024.737060546875,4404.38623046875,3070.03662109375,175.63502502441406,213.78199768066406,-2119.541259765625,4334.44970703125,-3627.93603515625,16060.6708984375,-5768.14013671875,-0.0,-7089.7734375,6118.61572265625,-5381.107421875,-4408.359375,-13.51038646697998,6151.19921875,-8177.75732421875,1335.14404296875,-5851.5869140625,-2849.896728515625,-2204.5771484375,7250.30908203125,12101.3330078125,-23005.8046875,-9671.84765625,-1000.5632934570312,1263.618408203125,-10211.4677734375,-1386.8013916015625,-3414.94873046875,-16000.2705078125,1221.4979248046875,-585.7149658203125,2020.2000732421875,-10847.2509765625,-2760.092529296875,0.0,-1276.3341064453125,0.0,-3606.478515625,-0.0,1840.5914306640625
-16160.806640625,-19508.203125,-5353.2919921875,-818.5704345703125,-360.8067932128906,10784.466796875,-4785.85595703125,-1757.939697265625,-1105.4674072265625,6311.73486328125,-9299.119140625,-12413.6611328125,-5088.6474609375,5395.41259765625,-256.69732666015625,-8787.314453125,-363.19097900390625,383.0591735839844,3212.29296875,13868.80859375,2519.289794921875,7506.2119140625,-720.0241088867188,12659.232421875,-6097.9521484375,-6212.39306640625,-3894.170166015625,-3875.0966796875,-8806.3876953125,-3031.8896484375,4414.71728515625,3078.778564453125,185.17176818847656,225.7029266357422,-2109.209716796875,4347.16552734375,-3619.194091796875,16068.6171875,-5776.88232421875,-0.0,-7080.23681640625,6136.89404296875,-5369.9814453125,-4396.4384765625,-4.76837158203125,6156.7626953125,-8158.68359375,1349.44921875,-5838.87109375,-2844.333740234375,-2185.503662109375,7262.22998046875,13564.427734375,-23007.392578125,-9654.3623046875,-1003.7421875,1275.5394287109375,-10197.1630859375,-1374.8804931640625,-3407.796142578125,-15993.1181640625,1231.03466796875,-578.5624389648438,2017.021240234375,-10825.79296875,-2750.5556640625,0.0,-1287.4603271484375,0.0,-3608.862548828125,-0.0,1836.6177978515625
-16241.869140625,-19516.150390625,-5350.90771484375,-824.9282836914062,-367.9593505859375,10782.8779296875,-4789.8291015625,-1761.913330078125,-1106.26220703125,6309.3505859375,-9308.6552734375,-12424.7861328125,-5091.826171875,5400.1806640625,-261.4656982421875,-8776.1875,-365.5751647949219,378.2908020019531,3210.70361328125,13868.0146484375,2514.521240234375,7505.4169921875,-723.9977416992188,12656.84765625,-6128.15234375,-6194.11474609375,-3897.34912109375,-3877.480712890625,-8800.82421875,-3052.552490234375,4413.1279296875,3073.215576171875,181.1981201171875,226.49765014648438,-2112.388671875,4345.57568359375,-3623.167724609375,16065.439453125,-5772.90869140625,-0.0,-7087.3896484375,6146.43115234375,-5374.74951171875,-4398.82275390625,-5.563100337982178,6154.37841796875,-8168.220703125,1340.7071533203125,-5842.8447265625,-2862.612548828125,-2191.066650390625,7257.46142578125,14069.875,-23040.771484375,-9646.416015625,-1014.07373046875,1284.2813720703125,-10208.2890625,-1382.032958984375,-3410.180419921875,-16001.06640625,1227.855712890625,-580.9465942382812,2018.6107177734375,-10823.4091796875,-2755.32421875,0.0,-1290.6392822265625,0.0,-3610.451904296875,-0.0,1836.6177978515625
-16270.4794921875,-19539.9921875,-5344.5498046875,-806.6495361328125,-360.0120544433594,10794.798828125,-4782.6767578125,-1751.581787109375,-1099.9044189453125,6315.7080078125,-9313.423828125,-12422.40234375,-5095.0048828125,5415.28076171875,-268.6182556152344,-8786.51953125,-355.2436828613281,386.23809814453125,3221.034912109375,13875.9609375,2524.05810546875,7514.15869140625,-716.0504760742188,12666.384765625,-6116.2314453125,-6189.34619140625,-3898.143798828125,-3877.480712890625,-8799.2353515625,-3046.19482421875,4420.2802734375,3081.95751953125,192.32432556152344,236.82911682128906,-2104.44140625,4352.728515625,-3616.809814453125,16076.564453125,-5753.04052734375,-0.0,-7077.8525390625,6153.58349609375,-5366.80224609375,-4391.67041015625,-0.7947285771369934,6169.47802734375,-8169.81005859375,1362.164794921875,-5828.53955078125,-2822.8759765625,-2201.398193359375,7265.4091796875,13381.640625,-23049.513671875,-9642.44140625,-988.642333984375,1269.976318359375,-10217.0302734375,-1373.291015625,-3392.6962890625,-16003.4501953125,1237.3924560546875,-571.4098510742188,2030.5316162109375,-10810.6923828125,-2755.32421875,0.0,-1270.77099609375,0.0,-3611.246826171875,-0.0,1843.7703857421875
-16270.4794921875,-19520.91796875,-5338.98681640625,-789.960205078125,-356.8331298828125,10789.2353515625,-4777.908203125,-1758.734375,-1095.135986328125,6325.2451171875,-9300.708984375,-12414.455078125,-5095.0048828125,5416.0751953125,-255.90261840820312,-8827.0498046875,-352.06475830078125,386.23809814453125,3222.62451171875,13881.5244140625,2525.6474609375,7514.15869140625,-712.87158203125,12664.794921875,-6121.79443359375,-6201.26708984375,-3889.401611328125,-3883.0439453125,-8798.4404296875,-3043.810546875,4419.4853515625,3085.93115234375,193.9137725830078,238.4185791015625,-2103.646484375,4348.7548828125,-3612.04150390625,16074.9755859375,-5750.65625,-0.0,-7075.46875,6145.63623046875,-5362.03369140625,-4397.2333984375,4.76837158203125,6166.29931640625,-8149.94140625,1385.2119140625,-5822.9765625,-2837.975830078125,-2186.29833984375,7249.51416015625,11587.9375,-23046.3359375,-9640.0576171875,-989.4371337890625,1273.949951171875,-10230.541015625,-1358.191162109375,-3387.13330078125,-16011.396484375,1239.776611328125,-567.4362182617188,2038.4788818359375,-10807.5146484375,-2752.93994140625,0.0,-1254.081787109375,0.0,-3587.405029296875,-0.0,1852.5123291015625
-16318.1630859375,-19460.51953125,-5338.98681640625,-823.3388061523438,-369.5487976074219,10771.7509765625,-4793.802734375,-1773.0394287109375,-1100.6990966796875,6317.29736328125,-9290.3779296875,-12428.7607421875,-5111.6943359375,5420.04931640625,-286.102294921875,-8826.255859375,-365.5751647949219,374.3171691894531,3209.90869140625,13879.935546875,2516.110595703125,7498.26416015625,-723.9977416992188,12648.900390625,-6130.53662109375,-6231.466796875,-3913.24365234375,-3901.322509765625,-8814.3349609375,-3043.810546875,4407.564453125,3074.01025390625,184.3770294189453,222.5240020751953,-2115.5673828125,4333.65478515625,-3625.552001953125,16061.4638671875,-5743.50341796875,-0.0,-7085.00537109375,6123.3837890625,-5377.92822265625,-4414.71728515625,-7.152557373046875,6153.58349609375,-8137.22607421875,1348.6544189453125,-5845.228515625,-2864.201904296875,-2217.292724609375,7238.38818359375,9031.2958984375,-23024.876953125,-9657.5419921875,-991.0265502929688,1234.2135009765625,-10242.4619140625,-1381.23828125,-3398.259521484375,-16028.880859375,1225.471435546875,-576.17822265625,2036.0947265625,-10821.8193359375,-2763.271240234375,0.0,-1263.618408203125,0.0,-3599.325927734375,-0.0,1844.5650634765625
-16237.89453125,-19430.318359375,-5346.1396484375,-859.1016235351562,-371.9329833984375,10756.65234375,-4793.802734375,-1780.1920166015625,-1105.4674072265625,6312.529296875,-9287.1982421875,-12432.734375,-5094.2099609375,5413.69091796875,-267.02880859375,-8825.4609375,-372.72772216796875,370.3435363769531,3205.935302734375,13872.7822265625,2512.931884765625,7487.9326171875,-727.1766357421875,12641.7470703125,-6128.15234375,-6257.69287109375,-3908.475341796875,-3909.269775390625,-8807.9765625,-3037.45263671875,4400.412109375,3069.24169921875,181.1981201171875,209.808349609375,-2117.95166015625,4322.52880859375,-3624.757080078125,16056.6962890625,-5766.55078125,-0.0,-7086.59521484375,6101.13134765625,-5376.3388671875,-4422.66455078125,-6.357828617095947,6147.22607421875,-8160.2734375,1310.5074462890625,-5844.43408203125,-2872.149169921875,-2202.193115234375,7232.82470703125,6517.56884765625,-22986.73046875,-9653.568359375,-989.4371337890625,1250.108154296875,-10257.5615234375,-1377.2646484375,-3398.259521484375,-16022.5234375,1220.703125,-582.5360717773438,2026.557861328125,-10824.203125,-2768.83447265625,0.0,-1268.3868408203125,0.0,-3604.888916015625,-0.0,1836.6177978515625
-16163.984375,-19470.849609375,-5376.3388671875,-882.1487426757812,-386.23809814453125,10743.1416015625,-4803.33935546875,-1792.90771484375,-1114.20947265625,6304.58203125,-9307.0673828125,-12444.6552734375,-5083.87890625,5389.0546875,-256.69732666015625,-8830.2294921875,-393.3906555175781,354.4489440917969,3193.219482421875,13860.06640625,2493.8583984375,7471.2431640625,-741.4818115234375,12629.826171875,-6142.45751953125,-6277.56103515625,-3911.654052734375,-3915.6279296875,-8810.361328125,-3044.605224609375,4380.5439453125,3052.552490234375,158.15098571777344,191.5295867919922,-2131.462158203125,4309.81298828125,-3635.88330078125,16043.1865234375,-5806.287109375,-0.0,-7105.66845703125,6081.26318359375,-5387.46484375,-4432.201171875,-15.09984302520752,6132.9208984375,-8197.625,1288.255126953125,-5856.35498046875,-2876.91748046875,-2188.6826171875,7223.2880859375,5156.99365234375,-22989.115234375,-9656.7470703125,-997.3843994140625,1266.79736328125,-10272.662109375,-1370.9068603515625,-3418.92236328125,-16040.0068359375,1206.39794921875,-596.8411865234375,2018.6107177734375,-10836.9189453125,-2783.934326171875,0.0,-1297.7918701171875,0.0,-3619.194091796875,-0.0,1828.6705322265625
-16183.853515625,-19495.486328125,-5397.796875,-892.480224609375,-406.9010314941406,10733.6044921875,-4824.79736328125,-1797.676025390625,-1130.8988037109375,6291.8662109375,-9330.9091796875,-12453.396484375,-5109.31005859375,5387.46484375,-312.3283386230469,-8828.6396484375,-410.87469482421875,336.9649353027344,3178.11962890625,13848.9404296875,2476.374267578125,7457.7333984375,-760.5552978515625,12618.701171875,-6168.68359375,-6282.32958984375,-3942.6484375,-3920.396240234375,-8827.845703125,-3054.14208984375,4364.6494140625,3034.27392578125,136.6933135986328,176.42974853515625,-2149.740966796875,4299.48193359375,-3658.1357421875,16032.8544921875,-5835.69189453125,-0.0,-7126.33154296875,6072.52099609375,-5411.306640625,-4441.73828125,-39.73643112182617,6126.5625,-8197.625,1278.7183837890625,-5883.37548828125,-2888.043701171875,-2240.340087890625,7220.90380859375,5305.6083984375,-23001.03515625,-9671.84765625,-1012.4841918945312,1228.650390625,-10255.97265625,-1413.8221435546875,-3426.86962890625,-16051.927734375,1191.298095703125,-610.3515625,2019.4053955078125,-10845.6611328125,-2789.497314453125,0.0,-1311.30224609375,0.0,-3635.88330078125,-0.0,1827.875732421875
-16190.2099609375,-19472.44140625,-5382.69677734375,-874.9962158203125,-390.21173095703125,10744.73046875,-4818.439453125,-1785.755126953125,-1127.7198486328125,6298.22412109375,-9330.11328125,-12436.70703125,-5142.68896484375,5389.84912109375,-323.45452880859375,-8828.6396484375,-402.1326599121094,348.8858642578125,3186.06689453125,13852.9140625,2490.679443359375,7468.06494140625,-748.6343383789062,12629.0322265625,-6149.60986328125,-6261.6669921875,-3937.085693359375,-3915.6279296875,-8824.666015625,-3040.631591796875,4375.77587890625,3039.8369140625,150.99842834472656,185.96649169921875,-2138.61474609375,4310.60791015625,-3650.983154296875,16042.390625,-5849.20263671875,-0.0,-7111.2314453125,6088.41552734375,-5400.9755859375,-4432.201171875,-34.1733283996582,6136.89404296875,-8196.8310546875,1296.2022705078125,-5865.09716796875,-2884.070068359375,-2251.466064453125,7228.056640625,6316.5029296875,-22989.908203125,-9669.462890625,-1008.5106201171875,1215.1400146484375,-10229.7470703125,-1411.43798828125,-3414.154052734375,-16045.5703125,1201.629638671875,-602.404296875,2015.431640625,-10834.5341796875,-2771.218505859375,0.0,-1289.0498046875,0.0,-3618.3994140625,-0.0,1831.8494873046875
-16204.515625,-19456.544921875,-5376.3388671875,-857.5121459960938,-382.26446533203125,10756.65234375,-4809.69775390625,-1780.98681640625,-1124.5408935546875,6296.634765625,-9333.29296875,-12425.58203125,-5126.79443359375,5384.28662109375,-315.50726318359375,-8826.255859375,-391.0064697265625,357.62786865234375,3192.4248046875,13847.3515625,2499.42138671875,7479.19091796875,-740.6870727539062,12637.7744140625,-6136.89404296875,-6248.951171875,-3929.13818359375,-3907.680419921875,-8825.4609375,-3019.173828125,4387.69677734375,3049.37353515625,159.74044799804688,198.68214416503906,-2129.87255859375,4319.349609375,-3643.83056640625,16048.75,-5811.85009765625,-0.0,-7102.4892578125,6098.7470703125,-5392.2333984375,-4422.66455078125,-26.226043701171875,6138.4833984375,-8198.4208984375,1312.8916015625,-5860.32861328125,-2865.791259765625,-2246.69775390625,7232.0302734375,6935.5966796875,-22980.37109375,-9669.462890625,-1003.7421875,1218.3189697265625,-10243.2568359375,-1396.338134765625,-3417.3330078125,-16029.6767578125,1210.37158203125,-597.6359252929688,1991.58984375,-10840.0986328125,-2763.271240234375,0.0,-1277.1287841796875,0.0,-3616.809814453125,-0.0,1819.1337890625
-16241.869140625,-19461.3125,-5360.4443359375,-846.385986328125,-375.1119079589844,10769.3671875,-4800.955078125,-1774.6290283203125,-1122.15673828125,6299.01904296875,-9328.5244140625,-12423.197265625,-5119.6416015625,5390.64404296875,-301.9968566894531,-8822.2822265625,-381.4697265625,367.9593505859375,3199.577392578125,13850.529296875,2508.9580078125,7491.11181640625,-732.73974609375,12645.7216796875,-6131.3310546875,-6217.16162109375,-3918.806640625,-3897.34912109375,-8821.4873046875,-3014.405517578125,4398.02783203125,3057.32080078125,169.27719116210938,209.808349609375,-2120.3359375,4328.88671875,-3636.677978515625,16055.107421875,-5799.92919921875,-0.0,-7093.74755859375,6113.84716796875,-5381.90234375,-4412.3330078125,-21.457672119140625,6142.45751953125,-8161.8623046875,1322.4283447265625,-5850.7919921875,-2857.04931640625,-2232.392578125,7239.18310546875,6546.17919921875,-22981.166015625,-9666.283203125,-1018.8421020507812,1224.6767578125,-10255.177734375,-1393.9539794921875,-3410.97509765625,-16018.548828125,1217.524169921875,-592.8675537109375,1997.94775390625,-10836.1240234375,-2757.708251953125,0.0,-1277.923583984375,0.0,-3614.42578125,-0.0,1826.286376953125
-16268.0947265625,-19485.154296875,-5350.90771484375,-855.9227294921875,-371.9329833984375,10765.3935546875,-4800.16064453125,-1771.4500732421875,-1115.004150390625,6306.17138671875,-9315.80859375,-12426.3759765625,-5119.6416015625,5403.35986328125,-294.0495910644531,-8813.5400390625,-380.67498779296875,368.7540588378906,3202.756103515625,13860.861328125,2511.34228515625,7491.90673828125,-731.1503295898438,12646.515625,-6129.74169921875,-6213.98291015625,-3913.24365234375,-3894.96484375,-8819.103515625,-3025.53173828125,4399.61767578125,3057.32080078125,171.661376953125,208.21888732910156,-2116.3623046875,4328.88671875,-3634.293701171875,16057.4912109375,-5805.4921875,-0.0,-7088.97900390625,6113.84716796875,-5379.51806640625,-4411.53857421875,-16.689300537109375,6148.81494140625,-8141.2001953125,1312.8916015625,-5844.43408203125,-2861.02294921875,-2223.650634765625,7243.951171875,6119.41015625,-22993.8828125,-9664.6943359375,-1038.710205078125,1228.650390625,-10232.130859375,-1393.1593017578125,-3404.6171875,-16021.728515625,1219.1136474609375,-588.8939208984375,2013.0474853515625,-10836.9189453125,-2747.376708984375,0.0,-1283.4866943359375,0.0,-3612.836181640625,-0.0,1833.4388427734375
-16257.7626953125,-19520.125,-5344.5498046875,-852.7437744140625,-363.19097900390625,10770.95703125,-4790.6240234375,-1764.2974853515625,-1105.4674072265625,6318.09228515625,-9315.013671875,-12431.939453125,-5095.7998046875,5412.1015625,-267.82354736328125,-8800.029296875,-377.49609375,375.1119079589844,3211.498291015625,13872.7822265625,2516.905517578125,7498.26416015625,-723.2030029296875,12653.66796875,-6116.2314453125,-6238.619140625,-3899.7333984375,-3887.812255859375,-8814.3349609375,-3031.8896484375,4403.59130859375,3058.11572265625,177.22447204589844,212.19253540039062,-2110.799072265625,4334.44970703125,-3622.372802734375,16065.439453125,-5786.4189453125,-0.0,-7079.4423828125,6117.02587890625,-5372.365234375,-4406.77001953125,-7.9472856521606445,6157.55712890625,-8164.24658203125,1316.8653564453125,-5836.48681640625,-2855.4599609375,-2199.013916015625,7255.0771484375,6213.18798828125,-23002.625,-9658.3369140625,-1035.5313720703125,1251.697509765625,-10217.826171875,-1376.469970703125,-3397.46484375,-16029.6767578125,1224.6767578125,-578.5624389648438,2024.9683837890625,-10836.1240234375,-2749.760986328125,0.0,-1282.69189453125,0.0,-3611.246826171875,-0.0,1839.796630859375
-16242.662109375,-19560.65625,-5358.85498046875,-845.5912475585938,-371.13824462890625,10763.8046875,-4800.16064453125,-1780.98681640625,-1109.441162109375,6310.93994140625,-9326.140625,-12447.833984375,-5094.2099609375,5403.35986328125,-293.2548522949219,-8835.79296875,-384.6486511230469,367.16461181640625,3200.3720703125,13867.21875,2508.9580078125,7491.90673828125,-733.5344848632812,12643.3369140625,-6117.02587890625,-6242.59326171875,-3909.269775390625,-3911.654052734375,-8817.513671875,-3039.8369140625,4396.4384765625,3049.37353515625,166.89300537109375,209.0136260986328,-2119.541259765625,4326.50244140625,-3632.70458984375,16053.5185546875,-5809.4658203125,-0.0,-7088.1845703125,6112.25732421875,-5381.107421875,-4419.4853515625,-15.09984302520752,6142.45751953125,-8210.341796875,1326.402099609375,-5846.818359375,-2861.02294921875,-2222.06103515625,7230.4404296875,6274.38232421875,-23011.365234375,-9661.515625,-1003.7421875,1254.081787109375,-10248.025390625,-1378.8541259765625,-3410.180419921875,-16036.8291015625,1215.934814453125,-587.304443359375,2017.8157958984375,-10840.0986328125,-2778.37109375,0.0,-1277.923583984375,0.0,-3611.246826171875,-0.0,1834.233642578125
-16189.4169921875,-19498.666015625,-5358.85498046875,-840.8228759765625,-367.16461181640625,10777.314453125,-4796.18701171875,-1772.2447509765625,-1114.20947265625,6297.4296875,-9313.423828125,-12431.939453125,-5098.18408203125,5391.43896484375,-291.6654052734375,-8824.666015625,-377.49609375,373.5224304199219,3204.345703125,13860.06640625,2512.13720703125,7499.853515625,-728.76611328125,12650.490234375,-6119.41015625,-6206.03564453125,-3903.706787109375,-3899.7333984375,-8816.71875,-3028.710693359375,4402.001953125,3057.32080078125,171.661376953125,216.1661834716797,-2116.3623046875,4336.0390625,-3630.3203125,16059.875,-5804.69775390625,-0.0,-7088.97900390625,6128.15234375,-5375.5439453125,-4409.154296875,-14.30511474609375,6148.0205078125,-8196.0361328125,1329.5809326171875,-5838.87109375,-2849.10205078125,-2222.06103515625,7244.74560546875,6352.265625,-22990.703125,-9663.10546875,-977.5161743164062,1259.6448974609375,-10250.4091796875,-1383.62255859375,-3415.74365234375,-16020.1396484375,1222.2926025390625,-586.5097045898438,1998.7423095703125,-10840.0986328125,-2772.013427734375,0.0,-1287.4603271484375,0.0,-3624.757080078125,-0.0,1817.5443115234375
-16264.9150390625,-19452.572265625,-5359.6494140625,-845.5912475585938,-371.9329833984375,10770.162109375,-4800.16064453125,-1774.6290283203125,-1115.7989501953125,6298.22412109375,-9334.8818359375,-12419.2236328125,-5092.62109375,5391.43896484375,-294.84429931640625,-8819.8974609375,-379.8802795410156,370.3435363769531,3201.96142578125,13858.4775390625,2508.16357421875,7495.08544921875,-731.1503295898438,12648.10546875,-6129.74169921875,-6222.72509765625,-3907.680419921875,-3904.501708984375,-8804.7978515625,-3025.53173828125,4399.61767578125,3054.936767578125,170.07191467285156,211.39781188964844,-2119.541259765625,4331.2705078125,-3633.4990234375,16055.90234375,-5785.6240234375,-0.0,-7091.36328125,6121.0,-5377.92822265625,-4416.30712890625,-18.278757095336914,6145.63623046875,-8161.8623046875,1324.017822265625,-5839.666015625,-2860.228271484375,-2223.650634765625,7242.361328125,7576.1474609375,-22991.498046875,-9650.3896484375,-981.4898071289062,1239.776611328125,-10227.3623046875,-1401.9012451171875,-3414.94873046875,-16023.3173828125,1218.3189697265625,-588.8939208984375,1993.9739990234375,-10838.5087890625,-2756.11865234375,0.0,-1285.076171875,0.0,-3622.372802734375,-0.0,1816.74951171875
-16326.904296875,-19470.056640625,-5361.23876953125,-853.5385131835938,-376.70135498046875,10747.9091796875,-4808.90283203125,-1788.93408203125,-1119.7725830078125,6314.11865234375,-9354.7509765625,-12433.529296875,-5101.36279296875,5380.3125,-297.2284851074219,-8838.1767578125,-389.4170227050781,360.0120544433594,3193.219482421875,13864.8349609375,2501.010986328125,7480.7802734375,-740.6870727539062,12634.5947265625,-6120.205078125,-6259.28271484375,-3921.190673828125,-3918.806640625,-8811.951171875,-3037.45263671875,4390.0810546875,3046.19482421875,164.50881958007812,199.4768829345703,-2126.69384765625,4318.55517578125,-3642.2412109375,16044.775390625,-5789.59814453125,-0.0,-7090.568359375,6097.9521484375,-5389.0546875,-4430.6123046875,-26.226043701171875,6137.68896484375,-8175.373046875,1314.4810791015625,-5846.818359375,-2884.86474609375,-2227.624267578125,7224.0830078125,9641.6474609375,-23012.162109375,-9655.9521484375,-1003.7421875,1232.6240234375,-10229.7470703125,-1409.8485107421875,-3421.306640625,-16041.59765625,1207.9874267578125,-593.6622314453125,1993.9739990234375,-10837.7138671875,-2771.218505859375,0.0,-1295.4075927734375,0.0,-3621.578125,-0.0,1823.902099609375
-16238.689453125,-19515.35546875,-5360.4443359375,-861.4857788085938,-378.2908020019531,10751.087890625,-4808.10791015625,-1780.98681640625,-1113.414794921875,6319.681640625,-9350.7763671875,-12440.681640625,-5083.87890625,5375.5439453125,-297.2284851074219,-8827.845703125,-388.6222839355469,359.2173156738281,3194.014404296875,13871.9873046875,2501.010986328125,7480.7802734375,-741.4818115234375,12635.390625,-6105.10498046875,-6255.30859375,-3925.959228515625,-3904.501708984375,-8820.693359375,-3043.810546875,4387.69677734375,3050.168212890625,163.71409606933594,198.68214416503906,-2127.48828125,4320.939453125,-3641.4462890625,16047.9541015625,-5803.1083984375,-0.0,-7090.568359375,6097.9521484375,-5391.43896484375,-4424.25390625,-23.047128677368164,6144.841796875,-8167.42626953125,1308.91796875,-5858.7392578125,-2877.712158203125,-2226.82958984375,7236.00390625,11466.34375,-23033.619140625,-9664.6943359375,-1017.2525634765625,1243.750244140625,-10229.7470703125,-1397.9276123046875,-3422.101318359375,-16035.23828125,1207.1927490234375,-591.278076171875,1998.7423095703125,-10844.8671875,-2777.576416015625,0.0,-1313.6864013671875,0.0,-3627.93603515625,-0.0,1817.5443115234375
-16258.55859375,-19596.41796875,-5352.4970703125,-835.259765625,-383.8539123535156,10773.3408203125,-4804.13427734375,-1765.886962890625,-1110.23583984375,6316.5029296875,-9363.4921875,-12431.939453125,-5040.1689453125,5389.0546875,-296.43377685546875,-8800.82421875,-381.4697265625,366.369873046875,3201.166748046875,13876.755859375,2504.189697265625,7493.49609375,-736.71337890625,12645.7216796875,-6118.61572265625,-6224.314453125,-3929.13818359375,-3882.2490234375,-8809.56640625,-3039.8369140625,4395.6435546875,3050.168212890625,167.68772888183594,210.6030731201172,-2125.104248046875,4332.0654296875,-3636.677978515625,16056.6962890625,-5777.67724609375,-0.0,-7093.74755859375,6121.79443359375,-5394.61767578125,-4404.38623046875,-19.073486328125,6154.37841796875,-8153.91552734375,1332.7598876953125,-5880.99169921875,-2842.744140625,-2226.034912109375,7257.46142578125,12018.6806640625,-23074.150390625,-9653.568359375,-1013.2789306640625,1257.2606201171875,-10227.3623046875,-1392.364501953125,-3418.92236328125,-16040.8017578125,1215.934814453125,-585.7149658203125,2016.2265625,-10847.2509765625,-2769.629150390625,0.0,-1308.123291015625,0.0,-3625.552001953125,-0.0,1824.6968994140625
-16264.9150390625,-19624.232421875,-5342.16552734375,-824.133544921875,-379.0855407714844,10767.77734375,-4802.544921875,-1777.807861328125,-1119.7725830078125,6279.9453125,-9338.0615234375,-12438.296875,-5075.931640625,5408.12841796875,-294.84429931640625,-8820.693359375,-377.49609375,367.16461181640625,3197.193115234375,13849.7353515625,2507.368896484375,7495.8798828125,-734.3292236328125,12640.953125,-6130.53662109375,-6225.10888671875,-3918.01220703125,-3902.912109375,-8815.9248046875,-3062.884033203125,4398.02783203125,3052.552490234375,173.25083923339844,214.57672119140625,-2121.92529296875,4328.88671875,-3637.472900390625,16048.75,-5784.03466796875,-0.0,-7089.7734375,6123.3837890625,-5388.259765625,-4416.30712890625,-21.457672119140625,6138.4833984375,-8149.14697265625,1344.6807861328125,-5868.27587890625,-2868.175537109375,-2225.239990234375,7240.7724609375,11572.04296875,-23072.560546875,-9659.9267578125,-1008.5106201171875,1248.5185546875,-10229.7470703125,-1388.390869140625,-3423.69091796875,-16058.287109375,1214.3453369140625,-596.8411865234375,2015.431640625,-10840.0986328125,-2772.80810546875,0.0,-1289.0498046875,0.0,-3631.114990234375,-0.0,1818.3389892578125
-16199.7470703125,-19555.88671875,-5366.00732421875,-833.6702880859375,-373.5224304199219,10766.9833984375,-4796.18701171875,-1789.728759765625,-1120.5673828125,6279.150390625,-9304.6826171875,-12449.423828125,-5125.99951171875,5399.3857421875,-278.9497375488281,-8838.1767578125,-376.70135498046875,366.369873046875,3197.193115234375,13834.6357421875,2505.779296875,7495.08544921875,-732.73974609375,12640.953125,-6147.22607421875,-6210.00927734375,-3902.912109375,-3902.912109375,-8810.361328125,-3068.447021484375,4394.84912109375,3056.526123046875,168.4824676513672,213.78199768066406,-2120.3359375,4328.09228515625,-3632.70458984375,16044.775390625,-5773.703125,-0.0,-7095.3369140625,6124.17822265625,-5377.92822265625,-4417.896484375,-18.278757095336914,6128.15234375,-8173.783203125,1335.14404296875,-5830.92333984375,-2865.791259765625,-2210.934814453125,7225.67236328125,10743.1416015625,-23023.287109375,-9652.7734375,-1002.1527709960938,1243.750244140625,-10253.5888671875,-1370.112060546875,-3432.432861328125,-16051.1337890625,1214.3453369140625,-598.4306640625,2006.6898193359375,-10828.9716796875,-2769.629150390625,0.0,-1289.844482421875,0.0,-3621.578125,-0.0,1819.928466796875
-16205.310546875,-19452.572265625,-5362.82861328125,-835.259765625,-371.13824462890625,10773.3408203125,-4791.41845703125,-1777.807861328125,-1112.6199951171875,6293.45556640625,-9264.1513671875,-12435.119140625,-5108.51513671875,5408.9228515625,-270.2077331542969,-8823.0771484375,-371.9329833984375,368.7540588378906,3203.551025390625,13847.3515625,2508.9580078125,7499.853515625,-729.5608520507812,12648.10546875,-6144.841796875,-6206.83056640625,-3902.117431640625,-3898.143798828125,-8804.7978515625,-3061.29443359375,4400.412109375,3062.089111328125,172.4561004638672,216.96090698242188,-2117.156982421875,4331.2705078125,-3625.552001953125,16053.5185546875,-5775.29296875,-0.0,-7094.5419921875,6130.53662109375,-5373.95458984375,-4409.94873046875,-14.30511474609375,6139.2783203125,-8176.962890625,1331.17041015625,-5832.51318359375,-2847.512451171875,-2201.398193359375,7238.38818359375,9362.697265625,-23005.0078125,-9648.7998046875,-995.794921875,1259.6448974609375,-10234.515625,-1374.0858154296875,-3430.84326171875,-16029.6767578125,1219.1136474609375,-590.4833374023438,2022.584228515625,-10824.203125,-2768.039794921875,0.0,-1289.0498046875,0.0,-3619.194091796875,-0.0,1832.6441650390625
-16249.8154296875,-19441.447265625,-5373.15966796875,-854.333251953125,-376.70135498046875,10765.3935546875,-4796.18701171875,-1774.6290283203125,-1111.030517578125,6302.19775390625,-9245.8720703125,-12421.6083984375,-5099.7734375,5400.1806640625,-275.77081298828125,-8821.4873046875,-377.49609375,362.396240234375,3201.96142578125,13860.06640625,2504.189697265625,7491.11181640625,-733.5344848632812,12644.1318359375,-6144.046875,-6248.951171875,-3905.29638671875,-3902.117431640625,-8809.56640625,-3046.19482421875,4394.84912109375,3058.11572265625,166.09828186035156,209.808349609375,-2122.719970703125,4325.7080078125,-3630.3203125,16052.72265625,-5798.33984375,-0.0,-7102.4892578125,6112.25732421875,-5381.107421875,-4416.30712890625,-14.30511474609375,6144.046875,-8192.0625,1313.6864013671875,-5840.46044921875,-2860.228271484375,-2206.96142578125,7238.38818359375,7504.6220703125,-23001.03515625,-9653.568359375,-1002.9474487304688,1262.029052734375,-10236.8994140625,-1390.7750244140625,-3425.2802734375,-16024.1123046875,1214.3453369140625,-589.6885986328125,2023.3790283203125,-10831.3564453125,-2764.06591796875,0.0,-1296.2022705078125,0.0,-3620.783447265625,-0.0,1835.0283203125
-16264.1201171875,-19471.64453125,-5387.46484375,-862.280517578125,-380.67498779296875,10760.625,-4800.16064453125,-1776.2183837890625,-1114.20947265625,6300.6083984375,-9274.482421875,-12424.7861328125,-5106.130859375,5394.61767578125,-276.5655517578125,-8812.7451171875,-387.8275451660156,358.422607421875,3201.166748046875,13862.4501953125,2496.242431640625,7484.75390625,-738.3028564453125,12641.7470703125,-6143.251953125,-6256.8984375,-3906.091064453125,-3903.706787109375,-8813.5400390625,-3025.53173828125,4388.4912109375,3047.7841796875,156.56153869628906,201.86106872558594,-2126.69384765625,4321.73388671875,-3631.90966796875,16050.3388671875,-5811.0556640625,-0.0,-7108.052734375,6100.33642578125,-5383.49169921875,-4418.69091796875,-15.09984302520752,6146.43115234375,-8192.0625,1308.123291015625,-5844.43408203125,-2872.94384765625,-2209.345458984375,7241.56689453125,5868.27587890625,-22989.115234375,-9657.5419921875,-988.642333984375,1253.2869873046875,-10244.8466796875,-1389.185546875,-3418.92236328125,-16038.41796875,1210.37158203125,-588.8939208984375,2008.279052734375,-10832.150390625,-2762.4765625,0.0,-1306.5338134765625,0.0,-3632.70458984375,-0.0,1822.312744140625
-16269.68359375,-19509.79296875,-5387.46484375,-860.6910400390625,-383.8539123535156,10759.0361328125,-4798.5712890625,-1779.3973388671875,-1118.9779052734375,6295.04541015625,-9303.8876953125,-12438.296875,-5095.0048828125,5387.46484375,-264.6446228027344,-8817.513671875,-391.0064697265625,356.8331298828125,3198.78271484375,13855.2978515625,2495.44775390625,7483.16455078125,-740.6870727539062,12638.5693359375,-6141.66259765625,-6245.77197265625,-3899.7333984375,-3908.475341796875,-8815.9248046875,-3029.50537109375,4385.3125,3041.426513671875,155.7667999267578,197.0926971435547,-2128.283203125,4317.76025390625,-3631.90966796875,16047.1591796875,-5799.134765625,-0.0,-7105.66845703125,6097.15771484375,-5380.3125,-4421.0751953125,-17.48402976989746,6144.841796875,-8190.47265625,1310.5074462890625,-5845.228515625,-2864.201904296875,-2198.21923828125,7236.798828125,4947.98046875,-22991.498046875,-9661.515625,-997.3843994140625,1263.618408203125,-10255.177734375,-1382.8277587890625,-3418.127685546875,-16056.6962890625,1207.1927490234375,-592.8675537109375,1993.1793212890625,-10837.7138671875,-2777.576416015625,0.0,-1302.5601806640625,0.0,-3634.293701171875,-0.0,1809.5970458984375
-16308.6259765625,-19513.765625,-5381.90234375,-874.2014770507812,-392.5959167480469,10744.73046875,-4806.5185546875,-1804.033935546875,-1135.667236328125,6271.998046875,-9340.4453125,-12448.62890625,-5060.037109375,5353.2919921875,-258.28680419921875,-8856.4560546875,-398.9537658691406,349.6805725097656,3186.86181640625,13829.072265625,2489.884521484375,7473.62744140625,-747.839599609375,12624.263671875,-6141.66259765625,-6255.30859375,-3904.501708984375,-3930.7275390625,-8813.5400390625,-3050.963134765625,4376.5703125,3029.50537109375,150.99842834472656,186.76121520996094,-2135.435791015625,4305.04443359375,-3640.651611328125,16032.8544921875,-5819.00244140625,-0.0,-7109.64208984375,6088.41552734375,-5388.259765625,-4438.55908203125,-26.226043701171875,6119.41015625,-8209.5458984375,1296.2022705078125,-5858.7392578125,-2883.275390625,-2188.6826171875,7210.57275390625,4461.6064453125,-23015.33984375,-9660.720703125,-1015.6631469726562,1290.6392822265625,-10263.919921875,-1372.4962158203125,-3437.995849609375,-16061.4638671875,1197.656005859375,-610.3515625,1968.5428466796875,-10848.83984375,-2793.47119140625,0.0,-1309.7127685546875,0.0,-3646.21484375,-0.0,1790.5235595703125
-16320.546875,-19501.84375,-5393.0283203125,-898.0433349609375,-413.2588806152344,10721.68359375,-4831.1552734375,-1827.0810546875,-1159.509033203125,6257.69287109375,-9359.5185546875,-12462.93359375,-5074.34228515625,5347.728515625,-300.40740966796875,-8881.091796875,-415.64306640625,329.01763916015625,3165.404052734375,13802.845703125,2473.1953125,7454.55419921875,-766.9130859375,12605.1904296875,-6165.50439453125,-6284.7138671875,-3933.111572265625,-3953.77490234375,-8824.666015625,-3070.03662109375,4359.880859375,3016.789794921875,135.89859008789062,169.27719116210938,-2156.0986328125,4286.76611328125,-3664.49365234375,16011.396484375,-5842.05029296875,-0.0,-7127.92041015625,6066.9580078125,-5413.69091796875,-4460.8115234375,-51.6573600769043,6094.77392578125,-8214.314453125,1272.3604736328125,-5884.96533203125,-2903.1435546875,-2229.213623046875,7185.14111328125,3573.099853515625,-23031.234375,-9668.66796875,-1030.7630615234375,1263.618408203125,-10293.32421875,-1417.7957763671875,-3457.864013671875,-16054.3115234375,1177.787841796875,-633.398681640625,1963.7744140625,-10858.376953125,-2805.39208984375,0.0,-1313.6864013671875,0.0,-3649.393798828125,-0.0,1792.1129150390625
-16264.9150390625,-19500.255859375,-5393.8232421875,-894.8643798828125,-410.87469482421875,10721.68359375,-4835.12890625,-1820.72314453125,-1157.1248779296875,6268.0244140625,-9340.4453125,-12463.728515625,-5141.89404296875,5353.2919921875,-325.04400634765625,-8866.787109375,-413.2588806152344,325.8387145996094,3163.814453125,13811.587890625,2473.1953125,7450.58056640625,-770.88671875,12605.984375,-6165.50439453125,-6301.40283203125,-3942.6484375,-3949.006591796875,-8829.4345703125,-3064.473388671875,4357.49658203125,3023.1474609375,138.28277587890625,168.4824676513672,-2156.8935546875,4285.97119140625,-3668.46728515625,16012.19140625,-5838.87109375,-0.0,-7124.7421875,6061.39501953125,-5416.8701171875,-4458.42724609375,-54.836273193359375,6102.720703125,-8201.599609375,1275.5394287109375,-5870.66015625,-2903.1435546875,-2254.64501953125,7193.88330078125,2501.8056640625,-23016.134765625,-9671.84765625,-1034.736572265625,1203.2191162109375,-10295.708984375,-1431.3062744140625,-3446.738037109375,-16044.775390625,1174.60888671875,-631.0145263671875,1970.927001953125,-10863.14453125,-2802.212890625,0.0,-1311.30224609375,0.0,-3641.4462890625,-0.0,1804.82861328125
-16318.1630859375,-19504.228515625,-5389.84912109375,-897.2485961914062,-407.6957702636719,10725.6572265625,-4835.923828125,-1812.7760009765625,-1142.8197021484375,6281.53466796875,-9346.802734375,-12468.4970703125,-5152.2255859375,5385.0810546875,-343.32275390625,-8855.66015625,-413.2588806152344,328.222900390625,3166.19873046875,13831.4560546875,2474.784912109375,7452.96484375,-772.4761962890625,12606.7802734375,-6150.404296875,-6291.8662109375,-3953.77490234375,-3940.26416015625,-8843.7392578125,-3065.268310546875,4359.880859375,3020.763427734375,138.28277587890625,170.8666534423828,-2156.8935546875,4289.150390625,-3670.056640625,16016.9599609375,-5841.25537109375,-0.0,-7117.58935546875,6067.7529296875,-5420.04931640625,-4452.06982421875,-51.6573600769043,6112.25732421875,-8191.26806640625,1273.1552734375,-5876.22314453125,-2901.55419921875,-2272.923828125,7200.2412109375,1289.0498046875,-23015.33984375,-9686.947265625,-1038.710205078125,1176.1983642578125,-10295.708984375,-1428.1273193359375,-3434.817138671875,-16064.6435546875,1177.787841796875,-623.8619384765625,2001.92138671875,-10862.3505859375,-2805.39208984375,0.0,-1312.096923828125,0.0,-3631.114990234375,-0.0,1823.902099609375
-16349.1572265625,-19490.71875,-5375.5439453125,-875.7908935546875,-396.569580078125,10743.935546875,-4823.2080078125,-1800.85498046875,-1130.8988037109375,6284.7138671875,-9313.423828125,-12444.6552734375,-5147.45703125,5402.56494140625,-328.222900390625,-8842.150390625,-394.1853942871094,344.11749267578125,3178.914306640625,13839.404296875,2489.08984375,7473.62744140625,-756.5816040039062,12622.673828125,-6144.046875,-6262.46142578125,-3937.880126953125,-3925.959228515625,-8826.255859375,-3044.605224609375,4377.365234375,3035.068603515625,154.17735290527344,191.5295867919922,-2140.998779296875,4304.25,-3654.956787109375,16031.265625,-5802.3134765625,-0.0,-7105.66845703125,6090.00537109375,-5406.53857421875,-4436.9697265625,-38.94169998168945,6123.3837890625,-8195.2412109375,1295.4075927734375,-5858.7392578125,-2879.3017578125,-2257.823974609375,7212.95703125,-513.3946533203125,-22998.65234375,-9671.0517578125,-1016.4578857421875,1196.0665283203125,-10286.171875,-1416.206298828125,-3424.4853515625,-16068.6171875,1192.0928955078125,-613.5304565429688,2019.4053955078125,-10846.4560546875,-2783.934326171875,0.0,-1293.0234375,0.0,-3619.98876953125,-0.0,1830.2598876953125
-16215.642578125,-19475.619140625,-5353.2919921875,-841.6175537109375,-376.70135498046875,10765.3935546875,-4805.7236328125,-1788.139404296875,-1127.7198486328125,6278.35595703125,-9284.8134765625,-12415.25,-5095.0048828125,5400.1806640625,-305.17578125,-8824.666015625,-371.13824462890625,367.9593505859375,3195.603515625,13836.224609375,2512.13720703125,7497.46923828125,-735.918701171875,12640.953125,-6132.1259765625,-6235.44091796875,-3916.42236328125,-3910.064697265625,-8804.7978515625,-3019.173828125,4402.001953125,3062.089111328125,178.0192108154297,216.96090698242188,-2117.95166015625,4324.9130859375,-3638.267578125,16046.3662109375,-5776.08740234375,-0.0,-7088.1845703125,6113.05224609375,-5385.87548828125,-4420.2802734375,-26.226043701171875,6128.94677734375,-8176.962890625,1329.5809326171875,-5841.25537109375,-2860.228271484375,-2234.77685546875,7227.26220703125,-3217.061279296875,-22974.810546875,-9648.005859375,-1000.5632934570312,1228.650390625,-10271.072265625,-1401.1064453125,-3424.4853515625,-16045.5703125,1213.550537109375,-603.198974609375,2011.4581298828125,-10824.203125,-2754.529296875,0.0,-1278.7183837890625,0.0,-3619.194091796875,-0.0,1820.72314453125
-16206.1064453125,-19488.333984375,-5358.060546875,-839.2333984375,-378.2908020019531,10767.77734375,-4804.92919921875,-1784.96044921875,-1129.309326171875,6280.740234375,-9302.298828125,-12420.8134765625,-5100.568359375,5396.20751953125,-299.6126708984375,-8824.666015625,-375.9066162109375,368.7540588378906,3196.3984375,13836.224609375,2509.7529296875,7497.46923828125,-736.71337890625,12642.54296875,-6137.68896484375,-6222.72509765625,-3918.01220703125,-3906.8857421875,-8805.5927734375,-3019.96875,4398.02783203125,3058.11572265625,171.661376953125,215.37144470214844,-2119.541259765625,4325.7080078125,-3639.062255859375,16043.9814453125,-5812.64501953125,-0.0,-7092.15771484375,6119.41015625,-5385.87548828125,-4419.4853515625,-25.43131446838379,6128.94677734375,-8153.12109375,1332.7598876953125,-5847.61279296875,-2864.99658203125,-2230.00830078125,7229.64599609375,-5307.99267578125,-22974.810546875,-9647.2099609375,-1021.2262573242188,1234.2135009765625,-10273.45703125,-1397.9276123046875,-3430.84326171875,-16031.265625,1213.550537109375,-603.9937133789062,2011.4581298828125,-10818.640625,-2757.708251953125,0.0,-1284.2813720703125,0.0,-3623.167724609375,-0.0,1820.72314453125
-16234.716796875,-19487.5390625,-5362.03369140625,-844.0017700195312,-379.8802795410156,10762.21484375,-4806.5185546875,-1787.3446044921875,-1128.5146484375,6283.12451171875,-9297.5302734375,-12426.3759765625,-5105.33642578125,5393.8232421875,-297.2284851074219,-8834.998046875,-378.2908020019531,365.5751647949219,3193.219482421875,13838.6083984375,2505.779296875,7491.11181640625,-739.0975952148438,12640.158203125,-6142.45751953125,-6217.16162109375,-3918.01220703125,-3910.859619140625,-8812.7451171875,-3026.326416015625,4395.6435546875,3055.7314453125,168.4824676513672,212.19253540039062,-2121.130615234375,4321.73388671875,-3639.062255859375,16041.59765625,-5816.61865234375,-0.0,-7096.1318359375,6118.61572265625,-5385.87548828125,-4423.45947265625,-27.02077293395996,6128.94677734375,-8175.373046875,1326.402099609375,-5846.818359375,-2879.3017578125,-2226.82958984375,7227.26220703125,-5745.0927734375,-22977.193359375,-9653.568359375,-1014.868408203125,1230.2398681640625,-10271.8671875,-1396.338134765625,-3437.201171875,-16022.5234375,1208.7822265625,-606.3779296875,2011.4581298828125,-10814.6669921875,-2756.913330078125,0.0,-1286.66552734375,0.0,-3621.578125,-0.0,1822.312744140625
-16172.7275390625,-19500.255859375,-5366.00732421875,-844.0017700195312,-383.0591735839844,10770.162109375,-4808.90283203125,-1780.98681640625,-1129.309326171875,6281.53466796875,-9282.4296875,-12428.7607421875,-5103.7470703125,5389.84912109375,-295.6390380859375,-8813.5400390625,-375.1119079589844,365.5751647949219,3194.014404296875,13840.9931640625,2506.573974609375,7494.291015625,-739.0975952148438,12643.3369140625,-6148.0205078125,-6232.26171875,-3919.6015625,-3898.9384765625,-8819.103515625,-3031.8896484375,4398.82275390625,3062.089111328125,173.25083923339844,213.78199768066406,-2121.130615234375,4324.9130859375,-3638.267578125,16047.1591796875,-5821.38671875,-0.0,-7098.51611328125,6120.205078125,-5387.46484375,-4416.30712890625,-27.02077293395996,6133.71533203125,-8203.1884765625,1324.8125,-5853.97119140625,-2850.691650390625,-2224.4453125,7237.59326171875,-5456.6064453125,-22984.345703125,-9660.720703125,-1010.1000366210938,1234.2135009765625,-10263.125,-1394.7486572265625,-3443.558837890625,-16028.880859375,1210.37158203125,-604.7884521484375,2007.484375,-10813.8720703125,-2748.96630859375,0.0,-1303.3548583984375,0.0,-3631.90966796875,-0.0,1817.5443115234375
-16156.83203125,-19508.99609375,-5372.365234375,-836.8492431640625,-379.8802795410156,10778.904296875,-4805.7236328125,-1777.01318359375,-1128.5146484375,6281.53466796875,-9294.3505859375,-12428.7607421875,-5095.7998046875,5388.259765625,-290.075927734375,-8796.8515625,-373.5224304199219,367.16461181640625,3197.193115234375,13842.5830078125,2508.16357421875,7499.853515625,-738.3028564453125,12645.7216796875,-6143.251953125,-6210.00927734375,-3915.6279296875,-3888.60693359375,-8811.951171875,-3056.526123046875,4401.20703125,3061.29443359375,172.4561004638672,219.3450927734375,-2119.541259765625,4329.681640625,-3637.472900390625,16049.54296875,-5819.00244140625,-0.0,-7100.10546875,6132.9208984375,-5388.259765625,-4410.74365234375,-26.226043701171875,6134.51025390625,-8199.21484375,1330.375732421875,-5852.38134765625,-2854.6650390625,-2219.677001953125,7244.74560546875,-5282.56103515625,-23002.625,-9655.158203125,-1029.96826171875,1245.3397216796875,-10267.8935546875,-1394.7486572265625,-3445.1484375,-16024.1123046875,1212.755859375,-602.404296875,2002.716064453125,-10826.587890625,-2756.913330078125,0.0,-1308.123291015625,0.0,-3635.88330078125,-0.0,1811.981201171875
-16191.80078125,-19505.818359375,-5363.623046875,-835.259765625,-368.7540588378906,10776.51953125,-4798.5712890625,-1780.1920166015625,-1125.335693359375,6287.09814453125,-9307.861328125,-12421.6083984375,-5075.931640625,5389.84912109375,-274.9761047363281,-8814.3349609375,-372.72772216796875,371.9329833984375,3197.98779296875,13845.76171875,2514.521240234375,7500.6484375,-732.73974609375,12645.7216796875,-6123.3837890625,-6205.24072265625,-3902.117431640625,-3898.9384765625,-8801.619140625,-3069.24169921875,4403.59130859375,3057.32080078125,177.22447204589844,220.93455505371094,-2113.97802734375,4328.88671875,-3630.3203125,16049.54296875,-5807.87646484375,-0.0,-7088.1845703125,6136.89404296875,-5379.51806640625,-4415.51220703125,-22.25240135192871,6133.71533203125,-8175.373046875,1331.965087890625,-5840.46044921875,-2861.817626953125,-2206.16650390625,7237.59326171875,-5439.12255859375,-23014.544921875,-9646.416015625,-1037.120849609375,1259.6448974609375,-10278.224609375,-1388.390869140625,-3439.58544921875,-16020.1396484375,1215.1400146484375,-603.198974609375,2003.5107421875,-10828.177734375,-2759.297607421875,0.0,-1296.2022705078125,0.0,-3628.730712890625,-0.0,1818.3389892578125
-16206.8994140625,-19567.013671875,-5357.265625,-828.107177734375,-363.9856872558594,10781.2880859375,-4794.59765625,-1773.834228515625,-1117.388427734375,6299.01904296875,-9301.5029296875,-12423.197265625,-5075.931640625,5400.1806640625,-271.79718017578125,-8827.0498046875,-363.9856872558594,379.0855407714844,3203.551025390625,13852.9140625,2521.673828125,7508.595703125,-728.76611328125,12651.2841796875,-6116.2314453125,-6203.6513671875,-3899.7333984375,-3900.52783203125,-8795.26171875,-3053.347412109375,4409.94873046875,3068.447021484375,184.3770294189453,227.29237365722656,-2106.82568359375,4333.65478515625,-3626.3466796875,16055.107421875,-5779.2666015625,-0.0,-7081.03173828125,6140.86767578125,-5373.15966796875,-4411.53857421875,-16.689300537109375,6144.046875,-8173.783203125,1339.912353515625,-5836.48681640625,-2851.486328125,-2202.193115234375,7237.59326171875,-6175.041015625,-23016.9296875,-9640.8525390625,-1013.2789306640625,1262.029052734375,-10285.3779296875,-1384.417236328125,-3415.74365234375,-16020.1396484375,1223.0872802734375,-595.251708984375,2012.2528076171875,-10812.2822265625,-2762.4765625,0.0,-1277.923583984375,0.0,-3615.22021484375,-0.0,1826.286376953125
-16225.1796875,-19551.912109375,-5352.4970703125,-833.6702880859375,-368.7540588378906,10770.95703125,-4798.5712890625,-1779.3973388671875,-1116.59375,6306.17138671875,-9309.451171875,-12432.734375,-5078.31591796875,5406.53857421875,-279.7444763183594,-8831.0244140625,-370.3435363769531,373.5224304199219,3200.3720703125,13856.8876953125,2517.7001953125,7500.6484375,-732.73974609375,12647.3115234375,-6120.205078125,-6228.2880859375,-3908.475341796875,-3911.654052734375,-8802.4140625,-3045.39990234375,4404.38623046875,3065.268310546875,181.1981201171875,222.5240020751953,-2111.593994140625,4329.681640625,-3630.3203125,16051.927734375,-5805.4921875,-0.0,-7082.62109375,6130.53662109375,-5377.1337890625,-4417.1015625,-19.073486328125,6143.251953125,-8161.8623046875,1332.7598876953125,-5841.25537109375,-2852.28076171875,-2210.14013671875,7226.46728515625,-7038.9111328125,-23033.619140625,-9648.7998046875,-991.0265502929688,1254.081787109375,-10270.2783203125,-1388.390869140625,-3403.02783203125,-16040.8017578125,1218.3189697265625,-596.0464477539062,2016.2265625,-10816.2568359375,-2768.83447265625,0.0,-1273.1552734375,0.0,-3604.888916015625,-0.0,1828.6705322265625
-16243.4580078125,-19481.9765625,-5333.423828125,-829.6966552734375,-360.8067932128906,10772.5458984375,-4798.5712890625,-1783.3709716796875,-1116.59375,6300.6083984375,-9341.240234375,-12428.7607421875,-5073.54736328125,5407.33349609375,-285.30755615234375,-8834.998046875,-371.9329833984375,375.1119079589844,3198.78271484375,13854.50390625,2520.08447265625,7499.853515625,-730.3555908203125,12647.3115234375,-6101.92626953125,-6225.90380859375,-3906.8857421875,-3911.654052734375,-8794.466796875,-3038.247314453125,4405.9755859375,3058.910400390625,183.58230590820312,220.1398162841797,-2107.6201171875,4330.47607421875,-3631.114990234375,16051.1337890625,-5811.0556640625,-0.0,-7069.11083984375,6128.15234375,-5375.5439453125,-4416.30712890625,-19.868215560913086,6137.68896484375,-8143.58447265625,1337.5281982421875,-5831.71826171875,-2853.870361328125,-2215.703369140625,7224.0830078125,-7621.447265625,-23039.9765625,-9638.46875,-995.000244140625,1255.671142578125,-10275.8408203125,-1390.7750244140625,-3413.359375,-16047.9541015625,1219.1136474609375,-598.4306640625,2018.6107177734375,-10823.4091796875,-2767.2451171875,0.0,-1274.74462890625,0.0,-3608.06787109375,-0.0,1827.875732421875
-16287.1689453125,-19503.435546875,-5318.32373046875,-832.8755493164062,-345.7069396972656,10781.2880859375,-4782.6767578125,-1771.4500732421875,-1104.6727294921875,6309.3505859375,-9360.3134765625,-12415.25,-5035.400390625,5420.04931640625,-255.10787963867188,-8824.666015625,-360.0120544433594,387.0328369140625,3209.90869140625,13868.0146484375,2532.800048828125,7509.39013671875,-716.84521484375,12657.642578125,-6070.13720703125,-6221.1357421875,-3884.63330078125,-3897.34912109375,-8788.1083984375,-3036.657958984375,4414.71728515625,3068.447021484375,195.50323486328125,228.0871124267578,-2096.493896484375,4339.21826171875,-3615.22021484375,16060.6708984375,-5787.2138671875,-0.0,-7052.42138671875,6133.71533203125,-5360.4443359375,-4408.359375,-3.9736428260803223,6148.81494140625,-8137.22607421875,1336.7335205078125,-5826.9501953125,-2855.4599609375,-2183.9140625,7238.38818359375,-7901.986328125,-23020.109375,-9632.1103515625,-986.2581787109375,1288.255126953125,-10264.7138671875,-1366.9332275390625,-3409.3857421875,-16024.908203125,1230.2398681640625,-585.7149658203125,2034.505126953125,-10829.7666015625,-2752.93994140625,0.0,-1269.976318359375,0.0,-3599.325927734375,-0.0,1842.180908203125
-16294.3212890625,-19539.9921875,-5332.62890625,-835.259765625,-351.2700500488281,10774.9296875,-4778.703125,-1771.4500732421875,-1103.083251953125,6309.3505859375,-9317.3984375,-12419.2236328125,-5017.12158203125,5412.896484375,-224.90818786621094,-8817.513671875,-356.8331298828125,384.6486511230469,3212.29296875,13865.6298828125,2530.415771484375,7505.4169921875,-717.639892578125,12656.84765625,-6090.00537109375,-6229.08251953125,-3875.0966796875,-3897.34912109375,-8794.466796875,-3034.27392578125,4413.1279296875,3077.98388671875,194.70851135253906,227.29237365722656,-2098.878173828125,4335.24462890625,-3611.246826171875,16058.287109375,-5741.119140625,-0.0,-7061.16357421875,6124.17822265625,-5360.4443359375,-4411.53857421875,3.9736428260803223,6148.0205078125,-8139.6103515625,1337.5281982421875,-5830.12890625,-2864.201904296875,-2155.303955078125,7241.56689453125,-7015.0693359375,-23008.982421875,-9638.46875,-983.8739624023438,1302.5601806640625,-10253.5888671875,-1341.5018310546875,-3416.538330078125,-16030.4697265625,1230.2398681640625,-584.9202270507812,2032.1209716796875,-10816.2568359375,-2754.529296875,0.0,-1278.7183837890625,0.0,-3608.06787109375,-0.0,1838.207275390625
-16222.7958984375,-19524.09765625,-5354.88134765625,-840.8228759765625,-362.396240234375,10763.0087890625,-4791.41845703125,-1784.165771484375,-1112.6199951171875,6296.634765625,-9263.3564453125,-12426.3759765625,-5087.8525390625,5404.94921875,-253.5184326171875,-8824.666015625,-366.369873046875,374.3171691894531,3204.345703125,13851.3251953125,2518.494873046875,7496.6748046875,-727.1766357421875,12646.515625,-6137.68896484375,-6241.00341796875,-3890.9912109375,-3910.859619140625,-8782.5458984375,-3034.27392578125,4404.38623046875,3070.831298828125,181.1981201171875,217.75563049316406,-2107.6201171875,4325.7080078125,-3626.3466796875,16049.54296875,-5784.82958984375,-0.0,-7083.416015625,6113.05224609375,-5370.77587890625,-4421.0751953125,-8.74201488494873,6139.2783203125,-8172.1943359375,1333.5545654296875,-5816.61865234375,-2868.97021484375,-2183.11962890625,7228.056640625,-5118.8466796875,-22989.908203125,-9624.1640625,-1003.7421875,1275.5394287109375,-10251.9990234375,-1361.3701171875,-3422.101318359375,-16039.212890625,1221.4979248046875,-594.4569702148438,2019.4053955078125,-10805.9248046875,-2764.06591796875,0.0,-1283.4866943359375,0.0,-3614.42578125,-0.0,1828.6705322265625
-16206.8994140625,-19479.59375,-5370.77587890625,-848.7701416015625,-372.72772216796875,10763.0087890625,-4800.16064453125,-1784.165771484375,-1114.20947265625,6293.45556640625,-9249.05078125,-12426.3759765625,-5111.6943359375,5408.9228515625,-277.36029052734375,-8816.71875,-376.70135498046875,366.369873046875,3197.98779296875,13852.9140625,2509.7529296875,7490.31689453125,-734.3292236328125,12643.3369140625,-6149.60986328125,-6235.44091796875,-3905.29638671875,-3908.475341796875,-8797.6455078125,-3028.710693359375,4396.4384765625,3062.884033203125,170.07191467285156,209.0136260986328,-2115.5673828125,4322.52880859375,-3632.70458984375,16047.1591796875,-5802.3134765625,-0.0,-7097.72119140625,6109.0791015625,-5378.72314453125,-4421.86962890625,-18.278757095336914,6140.86767578125,-8192.8564453125,1323.22314453125,-5830.92333984375,-2861.817626953125,-2208.55078125,7231.2353515625,-3281.434326171875,-22967.65625,-9640.8525390625,-1006.1264038085938,1256.4659423828125,-10253.5888671875,-1388.390869140625,-3422.101318359375,-16026.4970703125,1214.3453369140625,-596.8411865234375,2016.2265625,-10810.6923828125,-2770.423828125,0.0,-1293.0234375,0.0,-3623.167724609375,-0.0,1824.6968994140625
-16225.97265625,-19428.73046875,-5358.85498046875,-844.0017700195312,-363.19097900390625,10776.51953125,-4791.41845703125,-1767.4764404296875,-1118.9779052734375,6296.634765625,-9253.025390625,-12412.0712890625,-5087.8525390625,5396.20751953125,-258.28680419921875,-8805.5927734375,-367.9593505859375,375.1119079589844,3205.935302734375,13852.119140625,2520.08447265625,7499.853515625,-725.5872192382812,12653.66796875,-6128.94677734375,-6244.1826171875,-3896.55419921875,-3887.017578125,-8790.4931640625,-3011.2265625,4406.77001953125,3074.01025390625,180.4033966064453,218.5503692626953,-2105.236083984375,4334.44970703125,-3624.757080078125,16057.4912109375,-5767.34521484375,-0.0,-7082.62109375,6114.6416015625,-5369.1865234375,-4406.77001953125,-13.51038646697998,6154.37841796875,-8165.0419921875,1327.19677734375,-5825.36083984375,-2838.7705078125,-2191.066650390625,7248.7197265625,-2228.4189453125,-22948.583984375,-9636.0849609375,-979.1055908203125,1268.3868408203125,-10240.8720703125,-1397.1328125,-3402.233154296875,-16008.21875,1223.882080078125,-590.4833374023438,2013.84228515625,-10803.5400390625,-2752.93994140625,0.0,-1289.0498046875,0.0,-3619.194091796875,-0.0,1827.0810546875
-16249.8154296875,-19463.697265625,-5354.88134765625,-859.8963623046875,-364.7804260253906,10766.1884765625,-4796.98193359375,-1786.5499267578125,-1130.10400390625,6291.8662109375,-9288.7880859375,-12423.9921875,-5071.1630859375,5371.57080078125,-253.5184326171875,-8830.2294921875,-375.9066162109375,369.5487976074219,3196.3984375,13840.9931640625,2514.521240234375,7491.11181640625,-731.1503295898438,12643.3369140625,-6119.41015625,-6249.74560546875,-3890.9912109375,-3904.501708984375,-8788.1083984375,-3034.27392578125,4398.02783203125,3061.29443359375,178.81393432617188,209.0136260986328,-2110.799072265625,4324.9130859375,-3631.114990234375,16043.1865234375,-5785.6240234375,-0.0,-7079.4423828125,6104.310546875,-5370.77587890625,-4421.0751953125,-22.25240135192871,6132.9208984375,-8167.42626953125,1309.7127685546875,-5821.38671875,-2847.512451171875,-2184.708740234375,7226.46728515625,-1563.2310791015625,-22967.65625,-9632.9052734375,-972.747802734375,1286.66552734375,-10246.4365234375,-1392.364501953125,-3425.2802734375,-16034.4443359375,1215.1400146484375,-601.6095581054688,2008.279052734375,-10813.8720703125,-2768.039794921875,0.0,-1289.844482421875,0.0,-3616.809814453125,-0.0,1827.875732421875
-16291.9365234375,-19512.97265625,-5366.00732421875,-879.7645263671875,-383.8539123535156,10741.5517578125,-4820.82373046875,-1810.3917236328125,-1139.640869140625,6277.56103515625,-9322.9609375,-12450.2177734375,-5102.95263671875,5372.365234375,-314.7125244140625,-8861.224609375,-393.3906555175781,348.09112548828125,3174.14599609375,13830.662109375,2496.242431640625,7469.654296875,-754.1974487304688,12618.701171875,-6132.1259765625,-6265.64013671875,-3921.985595703125,-3929.93310546875,-8809.56640625,-3053.347412109375,4378.16015625,3040.631591796875,162.1246337890625,189.14540100097656,-2131.462158203125,4302.66064453125,-3654.162109375,16020.93359375,-5806.287109375,-0.0,-7095.3369140625,6086.03125,-5396.20751953125,-4446.50634765625,-42.1206169128418,6109.87353515625,-8168.220703125,1292.228759765625,-5839.666015625,-2882.480712890625,-2244.3134765625,7200.2412109375,-1296.2022705078125,-22998.65234375,-9651.978515625,-997.3843994140625,1228.650390625,-10282.19921875,-1412.2327880859375,-3449.1220703125,-16051.1337890625,1193.682373046875,-621.477783203125,1994.768798828125,-10832.150390625,-2785.523681640625,0.0,-1300.176025390625,0.0,-3633.4990234375,-0.0,1813.5706787109375
-16275.248046875,-19497.87109375,-5364.41796875,-872.6119995117188,-384.6486511230469,10739.962890625,-4820.02880859375,-1801.649658203125,-1127.7198486328125,6289.48193359375,-9318.1923828125,-12449.423828125,-5109.31005859375,5392.2333984375,-327.4281921386719,-8841.35546875,-388.6222839355469,350.4753112792969,3177.324951171875,13843.376953125,2498.626708984375,7471.2431640625,-753.4027099609375,12621.0849609375,-6133.71533203125,-6268.8193359375,-3929.93310546875,-3926.75390625,-8817.513671875,-3045.39990234375,4382.13330078125,3048.578857421875,162.9193572998047,192.32432556152344,-2130.66748046875,4303.45556640625,-3652.57275390625,16025.701171875,-5795.95556640625,-0.0,-7096.1318359375,6086.826171875,-5396.20751953125,-4445.71142578125,-34.96805953979492,6120.205078125,-8172.98876953125,1297.7918701171875,-5845.228515625,-2897.580322265625,-2257.029296875,7213.75146484375,-1250.108154296875,-23013.75,-9659.130859375,-1015.6631469726562,1204.0137939453125,-10267.0986328125,-1409.8485107421875,-3445.943115234375,-16036.8291015625,1193.682373046875,-615.1199340820312,2005.1002197265625,-10842.482421875,-2774.397705078125,0.0,-1300.176025390625,0.0,-3630.3203125,-0.0,1823.107421875
-16241.0732421875,-19494.69140625,-5380.3125,-875.7908935546875,-394.1853942871094,10737.578125,-4822.4130859375,-1803.2392578125,-1129.309326171875,6295.04541015625,-9318.98828125,-12448.62890625,-5122.8203125,5390.64404296875,-324.249267578125,-8824.666015625,-394.9801025390625,345.7069396972656,3176.530029296875,13852.9140625,2491.47412109375,7468.859375,-757.3763427734375,12619.4951171875,-6157.55712890625,-6268.8193359375,-3939.4697265625,-3921.985595703125,-8825.4609375,-3050.168212890625,4377.365234375,3044.605224609375,154.97207641601562,189.9401397705078,-2137.820068359375,4300.2763671875,-3655.75146484375,16024.908203125,-5817.4130859375,-0.0,-7109.64208984375,6086.826171875,-5402.56494140625,-4446.50634765625,-37.35224533081055,6121.79443359375,-8200.009765625,1293.818115234375,-5862.712890625,-2894.401611328125,-2255.439697265625,7216.1357421875,-1757.939697265625,-23018.517578125,-9672.6416015625,-1029.96826171875,1207.1927490234375,-10259.9462890625,-1413.0274658203125,-3441.9697265625,-16039.212890625,1191.298095703125,-612.7357177734375,2013.0474853515625,-10859.171875,-2775.98681640625,0.0,-1315.2757568359375,0.0,-3639.062255859375,-0.0,1819.1337890625
-16251.4052734375,-19527.27734375,-5382.69677734375,-886.1223754882812,-398.1590270996094,10729.630859375,-4823.2080078125,-1809.5970458984375,-1127.7198486328125,6290.27685546875,-9316.603515625,-12451.0126953125,-5110.10498046875,5393.0283203125,-319.48089599609375,-8858.044921875,-401.33795166015625,340.1438293457031,3170.967041015625,13856.09375,2485.9111328125,7463.29638671875,-762.1447143554688,12612.3427734375,-6157.55712890625,-6279.150390625,-3937.880126953125,-3935.495849609375,-8828.6396484375,-3061.29443359375,4371.00732421875,3037.45263671875,149.4089813232422,182.78758239746094,-2142.58837890625,4292.3291015625,-3658.930419921875,16019.3447265625,-5833.3076171875,-0.0,-7111.2314453125,6075.7001953125,-5407.33349609375,-4452.8642578125,-38.14697265625,6117.02587890625,-8197.625,1282.69189453125,-5869.0703125,-2893.60693359375,-2249.876708984375,7203.419921875,-1641.1146240234375,-23011.365234375,-9676.615234375,-1032.3524169921875,1215.934814453125,-10279.814453125,-1413.0274658203125,-3441.9697265625,-16055.107421875,1185.735107421875,-615.9146728515625,2017.8157958984375,-10854.4033203125,-2793.47119140625,0.0,-1312.096923828125,0.0,-3647.80419921875,-0.0,1807.212890625
-16339.6201171875,-19558.271484375,-5399.3857421875,-891.6854858398438,-406.1063232421875,10718.5048828125,-4832.74462890625,-1826.286376953125,-1134.8724365234375,6268.8193359375,-9320.5771484375,-12458.9609375,-5098.978515625,5385.0810546875,-319.48089599609375,-8881.091796875,-411.6694030761719,329.01763916015625,3159.8408203125,13840.1982421875,2475.57958984375,7450.58056640625,-771.6814575195312,12599.6279296875,-6166.29931640625,-6291.8662109375,-3941.85400390625,-3955.3642578125,-8831.818359375,-3070.831298828125,4360.67578125,3027.121337890625,139.8722381591797,173.25083923339844,-2151.330322265625,4281.20263671875,-3666.877685546875,16006.6279296875,-5816.61865234375,-0.0,-7120.76806640625,6065.36865234375,-5414.48583984375,-4467.16943359375,-46.09425735473633,6098.7470703125,-8215.904296875,1279.5130615234375,-5876.22314453125,-2897.580322265625,-2249.876708984375,7185.14111328125,-1090.36767578125,-23013.75,-9678.2041015625,-1033.147216796875,1222.2926025390625,-10297.298828125,-1420.179931640625,-3449.916748046875,-16067.8232421875,1173.814208984375,-627.0408935546875,2001.92138671875,-10852.01953125,-2806.186767578125,0.0,-1318.4547119140625,0.0,-3655.75146484375,-0.0,1792.90771484375
-16272.86328125,-19549.52734375,-5404.94921875,-891.6854858398438,-406.9010314941406,10715.3251953125,-4838.3076171875,-1835.822998046875,-1151.561767578125,6255.30859375,-9322.166015625,-12458.9609375,-5110.10498046875,5354.88134765625,-317.8914489746094,-8880.2978515625,-414.84832763671875,325.04400634765625,3154.27783203125,13813.97265625,2473.1953125,7446.60693359375,-775.6550903320312,12594.0634765625,-6165.50439453125,-6294.25048828125,-3940.26416015625,-3956.95361328125,-8827.845703125,-3073.215576171875,4357.49658203125,3023.942138671875,137.48805236816406,169.27719116210938,-2154.50927734375,4278.0244140625,-3670.8515625,15997.0908203125,-5816.61865234375,-0.0,-7123.15234375,6062.189453125,-5415.28076171875,-4473.52734375,-54.04154586791992,6086.826171875,-8234.18359375,1277.923583984375,-5869.865234375,-2903.938232421875,-2248.287109375,7174.81005859375,-545.183837890625,-23013.75,-9671.84765625,-1033.94189453125,1231.03466796875,-10296.50390625,-1430.511474609375,-3468.195556640625,-16079.744140625,1170.63525390625,-638.9617919921875,1966.9532470703125,-10844.8671875,-2803.0078125,0.0,-1325.6072998046875,0.0,-3662.109375,-0.0,1783.3709716796875
-16223.5888671875,-19527.27734375,-5411.306640625,-897.2485961914062,-410.0799560546875,10711.3525390625,-4841.486328125,-1836.6177978515625,-1164.2774658203125,6246.56689453125,-9330.11328125,-12470.8818359375,-5117.2578125,5338.19189453125,-320.275634765625,-8879.501953125,-423.59033203125,320.275634765625,3150.30419921875,13802.0517578125,2466.042724609375,7442.63330078125,-778.8340454101562,12590.884765625,-6163.1201171875,-6288.68701171875,-3942.6484375,-3957.74853515625,-8831.0244140625,-3074.804931640625,4351.93408203125,3015.9951171875,130.3354949951172,162.1246337890625,-2160.072265625,4274.05029296875,-3674.824951171875,15993.9140625,-5828.53955078125,-0.0,-7127.92041015625,6060.60009765625,-5419.25439453125,-4475.91162109375,-60.39937210083008,6083.6474609375,-8222.2626953125,1272.3604736328125,-5873.04443359375,-2907.1171875,-2252.260986328125,7174.01513671875,-759.7605590820312,-23016.9296875,-9675.8203125,-1047.4522705078125,1223.882080078125,-10309.2197265625,-1440.0482177734375,-3472.169189453125,-16088.4853515625,1166.66162109375,-647.7037963867188,1948.674560546875,-10848.83984375,-2810.160400390625,0.0,-1335.14404296875,0.0,-3669.261962890625,-0.0,1778.6025390625
-16226.7685546875,-19524.892578125,-5394.61767578125,-894.0697021484375,-408.4905090332031,10722.4775390625,-4837.51318359375,-1827.875732421875,-1168.2509765625,6247.36181640625,-9335.6767578125,-12472.470703125,-5090.23681640625,5342.16552734375,-314.7125244140625,-8865.197265625,-420.41143798828125,325.8387145996094,3152.688232421875,13795.693359375,2471.60595703125,7449.78564453125,-774.065673828125,12597.2431640625,-6163.1201171875,-6271.20361328125,-3939.4697265625,-3943.443359375,-8824.666015625,-3065.268310546875,4355.9072265625,3019.173828125,135.10386657714844,167.68772888183594,-2156.0986328125,4281.99755859375,-3674.0302734375,16001.06640625,-5845.228515625,-0.0,-7122.35791015625,6070.93212890625,-5415.28076171875,-4464.78515625,-60.39937210083008,6088.41552734375,-8188.08837890625,1277.1287841796875,-5874.6337890625,-2891.22265625,-2244.3134765625,7185.93603515625,-1274.74462890625,-23013.75,-9670.2578125,-1043.4786376953125,1231.03466796875,-10316.3720703125,-1441.6376953125,-3478.527099609375,-16074.1806640625,1171.429931640625,-645.3196411132812,1961.3902587890625,-10849.634765625,-2811.749755859375,0.0,-1340.7071533203125,0.0,-3666.877685546875,-0.0,1785.755126953125
-16245.046875,-19534.4296875,-5361.23876953125,-868.6383666992188,-377.49609375,10751.087890625,-4812.08203125,-1796.086669921875,-1141.230224609375,6274.38232421875,-9336.4716796875,-12441.4755859375,-5073.54736328125,5370.77587890625,-283.7181091308594,-8818.30859375,-393.3906555175781,352.8594970703125,3179.709228515625,13824.3037109375,2501.010986328125,7474.42236328125,-745.4554443359375,12625.05859375,-6123.3837890625,-6239.4140625,-3913.24365234375,-3912.448974609375,-8800.029296875,-3054.936767578125,4382.92822265625,3043.015625,161.3299102783203,193.9137725830078,-2125.899169921875,4309.81298828125,-3645.420166015625,16028.0859375,-5817.4130859375,-0.0,-7087.3896484375,6101.92626953125,-5387.46484375,-4437.7646484375,-34.1733283996582,6115.4365234375,-8157.09423828125,1300.970703125,-5842.05029296875,-2871.354248046875,-2213.319091796875,7222.49365234375,-1750.787109375,-23001.830078125,-9645.62109375,-1035.5313720703125,1257.2606201171875,-10273.45703125,-1420.179931640625,-3453.890625,-16049.54296875,1197.656005859375,-619.0935668945312,1999.5372314453125,-10833.740234375,-2779.960693359375,0.0,-1322.4283447265625,0.0,-3645.420166015625,-0.0,1815.954833984375
-16307.03515625,-19532.837890625,-5334.21826171875,-853.5385131835938,-366.369873046875,10751.087890625,-4804.92919921875,-1797.676025390625,-1128.5146484375,6283.12451171875,-9324.55078125,-12431.14453125,-5067.98388671875,5393.0283203125,-286.102294921875,-8823.8720703125,-385.443359375,360.0120544433594,3188.451171875,13835.4296875,2512.931884765625,7480.7802734375,-737.5081176757812,12629.826171875,-6098.7470703125,-6235.44091796875,-3910.064697265625,-3918.806640625,-8798.4404296875,-3062.089111328125,4390.87548828125,3049.37353515625,173.25083923339844,201.0663299560547,-2117.95166015625,4312.197265625,-3637.472900390625,16033.6494140625,-5830.92333984375,-0.0,-7070.7001953125,6106.69482421875,-5381.90234375,-4440.14892578125,-23.84185791015625,6122.5888671875,-8161.8623046875,1316.8653564453125,-5836.48681640625,-2882.480712890625,-2214.90869140625,7219.314453125,-2429.4853515625,-23015.33984375,-9645.62109375,-1060.16796875,1257.2606201171875,-10259.9462890625,-1411.43798828125,-3426.86962890625,-16037.6220703125,1206.39794921875,-611.1463012695312,2013.0474853515625,-10826.587890625,-2768.039794921875,0.0,-1295.4075927734375,0.0,-3627.93603515625,-0.0,1827.0810546875
-16336.44140625,-19517.740234375,-5328.6552734375,-844.7965087890625,-363.9856872558594,10760.625,-4799.3662109375,-1790.5235595703125,-1117.388427734375,6296.634765625,-9304.6826171875,-12426.3759765625,-5063.2158203125,5406.53857421875,-291.6654052734375,-8839.7666015625,-383.0591735839844,364.7804260253906,3195.603515625,13852.119140625,2516.110595703125,7486.34326171875,-735.1239624023438,12636.9794921875,-6095.568359375,-6218.75146484375,-3909.269775390625,-3910.064697265625,-8801.619140625,-3064.473388671875,4396.4384765625,3050.168212890625,178.81393432617188,207.42416381835938,-2113.97802734375,4319.349609375,-3632.70458984375,16042.390625,-5807.87646484375,-0.0,-7068.31591796875,6120.205078125,-5377.92822265625,-4429.8173828125,-19.073486328125,6132.9208984375,-8131.6630859375,1319.24951171875,-5838.076171875,-2862.612548828125,-2222.06103515625,7221.69873046875,-4150.07275390625,-23016.134765625,-9646.416015625,-1033.147216796875,1254.87646484375,-10286.171875,-1414.616943359375,-3424.4853515625,-16032.8544921875,1211.961181640625,-602.404296875,2031.3262939453125,-10826.587890625,-2762.4765625,0.0,-1283.4866943359375,0.0,-3612.04150390625,-0.0,1839.001953125
-16342.0048828125,-19528.865234375,-5331.03955078125,-853.5385131835938,-361.60150146484375,10759.0361328125,-4796.18701171875,-1784.165771484375,-1108.6463623046875,6301.40283203125,-9317.3984375,-12436.70703125,-5084.67333984375,5414.48583984375,-278.1549987792969,-8823.0771484375,-386.23809814453125,361.60150146484375,3197.98779296875,13864.0400390625,2514.521240234375,7486.34326171875,-734.3292236328125,12636.9794921875,-6094.77392578125,-6221.93017578125,-3900.52783203125,-3908.475341796875,-8799.2353515625,-3069.24169921875,4394.05419921875,3045.39990234375,175.63502502441406,203.4505157470703,-2113.97802734375,4317.76025390625,-3629.525390625,16045.5703125,-5798.33984375,-0.0,-7068.31591796875,6117.82080078125,-5373.15966796875,-4426.63818359375,-14.30511474609375,6136.09912109375,-8099.87353515625,1313.6864013671875,-5826.1552734375,-2867.380859375,-2210.14013671875,7232.0302734375,-5955.6962890625,-23022.494140625,-9644.03125,-1031.5577392578125,1262.029052734375,-10275.0458984375,-1408.259033203125,-3430.84326171875,-16059.875,1211.1663818359375,-596.8411865234375,2028.1474609375,-10833.740234375,-2760.092529296875,0.0,-1290.6392822265625,0.0,-3622.372802734375,-0.0,1832.6441650390625
-16334.056640625,-19564.62890625,-5368.3916015625,-865.45947265625,-382.26446533203125,10737.578125,-4806.5185546875,-1800.85498046875,-1106.26220703125,6298.22412109375,-9343.6240234375,-12449.423828125,-5103.7470703125,5431.97021484375,-279.7444763183594,-8847.7138671875,-402.9273986816406,346.5016784667969,3184.4775390625,13860.861328125,2493.063720703125,7467.27001953125,-747.0448608398438,12619.4951171875,-6133.71533203125,-6243.3876953125,-3911.654052734375,-3935.495849609375,-8804.00390625,-3084.341796875,4372.5966796875,3033.47900390625,153.3826141357422,183.58230590820312,-2133.051513671875,4299.48193359375,-3639.062255859375,16028.880859375,-5794.3662109375,-0.0,-7095.3369140625,6090.00537109375,-5388.259765625,-4446.50634765625,-19.073486328125,6125.76806640625,-8174.57861328125,1302.5601806640625,-5842.05029296875,-2903.938232421875,-2210.934814453125,7208.1884765625,-6157.55712890625,-23036.00390625,-9649.5947265625,-1064.936279296875,1246.92919921875,-10278.224609375,-1401.9012451171875,-3430.048583984375,-16084.5126953125,1196.0665283203125,-603.198974609375,2017.021240234375,-10832.9462890625,-2771.218505859375,0.0,-1297.7918701171875,0.0,-3630.3203125,-0.0,1819.1337890625
-16251.4052734375,-19547.939453125,-5377.1337890625,-872.6119995117188,-390.21173095703125,10732.0146484375,-4815.26025390625,-1808.007568359375,-1113.414794921875,6288.68701171875,-9327.7294921875,-12449.423828125,-5102.15771484375,5414.48583984375,-282.9233703613281,-8856.4560546875,-410.0799560546875,338.55438232421875,3176.530029296875,13851.3251953125,2482.732177734375,7457.7333984375,-757.3763427734375,12610.7529296875,-6150.404296875,-6253.71923828125,-3914.0380859375,-3938.6748046875,-8815.9248046875,-3085.136474609375,4364.6494140625,3031.0947265625,148.61424255371094,175.63502502441406,-2141.79345703125,4292.3291015625,-3648.598876953125,16019.3447265625,-5795.95556640625,-0.0,-7107.2578125,6078.08447265625,-5397.001953125,-4452.8642578125,-24.636587142944336,6118.61572265625,-8209.5458984375,1296.2022705078125,-5847.61279296875,-2892.017333984375,-2213.319091796875,7201.83056640625,-5347.728515625,-23036.00390625,-9660.720703125,-1044.2734375,1239.776611328125,-10284.5830078125,-1401.1064453125,-3440.380126953125,-16072.591796875,1187.324462890625,-611.1463012695312,1989.20556640625,-10844.0712890625,-2787.907958984375,0.0,-1327.19677734375,0.0,-3646.21484375,-0.0,1802.4444580078125
-16248.2265625,-19517.740234375,-5389.0546875,-887.7118530273438,-406.1063232421875,10724.0673828125,-4827.97607421875,-1814.3653564453125,-1127.7198486328125,6283.12451171875,-9306.271484375,-12457.37109375,-5093.41552734375,5371.57080078125,-299.6126708984375,-8850.8916015625,-421.2061462402344,327.4281921386719,3164.609130859375,13841.7880859375,2473.1953125,7447.4013671875,-770.88671875,12602.01171875,-6169.47802734375,-6264.05078125,-3928.34326171875,-3938.6748046875,-8822.2822265625,-3079.573486328125,4356.7021484375,3022.35302734375,135.10386657714844,166.09828186035156,-2153.71435546875,4282.79248046875,-3659.72509765625,16010.6025390625,-5819.79736328125,-0.0,-7123.15234375,6070.13720703125,-5410.51220703125,-4459.22216796875,-39.73643112182617,6112.25732421875,-8207.95703125,1282.69189453125,-5866.6865234375,-2895.990966796875,-2230.00830078125,7202.62548828125,-4941.6220703125,-23028.0546875,-9665.4892578125,-1036.3260498046875,1232.6240234375,-10287.76171875,-1420.179931640625,-3457.864013671875,-16064.6435546875,1176.9930419921875,-623.0671997070312,1959.006103515625,-10852.01953125,-2793.47119140625,0.0,-1350.243896484375,0.0,-3659.72509765625,-0.0,1794.4971923828125
-16295.1142578125,-19504.228515625,-5398.59130859375,-900.427490234375,-410.0799560546875,10721.68359375,-4829.5654296875,-1814.3653564453125,-1138.8460693359375,6293.45556640625,-9298.32421875,-12455.78125,-5089.44189453125,5341.37109375,-301.9968566894531,-8858.044921875,-422.7956237792969,327.4281921386719,3165.404052734375,13840.1982421875,2471.60595703125,7445.017578125,-771.6814575195312,12603.6005859375,-6173.45166015625,-6279.150390625,-3930.7275390625,-3941.05908203125,-8818.30859375,-3068.447021484375,4354.318359375,3020.763427734375,132.7196807861328,160.53517150878906,-2156.0986328125,4282.79248046875,-3661.314697265625,16013.7802734375,-5820.59228515625,-0.0,-7125.53662109375,6062.189453125,-5412.896484375,-4459.22216796875,-44.50480270385742,6113.05224609375,-8215.109375,1270.77099609375,-5869.0703125,-2897.580322265625,-2231.597900390625,7200.2412109375,-5005.20068359375,-23012.95703125,-9662.310546875,-1019.6367797851562,1238.1871337890625,-10285.3779296875,-1434.485107421875,-3443.558837890625,-16074.9755859375,1176.1983642578125,-624.6566772460938,1957.41650390625,-10852.8134765625,-2791.881591796875,0.0,-1323.22314453125,0.0,-3643.035888671875,-0.0,1803.2392578125
-16213.2587890625,-19499.4609375,-5393.8232421875,-882.9434814453125,-398.9537658691406,10737.578125,-4822.4130859375,-1806.4180908203125,-1152.3564453125,6295.04541015625,-9295.9404296875,-12438.296875,-5062.42138671875,5339.78125,-285.30755615234375,-8848.5078125,-407.6957702636719,340.1438293457031,3174.14599609375,13837.01953125,2482.732177734375,7461.70654296875,-761.3499755859375,12617.111328125,-6150.404296875,-6287.892578125,-3925.164794921875,-3926.75390625,-8804.00390625,-3039.8369140625,4367.828125,3038.247314453125,143.0511474609375,175.63502502441406,-2143.383056640625,4296.302734375,-3655.75146484375,16023.3173828125,-5805.4921875,-0.0,-7114.41015625,6074.1103515625,-5403.35986328125,-4445.71142578125,-44.50480270385742,6121.79443359375,-8205.5732421875,1288.255126953125,-5862.712890625,-2872.149169921875,-2218.08740234375,7208.1884765625,-4857.38134765625,-22995.47265625,-9648.7998046875,-992.6160278320312,1266.002685546875,-10266.3037109375,-1451.9691162109375,-3433.2275390625,-16040.0068359375,1187.324462890625,-622.2724609375,1991.58984375,-10835.330078125,-2782.3447265625,0.0,-1297.7918701171875,0.0,-3631.114990234375,-0.0,1810.3917236328125
-16150.474609375,-19487.5390625,-5389.0546875,-872.6119995117188,-384.6486511230469,10751.087890625,-4811.287109375,-1796.086669921875,-1149.177490234375,6275.1767578125,-9299.119140625,-12424.7861328125,-5096.59423828125,5354.88134765625,-264.6446228027344,-8834.998046875,-396.569580078125,350.4753112792969,3182.09326171875,13829.8671875,2494.653076171875,7472.8330078125,-747.839599609375,12627.4423828125,-6137.68896484375,-6265.64013671875,-3908.475341796875,-3911.654052734375,-8792.0830078125,-3029.50537109375,4378.95458984375,3051.7578125,150.99842834472656,187.5559539794922,-2132.2568359375,4306.63427734375,-3643.83056640625,16032.060546875,-5809.4658203125,-0.0,-7102.4892578125,6088.41552734375,-5388.259765625,-4432.99609375,-35.762786865234375,6125.76806640625,-8198.4208984375,1298.5865478515625,-5834.1025390625,-2863.4072265625,-2197.424560546875,7219.314453125,-5291.30322265625,-22977.986328125,-9635.2890625,-998.1790771484375,1262.82373046875,-10259.1513671875,-1436.8692626953125,-3437.201171875,-16014.576171875,1199.2454833984375,-615.9146728515625,2000.3319091796875,-10813.0771484375,-2768.83447265625,0.0,-1296.2022705078125,0.0,-3635.88330078125,-0.0,1803.2392578125
-16210.0791015625,-19503.435546875,-5373.95458984375,-876.5856323242188,-382.26446533203125,10742.3466796875,-4813.6708984375,-1804.033935546875,-1149.177490234375,6255.30859375,-9326.9345703125,-12420.0185546875,-5096.59423828125,5364.41796875,-278.1549987792969,-8841.35546875,-401.33795166015625,346.5016784667969,3179.709228515625,13817.1513671875,2493.8583984375,7468.06494140625,-750.2238159179688,12621.8798828125,-6131.3310546875,-6265.64013671875,-3909.269775390625,-3923.574951171875,-8795.26171875,-3039.042236328125,4378.16015625,3043.810546875,154.17735290527344,183.58230590820312,-2133.051513671875,4301.0712890625,-3645.420166015625,16025.701171875,-5847.61279296875,-0.0,-7096.92626953125,6085.23681640625,-5389.84912109375,-4440.14892578125,-36.55751419067383,6116.2314453125,-8177.75732421875,1296.2022705078125,-5834.1025390625,-2880.096435546875,-2206.16650390625,7209.77783203125,-6091.5947265625,-22981.962890625,-9640.8525390625,-1002.9474487304688,1257.2606201171875,-10271.8671875,-1432.1009521484375,-3441.9697265625,-16041.59765625,1195.2718505859375,-621.477783203125,2004.3055419921875,-10823.4091796875,-2759.297607421875,0.0,-1284.2813720703125,0.0,-3632.70458984375,-0.0,1810.3917236328125
-16283.9892578125,-19516.9453125,-5366.00732421875,-878.9698486328125,-375.9066162109375,10746.3193359375,-4812.87646484375,-1802.4444580078125,-1146.7933349609375,6264.84521484375,-9313.423828125,-12418.4296875,-5075.931640625,5373.95458984375,-287.6917419433594,-8836.5869140625,-396.569580078125,352.8594970703125,3182.09326171875,13817.1513671875,2497.83203125,7472.8330078125,-748.6343383789062,12624.263671875,-6121.79443359375,-6255.30859375,-3907.680419921875,-3920.396240234375,-8784.9306640625,-3043.810546875,4382.13330078125,3043.810546875,159.74044799804688,187.5559539794922,-2129.077880859375,4305.04443359375,-3644.62548828125,16028.880859375,-5822.9765625,-0.0,-7089.7734375,6094.77392578125,-5388.259765625,-4436.9697265625,-36.55751419067383,6117.02587890625,-8161.06787109375,1291.4339599609375,-5833.3076171875,-2880.89111328125,-2217.292724609375,7214.54638671875,-6450.017578125,-22985.935546875,-9630.5205078125,-1002.1527709960938,1263.618408203125,-10262.330078125,-1436.0745849609375,-3454.685302734375,-16058.287109375,1196.861328125,-619.0935668945312,1992.3846435546875,-10821.0244140625,-2751.350341796875,0.0,-1277.923583984375,0.0,-3621.578125,-0.0,1825.4915771484375
-16302.2666015625,-19512.17578125,-5356.470703125,-874.2014770507812,-368.7540588378906,10764.5986328125,-4800.16064453125,-1782.576171875,-1131.6934814453125,6284.7138671875,-9295.9404296875,-12415.25,-5057.65283203125,5386.67041015625,-257.4920654296875,-8810.361328125,-387.8275451660156,364.7804260253906,3193.219482421875,13837.01953125,2506.573974609375,7484.75390625,-735.918701171875,12639.36328125,-6112.25732421875,-6241.00341796875,-3895.759521484375,-3897.34912109375,-8787.314453125,-3041.426513671875,4390.87548828125,3049.37353515625,170.07191467285156,197.0926971435547,-2119.541259765625,4320.14453125,-3633.4990234375,16042.390625,-5786.4189453125,-0.0,-7081.82666015625,6108.2841796875,-5375.5439453125,-4421.0751953125,-21.457672119140625,6134.51025390625,-8170.6044921875,1294.6129150390625,-5830.12890625,-2857.04931640625,-2188.6826171875,7238.38818359375,-5166.53076171875,-22980.37109375,-9631.31640625,-989.4371337890625,1279.5130615234375,-10243.2568359375,-1410.6431884765625,-3453.095703125,-16055.107421875,1208.7822265625,-603.9937133789062,2005.1002197265625,-10812.2822265625,-2748.171630859375,0.0,-1300.176025390625,0.0,-3631.114990234375,-0.0,1819.1337890625
-16202.130859375,-19510.587890625,-5354.08642578125,-859.1016235351562,-368.7540588378906,10765.3935546875,-4793.802734375,-1766.681640625,-1115.7989501953125,6286.30322265625,-9276.8671875,-12420.8134765625,-5071.1630859375,5403.35986328125,-249.54476928710938,-8780.162109375,-387.8275451660156,366.369873046875,3199.577392578125,13857.6826171875,2509.7529296875,7485.54833984375,-731.945068359375,12644.9267578125,-6116.2314453125,-6242.59326171875,-3894.170166015625,-3884.63330078125,-8797.6455078125,-3043.810546875,4391.67041015625,3050.963134765625,169.27719116210938,198.68214416503906,-2116.3623046875,4322.52880859375,-3629.525390625,16051.927734375,-5784.82958984375,-0.0,-7081.03173828125,6105.89990234375,-5373.95458984375,-4413.9228515625,-11.920928955078125,6151.994140625,-8163.4521484375,1311.30224609375,-5823.77099609375,-2853.07568359375,-2180.7353515625,7255.8720703125,-2863.4072265625,-22981.962890625,-9641.6474609375,-990.2318725585938,1273.949951171875,-10222.5947265625,-1395.54345703125,-3430.048583984375,-16043.9814453125,1211.961181640625,-593.6622314453125,2019.4053955078125,-10816.2568359375,-2756.11865234375,0.0,-1326.402099609375,0.0,-3650.983154296875,-0.0,1804.82861328125
-16206.1064453125,-19532.044921875,-5373.15966796875,-874.2014770507812,-394.1853942871094,10738.373046875,-4820.82373046875,-1800.060302734375,-1136.4619140625,6256.8984375,-9295.9404296875,-12447.0400390625,-5112.4892578125,5386.67041015625,-306.7652282714844,-8819.8974609375,-410.0799560546875,342.52801513671875,3174.14599609375,13833.0458984375,2483.52685546875,7461.70654296875,-757.3763427734375,12617.9052734375,-6146.43115234375,-6265.64013671875,-3926.75390625,-3919.6015625,-8821.4873046875,-3066.06298828125,4370.21240234375,3028.710693359375,146.2300567626953,178.0192108154297,-2140.2041015625,4298.68701171875,-3654.956787109375,16024.908203125,-5823.77099609375,-0.0,-7107.2578125,6082.85302734375,-5403.35986328125,-4442.533203125,-37.35224533081055,6117.82080078125,-8165.0419921875,1295.4075927734375,-5849.9970703125,-2881.68603515625,-2237.955810546875,7217.72509765625,-695.3875122070312,-23008.982421875,-9666.283203125,-1029.1734619140625,1236.59765625,-10242.4619140625,-1411.43798828125,-3436.406494140625,-16067.0283203125,1185.735107421875,-618.298828125,1999.5372314453125,-10838.5087890625,-2783.934326171875,0.0,-1313.6864013671875,0.0,-3651.778076171875,-0.0,1802.4444580078125
-16256.173828125,-19555.091796875,-5383.49169921875,-874.2014770507812,-402.1326599121094,10727.24609375,-4830.3603515625,-1827.875732421875,-1141.230224609375,6268.8193359375,-9328.5244140625,-12451.0126953125,-5101.36279296875,5374.74951171875,-329.01763916015625,-8882.681640625,-414.0535888671875,335.3754577636719,3165.404052734375,13821.125,2477.1689453125,7456.14404296875,-766.1183471679688,12605.1904296875,-6152.78857421875,-6267.2294921875,-3939.4697265625,-3949.801025390625,-8823.8720703125,-3066.857666015625,4364.6494140625,3022.35302734375,139.8722381591797,174.04556274414062,-2148.946044921875,4289.9453125,-3663.698974609375,16008.21875,-5826.9501953125,-0.0,-7114.41015625,6079.673828125,-5412.896484375,-4459.22216796875,-46.09425735473633,6094.77392578125,-8173.783203125,1295.4075927734375,-5858.7392578125,-2894.401611328125,-2257.823974609375,7177.1943359375,372.72772216796875,-23016.134765625,-9668.66796875,-1042.6839599609375,1222.2926025390625,-10271.072265625,-1419.38525390625,-3456.274658203125,-16064.6435546875,1176.1983642578125,-630.2197875976562,1981.2584228515625,-10846.4560546875,-2783.934326171875,0.0,-1298.5865478515625,0.0,-3634.293701171875,-0.0,1822.312744140625
-16274.4521484375,-19558.271484375,-5385.0810546875,-861.4857788085938,-396.569580078125,10743.1416015625,-4819.234375,-1806.4180908203125,-1137.256591796875,6293.45556640625,-9323.755859375,-12435.119140625,-5087.8525390625,5378.72314453125,-321.0703430175781,-8861.224609375,-399.74847412109375,348.09112548828125,3180.50390625,13830.662109375,2488.29541015625,7472.0380859375,-754.1974487304688,12621.8798828125,-6151.19921875,-6249.74560546875,-3932.317138671875,-3933.906494140625,-8811.951171875,-3047.7841796875,4377.365234375,3037.45263671875,149.4089813232422,187.5559539794922,-2137.820068359375,4306.63427734375,-3653.3671875,16025.701171875,-5817.4130859375,-0.0,-7110.43701171875,6092.3896484375,-5403.35986328125,-4443.32763671875,-38.14697265625,6119.41015625,-8184.90966796875,1307.32861328125,-5857.9443359375,-2884.86474609375,-2250.67138671875,7197.85693359375,1181.7613525390625,-22997.060546875,-9655.9521484375,-1024.4051513671875,1221.4979248046875,-10249.6142578125,-1428.1273193359375,-3427.66455078125,-16049.54296875,1192.8876953125,-614.3251953125,1976.489990234375,-10821.8193359375,-2770.423828125,0.0,-1285.076171875,0.0,-3617.6044921875,-0.0,1823.902099609375
-16268.0947265625,-19520.91796875,-5383.49169921875,-854.333251953125,-389.4170227050781,10760.625,-4806.5185546875,-1781.781494140625,-1114.20947265625,6325.2451171875,-9295.1455078125,-12427.9658203125,-5097.38916015625,5404.154296875,-301.9968566894531,-8817.513671875,-392.5959167480469,360.8067932128906,3196.3984375,13862.4501953125,2495.44775390625,7482.3701171875,-742.2764892578125,12639.36328125,-6151.994140625,-6233.85107421875,-3924.369873046875,-3903.706787109375,-8807.1826171875,-3043.810546875,4386.10693359375,3044.605224609375,154.97207641601562,195.50323486328125,-2129.077880859375,4320.939453125,-3637.472900390625,16045.5703125,-5811.0556640625,-0.0,-7108.84716796875,6103.515625,-5391.43896484375,-4423.45947265625,-19.073486328125,6147.22607421875,-8209.5458984375,1314.4810791015625,-5853.17626953125,-2868.97021484375,-2231.597900390625,7228.8515625,1994.768798828125,-22981.166015625,-9649.5947265625,-1002.9474487304688,1228.650390625,-10219.4150390625,-1411.43798828125,-3397.46484375,-16051.927734375,1208.7822265625,-593.6622314453125,2013.0474853515625,-10815.4609375,-2760.88720703125,0.0,-1285.870849609375,0.0,-3604.09423828125,-0.0,1841.38623046875
-16248.2265625,-19498.666015625,-5399.3857421875,-864.6647338867188,-398.1590270996094,10755.8564453125,-4811.287109375,-1789.728759765625,-1113.414794921875,6309.3505859375,-9308.6552734375,-12429.5546875,-5081.49462890625,5420.84375,-303.5863342285156,-8834.203125,-400.543212890625,355.2436828613281,3190.835205078125,13858.4775390625,2489.08984375,7476.01171875,-749.4290771484375,12633.005859375,-6157.55712890625,-6241.79833984375,-3935.495849609375,-3909.269775390625,-8814.3349609375,-3050.168212890625,4382.13330078125,3035.86328125,146.2300567626953,189.14540100097656,-2135.435791015625,4314.58154296875,-3642.2412109375,16040.0068359375,-5811.85009765625,-0.0,-7117.58935546875,6101.92626953125,-5399.3857421875,-4429.0224609375,-24.636587142944336,6136.89404296875,-8215.109375,1304.9443359375,-5866.6865234375,-2885.659423828125,-2232.392578125,7220.90380859375,2329.349609375,-22977.193359375,-9659.130859375,-1006.1264038085938,1238.9818115234375,-10241.66796875,-1419.38525390625,-3407.796142578125,-16067.0283203125,1201.629638671875,-599.225341796875,2030.5316162109375,-10829.7666015625,-2759.297607421875,0.0,-1276.3341064453125,0.0,-3607.273193359375,-0.0,1837.4124755859375
-16251.4052734375,-19511.380859375,-5393.0283203125,-863.0752563476562,-394.9801025390625,10756.65234375,-4818.439453125,-1804.033935546875,-1141.230224609375,6256.8984375,-9334.0869140625,-12423.9921875,-5085.46826171875,5391.43896484375,-307.5599670410156,-8852.4814453125,-400.543212890625,356.0384216308594,3180.50390625,13817.1513671875,2490.679443359375,7478.39599609375,-752.6079711914062,12628.2373046875,-6136.09912109375,-6231.466796875,-3935.495849609375,-3926.75390625,-8815.9248046875,-3062.089111328125,4381.33837890625,3034.27392578125,147.81951904296875,189.9401397705078,-2135.435791015625,4312.9921875,-3650.983154296875,16028.0859375,-5807.87646484375,-0.0,-7109.64208984375,6107.4892578125,-5403.35986328125,-4436.1748046875,-39.73643112182617,6114.6416015625,-8187.2939453125,1307.32861328125,-5864.30224609375,-2857.843994140625,-2236.3662109375,7205.00927734375,2272.129150390625,-22988.3203125,-9658.3369140625,-1014.07373046875,1236.59765625,-10263.125,-1435.27978515625,-3434.817138671875,-16065.439453125,1196.0665283203125,-619.0935668945312,2005.8948974609375,-10836.1240234375,-2772.013427734375,0.0,-1273.949951171875,0.0,-3625.552001953125,-0.0,1813.5706787109375
-16256.9677734375,-19545.5546875,-5371.57080078125,-864.6647338867188,-387.0328369140625,10751.087890625,-4817.64453125,-1804.033935546875,-1145.2039794921875,6253.71923828125,-9328.5244140625,-12423.197265625,-5098.18408203125,5381.90234375,-304.38104248046875,-8846.9189453125,-398.9537658691406,357.62786865234375,3181.298583984375,13813.177734375,2495.44775390625,7477.6015625,-750.2238159179688,12625.853515625,-6124.97314453125,-6253.71923828125,-3926.75390625,-3922.780517578125,-8811.15625,-3062.089111328125,4383.72265625,3031.0947265625,153.3826141357422,191.5295867919922,-2130.66748046875,4312.9921875,-3650.1884765625,16028.0859375,-5827.7451171875,-0.0,-7097.72119140625,6099.5419921875,-5396.20751953125,-4436.9697265625,-38.94169998168945,6113.05224609375,-8161.8623046875,1308.123291015625,-5849.9970703125,-2861.02294921875,-2235.571533203125,7206.5986328125,3288.5869140625,-23016.9296875,-9655.9521484375,-1010.894775390625,1237.3924560546875,-10246.4365234375,-1435.27978515625,-3436.406494140625,-16075.76953125,1198.45068359375,-620.6830444335938,2020.994873046875,-10837.7138671875,-2768.83447265625,0.0,-1269.181640625,0.0,-3617.6044921875,-0.0,1832.6441650390625
-16256.9677734375,-19549.52734375,-5369.1865234375,-856.7174072265625,-387.8275451660156,10752.677734375,-4816.05517578125,-1801.649658203125,-1149.9722900390625,6260.8720703125,-9306.271484375,-12418.4296875,-5077.52099609375,5375.5439453125,-299.6126708984375,-8842.150390625,-393.3906555175781,359.2173156738281,3182.09326171875,13812.3828125,2498.626708984375,7482.3701171875,-747.839599609375,12629.0322265625,-6136.89404296875,-6256.103515625,-3923.574951171875,-3917.21728515625,-8796.8515625,-3046.989501953125,4387.69677734375,3039.8369140625,157.35626220703125,195.50323486328125,-2129.077880859375,4318.55517578125,-3650.1884765625,16029.6767578125,-5817.4130859375,-0.0,-7101.69482421875,6101.92626953125,-5396.20751953125,-4433.79052734375,-40.531158447265625,6113.84716796875,-8168.220703125,1314.4810791015625,-5854.765625,-2863.4072265625,-2232.392578125,7208.98291015625,5766.55078125,-23008.982421875,-9643.2373046875,-1006.1264038085938,1238.9818115234375,-10223.388671875,-1437.6640625,-3437.201171875,-16062.259765625,1201.629638671875,-619.0935668945312,2013.0474853515625,-10830.5615234375,-2757.708251953125,0.0,-1269.976318359375,0.0,-3617.6044921875,-0.0,1836.6177978515625
-16314.9833984375,-19537.607421875,-5348.5234375,-836.0545043945312,-364.7804260253906,10770.162109375,-4793.802734375,-1774.6290283203125,-1125.335693359375,6302.9921875,-9264.9462890625,-12410.4814453125,-5087.8525390625,5400.9755859375,-277.36029052734375,-8815.9248046875,-373.5224304199219,379.8802795410156,3205.140380859375,13846.556640625,2519.289794921875,7503.03271484375,-725.5872192382812,12648.900390625,-6115.4365234375,-6234.64599609375,-3898.143798828125,-3894.96484375,-8790.4931640625,-3033.47900390625,4407.564453125,3061.29443359375,177.22447204589844,213.78199768066406,-2108.414794921875,4337.62890625,-3625.552001953125,16052.72265625,-5761.7822265625,-0.0,-7080.23681640625,6123.3837890625,-5372.365234375,-4413.1279296875,-16.689300537109375,6143.251953125,-8139.6103515625,1332.7598876953125,-5825.36083984375,-2850.691650390625,-2207.756103515625,7233.61962890625,8285.0458984375,-22977.193359375,-9636.0849609375,-995.000244140625,1258.0552978515625,-10197.1630859375,-1417.7957763671875,-3411.769775390625,-16040.0068359375,1219.9083251953125,-593.6622314453125,2042.4525146484375,-10817.05078125,-2743.403076171875,0.0,-1254.87646484375,0.0,-3594.5576171875,-0.0,1867.6121826171875
-16368.23046875,-19515.35546875,-5336.6025390625,-837.6439208984375,-359.2173156738281,10770.162109375,-4789.8291015625,-1770.6552734375,-1115.7989501953125,6313.32421875,-9267.330078125,-12421.6083984375,-5071.9580078125,5408.9228515625,-267.02880859375,-8810.361328125,-373.5224304199219,382.26446533203125,3207.524658203125,13860.06640625,2520.879150390625,7499.853515625,-723.2030029296875,12650.490234375,-6110.66796875,-6233.056640625,-3894.170166015625,-3890.9912109375,-8791.287109375,-3036.657958984375,4407.564453125,3056.526123046875,181.1981201171875,212.19253540039062,-2106.03076171875,4337.62890625,-3623.167724609375,16055.90234375,-5769.7294921875,-0.0,-7072.2900390625,6123.3837890625,-5368.3916015625,-4410.74365234375,-11.126200675964355,6149.60986328125,-8149.94140625,1328.7862548828125,-5822.9765625,-2853.07568359375,-2197.424560546875,7240.7724609375,9549.458984375,-22969.24609375,-9636.87890625,-1003.7421875,1269.976318359375,-10208.2890625,-1407.46435546875,-3410.97509765625,-16049.54296875,1221.4979248046875,-587.304443359375,2050.39990234375,-10820.2294921875,-2748.171630859375,0.0,-1261.2342529296875,0.0,-3596.146728515625,-0.0,1863.6385498046875
-16282.400390625,-19520.91796875,-5341.37109375,-859.8963623046875,-367.16461181640625,10764.5986328125,-4794.59765625,-1776.2183837890625,-1123.7462158203125,6292.6611328125,-9280.0458984375,-12431.14453125,-5045.73193359375,5398.59130859375,-261.4656982421875,-8815.9248046875,-381.4697265625,374.3171691894531,3201.96142578125,13848.9404296875,2515.31591796875,7492.701171875,-728.76611328125,12644.9267578125,-6113.05224609375,-6228.2880859375,-3902.117431640625,-3895.759521484375,-8795.26171875,-3048.578857421875,4399.61767578125,3053.347412109375,174.8402862548828,203.4505157470703,-2114.772705078125,4332.0654296875,-3629.525390625,16049.54296875,-5811.85009765625,-0.0,-7080.23681640625,6114.6416015625,-5376.3388671875,-4415.51220703125,-15.894571304321289,6139.2783203125,-8154.7099609375,1308.91796875,-5839.666015625,-2869.76513671875,-2192.65625,7236.00390625,10120.07421875,-22981.962890625,-9640.0576171875,-1026.789306640625,1265.2078857421875,-10213.8515625,-1396.338134765625,-3426.86962890625,-16051.1337890625,1215.934814453125,-597.6359252929688,2033.71044921875,-10812.2822265625,-2759.297607421875,0.0,-1277.1287841796875,0.0,-3614.42578125,-0.0,1842.180908203125
-16190.2099609375,-19554.296875,-5363.623046875,-855.9227294921875,-378.2908020019531,10759.0361328125,-4800.955078125,-1788.93408203125,-1134.07763671875,6264.05078125,-9289.58203125,-12431.14453125,-5063.2158203125,5377.92822265625,-261.4656982421875,-8821.4873046875,-386.23809814453125,365.5751647949219,3193.219482421875,13825.8935546875,2504.189697265625,7487.13818359375,-737.5081176757812,12636.9794921875,-6140.0732421875,-6218.75146484375,-3902.117431640625,-3912.448974609375,-8796.0556640625,-3066.06298828125,4391.67041015625,3052.552490234375,163.71409606933594,201.0663299560547,-2123.514892578125,4324.9130859375,-3633.4990234375,16040.8017578125,-5788.80322265625,-0.0,-7096.92626953125,6111.462890625,-5382.69677734375,-4426.63818359375,-20.66294288635254,6124.97314453125,-8152.32568359375,1314.4810791015625,-5846.0234375,-2884.86474609375,-2192.65625,7222.49365234375,10771.7509765625,-22997.85546875,-9639.2626953125,-1038.710205078125,1255.671142578125,-10195.5732421875,-1388.390869140625,-3450.71142578125,-16052.72265625,1207.9874267578125,-607.9674072265625,2005.1002197265625,-10809.8984375,-2766.4501953125,0.0,-1285.870849609375,0.0,-3633.4990234375,-0.0,1819.928466796875
-16209.2841796875,-19537.607421875,-5370.77587890625,-853.5385131835938,-373.5224304199219,10755.0625,-4807.3134765625,-1794.4971923828125,-1138.0513916015625,6259.28271484375,-9281.6357421875,-12428.7607421875,-5110.8994140625,5377.92822265625,-288.4864807128906,-8823.0771484375,-385.443359375,362.396240234375,3187.656494140625,13818.7412109375,2503.39501953125,7484.75390625,-739.892333984375,12631.416015625,-6132.1259765625,-6242.59326171875,-3906.8857421875,-3919.6015625,-8798.4404296875,-3062.884033203125,4386.90185546875,3053.347412109375,162.1246337890625,200.2716064453125,-2125.104248046875,4319.349609375,-3641.4462890625,16034.4443359375,-5762.5771484375,-0.0,-7093.74755859375,6101.92626953125,-5384.28662109375,-4429.0224609375,-30.19968605041504,6121.0,-8172.98876953125,1316.8653564453125,-5825.36083984375,-2872.94384765625,-2217.292724609375,7217.72509765625,11216.00390625,-23003.419921875,-9641.6474609375,-1024.4051513671875,1233.4188232421875,-10201.13671875,-1418.590576171875,-3450.71142578125,-16058.287109375,1204.0137939453125,-611.9410400390625,1997.153076171875,-10816.2568359375,-2770.423828125,0.0,-1289.0498046875,0.0,-3633.4990234375,-0.0,1816.74951171875
-16307.03515625,-19521.712890625,-5386.67041015625,-864.6647338867188,-394.9801025390625,10746.3193359375,-4828.77099609375,-1805.6234130859375,-1146.7933349609375,6261.6669921875,-9280.0458984375,-12439.88671875,-5114.07861328125,5377.1337890625,-329.01763916015625,-8838.1767578125,-401.33795166015625,347.29638671875,3174.94091796875,13811.587890625,2488.29541015625,7470.44873046875,-758.1710815429688,12618.701171875,-6141.66259765625,-6257.69287109375,-3939.4697265625,-3927.548828125,-8815.12890625,-3060.5,4372.5966796875,3035.86328125,151.7931671142578,185.96649169921875,-2140.998779296875,4306.63427734375,-3661.314697265625,16020.93359375,-5794.3662109375,-0.0,-7108.84716796875,6090.00537109375,-5407.33349609375,-4440.14892578125,-50.067901611328125,6109.0791015625,-8200.8046875,1306.5338134765625,-5857.1494140625,-2872.94384765625,-2257.029296875,7202.62548828125,10563.533203125,-22994.67578125,-9658.3369140625,-1018.8421020507812,1217.524169921875,-10228.1572265625,-1455.1480712890625,-3449.916748046875,-16077.3603515625,1189.708740234375,-623.0671997070312,1993.1793212890625,-10831.3564453125,-2778.37109375,0.0,-1301.765380859375,0.0,-3636.677978515625,-0.0,1811.981201171875
-16224.384765625,-19485.951171875,-5393.0283203125,-871.8172607421875,-397.3642883300781,10742.3466796875,-4823.2080078125,-1803.2392578125,-1141.230224609375,6268.0244140625,-9287.1982421875,-12439.88671875,-5102.15771484375,5382.69677734375,-319.48089599609375,-8843.7392578125,-404.516845703125,346.5016784667969,3179.709228515625,13822.71484375,2485.1162109375,7468.06494140625,-757.3763427734375,12618.701171875,-6147.22607421875,-6267.2294921875,-3936.290771484375,-3928.34326171875,-8822.2822265625,-3055.7314453125,4373.3916015625,3035.068603515625,146.2300567626953,182.78758239746094,-2141.79345703125,4302.66064453125,-3655.75146484375,16023.3173828125,-5796.75048828125,-0.0,-7114.41015625,6086.03125,-5405.744140625,-4441.73828125,-43.7100715637207,6113.05224609375,-8201.599609375,1300.176025390625,-5861.12353515625,-2874.533447265625,-2249.876708984375,7201.83056640625,9392.1025390625,-22981.166015625,-9665.4892578125,-1016.4578857421875,1232.6240234375,-10235.3095703125,-1443.2271728515625,-3437.995849609375,-16068.6171875,1191.298095703125,-621.477783203125,2001.92138671875,-10830.5615234375,-2777.576416015625,0.0,-1294.6129150390625,0.0,-3627.141357421875,-0.0,1818.3389892578125
-16188.62109375,-19480.38671875,-5393.8232421875,-878.9698486328125,-391.0064697265625,10742.3466796875,-4815.26025390625,-1800.85498046875,-1135.667236328125,6278.35595703125,-9315.013671875,-12434.3232421875,-5092.62109375,5389.84912109375,-305.17578125,-8838.970703125,-401.33795166015625,350.4753112792969,3183.6826171875,13830.662109375,2488.29541015625,7472.0380859375,-753.4027099609375,12621.0849609375,-6144.841796875,-6268.0244140625,-3926.75390625,-3925.164794921875,-8819.103515625,-3051.7578125,4374.98095703125,3038.247314453125,146.2300567626953,185.96649169921875,-2137.025146484375,4308.2236328125,-3649.393798828125,16027.2919921875,-5816.61865234375,-0.0,-7112.0263671875,6086.826171875,-5397.796875,-4439.35400390625,-36.55751419067383,6117.02587890625,-8202.3935546875,1289.844482421875,-5853.97119140625,-2876.122802734375,-2235.571533203125,7205.80419921875,8851.6875,-22978.783203125,-9665.4892578125,-1017.2525634765625,1239.776611328125,-10231.3359375,-1428.9219970703125,-3435.61181640625,-16056.6962890625,1197.656005859375,-614.3251953125,2011.4581298828125,-10828.177734375,-2771.218505859375,0.0,-1285.870849609375,0.0,-3622.372802734375,-0.0,1827.875732421875
-16222.7958984375,-19484.361328125,-5384.28662109375,-876.5856323242188,-382.26446533203125,10749.4990234375,-4810.4921875,-1795.2918701171875,-1132.48828125,6284.7138671875,-9315.80859375,-12431.939453125,-5091.03173828125,5393.0283203125,-297.2284851074219,-8839.7666015625,-393.3906555175781,356.8331298828125,3188.451171875,13835.4296875,2496.242431640625,7478.39599609375,-747.839599609375,12628.2373046875,-6136.09912109375,-6248.951171875,-3918.806640625,-3918.01220703125,-8804.00390625,-3046.989501953125,4381.33837890625,3043.810546875,154.17735290527344,190.73486328125,-2129.87255859375,4316.17138671875,-3645.420166015625,16032.8544921875,-5804.69775390625,-0.0,-7102.4892578125,6097.15771484375,-5391.43896484375,-4432.201171875,-32.5838737487793,6124.17822265625,-8194.4462890625,1291.4339599609375,-5843.63916015625,-2870.5595703125,-2226.82958984375,7212.162109375,9164.810546875,-22977.986328125,-9651.18359375,-1014.07373046875,1242.1607666015625,-10224.978515625,-1424.1536865234375,-3435.61181640625,-16050.3388671875,1204.80859375,-607.9674072265625,2014.636962890625,-10830.5615234375,-2769.629150390625,0.0,-1282.69189453125,0.0,-3619.194091796875,-0.0,1831.0546875
-16272.86328125,-19494.69140625,-5368.3916015625,-871.0225219726562,-383.8539123535156,10751.087890625,-4811.287109375,-1796.086669921875,-1131.6934814453125,6283.12451171875,-9308.6552734375,-12429.5546875,-5097.38916015625,5390.64404296875,-293.2548522949219,-8841.35546875,-390.21173095703125,357.62786865234375,3186.86181640625,13837.01953125,2497.83203125,7480.7802734375,-747.839599609375,12629.0322265625,-6138.4833984375,-6241.00341796875,-3918.806640625,-3918.01220703125,-8799.2353515625,-3042.22119140625,4384.517578125,3043.810546875,158.15098571777344,193.11904907226562,-2129.077880859375,4316.17138671875,-3645.420166015625,16031.265625,-5823.77099609375,-0.0,-7099.310546875,6101.13134765625,-5393.0283203125,-4432.201171875,-34.1733283996582,6124.97314453125,-8174.57861328125,1297.7918701171875,-5848.40771484375,-2876.91748046875,-2222.06103515625,7211.3671875,9243.48828125,-22985.935546875,-9644.826171875,-1006.921142578125,1239.776611328125,-10224.978515625,-1424.9483642578125,-3427.66455078125,-16056.6962890625,1203.2191162109375,-608.7620849609375,2012.2528076171875,-10828.9716796875,-2763.271240234375,0.0,-1289.0498046875,0.0,-3621.578125,-0.0,1828.6705322265625
-16301.4736328125,-19501.05078125,-5360.4443359375,-860.6910400390625,-381.4697265625,10751.8837890625,-4810.4921875,-1795.2918701171875,-1130.10400390625,6286.30322265625,-9327.7294921875,-12427.9658203125,-5078.31591796875,5388.259765625,-283.7181091308594,-8838.970703125,-391.0064697265625,358.422607421875,3186.86181640625,13837.814453125,2501.010986328125,7483.16455078125,-747.0448608398438,12629.0322265625,-6123.3837890625,-6244.1826171875,-3915.6279296875,-3915.6279296875,-8799.2353515625,-3042.22119140625,4385.3125,3041.426513671875,158.9457244873047,196.29795837402344,-2126.69384765625,4315.37646484375,-3644.62548828125,16032.8544921875,-5810.2607421875,-0.0,-7092.95263671875,6101.13134765625,-5392.2333984375,-4429.8173828125,-30.994415283203125,6124.97314453125,-8147.55712890625,1308.91796875,-5846.0234375,-2876.91748046875,-2214.90869140625,7211.3671875,8408.228515625,-22988.3203125,-9645.62109375,-1005.3316650390625,1249.3133544921875,-10228.951171875,-1422.564208984375,-3427.66455078125,-16061.4638671875,1202.4244384765625,-607.1726684570312,2012.2528076171875,-10834.5341796875,-2758.5029296875,0.0,-1290.6392822265625,0.0,-3623.167724609375,-0.0,1827.875732421875
-16276.041015625,-19532.837890625,-5358.85498046875,-858.306884765625,-384.6486511230469,10753.47265625,-4811.287109375,-1795.2918701171875,-1128.5146484375,6287.09814453125,-9348.392578125,-12431.939453125,-5059.2421875,5389.84912109375,-282.9233703613281,-8834.998046875,-393.3906555175781,356.0384216308594,3183.6826171875,13838.6083984375,2499.42138671875,7482.3701171875,-748.6343383789062,12628.2373046875,-6125.76806640625,-6238.619140625,-3916.42236328125,-3918.01220703125,-8806.3876953125,-3055.7314453125,4382.92822265625,3037.45263671875,157.35626220703125,196.29795837402344,-2128.283203125,4315.37646484375,-3645.420166015625,16032.060546875,-5798.33984375,-0.0,-7090.568359375,6105.89990234375,-5393.0283203125,-4430.6123046875,-30.19968605041504,6125.76806640625,-8143.58447265625,1313.6864013671875,-5853.17626953125,-2868.175537109375,-2215.703369140625,7212.162109375,7484.75390625,-22997.060546875,-9653.568359375,-1015.6631469726562,1261.2342529296875,-10236.1044921875,-1419.38525390625,-3432.432861328125,-16061.4638671875,1198.45068359375,-607.9674072265625,2013.84228515625,-10836.9189453125,-2772.80810546875,0.0,-1287.4603271484375,0.0,-3624.757080078125,-0.0,1829.4652099609375
-16243.4580078125,-19552.70703125,-5358.060546875,-844.0017700195312,-371.13824462890625,10763.0087890625,-4798.5712890625,-1784.96044921875,-1119.7725830078125,6294.25048828125,-9325.3447265625,-12419.2236328125,-5056.06298828125,5397.796875,-255.90261840820312,-8816.71875,-381.4697265625,366.369873046875,3196.3984375,13849.7353515625,2509.7529296875,7491.90673828125,-735.918701171875,12637.7744140625,-6116.2314453125,-6236.2353515625,-3900.52783203125,-3903.706787109375,-8800.029296875,-3052.552490234375,4394.05419921875,3055.7314453125,168.4824676513672,205.03997802734375,-2117.95166015625,4323.32373046875,-3632.70458984375,16043.9814453125,-5787.2138671875,-0.0,-7080.23681640625,6111.462890625,-5379.51806640625,-4423.45947265625,-17.48402976989746,6134.51025390625,-8161.06787109375,1327.991455078125,-5833.3076171875,-2862.612548828125,-2189.477294921875,7224.8779296875,6579.55810546875,-22989.115234375,-9644.826171875,-1011.6895141601562,1286.66552734375,-10224.1826171875,-1409.0538330078125,-3430.048583984375,-16033.6494140625,1208.7822265625,-600.0200805664062,2021.78955078125,-10822.61328125,-2760.88720703125,0.0,-1289.0498046875,0.0,-3622.372802734375,-0.0,1835.822998046875
-16255.37890625,-19546.349609375,-5357.265625,-836.0545043945312,-367.16461181640625,10760.625,-4791.41845703125,-1782.576171875,-1115.7989501953125,6296.634765625,-9295.9404296875,-12412.865234375,-5064.0107421875,5393.8232421875,-250.33950805664062,-8819.103515625,-376.70135498046875,368.7540588378906,3200.3720703125,13852.119140625,2512.13720703125,7493.49609375,-732.73974609375,12640.158203125,-6116.2314453125,-6237.82470703125,-3889.401611328125,-3903.706787109375,-8790.4931640625,-3050.963134765625,4398.82275390625,3059.705078125,171.661376953125,207.42416381835938,-2116.3623046875,4322.52880859375,-3626.3466796875,16045.5703125,-5776.88232421875,-0.0,-7080.23681640625,6113.05224609375,-5372.365234375,-4423.45947265625,-11.920928955078125,6136.89404296875,-8184.90966796875,1336.7335205078125,-5820.59228515625,-2868.175537109375,-2182.32470703125,7224.8779296875,4828.77099609375,-22985.935546875,-9637.673828125,-1021.2262573242188,1296.9970703125,-10236.1044921875,-1400.311767578125,-3422.896240234375,-16030.4697265625,1212.755859375,-596.0464477539062,2022.584228515625,-10817.05078125,-2748.96630859375,0.0,-1281.1025390625,0.0,-3616.809814453125,-0.0,1835.822998046875
-16257.7626953125,-19513.765625,-5376.3388671875,-847.1806640625,-380.67498779296875,10747.9091796875,-4808.10791015625,-1794.4971923828125,-1122.15673828125,6291.8662109375,-9279.2509765625,-12428.7607421875,-5087.0576171875,5392.2333984375,-290.075927734375,-8832.6142578125,-389.4170227050781,356.8331298828125,3188.451171875,13847.3515625,2497.83203125,7481.5751953125,-747.839599609375,12626.6484375,-6133.71533203125,-6249.74560546875,-3912.448974609375,-3920.396240234375,-8803.2080078125,-3059.705078125,4385.3125,3051.7578125,158.9457244873047,197.88742065429688,-2131.462158203125,4309.81298828125,-3642.2412109375,16033.6494140625,-5779.2666015625,-0.0,-7098.51611328125,6102.720703125,-5388.259765625,-4436.1748046875,-27.815500259399414,6127.357421875,-8188.08837890625,1322.4283447265625,-5837.28173828125,-2882.480712890625,-2218.88232421875,7212.95703125,2800.62353515625,-22993.8828125,-9649.5947265625,-1019.6367797851562,1269.976318359375,-10261.53515625,-1417.7957763671875,-3434.022216796875,-16047.9541015625,1199.2454833984375,-605.5831909179688,2016.2265625,-10842.482421875,-2764.06591796875,0.0,-1286.66552734375,0.0,-3617.6044921875,-0.0,1831.0546875
-16242.662109375,-19489.130859375,-5369.9814453125,-859.8963623046875,-388.6222839355469,10752.677734375,-4812.08203125,-1785.755126953125,-1123.7462158203125,6285.5087890625,-9275.27734375,-12428.7607421875,-5103.7470703125,5396.20751953125,-309.1494140625,-8815.9248046875,-392.5959167480469,356.0384216308594,3187.656494140625,13845.76171875,2493.063720703125,7481.5751953125,-751.813232421875,12629.0322265625,-6144.046875,-6247.36181640625,-3929.13818359375,-3906.091064453125,-8804.7978515625,-3052.552490234375,4381.33837890625,3046.989501953125,158.15098571777344,196.29795837402344,-2134.640869140625,4309.81298828125,-3647.009521484375,16036.033203125,-5811.85009765625,-0.0,-7103.2841796875,6104.310546875,-5396.20751953125,-4425.84375,-30.994415283203125,6132.9208984375,-8171.39892578125,1309.7127685546875,-5848.40771484375,-2865.791259765625,-2237.955810546875,7228.8515625,2327.760009765625,-22976.3984375,-9649.5947265625,-998.1790771484375,1227.855712890625,-10248.025390625,-1416.206298828125,-3453.095703125,-16070.2080078125,1200.0401611328125,-604.7884521484375,2013.84228515625,-10847.2509765625,-2764.06591796875,0.0,-1304.9443359375,0.0,-3635.88330078125,-0.0,1827.875732421875
-16262.53125,-19492.30859375,-5364.41796875,-867.0488891601562,-385.443359375,10757.4462890625,-4809.69775390625,-1780.1920166015625,-1121.362060546875,6285.5087890625,-9280.8408203125,-12427.1708984375,-5113.28369140625,5390.64404296875,-297.2284851074219,-8814.3349609375,-392.5959167480469,356.8331298828125,3190.835205078125,13845.76171875,2497.037109375,7481.5751953125,-747.839599609375,12633.005859375,-6136.09912109375,-6234.64599609375,-3926.75390625,-3898.9384765625,-8811.15625,-3048.578857421875,4384.517578125,3045.39990234375,159.74044799804688,197.0926971435547,-2129.87255859375,4313.787109375,-3643.83056640625,16039.212890625,-5803.9033203125,-0.0,-7098.51611328125,6109.0791015625,-5394.61767578125,-4421.0751953125,-26.226043701171875,6135.3046875,-8180.1416015625,1302.5601806640625,-5846.818359375,-2853.870361328125,-2226.82958984375,7232.0302734375,3205.140380859375,-22972.42578125,-9656.7470703125,-995.794921875,1213.550537109375,-10240.8720703125,-1406.669677734375,-3445.1484375,-16067.8232421875,1201.629638671875,-602.404296875,2009.86865234375,-10834.5341796875,-2767.2451171875,0.0,-1305.739013671875,0.0,-3638.267578125,-0.0,1821.5179443359375
-16307.03515625,-19534.4296875,-5373.95458984375,-867.8436279296875,-391.80120849609375,10749.4990234375,-4814.4658203125,-1792.1129150390625,-1120.5673828125,6296.634765625,-9308.6552734375,-12430.3505859375,-5102.15771484375,5399.3857421875,-307.5599670410156,-8816.71875,-395.77484130859375,348.09112548828125,3185.272216796875,13849.7353515625,2492.268798828125,7476.01171875,-754.1974487304688,12625.05859375,-6140.0732421875,-6245.77197265625,-3930.7275390625,-3910.859619140625,-8819.8974609375,-3058.910400390625,4379.74951171875,3039.042236328125,153.3826141357422,194.70851135253906,-2137.025146484375,4308.2236328125,-3647.009521484375,16032.8544921875,-5798.33984375,-0.0,-7104.87353515625,6104.310546875,-5401.77001953125,-4430.6123046875,-30.994415283203125,6129.74169921875,-8188.8837890625,1304.149658203125,-5856.35498046875,-2863.4072265625,-2238.75048828125,7217.72509765625,3941.05908203125,-22998.65234375,-9665.4892578125,-1007.7158203125,1223.0872802734375,-10239.283203125,-1426.537841796875,-3432.432861328125,-16067.8232421875,1195.2718505859375,-602.404296875,2019.4053955078125,-10832.150390625,-2771.218505859375,0.0,-1297.7918701171875,0.0,-3616.01513671875,-0.0,1834.233642578125
-16287.1689453125,-19570.19140625,-5369.9814453125,-855.1279907226562,-390.21173095703125,10751.8837890625,-4811.287109375,-1785.755126953125,-1119.7725830078125,6300.6083984375,-9311.0400390625,-12427.1708984375,-5092.62109375,5399.3857421875,-301.9968566894531,-8820.693359375,-392.5959167480469,351.2700500488281,3189.245849609375,13851.3251953125,2493.8583984375,7479.98583984375,-751.0185546875,12629.0322265625,-6141.66259765625,-6249.74560546875,-3927.548828125,-3910.064697265625,-8816.71875,-3059.705078125,4380.5439453125,3043.810546875,157.35626220703125,195.50323486328125,-2136.23046875,4311.40283203125,-3643.035888671875,16038.41796875,-5792.7763671875,-0.0,-7101.69482421875,6102.720703125,-5397.796875,-4428.22802734375,-25.43131446838379,6136.89404296875,-8152.32568359375,1316.070556640625,-5857.9443359375,-2863.4072265625,-2234.77685546875,7222.49365234375,3588.994384765625,-23007.392578125,-9661.515625,-1002.9474487304688,1234.2135009765625,-10237.693359375,-1424.1536865234375,-3434.817138671875,-16059.875,1196.861328125,-600.0200805664062,2024.1737060546875,-10837.7138671875,-2764.06591796875,0.0,-1289.844482421875,0.0,-3622.372802734375,-0.0,1837.4124755859375
-16278.4248046875,-19528.865234375,-5363.623046875,-847.9754028320312,-383.0591735839844,10751.8837890625,-4802.544921875,-1782.576171875,-1117.388427734375,6297.4296875,-9332.498046875,-12432.734375,-5061.62646484375,5397.796875,-275.77081298828125,-8846.9189453125,-390.21173095703125,356.8331298828125,3194.014404296875,13852.9140625,2499.42138671875,7481.5751953125,-743.865966796875,12631.416015625,-6128.94677734375,-6254.51416015625,-3913.24365234375,-3912.448974609375,-8806.3876953125,-3055.7314453125,4382.13330078125,3048.578857421875,157.35626220703125,193.9137725830078,-2129.87255859375,4313.787109375,-3635.88330078125,16043.1865234375,-5808.67138671875,-0.0,-7091.36328125,6097.9521484375,-5388.259765625,-4429.0224609375,-18.278757095336914,6144.046875,-8142.7890625,1324.017822265625,-5848.40771484375,-2873.738525390625,-2210.14013671875,7220.90380859375,2601.94140625,-22989.908203125,-9650.3896484375,-1006.921142578125,1258.85009765625,-10248.025390625,-1411.43798828125,-3413.359375,-16062.259765625,1200.8348388671875,-596.0464477539062,2020.2000732421875,-10850.4296875,-2764.86083984375,0.0,-1282.69189453125,0.0,-3619.194091796875,-0.0,1828.6705322265625
-16299.8828125,-19493.8984375,-5351.7021484375,-850.359619140625,-379.0855407714844,10753.47265625,-4796.98193359375,-1784.96044921875,-1110.23583984375,6301.40283203125,-9322.9609375,-12433.529296875,-5071.9580078125,5408.9228515625,-259.0815124511719,-8846.1240234375,-391.0064697265625,358.422607421875,3197.193115234375,13858.4775390625,2504.189697265625,7480.7802734375,-742.2764892578125,12632.2109375,-6132.9208984375,-6251.3349609375,-3902.117431640625,-3913.24365234375,-8800.82421875,-3054.14208984375,4383.72265625,3045.39990234375,162.1246337890625,194.70851135253906,-2125.104248046875,4312.197265625,-3630.3203125,16041.59765625,-5837.28173828125,-0.0,-7088.97900390625,6100.33642578125,-5381.90234375,-4426.63818359375,-13.51038646697998,6140.86767578125,-8165.0419921875,1320.8388671875,-5837.28173828125,-2869.76513671875,-2191.861328125,7214.54638671875,1524.2894287109375,-22973.21875,-9644.826171875,-1007.7158203125,1264.4132080078125,-10258.357421875,-1398.7222900390625,-3416.538330078125,-16077.3603515625,1204.0137939453125,-594.4569702148438,2025.7633056640625,-10836.9189453125,-2765.655517578125,0.0,-1282.69189453125,0.0,-3616.01513671875,-0.0,1831.0546875
-16265.7109375,-19485.951171875,-5369.1865234375,-855.1279907226562,-379.8802795410156,10758.240234375,-4794.59765625,-1784.165771484375,-1101.493896484375,6312.529296875,-9300.708984375,-12426.3759765625,-5095.7998046875,5430.38037109375,-263.05517578125,-8840.560546875,-390.21173095703125,359.2173156738281,3198.78271484375,13871.193359375,2500.21630859375,7482.3701171875,-741.4818115234375,12634.5947265625,-6134.51025390625,-6245.77197265625,-3906.091064453125,-3908.475341796875,-8805.5927734375,-3044.605224609375,4382.92822265625,3048.578857421875,160.53517150878906,197.0926971435547,-2127.48828125,4313.787109375,-3628.730712890625,16043.9814453125,-5810.2607421875,-0.0,-7098.51611328125,6105.10498046875,-5381.107421875,-4422.66455078125,-6.357828617095947,6144.046875,-8183.31982421875,1316.8653564453125,-5835.69189453125,-2864.201904296875,-2193.450927734375,7216.1357421875,103.3147201538086,-22964.4765625,-9651.18359375,-1003.7421875,1250.90283203125,-10267.0986328125,-1378.059326171875,-3418.92236328125,-16065.439453125,1204.0137939453125,-588.8939208984375,2038.4788818359375,-10828.9716796875,-2764.86083984375,0.0,-1285.076171875,0.0,-3612.04150390625,-0.0,1842.180908203125
-16252.994140625,-19495.486328125,-5377.92822265625,-860.6910400390625,-387.8275451660156,10752.677734375,-4797.77685546875,-1786.5499267578125,-1094.34130859375,6312.529296875,-9293.556640625,-12435.119140625,-5098.978515625,5427.99609375,-278.1549987792969,-8828.6396484375,-394.9801025390625,354.4489440917969,3194.80908203125,13872.7822265625,2495.44775390625,7479.19091796875,-746.2501220703125,12631.416015625,-6141.66259765625,-6253.71923828125,-3914.0380859375,-3914.0380859375,-8811.15625,-3049.37353515625,4377.365234375,3043.810546875,154.97207641601562,192.32432556152344,-2133.051513671875,4309.0185546875,-3634.293701171875,16040.0068359375,-5818.2080078125,-0.0,-7105.66845703125,6098.7470703125,-5389.0546875,-4426.63818359375,-7.9472856521606445,6141.66259765625,-8190.47265625,1311.30224609375,-5846.818359375,-2872.149169921875,-2208.55078125,7217.72509765625,-2168.01953125,-22970.833984375,-9655.9521484375,-1019.6367797851562,1238.9818115234375,-10273.45703125,-1383.62255859375,-3415.74365234375,-16060.6708984375,1198.45068359375,-590.4833374023438,2038.4788818359375,-10831.3564453125,-2774.397705078125,0.0,-1293.0234375,0.0,-3619.194091796875,-0.0,1836.6177978515625
-16255.37890625,-19502.640625,-5380.3125,-865.45947265625,-391.80120849609375,10748.7041015625,-4804.13427734375,-1786.5499267578125,-1090.36767578125,6320.4765625,-9295.9404296875,-12439.091796875,-5108.51513671875,5448.6591796875,-302.7915954589844,-8834.203125,-397.3642883300781,351.2700500488281,3193.219482421875,13881.5244140625,2491.47412109375,7476.01171875,-749.4290771484375,12629.0322265625,-6148.0205078125,-6255.30859375,-3921.190673828125,-3919.6015625,-8820.693359375,-3053.347412109375,4376.5703125,3039.8369140625,152.587890625,189.9401397705078,-2136.23046875,4304.25,-3638.267578125,16037.6220703125,-5821.38671875,-0.0,-7109.64208984375,6096.36328125,-5393.0283203125,-4431.40673828125,-14.30511474609375,6143.251953125,-8188.08837890625,1308.91796875,-5852.38134765625,-2873.738525390625,-2231.597900390625,7213.75146484375,-3813.107666015625,-22974.810546875,-9664.6943359375,-1027.5841064453125,1227.855712890625,-10260.7412109375,-1415.41162109375,-3411.769775390625,-16076.564453125,1196.0665283203125,-590.4833374023438,2053.57861328125,-10843.27734375,-2778.37109375,0.0,-1288.255126953125,0.0,-3617.6044921875,-0.0,1840.5914306640625
