-11970.2021484375,-14120.73828125,-5517.005859375,-112.8514633178711,229.6765594482422,13314.087890625,-3870.328125,-662.8036499023438,-839.2333984375,5179.24658203125,-8503.5966796875,-9130.63671875,-4869.30224609375,4333.65478515625,-258.28680419921875,-8075.2373046875,311.5335998535156,1405.8748779296875,4044.3740234375,15190.4423828125,2876.122802734375,9050.369140625,617.504150390625,14233.5888671875,-4436.9697265625,-5562.3056640625,-3821.05517578125,-3483.29541015625,-6746.45068359375,-1344.6807861328125,5869.0703125,4808.90283203125,905.1958618164062,1883.5068359375,-963.2110595703125,5264.2822265625,-2678.2353515625,17632.642578125,-6246.56689453125,-0.0,-5727.609375,7466.47509765625,-3958.543212890625,-3495.21630859375,578.5624389648438,7046.06396484375,-6779.03515625,1921.65380859375,-5598.86328125,-1839.001953125,-2111.593994140625,7851.91845703125,-2226.034912109375,-13968.150390625,-7423.5595703125,-1148.3828125,157.35626220703125,-8357.365234375,-2019.4053955078125,-4285.1767578125,-11929.6708984375,2618.630615234375,-105.69890594482422,1196.0665283203125,-8428.0966796875,-711.2821044921875,0.0,-2252.260986328125,0.0,-3247.260986328125,-0.0,794.7285766601562
-11939.2080078125,-14061.927734375,-5515.41650390625,-112.05673217773438,234.44493103027344,13318.8564453125,-3863.970458984375,-658.0352783203125,-835.259765625,5187.193359375,-8487.701171875,-9114.7421875,-4856.58642578125,4336.0390625,-240.80276489257812,-8077.62158203125,317.8914489746094,1413.8221435546875,4051.526611328125,15197.5947265625,2878.5068359375,9056.7275390625,626.2461547851562,14238.357421875,-4432.201171875,-5590.91552734375,-3811.518310546875,-3480.9111328125,-6735.32470703125,-1335.14404296875,5875.4287109375,4816.05517578125,910.7589721679688,1889.8646240234375,-958.4426879882812,5271.4345703125,-2670.2880859375,17638.20703125,-6237.82470703125,-0.0,-5724.43017578125,7469.654296875,-3951.390625,-3488.063720703125,586.5097045898438,7049.24267578125,-6780.62451171875,1924.0379638671875,-5594.88916015625,-1822.312744140625,-2094.10986328125,7852.71337890625,-673.9298706054688,-13941.12890625,-7413.228515625,-1129.309326171875,170.8666534423828,-8358.1611328125,-2006.6898193359375,-4275.64013671875,-11918.544921875,2625.783203125,-97.75161743164062,1204.0137939453125,-8413.7919921875,-701.745361328125,0.0,-2241.92919921875,0.0,-3233.75048828125,-0.0,802.6759033203125
-11938.4130859375,-14034.9072265625,-5522.5693359375,-131.92494201660156,225.7029266357422,13310.115234375,-3868.73876953125,-661.2141723632812,-842.4122924804688,5180.041015625,-8495.6484375,-9118.7158203125,-4870.8916015625,4324.9130859375,-241.5974884033203,-8065.70068359375,305.97052001953125,1405.0802001953125,4045.96337890625,15188.853515625,2869.76513671875,9046.3955078125,618.298828125,14231.205078125,-4435.38037109375,-5612.37353515625,-3819.465576171875,-3476.9375,-6742.4775390625,-1327.19677734375,5865.89208984375,4809.69775390625,902.0169677734375,1876.354248046875,-965.59521484375,5263.4873046875,-2674.26171875,17632.642578125,-6248.951171875,-0.0,-5731.58251953125,7452.96484375,-3957.74853515625,-3493.626953125,582.5360717773438,7043.6796875,-6783.80322265625,1905.7591552734375,-5605.220703125,-1831.8494873046875,-2095.69921875,7853.5078125,-430.7428894042969,-13899.802734375,-7421.97021484375,-1118.18310546875,162.1246337890625,-8348.6240234375,-1993.9739990234375,-4285.1767578125,-11926.4921875,2617.8359375,-105.69890594482422,1192.0928955078125,-8422.5341796875,-716.0504760742188,0.0,-2253.850341796875,0.0,-3248.0556640625,-0.0,787.5760498046875
-11953.5126953125,-14041.2646484375,-5535.28466796875,-143.0511474609375,204.24525451660156,13300.578125,-3885.42822265625,-668.3667602539062,-844.7965087890625,5172.88818359375,-8508.3642578125,-9134.6103515625,-4885.19677734375,4327.29736328125,-289.2812194824219,-8069.67431640625,294.84429931640625,1393.1593017578125,4031.658203125,15184.0849609375,2855.4599609375,9033.6796875,602.404296875,14220.078125,-4454.4541015625,-5620.32080078125,-3844.89697265625,-3483.29541015625,-6754.3984375,-1321.6336669921875,5852.38134765625,4799.3662109375,887.7118530273438,1862.8438720703125,-980.6951293945312,5250.77197265625,-2691.745849609375,17623.10546875,-6261.6669921875,-0.0,-5749.06689453125,7440.2490234375,-3979.2060546875,-3503.16357421875,566.6414794921875,7039.70556640625,-6791.75048828125,1894.6329345703125,-5629.0625,-1839.796630859375,-2140.998779296875,7851.1240234375,-568.23095703125,-13893.4453125,-7435.48046875,-1121.362060546875,138.28277587890625,-8351.802734375,-2022.584228515625,-4293.91845703125,-11943.1806640625,2601.94140625,-116.0303726196289,1187.324462890625,-8437.6337890625,-727.1766357421875,0.0,-2263.386962890625,0.0,-3263.950439453125,-0.0,775.6550903320312
-11970.9970703125,-14023.78125,-5537.6689453125,-140.66696166992188,198.68214416503906,13300.578125,-3890.9912109375,-661.2141723632812,-846.385986328125,5161.76220703125,-8510.7490234375,-9148.12109375,-4879.63330078125,4326.50244140625,-297.2284851074219,-8065.70068359375,294.0495910644531,1389.185546875,4030.86328125,15177.7265625,2853.870361328125,9032.8857421875,600.8148193359375,14221.66796875,-4467.96435546875,-5619.52587890625,-3852.049560546875,-3473.7587890625,-6756.78271484375,-1308.91796875,5849.9970703125,4796.18701171875,884.532958984375,1859.6649169921875,-984.668701171875,5249.18212890625,-2696.51416015625,17625.490234375,-6264.84521484375,-0.0,-5754.62939453125,7441.0439453125,-3983.1796875,-3499.98486328125,563.4625854492188,7046.8583984375,-6794.134765625,1895.427734375,-5638.599609375,-1836.6177978515625,-2151.330322265625,7857.48193359375,-810.6231689453125,-13890.2666015625,-7434.68603515625,-1122.9515380859375,127.95130920410156,-8347.0341796875,-2034.505126953125,-4280.408203125,-11943.1806640625,2601.146728515625,-115.23564910888672,1176.1983642578125,-8440.8125,-734.3292236328125,0.0,-2278.487060546875,0.0,-3281.434326171875,-0.0,749.4290771484375
-11982.123046875,-14022.19140625,-5526.54248046875,-123.9776611328125,209.0136260986328,13315.677734375,-3879.0703125,-659.624755859375,-833.6702880859375,5173.68310546875,-8506.775390625,-9134.6103515625,-4858.970703125,4343.19140625,-271.79718017578125,-8045.037109375,303.5863342285156,1399.51708984375,4040.400146484375,15189.6474609375,2864.99658203125,9042.421875,613.5304565429688,14231.205078125,-4458.42724609375,-5597.2734375,-3833.770751953125,-3464.221923828125,-6751.21923828125,-1303.3548583984375,5857.9443359375,4803.33935546875,894.0697021484375,1872.380615234375,-972.747802734375,5259.513671875,-2684.59326171875,17632.642578125,-6257.69287109375,-0.0,-5745.0927734375,7456.14404296875,-3968.87451171875,-3487.26904296875,577.7677001953125,7042.08984375,-6784.59765625,1911.322265625,-5626.6787109375,-1815.954833984375,-2125.104248046875,7861.455078125,-939.3692016601562,-13882.3193359375,-7428.328125,-1091.162353515625,150.99842834472656,-8323.9873046875,-2018.6107177734375,-4297.89208984375,-11944.7705078125,2613.8623046875,-106.4936294555664,1186.52978515625,-8436.0439453125,-716.84521484375,0.0,-2264.181884765625,0.0,-3256.7978515625,-0.0,770.092041015625
-11981.328125,-14038.0859375,-5515.41650390625,-119.20928955078125,224.90818786621094,13329.1884765625,-3860.79150390625,-643.7301635742188,-820.9546508789062,5186.39892578125,-8507.5693359375,-9117.9208984375,-4850.22900390625,4353.5234375,-240.00804138183594,-8002.1220703125,315.50726318359375,1414.616943359375,4055.5,15203.158203125,2877.712158203125,9052.75390625,627.8355712890625,14245.509765625,-4434.58544921875,-5585.3525390625,-3813.902587890625,-3446.738037109375,-6742.4775390625,-1308.91796875,5869.865234375,4812.87646484375,903.6064453125,1884.301513671875,-957.64794921875,5271.4345703125,-2668.698486328125,17647.744140625,-6250.5400390625,-0.0,-5729.1982421875,7467.27001953125,-3949.006591796875,-3472.964111328125,594.4569702148438,7055.6005859375,-6775.06103515625,1916.8853759765625,-5605.220703125,-1807.212890625,-2094.10986328125,7884.50244140625,-837.6439208984375,-13885.498046875,-7420.380859375,-1075.267822265625,181.1981201171875,-8297.7607421875,-1999.5372314453125,-4301.8662109375,-11945.5654296875,2626.578125,-90.59906005859375,1196.861328125,-8428.8916015625,-695.3875122070312,0.0,-2262.59228515625,0.0,-3263.950439453125,-0.0,782.012939453125
-11993.2490234375,-14038.0859375,-5528.1318359375,-149.4089813232422,211.39781188964844,13302.9619140625,-3872.71240234375,-657.2405395507812,-831.2861328125,5172.88818359375,-8532.2060546875,-9134.6103515625,-4868.50732421875,4336.833984375,-254.31314086914062,-8033.91162109375,295.6390380859375,1397.9276123046875,4042.7841796875,15192.826171875,2860.228271484375,9032.8857421875,611.1463012695312,14227.2314453125,-4447.30126953125,-5623.49951171875,-3831.386474609375,-3471.37451171875,-6752.01416015625,-1331.17041015625,5850.7919921875,4795.392578125,886.9171142578125,1862.049072265625,-972.747802734375,5251.56640625,-2681.414306640625,17633.4375,-6264.84521484375,-0.0,-5745.0927734375,7438.65966796875,-3963.311767578125,-3495.21630859375,582.5360717773438,7046.06396484375,-6795.724609375,1888.275146484375,-5617.1416015625,-1838.207275390625,-2106.03076171875,7866.22314453125,-171.661376953125,-13901.392578125,-7429.91796875,-1099.109619140625,155.7667999267578,-8310.4775390625,-2006.6898193359375,-4301.0712890625,-11948.7451171875,2611.47802734375,-101.72525787353516,1179.377197265625,-8436.8388671875,-712.0768432617188,0.0,-2277.692138671875,0.0,-3278.25537109375,-0.0,762.1447143554688
-11971.791015625,-13995.96484375,-5532.900390625,-153.3826141357422,209.808349609375,13303.7568359375,-3875.0966796875,-654.8563842773438,-833.6702880859375,5183.2197265625,-8533.794921875,-9140.173828125,-4882.017578125,4329.681640625,-278.1549987792969,-8054.57421875,295.6390380859375,1397.1328125,4043.5791015625,15200.7744140625,2860.228271484375,9034.474609375,612.7357177734375,14229.615234375,-4454.4541015625,-5626.6787109375,-3835.3603515625,-3472.964111328125,-6752.01416015625,-1329.5809326171875,5851.5869140625,4794.59765625,887.7118530273438,1861.25439453125,-972.747802734375,5253.15625,-2682.208984375,17635.822265625,-6256.8984375,-0.0,-5746.6826171875,7441.0439453125,-3967.28515625,-3494.421630859375,581.7413330078125,7053.21630859375,-6805.26123046875,1884.301513671875,-5619.52587890625,-1839.001953125,-2130.66748046875,7862.25048828125,1690.3876953125,-13892.650390625,-7429.91796875,-1109.441162109375,131.92494201660156,-8297.7607421875,-2010.663330078125,-4276.4345703125,-11940.001953125,2615.451904296875,-96.9568862915039,1185.735107421875,-8438.427734375,-710.4873657226562,0.0,-2236.3662109375,0.0,-3245.671630859375,-0.0,771.6814575195312
-11970.2021484375,-14000.7333984375,-5527.33740234375,-150.99842834472656,213.78199768066406,13302.9619140625,-3870.328125,-652.47216796875,-829.6966552734375,5190.37255859375,-8527.4384765625,-9136.994140625,-4878.8388671875,4336.833984375,-269.4129943847656,-8073.6474609375,295.6390380859375,1401.1064453125,4048.347412109375,15205.54296875,2862.612548828125,9036.064453125,617.504150390625,14230.41015625,-4457.63232421875,-5614.75732421875,-3829.797119140625,-3481.705810546875,-6752.80908203125,-1358.191162109375,5853.17626953125,4792.21337890625,889.30126953125,1862.049072265625,-971.1583251953125,5255.54052734375,-2677.440673828125,17638.20703125,-6268.0244140625,-0.0,-5744.29833984375,7446.60693359375,-3962.516845703125,-3496.010986328125,585.7149658203125,7060.369140625,-6788.57177734375,1885.09619140625,-5615.55224609375,-1835.0283203125,-2122.719970703125,7860.66064453125,4333.65478515625,-13908.5458984375,-7428.328125,-1111.030517578125,138.28277587890625,-8290.6083984375,-2005.8948974609375,-4271.666015625,-11937.6181640625,2618.630615234375,-90.59906005859375,1189.708740234375,-8436.8388671875,-718.4346313476562,0.0,-2215.703369140625,0.0,-3238.51904296875,-0.0,759.7605590820312
-11991.66015625,-14030.138671875,-5528.9267578125,-158.9457244873047,208.21888732910156,13296.6044921875,-3874.302001953125,-658.8300170898438,-824.133544921875,5191.16748046875,-8525.8486328125,-9132.2255859375,-4882.017578125,4363.06005859375,-277.36029052734375,-8060.93212890625,290.87066650390625,1393.9539794921875,4044.3740234375,15211.8994140625,2856.254638671875,9031.2958984375,612.7357177734375,14224.8466796875,-4467.16943359375,-5621.91015625,-3836.94970703125,-3483.29541015625,-6761.55078125,-1356.6016845703125,5848.40771484375,4790.6240234375,885.32763671875,1857.28076171875,-974.3372802734375,5249.97705078125,-2681.414306640625,17633.4375,-6266.43505859375,-0.0,-5749.861328125,7438.65966796875,-3968.87451171875,-3499.98486328125,585.7149658203125,7055.6005859375,-6778.240234375,1877.943603515625,-5625.8837890625,-1843.7703857421875,-2129.87255859375,7852.71337890625,4660.28857421875,-13920.466796875,-7437.0703125,-1111.030517578125,135.89859008789062,-8297.7607421875,-2005.1002197265625,-4268.4873046875,-11936.0283203125,2611.47802734375,-92.98324584960938,1194.47705078125,-8446.3759765625,-720.0241088867188,0.0,-2232.392578125,0.0,-3249.645263671875,-0.0,748.6343383789062
-12004.375,-14046.828125,-5523.36376953125,-178.0192108154297,210.6030731201172,13297.3984375,-3870.328125,-658.0352783203125,-823.3388061523438,5174.47802734375,-8524.2587890625,-9140.96875,-4881.22314453125,4362.26513671875,-269.4129943847656,-8069.67431640625,290.87066650390625,1393.9539794921875,4044.3740234375,15207.1318359375,2858.638671875,9029.7060546875,612.7357177734375,14225.642578125,-4457.63232421875,-5623.49951171875,-3832.97607421875,-3484.885009765625,-6763.14013671875,-1327.991455078125,5847.61279296875,4792.21337890625,886.9171142578125,1858.8701171875,-972.747802734375,5249.18212890625,-2678.2353515625,17635.822265625,-6252.92431640625,-0.0,-5744.29833984375,7438.65966796875,-3967.28515625,-3499.98486328125,588.8939208984375,7052.42138671875,-6779.03515625,1857.28076171875,-5621.91015625,-1843.7703857421875,-2121.92529296875,7851.91845703125,2663.93017578125,-13924.439453125,-7438.65966796875,-1117.388427734375,139.07749938964844,-8322.3984375,-1987.6163330078125,-4284.3818359375,-11940.796875,2611.47802734375,-93.7779769897461,1178.58251953125,-8447.96484375,-723.2030029296875,0.0,-2236.3662109375,0.0,-3259.181884765625,-0.0,752.6079711914062
-11983.7119140625,-14045.23828125,-5511.44287109375,-162.9193572998047,218.5503692626953,13302.9619140625,-3863.970458984375,-652.47216796875,-830.4913940429688,5157.78857421875,-8518.6962890625,-9140.96875,-4862.9443359375,4335.24462890625,-252.72369384765625,-8060.1376953125,297.2284851074219,1404.285400390625,4049.142333984375,15186.46875,2867.380859375,9035.26953125,619.8883056640625,14231.205078125,-4444.1220703125,-5621.91015625,-3822.64453125,-3476.142822265625,-6748.8349609375,-1307.32861328125,5853.97119140625,4798.5712890625,894.8643798828125,1865.22802734375,-966.3899536132812,5254.74560546875,-2673.467041015625,17641.38671875,-6252.1298828125,-0.0,-5731.58251953125,7437.0703125,-3956.95361328125,-3493.626953125,590.4833374023438,7050.83203125,-6786.98193359375,1873.969970703125,-5613.16845703125,-1840.5914306640625,-2106.82568359375,7861.455078125,1168.2509765625,-13908.5458984375,-7427.53369140625,-1120.5673828125,159.74044799804688,-8313.65625,-1985.2320556640625,-4289.9453125,-11936.82421875,2618.630615234375,-96.16216278076172,1162.6878662109375,-8436.0439453125,-712.87158203125,0.0,-2233.1875,0.0,-3255.208251953125,-0.0,757.3763427734375
-11975.765625,-14065.9013671875,-5524.953125,-135.10386657714844,217.75563049316406,13298.98828125,-3868.73876953125,-661.2141723632812,-850.359619140625,5156.19921875,-8513.927734375,-9147.326171875,-4861.35498046875,4292.3291015625,-247.955322265625,-8059.34228515625,293.2548522949219,1397.9276123046875,4043.5791015625,15165.01171875,2862.612548828125,9030.5009765625,617.504150390625,14224.8466796875,-4440.14892578125,-5626.6787109375,-3817.876220703125,-3478.527099609375,-6744.86181640625,-1312.096923828125,5851.5869140625,4793.00830078125,892.480224609375,1858.8701171875,-969.5689086914062,5250.77197265625,-2677.440673828125,17634.234375,-6247.36181640625,-0.0,-5736.35107421875,7429.91796875,-3958.543212890625,-3499.190185546875,579.357177734375,7046.06396484375,-6800.49267578125,1906.5538330078125,-5608.39990234375,-1843.7703857421875,-2102.851806640625,7852.71337890625,494.3211669921875,-13912.5185546875,-7422.76513671875,-1122.9515380859375,173.25083923339844,-8310.4775390625,-2005.8948974609375,-4285.1767578125,-11957.486328125,2615.451904296875,-104.9041748046875,1158.71435546875,-8429.6865234375,-719.2293701171875,0.0,-2248.287109375,0.0,-3260.771484375,-0.0,762.1447143554688
-11993.2490234375,-14082.5908203125,-5527.33740234375,-144.64060974121094,216.96090698242188,13305.3466796875,-3871.917724609375,-654.0616455078125,-851.9490356445312,5160.1728515625,-8509.953125,-9136.994140625,-4877.2490234375,4308.2236328125,-254.31314086914062,-8048.216796875,293.2548522949219,1398.7222900390625,4042.7841796875,15168.1904296875,2862.612548828125,9034.474609375,616.7094116210938,14228.8203125,-4436.9697265625,-5612.37353515625,-3816.286865234375,-3470.579833984375,-6744.86181640625,-1331.965087890625,5852.38134765625,4790.6240234375,893.2749633789062,1857.28076171875,-968.774169921875,5254.74560546875,-2679.0302734375,17636.6171875,-6254.51416015625,-0.0,-5738.7353515625,7443.42822265625,-3958.543212890625,-3492.832275390625,574.5887451171875,7053.21630859375,-6792.54541015625,1894.6329345703125,-5606.015625,-1835.822998046875,-2108.414794921875,7859.07080078125,-387.8275451660156,-13923.64453125,-7423.5595703125,-1110.23583984375,170.8666534423828,-8337.498046875,-2027.3525390625,-4278.81884765625,-11975.765625,2616.24658203125,-103.3147201538086,1179.377197265625,-8427.302734375,-722.4083251953125,0.0,-2280.87109375,0.0,-3275.871337890625,-0.0,770.88671875
-11996.4287109375,-14075.4384765625,-5514.62158203125,-138.28277587890625,228.0871124267578,13317.267578125,-3859.996826171875,-638.1670532226562,-828.9019165039062,5192.7568359375,-8507.5693359375,-9127.4580078125,-4858.970703125,4355.9072265625,-251.13424682617188,-8056.16357421875,306.7652282714844,1412.2327880859375,4057.88427734375,15196.005859375,2875.328125,9047.1904296875,627.8355712890625,14243.1259765625,-4431.40673828125,-5594.88916015625,-3810.7236328125,-3457.864013671875,-6740.88818359375,-1318.4547119140625,5866.6865234375,4801.75,905.1958618164062,1871.5858154296875,-956.0584716796875,5266.66650390625,-2664.72509765625,17651.716796875,-6251.3349609375,-0.0,-5726.01953125,7454.55419921875,-3945.827392578125,-3479.32177734375,590.4833374023438,7071.4951171875,-6779.82958984375,1897.01708984375,-5598.86328125,-1823.107421875,-2105.236083984375,7872.58154296875,-700.9506225585938,-13917.287109375,-7417.9970703125,-1100.6990966796875,166.09828186035156,-8349.4189453125,-2016.2265625,-4259.7451171875,-11959.8701171875,2629.7568359375,-84.2412338256836,1207.9874267578125,-8420.1494140625,-701.745361328125,0.0,-2239.545166015625,0.0,-3244.876953125,-0.0,797.9075317382812
-12031.3955078125,-14091.33203125,-5523.36376953125,-147.81951904296875,216.96090698242188,13296.6044921875,-3871.123046875,-649.2932739257812,-838.4386596679688,5178.45166015625,-8524.2587890625,-9144.146484375,-4866.91796875,4331.2705078125,-267.82354736328125,-8059.34228515625,297.2284851074219,1398.7222900390625,4045.96337890625,15187.263671875,2864.99658203125,9034.474609375,615.9146728515625,14228.0263671875,-4440.943359375,-5621.115234375,-3829.797119140625,-3480.9111328125,-6746.45068359375,-1330.375732421875,5855.560546875,4790.6240234375,893.2749633789062,1863.6385498046875,-967.1846923828125,5250.77197265625,-2678.2353515625,17636.6171875,-6244.1826171875,-0.0,-5733.966796875,7436.275390625,-3957.74853515625,-3498.395263671875,581.7413330078125,7059.57421875,-6787.77685546875,1885.8909912109375,-5606.015625,-1855.6912841796875,-2121.92529296875,7861.455078125,-207.42416381835938,-13927.619140625,-7424.3544921875,-1122.9515380859375,141.46168518066406,-8327.9609375,-2013.84228515625,-4273.255859375,-11961.4599609375,2617.8359375,-95.367431640625,1188.1192626953125,-8434.455078125,-713.666259765625,0.0,-2235.571533203125,0.0,-3243.287353515625,-0.0,781.2182006835938
-12032.9853515625,-14078.6171875,-5526.54248046875,-151.7931671142578,211.39781188964844,13296.6044921875,-3880.659912109375,-654.8563842773438,-851.9490356445312,5172.09375,-8523.4638671875,-9141.7626953125,-4877.2490234375,4297.89208984375,-286.89703369140625,-8049.8056640625,292.4601135253906,1395.54345703125,4037.221435546875,15171.3681640625,2860.228271484375,9031.2958984375,609.5568237304688,14223.2578125,-4450.47998046875,-5621.91015625,-3838.5390625,-3480.9111328125,-6751.21923828125,-1342.296630859375,5851.5869140625,4785.85595703125,889.30126953125,1860.459716796875,-972.747802734375,5246.00341796875,-2687.77197265625,17631.0546875,-6252.1298828125,-0.0,-5741.119140625,7433.89111328125,-3968.080078125,-3499.98486328125,570.6151123046875,7052.42138671875,-6782.2138671875,1884.301513671875,-5617.1416015625,-1850.128173828125,-2140.2041015625,7859.07080078125,291.6654052734375,-13922.8505859375,-7429.123046875,-1129.309326171875,130.3354949951172,-8320.013671875,-2028.1474609375,-4277.2294921875,-11961.4599609375,2611.47802734375,-104.10944366455078,1179.377197265625,-8440.017578125,-716.0504760742188,0.0,-2251.466064453125,0.0,-3258.38720703125,-0.0,773.2709350585938
-11994.0439453125,-14039.67578125,-5525.74755859375,-140.66696166992188,208.21888732910156,13303.7568359375,-3878.275634765625,-648.49853515625,-849.5648803710938,5180.8359375,-8516.3115234375,-9138.583984375,-4873.27587890625,4314.58154296875,-278.1549987792969,-8049.01123046875,294.0495910644531,1399.51708984375,4041.98974609375,15179.31640625,2861.02294921875,9035.26953125,610.3515625,14229.615234375,-4462.40087890625,-5609.1943359375,-3837.744384765625,-3472.169189453125,-6751.21923828125,-1340.7071533203125,5853.17626953125,4790.6240234375,888.506591796875,1864.433349609375,-972.747802734375,5249.97705078125,-2684.59326171875,17637.41015625,-6253.71923828125,-0.0,-5745.0927734375,7438.65966796875,-3968.080078125,-3494.421630859375,574.5887451171875,7061.16357421875,-6771.087890625,1897.01708984375,-5627.47314453125,-1842.180908203125,-2132.2568359375,7864.63427734375,114.44091796875,-13918.876953125,-7428.328125,-1134.8724365234375,146.2300567626953,-8315.24609375,-2025.7633056640625,-4267.6923828125,-11959.8701171875,2614.6572265625,-97.75161743164062,1187.324462890625,-8440.017578125,-715.2557373046875,0.0,-2226.82958984375,0.0,-3249.645263671875,-0.0,773.2709350585938
-12004.375,-13993.5810546875,-5525.74755859375,-134.3091278076172,206.6294403076172,13302.1669921875,-3874.302001953125,-644.52490234375,-847.9754028320312,5187.193359375,-8515.517578125,-9147.326171875,-4861.35498046875,4320.14453125,-264.6446228027344,-8035.50048828125,293.2548522949219,1395.54345703125,4045.96337890625,15187.263671875,2861.02294921875,9032.8857421875,611.1463012695312,14230.41015625,-4462.40087890625,-5609.9892578125,-3832.18115234375,-3472.964111328125,-6752.80908203125,-1344.6807861328125,5852.38134765625,4792.21337890625,889.30126953125,1863.6385498046875,-971.1583251953125,5250.77197265625,-2681.414306640625,17642.1796875,-6252.1298828125,-0.0,-5743.50341796875,7440.2490234375,-3965.69580078125,-3493.626953125,578.5624389648438,7067.521484375,-6788.57177734375,1902.580322265625,-5630.65185546875,-1839.001953125,-2117.95166015625,7870.99169921875,-1053.81005859375,-13926.8232421875,-7429.123046875,-1136.4619140625,162.9193572998047,-8324.7822265625,-2023.3790283203125,-4271.666015625,-11951.923828125,2617.041259765625,-93.7779769897461,1189.708740234375,-8438.427734375,-723.2030029296875,0.0,-2219.677001953125,0.0,-3251.23486328125,-0.0,770.092041015625
-12004.375,-14006.296875,-5518.59521484375,-127.15657043457031,220.1398162841797,13321.240234375,-3864.76513671875,-629.425048828125,-842.4122924804688,5197.52490234375,-8501.2119140625,-9136.2001953125,-4851.0234375,4312.197265625,-257.4920654296875,-7998.14892578125,305.17578125,1407.46435546875,4056.294921875,15192.0322265625,2872.149169921875,9044.806640625,624.6566772460938,14243.919921875,-4448.095703125,-5597.2734375,-3822.64453125,-3449.1220703125,-6740.09326171875,-1340.7071533203125,5865.09716796875,4805.7236328125,904.401123046875,1875.5594482421875,-959.2374267578125,5264.2822265625,-2671.877685546875,17655.69140625,-6242.59326171875,-0.0,-5731.58251953125,7456.14404296875,-3953.77490234375,-3475.34814453125,584.9202270507812,7079.4423828125,-6790.9560546875,1909.7327880859375,-5614.75732421875,-1822.312744140625,-2110.00439453125,7892.44921875,-2517.7001953125,-13934.771484375,-7416.4072265625,-1118.18310546875,163.71409606933594,-8310.4775390625,-2025.7633056640625,-4263.71923828125,-11935.234375,2628.16748046875,-85.03595733642578,1188.1192626953125,-8424.91796875,-708.1031494140625,0.0,-2214.114013671875,0.0,-3248.0556640625,-0.0,778.8340454101562
-11920.9287109375,-14018.2177734375,-5513.0322265625,-115.23564910888672,233.65020751953125,13332.3671875,-3850.4599609375,-616.7094116210938,-836.8492431640625,5189.57763671875,-8493.2646484375,-9120.3046875,-4847.8447265625,4311.40283203125,-239.2133026123047,-7996.55908203125,317.8914489746094,1423.35888671875,4067.4208984375,15189.6474609375,2885.659423828125,9060.7001953125,638.9617919921875,14255.046875,-4429.8173828125,-5597.2734375,-3804.365966796875,-3430.84326171875,-6730.556640625,-1320.044189453125,5877.01806640625,4817.64453125,915.52734375,1888.275146484375,-944.1375732421875,5275.408203125,-2657.572509765625,17664.431640625,-6257.69287109375,-0.0,-5719.66162109375,7463.29638671875,-3937.085693359375,-3461.837890625,596.8411865234375,7088.1845703125,-6770.29296875,1920.8590087890625,-5594.0947265625,-1805.6234130859375,-2090.930908203125,7904.3701171875,-3946.622314453125,-13922.8505859375,-7407.6650390625,-1094.34130859375,182.78758239746094,-8300.1455078125,-2006.6898193359375,-4253.3876953125,-11928.8759765625,2640.88330078125,-76.2939453125,1187.324462890625,-8421.73828125,-693.798095703125,0.0,-2203.7822265625,0.0,-3239.313720703125,-0.0,776.4498291015625
-11908.2138671875,-14009.4755859375,-5516.2109375,-120.00402069091797,232.0607452392578,13331.572265625,-3851.254638671875,-623.8619384765625,-833.6702880859375,5182.4248046875,-8500.4169921875,-9121.89453125,-4869.30224609375,4320.939453125,-243.18695068359375,-8013.24853515625,316.3019714355469,1424.9483642578125,4066.6259765625,15188.0576171875,2884.070068359375,9059.90625,638.9617919921875,14254.251953125,-4436.1748046875,-5590.91552734375,-3802.7763671875,-3437.201171875,-6739.29833984375,-1313.6864013671875,5876.22314453125,4812.87646484375,912.3484497070312,1888.275146484375,-945.72705078125,5272.2294921875,-2658.3671875,17661.25390625,-6273.587890625,-0.0,-5722.0458984375,7463.29638671875,-3937.880126953125,-3461.837890625,597.6359252929688,7082.62109375,-6771.087890625,1916.090576171875,-5593.2998046875,-1799.2655029296875,-2096.493896484375,7894.0390625,-5352.4970703125,-13912.5185546875,-7416.4072265625,-1103.083251953125,176.42974853515625,-8305.708984375,-2002.716064453125,-4251.00341796875,-11940.796875,2640.88330078125,-78.67813110351562,1185.735107421875,-8421.73828125,-693.0033569335938,0.0,-2208.55078125,0.0,-3242.49267578125,-0.0,771.6814575195312
-11933.64453125,-13991.1962890625,-5502.70068359375,-109.67254638671875,242.39222717285156,13345.08203125,-3843.3076171875,-619.0935668945312,-828.9019165039062,5193.5517578125,-8486.111328125,-9115.537109375,-4853.4072265625,4326.50244140625,-230.47129821777344,-7987.0224609375,327.4281921386719,1434.485107421875,4073.778564453125,15193.6220703125,2896.78564453125,9067.8525390625,650.0880126953125,14262.994140625,-4426.63818359375,-5559.12646484375,-3791.650146484375,-3431.637939453125,-6726.5830078125,-1310.5074462890625,5888.93896484375,4822.4130859375,923.474609375,1901.7855224609375,-935.3955688476562,5283.35546875,-2649.625,17668.40625,-6250.5400390625,-0.0,-5710.125,7475.21728515625,-3925.959228515625,-3454.685302734375,603.9937133789062,7086.59521484375,-6760.755859375,1928.0115966796875,-5582.96826171875,-1788.93408203125,-2084.572998046875,7900.3974609375,-6813.2080078125,-13893.4453125,-7403.69189453125,-1091.162353515625,177.22447204589844,-8286.6357421875,-2005.1002197265625,-4250.20849609375,-11935.234375,2648.03564453125,-71.52557373046875,1171.429931640625,-8405.8447265625,-678.6982421875,0.0,-2211.729736328125,0.0,-3233.75048828125,-0.0,767.7078247070312
-11965.43359375,-13978.4814453125,-5504.2900390625,-114.44091796875,242.39222717285156,13330.77734375,-3840.92333984375,-631.0145263671875,-830.4913940429688,5189.57763671875,-8487.701171875,-9123.484375,-4838.3076171875,4311.40283203125,-193.9137725830078,-8026.75927734375,321.8650817871094,1429.7166748046875,4069.80517578125,15191.2373046875,2895.1962890625,9062.2900390625,648.49853515625,14254.251953125,-4429.0224609375,-5554.35791015625,-3782.908203125,-3453.095703125,-6722.60888671875,-1318.4547119140625,5884.17041015625,4820.02880859375,922.679931640625,1895.427734375,-936.9849853515625,5275.408203125,-2648.03564453125,17660.458984375,-6245.77197265625,-0.0,-5709.330078125,7466.47509765625,-3923.574951171875,-3468.195556640625,607.1726684570312,7077.8525390625,-6763.93505859375,1922.448486328125,-5579.78955078125,-1810.3917236328125,-2049.605224609375,7881.32373046875,-7172.42578125,-13887.087890625,-7398.92333984375,-1091.95703125,201.0663299560547,-8309.681640625,-1986.0267333984375,-4251.79833984375,-11930.4658203125,2641.677734375,-77.08867645263672,1167.456298828125,-8414.5859375,-688.2349853515625,0.0,-2196.6298828125,0.0,-3234.54541015625,-0.0,760.5552978515625
-11978.1494140625,-13999.14453125,-5529.7216796875,-150.20370483398438,210.6030731201172,13298.1943359375,-3871.123046875,-649.2932739257812,-835.259765625,5187.98828125,-8513.927734375,-9141.7626953125,-4870.8916015625,4332.0654296875,-279.7444763183594,-8063.31640625,298.0232238769531,1404.285400390625,4046.758056640625,15192.0322265625,2868.97021484375,9035.26953125,619.0935668945312,14230.41015625,-4460.8115234375,-5625.08935546875,-3832.97607421875,-3477.732421875,-6752.01416015625,-1330.375732421875,5858.7392578125,4797.77685546875,898.8380126953125,1868.4068603515625,-963.2110595703125,5250.77197265625,-2679.82470703125,17637.41015625,-6282.32958984375,-0.0,-5738.7353515625,7436.275390625,-3958.543212890625,-3493.626953125,584.9202270507812,7065.931640625,-6790.9560546875,1885.8909912109375,-5615.55224609375,-1841.38623046875,-2133.051513671875,7857.48193359375,-6221.93017578125,-13900.59765625,-7425.94384765625,-1113.414794921875,136.6933135986328,-8319.21875,-2010.663330078125,-4260.5400390625,-11946.3603515625,2617.041259765625,-89.80432891845703,1182.55615234375,-8443.9912109375,-702.5401000976562,0.0,-2207.756103515625,0.0,-3234.54541015625,-0.0,770.092041015625
-11965.43359375,-14005.501953125,-5534.490234375,-156.56153869628906,207.42416381835938,13306.140625,-3870.328125,-641.345947265625,-832.8755493164062,5199.1142578125,-8513.1328125,-9129.0478515625,-4869.30224609375,4341.6025390625,-294.0495910644531,-8041.064453125,301.2021484375,1404.285400390625,4049.142333984375,15200.7744140625,2868.97021484375,9036.8583984375,619.0935668945312,14233.5888671875,-4462.40087890625,-5622.705078125,-3841.718017578125,-3466.606201171875,-6754.3984375,-1326.402099609375,5860.32861328125,4800.955078125,897.2485961914062,1870.7911376953125,-964.0057983398438,5254.74560546875,-2678.2353515625,17641.38671875,-6275.9716796875,-0.0,-5741.9140625,7438.65966796875,-3962.516845703125,-3487.26904296875,583.330810546875,7073.08447265625,-6795.724609375,1879.533203125,-5620.32080078125,-1829.4652099609375,-2145.76708984375,7870.197265625,-4989.30615234375,-13898.2138671875,-7429.123046875,-1111.030517578125,125.56712341308594,-8302.529296875,-2018.6107177734375,-4258.95068359375,-11943.9765625,2619.425537109375,-85.03595733642578,1191.298095703125,-8440.8125,-696.1822509765625,0.0,-2218.88232421875,0.0,-3239.313720703125,-0.0,778.8340454101562
-11974.970703125,-14009.4755859375,-5521.7744140625,-145.43533325195312,217.75563049316406,13316.4716796875,-3860.79150390625,-633.398681640625,-828.9019165039062,5202.29345703125,-8500.4169921875,-9131.431640625,-4854.9970703125,4327.29736328125,-263.05517578125,-8035.50048828125,308.3547058105469,1413.0274658203125,4057.88427734375,15203.158203125,2877.712158203125,9046.3955078125,627.8355712890625,14240.7421875,-4448.095703125,-5595.68408203125,-3824.23388671875,-3452.301025390625,-6740.88818359375,-1331.965087890625,5869.865234375,4807.3134765625,906.7853393554688,1878.7384033203125,-956.0584716796875,5261.89794921875,-2667.109130859375,17651.716796875,-6264.84521484375,-0.0,-5730.78759765625,7452.96484375,-3949.801025390625,-3478.527099609375,595.251708984375,7081.03173828125,-6782.2138671875,1889.8646240234375,-5608.39990234375,-1823.902099609375,-2114.772705078125,7882.1181640625,-4680.15673828125,-13899.802734375,-7417.2021484375,-1125.335693359375,154.17735290527344,-8320.013671875,-1993.9739990234375,-4258.15576171875,-11936.82421875,2625.783203125,-79.47286224365234,1184.9403076171875,-8421.73828125,-701.745361328125,0.0,-2215.703369140625,0.0,-3226.59814453125,-0.0,775.6550903320312
-11989.2763671875,-14065.9013671875,-5536.87451171875,-144.64060974121094,199.4768829345703,13298.98828125,-3878.275634765625,-643.7301635742188,-840.8228759765625,5159.3779296875,-8524.2587890625,-9163.220703125,-4868.50732421875,4319.349609375,-282.128662109375,-8031.52734375,290.87066650390625,1395.54345703125,4038.015869140625,15182.4951171875,2858.638671875,9028.9111328125,609.5568237304688,14223.2578125,-4463.19580078125,-5618.73095703125,-3842.512939453125,-3464.221923828125,-6755.98779296875,-1359.7806396484375,5851.5869140625,4787.4453125,888.506591796875,1864.433349609375,-974.3372802734375,5242.82470703125,-2684.59326171875,17636.6171875,-6288.68701171875,-0.0,-5747.47705078125,7431.50732421875,-3967.28515625,-3492.832275390625,579.357177734375,7061.16357421875,-6795.724609375,1894.6329345703125,-5628.267578125,-1844.5650634765625,-2135.435791015625,7875.76025390625,-4910.6279296875,-13932.3876953125,-7433.89111328125,-1139.640869140625,143.8458709716797,-8335.11328125,-2011.4581298828125,-4289.150390625,-11963.8447265625,2609.093994140625,-96.9568862915039,1171.429931640625,-8428.0966796875,-719.2293701171875,0.0,-2247.492431640625,0.0,-3267.129150390625,-0.0,741.4818115234375
-11991.66015625,-14097.6904296875,-5550.384765625,-146.2300567626953,185.17176818847656,13274.3525390625,-3897.34912109375,-678.6982421875,-852.7437744140625,5146.662109375,-8536.974609375,-9179.115234375,-4880.42822265625,4332.0654296875,-301.2021484375,-8080.80029296875,274.9761047363281,1378.059326171875,4015.763671875,15164.2158203125,2843.5390625,9011.427734375,592.8675537109375,14200.2109375,-4473.52734375,-5639.39404296875,-3858.4072265625,-3505.5478515625,-6760.755859375,-1378.8541259765625,5834.8974609375,4770.755859375,872.6119995117188,1852.5123291015625,-989.4371337890625,5222.9560546875,-2704.46142578125,17611.185546875,-6294.25048828125,-0.0,-5760.19287109375,7416.4072265625,-3987.153564453125,-3523.031982421875,561.8731079101562,7031.7587890625,-6802.876953125,1891.4541015625,-5638.599609375,-1871.5858154296875,-2154.50927734375,7829.666015625,-4871.6865234375,-13964.970703125,-7441.0439453125,-1149.177490234375,130.3354949951172,-8358.955078125,-2041.65771484375,-4298.68701171875,-11979.7392578125,2588.43115234375,-116.82510375976562,1170.63525390625,-8440.8125,-747.839599609375,0.0,-2251.466064453125,0.0,-3259.9765625,-0.0,750.2238159179688
-11988.48046875,-14061.927734375,-5536.07958984375,-157.35626220703125,184.3770294189453,13264.01953125,-3900.52783203125,-689.8244018554688,-853.5385131835938,5168.1201171875,-8534.5908203125,-9178.3212890625,-4885.19677734375,4322.52880859375,-299.6126708984375,-8095.10498046875,278.1549987792969,1375.6751708984375,4014.174072265625,15169.779296875,2845.923095703125,9010.6328125,591.278076171875,14195.4423828125,-4467.16943359375,-5658.4677734375,-3863.175537109375,-3520.647705078125,-6764.72998046875,-1380.443603515625,5833.3076171875,4774.7294921875,879.7645263671875,1851.7176513671875,-989.4371337890625,5218.18798828125,-2706.05078125,17605.623046875,-6293.45556640625,-0.0,-5753.8349609375,7411.638671875,-3987.947998046875,-3532.568603515625,560.28369140625,7029.37451171875,-6798.1083984375,1880.327880859375,-5639.39404296875,-1881.12255859375,-2151.330322265625,7812.97705078125,-4919.3701171875,-13980.0712890625,-7442.63330078125,-1149.177490234375,120.79874420166016,-8384.38671875,-2042.4525146484375,-4301.8662109375,-11959.076171875,2587.63623046875,-118.41455841064453,1173.814208984375,-8439.2236328125,-766.9130859375,0.0,-2249.081787109375,0.0,-3237.724365234375,-0.0,780.4234619140625
-11959.076171875,-14035.7021484375,-5512.2373046875,-153.3826141357422,201.86106872558594,13292.6298828125,-3880.659912109375,-654.8563842773438,-840.0281372070312,5187.193359375,-8521.080078125,-9167.9892578125,-4878.0439453125,4328.88671875,-279.7444763183594,-8047.42138671875,300.40740966796875,1396.338134765625,4035.631591796875,15186.46875,2866.5859375,9032.8857421875,610.3515625,14219.2841796875,-4447.30126953125,-5618.73095703125,-3845.691650390625,-3483.29541015625,-6754.3984375,-1345.4755859375,5854.765625,4800.955078125,903.6064453125,1873.17529296875,-971.1583251953125,5242.82470703125,-2687.77197265625,17629.46484375,-6273.587890625,-0.0,-5733.171875,7438.65966796875,-3968.87451171875,-3503.95849609375,578.5624389648438,7055.6005859375,-6785.392578125,1878.7384033203125,-5629.857421875,-1847.7440185546875,-2133.051513671875,7852.71337890625,-5240.4404296875,-13957.818359375,-7432.3017578125,-1137.256591796875,126.36184692382812,-8351.0087890625,-2024.9683837890625,-4281.99755859375,-11917.75,2609.093994140625,-99.34107208251953,1191.298095703125,-8426.5068359375,-732.73974609375,0.0,-2237.160888671875,0.0,-3221.034912109375,-0.0,798.7022705078125
-11967.0224609375,-14029.34375,-5506.67431640625,-165.3035430908203,214.57672119140625,13310.115234375,-3868.73876953125,-641.345947265625,-834.4650268554688,5181.63037109375,-8503.5966796875,-9160.8359375,-4854.9970703125,4335.24462890625,-252.72369384765625,-8031.52734375,312.3283386230469,1409.0538330078125,4045.96337890625,15188.0576171875,2878.5068359375,9046.3955078125,623.0671997070312,14232.794921875,-4441.73828125,-5598.86328125,-3821.849853515625,-3462.63232421875,-6732.14599609375,-1323.22314453125,5868.27587890625,4812.87646484375,914.7326049804688,1885.09619140625,-957.64794921875,5257.1298828125,-2674.26171875,17639.794921875,-6243.3876953125,-0.0,-5723.63525390625,7457.7333984375,-3953.77490234375,-3486.474365234375,590.4833374023438,7065.931640625,-6765.5244140625,1868.4068603515625,-5630.65185546875,-1835.0283203125,-2107.6201171875,7869.40283203125,-4888.3759765625,-13932.3876953125,-7409.25439453125,-1127.7198486328125,155.7667999267578,-8308.0927734375,-2009.86865234375,-4270.87158203125,-11920.134765625,2621.014892578125,-89.80432891845703,1196.0665283203125,-8418.5595703125,-707.3084716796875,0.0,-2234.77685546875,0.0,-3234.54541015625,-0.0,776.4498291015625
-12001.197265625,-14028.548828125,-5507.46923828125,-146.2300567626953,223.31874084472656,13297.3984375,-3868.73876953125,-648.49853515625,-844.0017700195312,5153.81494140625,-8507.5693359375,-9149.7109375,-4851.81787109375,4310.60791015625,-237.6238555908203,-8045.037109375,309.1494140625,1405.0802001953125,4041.98974609375,15176.13671875,2877.712158203125,9038.4482421875,623.8619384765625,14226.4365234375,-4444.9169921875,-5622.705078125,-3811.518310546875,-3479.32177734375,-6732.14599609375,-1331.965087890625,5863.5078125,4808.10791015625,910.7589721679688,1879.533203125,-956.0584716796875,5249.97705078125,-2675.056396484375,17633.4375,-6233.85107421875,-0.0,-5725.22509765625,7437.86474609375,-3946.622314453125,-3497.6005859375,586.5097045898438,7064.34228515625,-6762.345703125,1893.04345703125,-5609.9892578125,-1845.35986328125,-2093.315185546875,7859.8662109375,-3647.80419921875,-13931.591796875,-7406.87060546875,-1113.414794921875,169.27719116210938,-8332.7294921875,-2012.2528076171875,-4258.15576171875,-11947.1552734375,2618.630615234375,-94.57270050048828,1180.9666748046875,-8415.3818359375,-727.1766357421875,0.0,-2241.134765625,0.0,-3260.771484375,-0.0,748.6343383789062
-12020.2705078125,-14049.212890625,-5520.18505859375,-145.43533325195312,214.57672119140625,13287.8623046875,-3880.659912109375,-670.7509155273438,-851.9490356445312,5159.3779296875,-8525.8486328125,-9154.4794921875,-4863.7392578125,4305.83935546875,-258.28680419921875,-8057.75341796875,298.8179626464844,1393.1593017578125,4030.06884765625,15166.6005859375,2867.380859375,9028.9111328125,615.1199340820312,14216.8994140625,-4453.6591796875,-5621.91015625,-3831.386474609375,-3489.6533203125,-6752.01416015625,-1357.396484375,5856.35498046875,4797.77685546875,900.427490234375,1873.17529296875,-967.9794311523438,5241.2353515625,-2688.56689453125,17619.927734375,-6235.44091796875,-0.0,-5733.966796875,7432.3017578125,-3958.543212890625,-3511.111083984375,573.7940673828125,7040.50048828125,-6779.03515625,1890.6593017578125,-5615.55224609375,-1865.22802734375,-2112.388671875,7832.8447265625,-2229.213623046875,-13935.56640625,-7429.123046875,-1129.309326171875,154.97207641601562,-8342.265625,-2025.7633056640625,-4279.61328125,-11966.228515625,2605.9150390625,-108.08309173583984,1186.52978515625,-8424.91796875,-736.71337890625,0.0,-2259.41357421875,0.0,-3250.43994140625,-0.0,773.2709350585938
-12004.375,-14047.623046875,-5506.67431640625,-143.8458709716797,212.9872589111328,13291.041015625,-3882.2490234375,-669.9561767578125,-851.9490356445312,5165.73583984375,-8530.6171875,-9152.0947265625,-4879.63330078125,4313.787109375,-278.1549987792969,-8061.7265625,299.6126708984375,1393.1593017578125,4028.47900390625,15170.57421875,2870.5595703125,9029.7060546875,612.7357177734375,14216.10546875,-4434.58544921875,-5610.7841796875,-3841.718017578125,-3487.26904296875,-6755.193359375,-1378.8541259765625,5857.9443359375,4795.392578125,904.401123046875,1872.380615234375,-966.3899536132812,5242.02978515625,-2691.745849609375,17621.517578125,-6264.84521484375,-0.0,-5726.01953125,7433.89111328125,-3960.132568359375,-3509.521484375,570.6151123046875,7037.32177734375,-6775.06103515625,1894.6329345703125,-5620.32080078125,-1858.075439453125,-2129.87255859375,7832.8447265625,-1740.45556640625,-13936.3603515625,-7432.3017578125,-1136.4619140625,141.46168518066406,-8331.1396484375,-2032.1209716796875,-4295.5078125,-11967.0224609375,2608.29931640625,-108.87781524658203,1188.9139404296875,-8426.5068359375,-731.945068359375,0.0,-2271.33447265625,0.0,-3252.823974609375,-0.0,777.2445678710938
-11976.5595703125,-14011.0654296875,-5506.67431640625,-152.587890625,210.6030731201172,13286.2734375,-3886.222900390625,-665.9825439453125,-855.9227294921875,5163.3515625,-8518.6962890625,-9157.6572265625,-4890.759765625,4315.37646484375,-279.7444763183594,-8056.16357421875,298.0232238769531,1390.7750244140625,4028.47900390625,15168.1904296875,2871.354248046875,9025.7333984375,608.7620849609375,14212.92578125,-4421.0751953125,-5633.8310546875,-3836.94970703125,-3491.24267578125,-6752.80908203125,-1364.549072265625,5853.97119140625,4795.392578125,903.6064453125,1869.20166015625,-969.5689086914062,5238.05615234375,-2693.335205078125,17619.927734375,-6260.8720703125,-0.0,-5722.0458984375,7422.76513671875,-3966.490234375,-3510.316162109375,569.0256958007812,7039.70556640625,-6763.93505859375,1886.6856689453125,-5600.45263671875,-1852.5123291015625,-2130.66748046875,7840.79248046875,-2151.330322265625,-13930.0029296875,-7430.71240234375,-1127.7198486328125,141.46168518066406,-8351.0087890625,-2033.71044921875,-4287.56103515625,-11958.28125,2603.53076171875,-110.46727752685547,1190.50341796875,-8428.8916015625,-744.6607055664062,0.0,-2257.823974609375,0.0,-3250.43994140625,-0.0,774.8603515625
-11965.43359375,-13985.6337890625,-5514.62158203125,-154.97207641601562,203.4505157470703,13283.09375,-3886.222900390625,-674.724609375,-853.5385131835938,5176.0673828125,-8503.5966796875,-9154.4794921875,-4870.0966796875,4320.14453125,-278.1549987792969,-8095.900390625,296.43377685546875,1389.185546875,4027.6845703125,15172.1640625,2865.791259765625,9024.1435546875,606.3779296875,14211.3369140625,-4437.7646484375,-5648.13623046875,-3836.94970703125,-3503.95849609375,-6745.65625,-1338.322998046875,5850.7919921875,4793.802734375,899.6327514648438,1867.6121826171875,-972.747802734375,5237.26123046875,-2693.335205078125,17616.748046875,-6259.28271484375,-0.0,-5729.1982421875,7416.4072265625,-3972.848388671875,-3514.289794921875,572.20458984375,7037.32177734375,-6760.755859375,1882.7120361328125,-5603.63134765625,-1851.7176513671875,-2129.87255859375,7824.89794921875,-2807.776123046875,-13906.1611328125,-7424.3544921875,-1129.309326171875,147.81951904296875,-8381.20703125,-2029.73681640625,-4285.1767578125,-11944.7705078125,2601.94140625,-108.08309173583984,1196.861328125,-8421.73828125,-744.6607055664062,0.0,-2223.650634765625,0.0,-3225.803466796875,-0.0,783.6024169921875
-11994.0439453125,-14019.806640625,-5524.953125,-153.3826141357422,198.68214416503906,13289.451171875,-3885.42822265625,-673.1351318359375,-851.154296875,5173.68310546875,-8515.517578125,-9164.015625,-4858.17578125,4328.09228515625,-271.00244140625,-8082.3896484375,290.87066650390625,1386.8013916015625,4026.094970703125,15173.7529296875,2861.817626953125,9024.1435546875,605.5831909179688,14214.515625,-4448.890625,-5624.29443359375,-3841.718017578125,-3501.57421875,-6748.04052734375,-1339.11767578125,5846.818359375,4785.06103515625,892.480224609375,1862.8438720703125,-974.3372802734375,5235.671875,-2691.745849609375,17619.1328125,-6273.587890625,-0.0,-5737.14599609375,7422.76513671875,-3975.232666015625,-3512.700439453125,572.9993286132812,7042.08984375,-6779.82958984375,1885.09619140625,-5618.73095703125,-1848.5386962890625,-2124.3095703125,7829.666015625,-3689.925048828125,-13919.6708984375,-7426.73876953125,-1143.6143798828125,154.97207641601562,-8385.9755859375,-2024.9683837890625,-4285.97119140625,-11951.12890625,2600.35205078125,-107.28836059570312,1188.9139404296875,-8424.123046875,-740.6870727539062,0.0,-2246.69775390625,0.0,-3246.46630859375,-0.0,766.9130859375
-11972.5869140625,-14102.458984375,-5514.62158203125,-127.95130920410156,218.5503692626953,13302.9619140625,-3862.380859375,-649.2932739257812,-828.107177734375,5193.5517578125,-8496.443359375,-9141.7626953125,-4832.74462890625,4363.06005859375,-235.2396697998047,-8056.16357421875,303.5863342285156,1402.696044921875,4049.142333984375,15195.2109375,2879.3017578125,9040.83203125,624.6566772460938,14232.794921875,-4437.7646484375,-5610.7841796875,-3813.107666015625,-3476.9375,-6720.22509765625,-1348.6544189453125,5863.5078125,4796.18701171875,905.1958618164062,1879.533203125,-956.0584716796875,5252.361328125,-2667.90380859375,17639.001953125,-6248.15625,-0.0,-5721.2509765625,7440.2490234375,-3951.390625,-3496.010986328125,597.6359252929688,7067.521484375,-6789.3662109375,1909.7327880859375,-5595.68408203125,-1849.3333740234375,-2088.546875,7854.30224609375,-4768.37158203125,-13947.4873046875,-7398.12841796875,-1153.9459228515625,189.14540100097656,-8364.5185546875,-1993.9739990234375,-4261.3349609375,-11949.5390625,2616.24658203125,-86.62541961669922,1207.9874267578125,-8397.1025390625,-721.6135864257812,0.0,-2239.545166015625,0.0,-3240.1083984375,-0.0,774.8603515625
-11968.6123046875,-14127.095703125,-5508.26416015625,-116.82510375976562,232.85548400878906,13309.3193359375,-3841.718017578125,-638.9617919921875,-816.186279296875,5199.1142578125,-8486.111328125,-9135.4052734375,-4817.64453125,4354.318359375,-204.24525451660156,-8038.68017578125,315.50726318359375,1416.206298828125,4063.447509765625,15208.720703125,2890.427734375,9052.75390625,640.55126953125,14241.5361328125,-4426.63818359375,-5609.1943359375,-3785.29248046875,-3466.606201171875,-6704.33056640625,-1343.885986328125,5874.6337890625,4808.90283203125,918.7062377929688,1892.248779296875,-940.1639404296875,5262.69287109375,-2649.625,17652.51171875,-6224.314453125,-0.0,-5713.30419921875,7449.78564453125,-3930.7275390625,-3485.6796875,615.9146728515625,7072.2900390625,-6769.49853515625,1920.8590087890625,-5577.4052734375,-1856.4859619140625,-2056.757568359375,7864.63427734375,-5093.41552734375,-13961.7919921875,-7381.439453125,-1130.10400390625,218.5503692626953,-8331.9345703125,-1953.44287109375,-4266.10302734375,-11940.001953125,2627.372802734375,-73.11502838134766,1212.755859375,-8385.181640625,-720.0241088867188,0.0,-2224.4453125,0.0,-3239.313720703125,-0.0,788.3707885742188
-11963.0498046875,-14061.927734375,-5523.36376953125,-137.48805236816406,215.37144470214844,13307.73046875,-3862.380859375,-644.52490234375,-823.3388061523438,5182.4248046875,-8500.4169921875,-9147.326171875,-4850.22900390625,4344.78125,-251.928955078125,-8023.57958984375,301.9968566894531,1403.49072265625,4049.936767578125,15196.7998046875,2874.533447265625,9041.626953125,625.451416015625,14234.3837890625,-4448.095703125,-5615.55224609375,-3813.107666015625,-3468.195556640625,-6728.17236328125,-1345.4755859375,5863.5078125,4797.77685546875,902.8117065429688,1880.327880859375,-956.8532104492188,5256.3349609375,-2669.493408203125,17643.76953125,-6257.69287109375,-0.0,-5733.171875,7444.22314453125,-3949.801025390625,-3488.063720703125,595.251708984375,7063.5478515625,-6762.345703125,1900.196044921875,-5596.47900390625,-1835.0283203125,-2106.03076171875,7864.63427734375,-4190.603515625,-13957.0234375,-7405.28125,-1107.8516845703125,173.25083923339844,-8301.7353515625,-1993.1793212890625,-4288.35546875,-11948.7451171875,2615.451904296875,-85.8306884765625,1192.8876953125,-8403.4609375,-726.3819580078125,0.0,-2259.41357421875,0.0,-3267.129150390625,-0.0,774.065673828125
-11947.1552734375,-13978.4814453125,-5520.18505859375,-147.02479553222656,211.39781188964844,13318.8564453125,-3867.944091796875,-627.8355712890625,-828.107177734375,5177.65673828125,-8490.8798828125,-9140.173828125,-4859.765625,4342.39697265625,-268.6182556152344,-7998.14892578125,305.17578125,1405.8748779296875,4052.321044921875,15194.416015625,2876.122802734375,9044.806640625,626.2461547851562,14243.1259765625,-4452.06982421875,-5611.57861328125,-3830.591796875,-3445.1484375,-6736.11962890625,-1324.8125,5866.6865234375,4804.13427734375,906.7853393554688,1882.7120361328125,-956.0584716796875,5263.4873046875,-2674.26171875,17651.716796875,-6257.69287109375,-0.0,-5733.171875,7449.78564453125,-3956.1591796875,-3475.34814453125,589.6885986328125,7078.6474609375,-6775.06103515625,1889.8646240234375,-5606.81005859375,-1813.5706787109375,-2121.92529296875,7887.68115234375,-3222.62451171875,-13910.9296875,-7413.228515625,-1080.8309326171875,156.56153869628906,-8277.892578125,-2022.584228515625,-4274.84521484375,-11936.0283203125,2617.8359375,-84.2412338256836,1192.8876953125,-8404.2548828125,-709.692626953125,0.0,-2244.3134765625,0.0,-3255.208251953125,-0.0,777.2445678710938
-11970.2021484375,-13968.9443359375,-5519.39013671875,-158.9457244873047,205.83470153808594,13309.3193359375,-3874.302001953125,-645.3196411132812,-850.359619140625,5160.1728515625,-8488.49609375,-9151.2998046875,-4855.79150390625,4310.60791015625,-252.72369384765625,-8032.32177734375,301.9968566894531,1398.7222900390625,4040.400146484375,15169.779296875,2873.738525390625,9038.4482421875,619.0935668945312,14231.9990234375,-4449.685546875,-5612.37353515625,-3833.770751953125,-3464.221923828125,-6742.4775390625,-1330.375732421875,5862.712890625,4799.3662109375,904.401123046875,1877.943603515625,-960.826904296875,5255.54052734375,-2679.82470703125,17639.794921875,-6252.1298828125,-0.0,-5734.76171875,7438.65966796875,-3962.516845703125,-3488.063720703125,581.7413330078125,7061.95849609375,-6771.88232421875,1880.327880859375,-5614.75732421875,-1828.6705322265625,-2107.6201171875,7864.63427734375,-2523.26318359375,-13912.5185546875,-7420.380859375,-1103.8780517578125,166.09828186035156,-8301.7353515625,-2018.6107177734375,-4269.28173828125,-11933.64453125,2607.504638671875,-98.54634857177734,1179.377197265625,-8404.2548828125,-717.639892578125,0.0,-2241.134765625,0.0,-3257.592529296875,-0.0,766.1183471679688
-11997.22265625,-14046.033203125,-5532.900390625,-177.22447204589844,181.9928436279297,13279.1201171875,-3898.9384765625,-678.6982421875,-866.254150390625,5156.19921875,-8509.953125,-9191.0361328125,-4887.5810546875,4306.63427734375,-281.33392333984375,-8085.568359375,278.9497375488281,1376.469970703125,4014.174072265625,15153.884765625,2851.486328125,9015.4013671875,594.4569702148438,14202.5947265625,-4470.34814453125,-5623.49951171875,-3856.023193359375,-3502.368896484375,-6766.3193359375,-1358.191162109375,5838.87109375,4777.11328125,882.9434814453125,1854.101806640625,-983.0792846679688,5228.51953125,-2705.256103515625,17611.185546875,-6287.892578125,-0.0,-5755.42431640625,7412.43359375,-3987.947998046875,-3519.05810546875,558.6942138671875,7033.34814453125,-6788.57177734375,1862.8438720703125,-5638.599609375,-1866.022705078125,-2134.640869140625,7821.71923828125,-2611.47802734375,-13943.5126953125,-7442.63330078125,-1161.0985107421875,123.18293762207031,-8340.6767578125,-2040.863037109375,-4296.302734375,-11955.1015625,2582.867919921875,-122.38819885253906,1164.2774658203125,-8424.91796875,-743.0712280273438,0.0,-2249.876708984375,0.0,-3260.771484375,-0.0,754.9921875
-11976.5595703125,-14057.1591796875,-5544.02685546875,-178.0192108154297,176.42974853515625,13274.3525390625,-3905.29638671875,-671.545654296875,-866.254150390625,5163.3515625,-8514.7216796875,-9198.9833984375,-4909.83349609375,4305.04443359375,-313.1230773925781,-8064.11083984375,273.3866271972656,1370.112060546875,4011.789794921875,15152.294921875,2845.12841796875,9009.837890625,588.8939208984375,14202.5947265625,-4475.91162109375,-5646.546875,-3867.1494140625,-3498.395263671875,-6769.49853515625,-1363.7542724609375,5832.51318359375,4772.34521484375,875.7908935546875,1847.7440185546875,-988.642333984375,5223.7509765625,-2713.203369140625,17611.185546875,-6290.27685546875,-0.0,-5762.5771484375,7403.69189453125,-3993.51123046875,-3517.46875,550.7469482421875,7044.47412109375,-6813.2080078125,1858.8701171875,-5642.57275390625,-1881.12255859375,-2163.251220703125,7832.05029296875,-3151.098876953125,-13940.333984375,-7446.60693359375,-1174.60888671875,102.51998901367188,-8339.8818359375,-2051.1943359375,-4281.20263671875,-11968.6123046875,2578.099609375,-123.9776611328125,1156.330078125,-8436.8388671875,-743.0712280273438,0.0,-2234.77685546875,0.0,-3257.592529296875,-0.0,735.1239624023438
-11941.591796875,-14015.0380859375,-5529.7216796875,-160.53517150878906,195.50323486328125,13294.2197265625,-3890.196533203125,-660.41943359375,-854.333251953125,5173.68310546875,-8493.2646484375,-9160.0419921875,-4893.14404296875,4309.0185546875,-295.6390380859375,-8062.52197265625,293.2548522949219,1389.9803466796875,4029.27392578125,15166.6005859375,2865.791259765625,9028.9111328125,605.5831909179688,14219.2841796875,-4460.8115234375,-5631.44677734375,-3849.665283203125,-3479.32177734375,-6752.01416015625,-1359.7806396484375,5850.7919921875,4795.392578125,898.0433349609375,1869.20166015625,-970.3636474609375,5242.82470703125,-2695.719482421875,17627.875,-6263.255859375,-0.0,-5744.29833984375,7425.1494140625,-3976.027099609375,-3499.190185546875,565.052001953125,7047.6533203125,-6782.2138671875,1874.7647705078125,-5625.08935546875,-1865.22802734375,-2146.561767578125,7843.1767578125,-3635.88330078125,-13918.876953125,-7429.91796875,-1149.177490234375,128.74603271484375,-8324.7822265625,-2040.068359375,-4278.81884765625,-11941.591796875,2594.788818359375,-109.67254638671875,1172.224609375,-8420.1494140625,-723.2030029296875,0.0,-2218.08740234375,0.0,-3237.724365234375,-0.0,743.0712280273438
-11946.3603515625,-14016.6279296875,-5527.33740234375,-166.09828186035156,200.2716064453125,13296.6044921875,-3883.0439453125,-662.0089111328125,-848.7701416015625,5161.76220703125,-8490.0859375,-9165.6044921875,-4881.22314453125,4324.1181640625,-277.36029052734375,-8062.52197265625,298.8179626464844,1395.54345703125,4032.453125,15166.6005859375,2868.97021484375,9030.5009765625,609.5568237304688,14222.462890625,-4455.24853515625,-5625.08935546875,-3840.92333984375,-3480.9111328125,-6750.4248046875,-1374.0858154296875,5855.560546875,4801.75,900.427490234375,1873.17529296875,-964.800537109375,5246.7978515625,-2688.56689453125,17628.669921875,-6244.9775390625,-0.0,-5741.119140625,7431.50732421875,-3968.080078125,-3499.190185546875,574.5887451171875,7045.26904296875,-6779.03515625,1870.7911376953125,-5619.52587890625,-1858.8701171875,-2129.077880859375,7841.5869140625,-4210.47216796875,-13922.0556640625,-7425.1494140625,-1136.4619140625,137.48805236816406,-8339.8818359375,-2023.3790283203125,-4285.97119140625,-11939.2080078125,2599.55712890625,-106.4936294555664,1182.55615234375,-8418.5595703125,-732.73974609375,0.0,-2218.08740234375,0.0,-3244.876953125,-0.0,760.5552978515625
-11967.818359375,-14030.93359375,-5522.5693359375,-177.22447204589844,205.83470153808594,13298.98828125,-3875.0966796875,-655.651123046875,-843.20703125,5166.53076171875,-8498.828125,-9183.0888671875,-4874.865234375,4320.939453125,-269.4129943847656,-8047.42138671875,295.6390380859375,1396.338134765625,4039.605712890625,15173.7529296875,2869.76513671875,9032.08984375,615.1199340820312,14228.0263671875,-4452.8642578125,-5626.6787109375,-3833.770751953125,-3478.527099609375,-6746.45068359375,-1374.8804931640625,5857.9443359375,4790.6240234375,900.427490234375,1870.7911376953125,-962.4163208007812,5249.18212890625,-2683.003662109375,17635.822265625,-6281.53466796875,-0.0,-5737.14599609375,7435.48046875,-3963.311767578125,-3493.626953125,581.7413330078125,7056.39501953125,-6775.06103515625,1858.075439453125,-5612.37353515625,-1851.7176513671875,-2119.541259765625,7849.5341796875,-4704.79345703125,-13941.12890625,-7424.3544921875,-1130.10400390625,140.66696166992188,-8303.32421875,-2011.4581298828125,-4262.12939453125,-11976.5595703125,2603.53076171875,-98.54634857177734,1179.377197265625,-8432.0703125,-742.2764892578125,0.0,-2199.013916015625,0.0,-3230.57177734375,-0.0,770.092041015625
-11996.4287109375,-14053.98046875,-5531.31103515625,-192.32432556152344,197.0926971435547,13286.2734375,-3879.0703125,-658.0352783203125,-842.4122924804688,5173.68310546875,-8521.8740234375,-9206.9306640625,-4877.2490234375,4318.55517578125,-274.1813659667969,-8043.4482421875,281.33392333984375,1387.59619140625,4034.04248046875,15174.5478515625,2861.817626953125,9021.7587890625,609.5568237304688,14220.078125,-4463.19580078125,-5651.3154296875,-3840.92333984375,-3481.705810546875,-6757.57763671875,-1385.2119140625,5846.818359375,4771.55078125,887.7118530273438,1856.4859619140625,-973.5425415039062,5239.6455078125,-2688.56689453125,17630.2578125,-6299.01904296875,-0.0,-5746.6826171875,7417.2021484375,-3970.464111328125,-3499.190185546875,579.357177734375,7052.42138671875,-6773.4716796875,1844.5650634765625,-5623.49951171875,-1865.22802734375,-2123.514892578125,7846.35546875,-4150.07275390625,-13969.7392578125,-7433.89111328125,-1147.588134765625,142.2564239501953,-8292.9921875,-2017.8157958984375,-4266.8974609375,-11996.4287109375,2598.762451171875,-99.34107208251953,1179.377197265625,-8453.5283203125,-751.813232421875,0.0,-2206.16650390625,0.0,-3232.9560546875,-0.0,763.7341918945312
-12017.8857421875,-14087.359375,-5536.87451171875,-202.65579223632812,190.73486328125,13279.1201171875,-3885.42822265625,-662.8036499023438,-846.385986328125,5173.68310546875,-8531.4111328125,-9223.6201171875,-4872.48095703125,4317.76025390625,-282.128662109375,-8054.57421875,276.5655517578125,1386.0067138671875,4029.27392578125,15169.779296875,2857.843994140625,9016.990234375,603.198974609375,14214.515625,-4467.96435546875,-5650.5205078125,-3849.665283203125,-3487.26904296875,-6765.5244140625,-1391.5697021484375,5842.05029296875,4765.9873046875,881.35400390625,1853.30712890625,-975.9266967773438,5235.671875,-2694.1298828125,17626.28515625,-6300.6083984375,-0.0,-5752.24560546875,7418.79150390625,-3976.82177734375,-3507.13720703125,575.3834838867188,7050.03759765625,-6790.9560546875,1833.4388427734375,-5637.01025390625,-1864.433349609375,-2135.435791015625,7842.38134765625,-2593.994140625,-13986.4287109375,-7442.63330078125,-1142.8197021484375,143.0511474609375,-8308.0927734375,-2024.9683837890625,-4270.07666015625,-12008.349609375,2593.994140625,-103.3147201538086,1189.708740234375,-8461.4755859375,-755.786865234375,0.0,-2207.756103515625,0.0,-3240.1083984375,-0.0,770.88671875
-12005.96484375,-14177.9580078125,-5542.43701171875,-154.97207641601562,191.5295867919922,13279.9150390625,-3885.42822265625,-665.1878662109375,-848.7701416015625,5175.2724609375,-8529.02734375,-9194.21484375,-4867.71240234375,4312.9921875,-272.5919189453125,-8057.75341796875,279.7444763183594,1386.8013916015625,4028.47900390625,15168.1904296875,2857.843994140625,9016.990234375,607.1726684570312,14212.92578125,-4467.16943359375,-5642.57275390625,-3843.3076171875,-3491.24267578125,-6764.72998046875,-1383.62255859375,5845.228515625,4765.9873046875,883.7382202148438,1858.075439453125,-974.3372802734375,5236.466796875,-2691.745849609375,17624.697265625,-6293.45556640625,-0.0,-5754.62939453125,7420.380859375,-3974.437744140625,-3509.521484375,575.3834838867188,7050.03759765625,-6804.46630859375,1882.7120361328125,-5637.01025390625,-1858.075439453125,-2125.104248046875,7838.40869140625,-1188.9139404296875,-13977.6865234375,-7440.2490234375,-1139.640869140625,151.7931671142578,-8318.423828125,-2013.84228515625,-4267.6923828125,-12014.70703125,2596.37841796875,-103.3147201538086,1190.50341796875,-8456.70703125,-758.9658203125,0.0,-2223.650634765625,0.0,-3235.340087890625,-0.0,778.8340454101562
-11993.2490234375,-14123.9169921875,-5543.23193359375,-149.4089813232422,189.9401397705078,13274.3525390625,-3890.196533203125,-671.545654296875,-851.154296875,5166.53076171875,-8521.8740234375,-9167.1943359375,-4883.607421875,4312.9921875,-274.9761047363281,-8064.11083984375,278.9497375488281,1379.6488037109375,4022.121337890625,15164.2158203125,2854.6650390625,9011.427734375,599.225341796875,14204.978515625,-4463.19580078125,-5656.08349609375,-3846.486328125,-3496.010986328125,-6759.16650390625,-1366.9332275390625,5838.87109375,4769.16650390625,882.9434814453125,1854.101806640625,-980.6951293945312,5228.51953125,-2697.308837890625,17616.748046875,-6281.53466796875,-0.0,-5754.62939453125,7407.6650390625,-3976.027099609375,-3515.87939453125,571.4098510742188,7042.884765625,-6806.8505859375,1889.0699462890625,-5634.6259765625,-1862.049072265625,-2129.077880859375,7831.255859375,-1118.9779052734375,-13951.4609375,-7435.48046875,-1134.8724365234375,135.89859008789062,-8337.498046875,-2007.484375,-4278.0244140625,-11994.0439453125,2589.225830078125,-108.08309173583984,1182.55615234375,-8427.302734375,-747.0448608398438,0.0,-2244.3134765625,0.0,-3247.260986328125,-0.0,770.092041015625
-11977.35546875,-13985.6337890625,-5536.07958984375,-158.9457244873047,193.11904907226562,13279.9150390625,-3889.401611328125,-662.8036499023438,-847.1806640625,5168.1201171875,-8505.98046875,-9146.53125,-4882.8125,4318.55517578125,-276.5655517578125,-8055.369140625,285.30755615234375,1380.443603515625,4024.505615234375,15170.57421875,2858.638671875,9013.0166015625,599.225341796875,14208.953125,-4458.42724609375,-5650.5205078125,-3842.512939453125,-3479.32177734375,-6745.65625,-1338.322998046875,5842.05029296875,4785.06103515625,887.7118530273438,1857.28076171875,-978.3109130859375,5230.10888671875,-2696.51416015625,17620.72265625,-6261.6669921875,-0.0,-5749.06689453125,7409.25439453125,-3975.232666015625,-3509.521484375,572.20458984375,7046.8583984375,-6795.724609375,1880.327880859375,-5625.8837890625,-1851.7176513671875,-2128.283203125,7842.38134765625,-1991.58984375,-13922.0556640625,-7421.17529296875,-1124.5408935546875,136.6933135986328,-8339.8818359375,-2024.9683837890625,-4276.4345703125,-11951.12890625,2587.63623046875,-106.4936294555664,1188.1192626953125,-8405.8447265625,-728.76611328125,0.0,-2229.213623046875,0.0,-3243.287353515625,-0.0,768.5025634765625
-11960.666015625,-13960.998046875,-5522.5693359375,-150.99842834472656,202.65579223632812,13291.8359375,-3878.275634765625,-645.3196411132812,-838.4386596679688,5168.9150390625,-8490.8798828125,-9130.63671875,-4870.8916015625,4324.9130859375,-262.26043701171875,-8018.81103515625,295.6390380859375,1387.59619140625,4034.04248046875,15183.2890625,2866.5859375,9021.7587890625,611.9410400390625,14220.8740234375,-4448.890625,-5633.8310546875,-3830.591796875,-3464.221923828125,-6736.9140625,-1319.24951171875,5849.20263671875,4798.5712890625,898.0433349609375,1866.8175048828125,-968.774169921875,5240.4404296875,-2685.387939453125,17631.849609375,-6255.30859375,-0.0,-5738.7353515625,7420.380859375,-3965.69580078125,-3496.805908203125,584.12548828125,7065.931640625,-6779.03515625,1889.8646240234375,-5613.16845703125,-1842.180908203125,-2113.97802734375,7864.63427734375,-3066.06298828125,-13905.3662109375,-7410.84423828125,-1107.0570068359375,151.7931671142578,-8302.529296875,-2019.4053955078125,-4265.30859375,-11919.3388671875,2597.173095703125,-95.367431640625,1192.8876953125,-8397.896484375,-716.0504760742188,0.0,-2217.292724609375,0.0,-3237.724365234375,-0.0,772.4761962890625
-11956.69140625,-13988.017578125,-5526.54248046875,-154.97207641601562,200.2716064453125,13292.6298828125,-3873.50732421875,-633.398681640625,-834.4650268554688,5160.1728515625,-8490.0859375,-9144.146484375,-4865.328125,4336.0390625,-251.928955078125,-7983.84375,291.6654052734375,1386.8013916015625,4037.221435546875,15184.87890625,2862.612548828125,9023.3486328125,612.7357177734375,14224.052734375,-4448.890625,-5630.65185546875,-3828.207763671875,-3454.685302734375,-6739.29833984375,-1327.991455078125,5849.20263671875,4794.59765625,895.6591186523438,1865.22802734375,-970.3636474609375,5240.4404296875,-2683.003662109375,17637.41015625,-6271.20361328125,-0.0,-5741.119140625,7422.76513671875,-3964.106201171875,-3491.24267578125,588.0991821289062,7076.263671875,-6778.240234375,1885.09619140625,-5616.3466796875,-1843.7703857421875,-2106.03076171875,7882.1181640625,-4127.8203125,-13903.77734375,-7416.4072265625,-1111.030517578125,164.50881958007812,-8304.119140625,-2008.279052734375,-4249.4140625,-11925.697265625,2601.146728515625,-91.39379119873047,1188.1192626953125,-8403.4609375,-724.79248046875,0.0,-2238.75048828125,0.0,-3252.029296875,-0.0,757.3763427734375
-11971.791015625,-14001.5283203125,-5539.25830078125,-159.74044799804688,192.32432556152344,13288.6572265625,-3875.0966796875,-654.8563842773438,-832.080810546875,5187.193359375,-8504.390625,-9158.4521484375,-4860.56005859375,4345.57568359375,-255.90261840820312,-8014.83837890625,281.33392333984375,1383.62255859375,4034.04248046875,15189.6474609375,2857.04931640625,9018.580078125,607.9674072265625,14218.4892578125,-4459.22216796875,-5629.0625,-3834.5654296875,-3465.8115234375,-6744.06689453125,-1349.44921875,5843.63916015625,4782.6767578125,886.1223754882812,1861.25439453125,-975.9266967773438,5233.28759765625,-2683.798583984375,17628.669921875,-6272.79296875,-0.0,-5749.861328125,7421.17529296875,-3969.66943359375,-3499.98486328125,587.304443359375,7057.18994140625,-6790.9560546875,1879.533203125,-5621.91015625,-1856.4859619140625,-2110.00439453125,7855.89208984375,-5425.61181640625,-13917.287109375,-7421.17529296875,-1128.5146484375,170.07191467285156,-8348.6240234375,-2005.8948974609375,-4273.255859375,-11940.796875,2599.55712890625,-94.57270050048828,1203.2191162109375,-8422.5341796875,-737.5081176757812,0.0,-2226.82958984375,0.0,-3222.62451171875,-0.0,785.1918334960938
-12000.4013671875,-14078.6171875,-5540.84765625,-147.02479553222656,186.76121520996094,13287.8623046875,-3877.480712890625,-656.44580078125,-827.3125,5196.72998046875,-8521.080078125,-9170.373046875,-4853.4072265625,4351.13916015625,-255.10787963867188,-8045.83251953125,276.5655517578125,1383.62255859375,4033.24755859375,15193.6220703125,2854.6650390625,9019.375,607.1726684570312,14216.10546875,-4465.580078125,-5617.9365234375,-3836.94970703125,-3476.142822265625,-6748.8349609375,-1380.443603515625,5838.076171875,4769.16650390625,879.7645263671875,1858.8701171875,-976.721435546875,5233.28759765625,-2683.003662109375,17627.875,-6289.48193359375,-0.0,-5754.62939453125,7428.328125,-3970.464111328125,-3502.368896484375,591.278076171875,7061.16357421875,-6798.90283203125,1893.8382568359375,-5629.0625,-1868.4068603515625,-2107.6201171875,7848.73974609375,-5770.5244140625,-13978.4814453125,-7425.94384765625,-1167.456298828125,169.27719116210938,-8375.64453125,-1997.153076171875,-4260.5400390625,-11970.2021484375,2598.762451171875,-92.98324584960938,1202.4244384765625,-8433.6591796875,-743.0712280273438,0.0,-2212.5244140625,0.0,-3221.82958984375,-0.0,780.4234619140625
-12021.859375,-14176.369140625,-5541.642578125,-143.8458709716797,177.22447204589844,13283.888671875,-3884.63330078125,-665.1878662109375,-824.133544921875,5187.98828125,-8540.1533203125,-9182.2939453125,-4882.8125,4353.5234375,-270.2077331542969,-8055.369140625,270.2077331542969,1375.6751708984375,4025.300537109375,15195.2109375,2845.923095703125,9016.990234375,600.0200805664062,14208.1572265625,-4479.88525390625,-5605.220703125,-3847.28125,-3496.805908203125,-6767.1142578125,-1388.390869140625,5835.69189453125,4757.24560546875,871.0225219726562,1856.4859619140625,-986.2581787109375,5228.51953125,-2691.745849609375,17618.337890625,-6314.11865234375,-0.0,-5762.5771484375,7436.275390625,-3980.0009765625,-3512.700439453125,585.7149658203125,7053.21630859375,-6798.90283203125,1895.427734375,-5644.95703125,-1859.6649169921875,-2123.514892578125,7838.40869140625,-4689.693359375,-14031.7275390625,-7443.42822265625,-1207.9874267578125,137.48805236816406,-8351.0087890625,-2001.1265869140625,-4268.4873046875,-11997.22265625,2593.199462890625,-95.367431640625,1196.0665283203125,-8448.759765625,-743.865966796875,0.0,-2209.345458984375,0.0,-3233.75048828125,-0.0,766.9130859375
-12013.1181640625,-14123.9169921875,-5528.1318359375,-109.67254638671875,192.32432556152344,13306.935546875,-3875.891357421875,-652.47216796875,-819.3651733398438,5195.140625,-8529.02734375,-9156.0673828125,-4879.63330078125,4354.318359375,-271.00244140625,-8018.81103515625,292.4601135253906,1393.1593017578125,4035.631591796875,15194.416015625,2861.02294921875,9034.474609375,611.1463012695312,14222.462890625,-4461.6064453125,-5567.86865234375,-3840.128662109375,-3468.990234375,-6753.603515625,-1356.6016845703125,5853.17626953125,4778.703125,889.30126953125,1877.14892578125,-971.1583251953125,5249.18212890625,-2683.798583984375,17631.849609375,-6275.9716796875,-0.0,-5746.6826171875,7460.912109375,-3967.28515625,-3496.010986328125,590.4833374023438,7063.5478515625,-6784.59765625,1928.8062744140625,-5627.47314453125,-1843.7703857421875,-2124.3095703125,7858.2763671875,-3399.848876953125,-13974.5078125,-7428.328125,-1157.1248779296875,134.3091278076172,-8322.3984375,-2005.8948974609375,-4274.05029296875,-11974.17578125,2605.9150390625,-90.59906005859375,1193.682373046875,-8433.6591796875,-727.9713745117188,0.0,-2216.498046875,0.0,-3240.1083984375,-0.0,774.065673828125
-12024.2431640625,-14146.1689453125,-5503.49560546875,-77.08867645263672,212.9872589111328,13322.830078125,-3862.380859375,-637.372314453125,-821.7493896484375,5195.935546875,-8509.953125,-9117.126953125,-4854.2021484375,4345.57568359375,-244.77639770507812,-8025.9638671875,311.5335998535156,1405.8748779296875,4049.936767578125,15192.826171875,2879.3017578125,9049.5751953125,626.2461547851562,14237.5634765625,-4432.99609375,-5565.484375,-3819.465576171875,-3455.47998046875,-6735.32470703125,-1340.7071533203125,5866.6865234375,4800.16064453125,911.5537109375,1891.4541015625,-952.0848388671875,5262.69287109375,-2669.493408203125,17643.76953125,-6236.2353515625,-0.0,-5726.01953125,7471.2431640625,-3949.801025390625,-3481.705810546875,601.6095581054688,7078.6474609375,-6771.087890625,1961.3902587890625,-5606.015625,-1815.16015625,-2098.08349609375,7867.0185546875,-2993.74267578125,-13920.466796875,-7409.25439453125,-1101.493896484375,165.3035430908203,-8304.119140625,-1996.358154296875,-4247.02978515625,-11940.796875,2618.630615234375,-81.85704803466797,1200.8348388671875,-8416.970703125,-713.666259765625,0.0,-2208.55078125,0.0,-3227.392822265625,-0.0,783.6024169921875
-12020.2705078125,-14135.04296875,-5505.8798828125,-103.3147201538086,218.5503692626953,13306.140625,-3859.996826171875,-646.9090576171875,-829.6966552734375,5194.34619140625,-8514.7216796875,-9121.1005859375,-4840.69189453125,4338.42333984375,-218.5503692626953,-8044.24267578125,308.3547058105469,1403.49072265625,4045.96337890625,15185.673828125,2879.3017578125,9042.421875,625.451416015625,14228.8203125,-4429.8173828125,-5597.2734375,-3806.75,-3477.732421875,-6735.32470703125,-1332.7598876953125,5864.30224609375,4804.13427734375,909.9642333984375,1886.6856689453125,-954.4690551757812,5252.361328125,-2667.109130859375,17636.6171875,-6243.3876953125,-0.0,-5722.0458984375,7457.7333984375,-3946.622314453125,-3496.010986328125,600.0200805664062,7073.08447265625,-6775.06103515625,1931.9852294921875,-5602.04150390625,-1842.180908203125,-2071.062744140625,7851.91845703125,-3448.327392578125,-13931.591796875,-7410.84423828125,-1087.188720703125,188.35067749023438,-8312.06640625,-1993.9739990234375,-4250.20849609375,-11942.38671875,2616.24658203125,-85.8306884765625,1200.0401611328125,-8417.765625,-708.8978881835938,0.0,-2235.571533203125,0.0,-3221.82958984375,-0.0,785.986572265625
-11995.6328125,-14006.296875,-5518.59521484375,-147.02479553222656,209.0136260986328,13291.8359375,-3867.944091796875,-657.2405395507812,-844.7965087890625,5183.2197265625,-8520.28515625,-9133.8154296875,-4845.46044921875,4306.63427734375,-220.1398162841797,-8045.037109375,301.2021484375,1394.7486572265625,4036.426513671875,15174.5478515625,2872.149169921875,9027.322265625,617.504150390625,14220.078125,-4440.14892578125,-5629.0625,-3815.491943359375,-3482.500732421875,-6743.2724609375,-1317.6600341796875,5853.17626953125,4803.33935546875,902.0169677734375,1875.5594482421875,-963.2110595703125,5241.2353515625,-2675.056396484375,17627.875,-6259.28271484375,-0.0,-5732.37744140625,7433.89111328125,-3954.5693359375,-3503.16357421875,590.4833374023438,7055.6005859375,-6787.77685546875,1889.8646240234375,-5609.9892578125,-1847.7440185546875,-2071.857421875,7841.5869140625,-4141.33056640625,-13920.466796875,-7419.5859375,-1091.162353515625,191.5295867919922,-8347.8291015625,-1997.94775390625,-4263.71923828125,-11944.7705078125,2609.093994140625,-96.16216278076172,1194.47705078125,-8430.48046875,-722.4083251953125,0.0,-2241.134765625,0.0,-3225.803466796875,-0.0,787.5760498046875
-11972.5869140625,-13910.134765625,-5530.51611328125,-161.3299102783203,194.70851135253906,13279.9150390625,-3882.2490234375,-666.7772827148438,-847.1806640625,5180.8359375,-8517.9013671875,-9133.021484375,-4875.66015625,4311.40283203125,-262.26043701171875,-8071.26318359375,291.6654052734375,1383.62255859375,4026.889892578125,15176.9326171875,2861.02294921875,9016.990234375,606.3779296875,14210.5419921875,-4456.04345703125,-5632.24169921875,-3839.333740234375,-3494.421630859375,-6755.193359375,-1323.22314453125,5840.46044921875,4794.59765625,890.8907470703125,1862.049072265625,-972.747802734375,5231.69873046875,-2689.361572265625,17619.1328125,-6275.1767578125,-0.0,-5745.8876953125,7414.81787109375,-3970.464111328125,-3512.700439453125,576.17822265625,7050.03759765625,-6790.9560546875,1878.7384033203125,-5626.6787109375,-1855.6912841796875,-2113.97802734375,7826.4873046875,-4871.6865234375,-13890.2666015625,-7431.50732421875,-1114.20947265625,157.35626220703125,-8371.6708984375,-2032.915771484375,-4262.92431640625,-11943.1806640625,2597.9677734375,-101.72525787353516,1200.8348388671875,-8441.607421875,-729.5608520507812,0.0,-2209.345458984375,0.0,-3213.88232421875,-0.0,789.960205078125
-11961.4599609375,-13909.33984375,-5549.58984375,-169.27719116210938,175.63502502441406,13264.01953125,-3899.7333984375,-682.671875,-851.154296875,5176.8623046875,-8527.4384765625,-9137.7900390625,-4895.5283203125,4324.1181640625,-298.8179626464844,-8084.77392578125,271.00244140625,1366.9332275390625,4011.789794921875,15172.1640625,2844.333740234375,8999.5068359375,590.4833374023438,14194.6474609375,-4474.32177734375,-5650.5205078125,-3862.380859375,-3511.90576171875,-6768.70361328125,-1340.7071533203125,5824.56591796875,4772.34521484375,872.6119995117188,1843.7703857421875,-988.642333984375,5215.00927734375,-2706.05078125,17603.23828125,-6287.09814453125,-0.0,-5763.3720703125,7398.92333984375,-3987.153564453125,-3530.1845703125,563.4625854492188,7038.9111328125,-6803.67138671875,1872.380615234375,-5647.34130859375,-1873.969970703125,-2151.330322265625,7814.56640625,-6051.0634765625,-13891.8564453125,-7446.60693359375,-1130.10400390625,122.38819885253906,-8372.4658203125,-2042.4525146484375,-4279.61328125,-11971.791015625,2579.68896484375,-115.23564910888672,1199.2454833984375,-8454.3232421875,-743.865966796875,0.0,-2221.2666015625,0.0,-3225.0087890625,-0.0,783.6024169921875
-11954.3076171875,-13960.998046875,-5551.9736328125,-183.58230590820312,178.0192108154297,13276.736328125,-3897.34912109375,-674.724609375,-844.0017700195312,5185.60400390625,-8531.4111328125,-9127.4580078125,-4891.55419921875,4343.986328125,-303.5863342285156,-8072.85302734375,271.79718017578125,1370.9068603515625,4014.174072265625,15180.111328125,2845.12841796875,9005.8642578125,593.6622314453125,14199.416015625,-4470.34814453125,-5631.44677734375,-3858.4072265625,-3499.190185546875,-6775.85595703125,-1343.09130859375,5829.33447265625,4771.55078125,872.6119995117188,1849.3333740234375,-987.0529174804688,5220.57177734375,-2704.46142578125,17608.80078125,-6282.32958984375,-0.0,-5761.7822265625,7417.2021484375,-3983.1796875,-3520.647705078125,568.23095703125,7043.6796875,-6802.08203125,1851.7176513671875,-5643.36767578125,-1861.25439453125,-2155.303955078125,7826.4873046875,-6764.72998046875,-13915.6982421875,-7451.37548828125,-1122.9515380859375,120.00402069091797,-8366.90234375,-2032.915771484375,-4281.20263671875,-11972.5869140625,2582.0732421875,-109.67254638671875,1207.1927490234375,-8458.296875,-733.5344848632812,0.0,-2241.134765625,0.0,-3241.697998046875,-0.0,780.4234619140625
-11961.4599609375,-14079.4111328125,-5542.43701171875,-155.7667999267578,193.9137725830078,13286.2734375,-3887.017578125,-665.1878662109375,-838.4386596679688,5198.31982421875,-8525.0537109375,-9122.689453125,-4876.45458984375,4348.7548828125,-289.2812194824219,-8056.16357421875,283.7181091308594,1380.443603515625,4023.710693359375,15190.4423828125,2855.4599609375,9016.1962890625,604.7884521484375,14208.953125,-4452.06982421875,-5609.9892578125,-3846.486328125,-3484.885009765625,-6760.755859375,-1335.14404296875,5837.28173828125,4780.29248046875,880.5592651367188,1860.459716796875,-977.5161743164062,5232.4931640625,-2694.1298828125,17617.544921875,-6264.84521484375,-0.0,-5749.06689453125,7427.53369140625,-3975.232666015625,-3510.316162109375,575.3834838867188,7054.0107421875,-6786.98193359375,1880.327880859375,-5625.8837890625,-1855.6912841796875,-2141.79345703125,7836.81884765625,-6526.3115234375,-13916.4921875,-7437.0703125,-1126.9251708984375,129.54075622558594,-8346.240234375,-2028.942138671875,-4263.71923828125,-11947.1552734375,2591.60986328125,-100.93053436279297,1211.1663818359375,-8451.9384765625,-720.0241088867188,0.0,-2228.4189453125,0.0,-3227.392822265625,-0.0,782.012939453125
-11994.0439453125,-14084.9755859375,-5540.052734375,-135.10386657714844,192.32432556152344,13291.041015625,-3883.838623046875,-658.8300170898438,-836.8492431640625,5191.9619140625,-8531.4111328125,-9126.6630859375,-4885.19677734375,4345.57568359375,-274.1813659667969,-8041.064453125,285.30755615234375,1379.6488037109375,4026.094970703125,15192.826171875,2857.04931640625,9020.96484375,606.3779296875,14210.5419921875,-4463.19580078125,-5575.81591796875,-3840.128662109375,-3486.474365234375,-6756.78271484375,-1336.7335205078125,5838.076171875,4789.0341796875,885.32763671875,1861.25439453125,-975.9266967773438,5234.876953125,-2690.951171875,17620.72265625,-6271.20361328125,-0.0,-5751.451171875,7434.68603515625,-3972.848388671875,-3509.521484375,576.17822265625,7057.18994140625,-6794.134765625,1904.169677734375,-5628.267578125,-1859.6649169921875,-2126.69384765625,7844.765625,-5972.38525390625,-13888.6767578125,-7433.89111328125,-1131.6934814453125,144.64060974121094,-8338.2919921875,-2021.78955078125,-4274.05029296875,-11928.8759765625,2594.788818359375,-97.75161743164062,1192.8876953125,-8447.96484375,-717.639892578125,0.0,-2202.98779296875,0.0,-3228.1875,-0.0,753.4027099609375
-12013.1181640625,-14015.833984375,-5545.6162109375,-131.13021850585938,185.96649169921875,13279.9150390625,-3887.017578125,-660.41943359375,-844.0017700195312,5176.8623046875,-8543.33203125,-9120.3046875,-4889.96484375,4327.29736328125,-270.2077331542969,-8032.32177734375,278.1549987792969,1371.7015380859375,4018.9423828125,15180.111328125,2849.896728515625,9011.427734375,600.8148193359375,14206.568359375,-4473.52734375,-5623.49951171875,-3840.128662109375,-3481.705810546875,-6767.90869140625,-1335.9388427734375,5831.71826171875,4778.703125,879.7645263671875,1855.6912841796875,-981.4898071289062,5226.93017578125,-2695.719482421875,17618.337890625,-6288.68701171875,-0.0,-5758.603515625,7427.53369140625,-3975.232666015625,-3511.111083984375,573.7940673828125,7050.03759765625,-6814.0029296875,1908.1434326171875,-5628.267578125,-1865.22802734375,-2122.719970703125,7847.9453125,-5660.05712890625,-13918.08203125,-7445.017578125,-1113.414794921875,153.3826141357422,-8330.3447265625,-2020.994873046875,-4288.35546875,-11944.7705078125,2588.43115234375,-104.9041748046875,1167.456298828125,-8457.5009765625,-711.2821044921875,0.0,-2199.013916015625,0.0,-3242.49267578125,-0.0,729.5608520507812
-11994.0439453125,-14038.8798828125,-5551.17919921875,-105.69890594482422,185.17176818847656,13284.68359375,-3890.9912109375,-662.8036499023438,-849.5648803710938,5180.041015625,-8533.0009765625,-9112.3583984375,-4880.42822265625,4312.9921875,-288.4864807128906,-8032.32177734375,281.33392333984375,1374.8804931640625,4018.9423828125,15170.57421875,2849.10205078125,9014.6064453125,600.0200805664062,14207.36328125,-4472.732421875,-5618.73095703125,-3851.254638671875,-3482.500732421875,-6767.90869140625,-1317.6600341796875,5836.48681640625,4781.08740234375,881.35400390625,1862.049072265625,-983.0792846679688,5230.90380859375,-2698.8984375,17618.337890625,-6272.79296875,-0.0,-5758.603515625,7433.09619140625,-3980.0009765625,-3510.316162109375,569.0256958007812,7049.24267578125,-6810.82373046875,1932.7799072265625,-5633.8310546875,-1858.075439453125,-2138.61474609375,7841.5869140625,-6164.70947265625,-13925.234375,-7442.63330078125,-1110.23583984375,134.3091278076172,-8316.833984375,-2032.915771484375,-4268.4873046875,-11947.94921875,2588.43115234375,-108.87781524658203,1157.9195556640625,-8457.5009765625,-706.5137329101562,0.0,-2176.76171875,0.0,-3229.777099609375,-0.0,727.1766357421875
-11996.4287109375,-14023.78125,-5517.80078125,-95.367431640625,202.65579223632812,13306.140625,-3879.0703125,-648.49853515625,-840.8228759765625,5187.98828125,-8513.927734375,-9093.2841796875,-4877.2490234375,4328.09228515625,-274.1813659667969,-8028.34814453125,302.7915954589844,1393.1593017578125,4034.04248046875,15180.9052734375,2869.76513671875,9033.6796875,615.1199340820312,14223.2578125,-4450.47998046875,-5575.81591796875,-3838.5390625,-3468.990234375,-6752.80908203125,-1296.9970703125,5853.17626953125,4799.3662109375,903.6064453125,1879.533203125,-964.800537109375,5247.5927734375,-2685.387939453125,17632.642578125,-6279.150390625,-0.0,-5737.14599609375,7452.96484375,-3964.106201171875,-3495.21630859375,580.9465942382812,7066.7265625,-6779.03515625,1942.316650390625,-5618.73095703125,-1830.2598876953125,-2125.899169921875,7851.91845703125,-7298.78759765625,-13871.193359375,-7427.53369140625,-1101.493896484375,141.46168518066406,-8316.0400390625,-2021.78955078125,-4248.619140625,-11932.849609375,2605.120361328125,-96.9568862915039,1184.9403076171875,-8445.580078125,-693.0033569335938,0.0,-2168.814453125,0.0,-3209.114013671875,-0.0,749.4290771484375
-12025.8330078125,-13983.25,-5529.7216796875,-127.95130920410156,194.70851135253906,13290.24609375,-3885.42822265625,-658.0352783203125,-836.8492431640625,5182.4248046875,-8523.4638671875,-9104.4111328125,-4873.27587890625,4360.67578125,-271.00244140625,-8036.2958984375,288.4864807128906,1379.6488037109375,4025.300537109375,15187.263671875,2858.638671875,9016.990234375,603.9937133789062,14210.5419921875,-4456.04345703125,-5613.962890625,-3843.3076171875,-3476.9375,-6763.93505859375,-1309.7127685546875,5839.666015625,4786.650390625,890.8907470703125,1859.6649169921875,-977.5161743164062,5231.69873046875,-2694.1298828125,17621.517578125,-6285.5087890625,-0.0,-5746.6826171875,7429.123046875,-3970.464111328125,-3507.931884765625,578.5624389648438,7055.6005859375,-6790.1611328125,1912.9117431640625,-5623.49951171875,-1841.38623046875,-2124.3095703125,7843.1767578125,-8637.1103515625,-13854.50390625,-7440.2490234375,-1112.6199951171875,142.2564239501953,-8318.423828125,-2015.431640625,-4277.2294921875,-11947.1552734375,2589.225830078125,-102.51998901367188,1214.3453369140625,-8459.8857421875,-713.666259765625,0.0,-2206.96142578125,0.0,-3240.1083984375,-0.0,758.1710815429688
-12017.0908203125,-13968.9443359375,-5540.052734375,-150.99842834472656,188.35067749023438,13290.24609375,-3878.275634765625,-639.7565307617188,-801.08642578125,5210.24072265625,-8533.0009765625,-9101.2314453125,-4874.865234375,4407.564453125,-258.28680419921875,-7991.791015625,279.7444763183594,1376.469970703125,4033.24755859375,15231.7685546875,2853.07568359375,9009.837890625,605.5831909179688,14216.10546875,-4466.375,-5634.6259765625,-3843.3076171875,-3461.043212890625,-6771.087890625,-1291.4339599609375,5834.1025390625,4776.31884765625,884.532958984375,1848.5386962890625,-979.900390625,5231.69873046875,-2686.977294921875,17632.642578125,-6287.892578125,-0.0,-5753.04052734375,7417.2021484375,-3972.053466796875,-3496.805908203125,595.251708984375,7080.23681640625,-6799.69775390625,1891.4541015625,-5629.857421875,-1845.35986328125,-2110.799072265625,7870.99169921875,-9781.51953125,-13847.3515625,-7448.9912109375,-1096.7254638671875,150.99842834472656,-8323.9873046875,-1986.8214111328125,-4274.05029296875,-11972.5869140625,2588.43115234375,-78.67813110351562,1216.7294921875,-8469.421875,-713.666259765625,0.0,-2243.518798828125,0.0,-3269.513427734375,-0.0,752.6079711914062
-11969.4072265625,-13953.8447265625,-5529.7216796875,-139.8722381591797,196.29795837402344,13307.73046875,-3864.76513671875,-623.0671997070312,-789.960205078125,5230.90380859375,-8517.1064453125,-9082.953125,-4862.9443359375,4386.10693359375,-247.955322265625,-7971.9228515625,290.87066650390625,1389.185546875,4046.758056640625,15242.099609375,2862.612548828125,9025.7333984375,619.8883056640625,14230.41015625,-4463.19580078125,-5605.220703125,-3832.18115234375,-3441.1748046875,-6757.57763671875,-1266.79736328125,5845.228515625,4789.0341796875,894.8643798828125,1865.22802734375,-967.1846923828125,5246.7978515625,-2673.467041015625,17647.744140625,-6268.8193359375,-0.0,-5745.0927734375,7433.89111328125,-3960.132568359375,-3481.705810546875,608.7620849609375,7100.10546875,-6785.392578125,1900.196044921875,-5621.91015625,-1823.107421875,-2099.673095703125,7887.68115234375,-9779.9296875,-13851.3251953125,-7434.68603515625,-1080.8309326171875,158.9457244873047,-8328.755859375,-1976.489990234375,-4235.10888671875,-11960.666015625,2601.146728515625,-65.96247100830078,1204.0137939453125,-8447.96484375,-690.619140625,0.0,-2226.034912109375,0.0,-3249.645263671875,-0.0,758.9658203125
-11966.228515625,-13972.123046875,-5530.51611328125,-147.81951904296875,190.73486328125,13296.6044921875,-3886.222900390625,-666.7772827148438,-842.4122924804688,5168.1201171875,-8525.0537109375,-9086.9267578125,-4858.17578125,4296.302734375,-266.23406982421875,-8053.77978515625,288.4864807128906,1378.8541259765625,4022.121337890625,15168.1904296875,2855.4599609375,9018.580078125,606.3779296875,14212.1318359375,-4463.99072265625,-5606.81005859375,-3839.333740234375,-3476.9375,-6759.16650390625,-1278.7183837890625,5841.25537109375,4787.4453125,890.8907470703125,1862.8438720703125,-975.9266967773438,5234.876953125,-2691.745849609375,17621.517578125,-6271.998046875,-0.0,-5750.65625,7431.50732421875,-3971.258544921875,-3505.5478515625,577.7677001953125,7045.26904296875,-6780.62451171875,1890.6593017578125,-5625.08935546875,-1835.822998046875,-2117.95166015625,7834.4345703125,-8430.48046875,-13870.3984375,-7436.275390625,-1102.28857421875,160.53517150878906,-8322.3984375,-2017.021240234375,-4285.1767578125,-11959.8701171875,2584.45751953125,-107.28836059570312,1145.9986572265625,-8451.14453125,-689.8244018554688,0.0,-2233.982177734375,0.0,-3233.75048828125,-0.0,736.71337890625
-11960.666015625,-13988.8125,-5515.41650390625,-141.46168518066406,198.68214416503906,13305.3466796875,-3893.37548828125,-663.598388671875,-890.8907470703125,5116.462890625,-8530.6171875,-9070.2373046875,-4866.123046875,4232.724609375,-278.1549987792969,-8020.40087890625,298.0232238769531,1385.2119140625,4017.35302734375,15110.1748046875,2865.791259765625,9026.52734375,607.9674072265625,14215.310546875,-4449.685546875,-5588.53125,-3842.512939453125,-3469.784912109375,-6749.6298828125,-1264.4132080078125,5848.40771484375,4795.392578125,899.6327514648438,1869.9964599609375,-970.3636474609375,5243.61962890625,-2698.8984375,17620.72265625,-6267.2294921875,-0.0,-5739.5302734375,7443.42822265625,-3971.258544921875,-3498.395263671875,555.5152587890625,7035.732421875,-6764.72998046875,1897.01708984375,-5619.52587890625,-1827.875732421875,-2131.462158203125,7847.9453125,-6697.177734375,-13843.376953125,-7425.94384765625,-1093.5465087890625,150.99842834472656,-8281.0712890625,-2044.0418701171875,-4288.35546875,-11949.5390625,2588.43115234375,-127.95130920410156,1125.335693359375,-8447.169921875,-670.7509155273438,0.0,-2210.934814453125,0.0,-3228.982177734375,-0.0,733.5344848632812
-11951.12890625,-13957.0234375,-5519.39013671875,-123.9776611328125,198.68214416503906,13300.578125,-3894.170166015625,-671.545654296875,-908.374755859375,5141.099609375,-8520.28515625,-9071.8271484375,-4869.30224609375,4256.56640625,-279.7444763183594,-8041.85888671875,300.40740966796875,1388.390869140625,4016.55810546875,15109.3798828125,2868.175537109375,9027.322265625,608.7620849609375,14214.515625,-4448.890625,-5593.2998046875,-3844.89697265625,-3480.9111328125,-6744.86181640625,-1265.2078857421875,5849.9970703125,4799.3662109375,900.427490234375,1871.5858154296875,-968.774169921875,5243.61962890625,-2701.282470703125,17616.748046875,-6258.48779296875,-0.0,-5737.9404296875,7438.65966796875,-3971.258544921875,-3503.16357421875,549.9522094726562,7034.14306640625,-6783.80322265625,1916.090576171875,-5623.49951171875,-1833.4388427734375,-2133.051513671875,7829.666015625,-5617.1416015625,-13832.251953125,-7421.17529296875,-1085.5992431640625,147.02479553222656,-8280.27734375,-2049.605224609375,-4258.15576171875,-11938.4130859375,2590.0205078125,-129.54075622558594,1157.9195556640625,-8442.40234375,-674.724609375,0.0,-2168.814453125,0.0,-3182.09326171875,-0.0,759.7605590820312
-11943.9765625,-13979.275390625,-5540.052734375,-123.9776611328125,189.9401397705078,13297.3984375,-3894.96484375,-669.1614990234375,-905.9906005859375,5145.07275390625,-8526.642578125,-9074.2109375,-4867.71240234375,4268.4873046875,-280.5391845703125,-8051.3955078125,294.84429931640625,1383.62255859375,4014.174072265625,15115.73828125,2860.228271484375,9025.7333984375,605.5831909179688,14213.7216796875,-4458.42724609375,-5596.47900390625,-3848.87060546875,-3479.32177734375,-6750.4248046875,-1278.7183837890625,5845.228515625,4793.802734375,890.8907470703125,1869.20166015625,-972.747802734375,5240.4404296875,-2700.48779296875,17614.365234375,-6255.30859375,-0.0,-5748.27197265625,7436.275390625,-3975.232666015625,-3504.753173828125,553.131103515625,7034.9375,-6793.34033203125,1917.68017578125,-5650.5205078125,-1839.796630859375,-2131.462158203125,7831.255859375,-5296.0712890625,-13852.9140625,-7424.3544921875,-1090.36767578125,150.20370483398438,-8299.3505859375,-2036.0947265625,-4278.81884765625,-11932.0556640625,2588.43115234375,-128.74603271484375,1160.3037109375,-8448.759765625,-685.8507690429688,0.0,-2157.688232421875,0.0,-3177.324951171875,-0.0,769.2973022460938
-11958.28125,-14043.6484375,-5538.46337890625,-123.18293762207031,196.29795837402344,13299.783203125,-3891.785888671875,-663.598388671875,-893.2749633789062,5126.79443359375,-8531.4111328125,-9082.158203125,-4870.8916015625,4282.79248046875,-277.36029052734375,-8038.68017578125,291.6654052734375,1384.417236328125,4017.35302734375,15114.1484375,2859.433349609375,9028.9111328125,608.7620849609375,14215.310546875,-4460.8115234375,-5583.76318359375,-3845.691650390625,-3472.964111328125,-6754.3984375,-1293.0234375,5847.61279296875,4789.8291015625,891.6854858398438,1867.6121826171875,-971.1583251953125,5242.82470703125,-2698.8984375,17615.953125,-6271.998046875,-0.0,-5749.06689453125,7441.8388671875,-3969.66943359375,-3498.395263671875,557.104736328125,7036.52734375,-6801.287109375,1915.2958984375,-5638.599609375,-1847.7440185546875,-2129.87255859375,7842.38134765625,-5091.03173828125,-13876.755859375,-7431.50732421875,-1105.4674072265625,157.35626220703125,-8311.271484375,-2040.068359375,-4278.81884765625,-11939.2080078125,2591.60986328125,-126.36184692382812,1176.1983642578125,-8454.3232421875,-689.8244018554688,0.0,-2158.48291015625,0.0,-3193.219482421875,-0.0,781.2182006835938
-11996.4287109375,-14011.8603515625,-5543.23193359375,-123.9776611328125,201.0663299560547,13304.55078125,-3891.785888671875,-666.7772827148438,-886.1223754882812,5138.71533203125,-8550.484375,-9097.2587890625,-4868.50732421875,4289.150390625,-275.77081298828125,-8041.064453125,289.2812194824219,1384.417236328125,4017.35302734375,15126.8642578125,2857.04931640625,9028.1171875,611.1463012695312,14215.310546875,-4467.16943359375,-5571.04736328125,-3844.89697265625,-3476.9375,-6759.96142578125,-1312.096923828125,5847.61279296875,4788.23974609375,887.7118530273438,1866.8175048828125,-970.3636474609375,5244.4140625,-2699.69287109375,17616.748046875,-6273.587890625,-0.0,-5753.8349609375,7447.4013671875,-3967.28515625,-3499.190185546875,558.6942138671875,7036.52734375,-6814.0029296875,1916.090576171875,-5622.705078125,-1830.2598876953125,-2128.283203125,7835.22900390625,-5157.78857421875,-13884.7041015625,-7438.65966796875,-1123.7462158203125,162.9193572998047,-8322.3984375,-2048.810302734375,-4269.28173828125,-11946.3603515625,2593.199462890625,-121.59347534179688,1186.52978515625,-8467.833984375,-690.619140625,0.0,-2176.76171875,0.0,-3210.70361328125,-0.0,787.5760498046875
-12047.291015625,-14004.70703125,-5555.15283203125,-135.89859008789062,184.3770294189453,13284.68359375,-3903.706787109375,-681.8771362304688,-890.0960083007812,5137.12548828125,-8558.4326171875,-9110.7685546875,-4883.607421875,4299.48193359375,-295.6390380859375,-8064.90625,275.77081298828125,1370.9068603515625,4004.63720703125,15125.2744140625,2842.744140625,9011.427734375,596.0464477539062,14198.62109375,-4477.5009765625,-5607.60498046875,-3864.76513671875,-3495.21630859375,-6770.29296875,-1336.7335205078125,5832.51318359375,4770.755859375,875.7908935546875,1852.5123291015625,-984.668701171875,5228.51953125,-2711.614013671875,17602.443359375,-6286.30322265625,-0.0,-5764.96142578125,7428.328125,-3981.59033203125,-3518.263671875,547.5679931640625,7026.990234375,-6814.0029296875,1903.375,-5640.1884765625,-1861.25439453125,-2144.97265625,7816.95068359375,-5016.3271484375,-13902.1875,-7446.60693359375,-1134.07763671875,137.48805236816406,-8345.4443359375,-2052.783935546875,-4287.56103515625,-11967.818359375,2580.483642578125,-131.13021850585938,1180.9666748046875,-8474.986328125,-710.4873657226562,0.0,-2231.597900390625,0.0,-3252.823974609375,-0.0,778.039306640625
-12052.853515625,-14021.396484375,-5552.7685546875,-136.6933135986328,174.04556274414062,13275.146484375,-3909.269775390625,-691.4138793945312,-882.1487426757812,5145.07275390625,-8552.07421875,-9115.537109375,-4891.55419921875,4316.9658203125,-295.6390380859375,-8080.005859375,274.9761047363281,1363.7542724609375,4000.663818359375,15134.8115234375,2838.7705078125,9005.8642578125,588.0991821289062,14192.263671875,-4475.11669921875,-5613.962890625,-3867.944091796875,-3511.111083984375,-6773.4716796875,-1333.5545654296875,5826.9501953125,4769.9609375,872.6119995117188,1849.3333740234375,-993.4107055664062,5220.57177734375,-2713.998046875,17596.0859375,-6279.9453125,-0.0,-5768.9345703125,7422.76513671875,-3991.126953125,-3527.80029296875,550.7469482421875,7023.0166015625,-6811.61865234375,1900.9908447265625,-5635.42041015625,-1869.9964599609375,-2146.561767578125,7805.029296875,-5350.11279296875,-13941.12890625,-7449.78564453125,-1148.3828125,127.95130920410156,-8369.2861328125,-2043.2471923828125,-4296.302734375,-11978.1494140625,2577.304931640625,-131.92494201660156,1186.52978515625,-8474.1904296875,-730.3555908203125,0.0,-2231.597900390625,0.0,-3237.724365234375,-0.0,781.2182006835938
-12059.2119140625,-14026.1650390625,-5551.17919921875,-166.89300537109375,170.8666534423828,13281.5048828125,-3905.29638671875,-685.0560302734375,-877.38037109375,5146.662109375,-8548.1005859375,-9117.9208984375,-4886.7861328125,4325.7080078125,-283.7181091308594,-8071.26318359375,274.1813659667969,1364.549072265625,4003.8427734375,15141.169921875,2840.35986328125,9009.0439453125,587.304443359375,14195.4423828125,-4470.34814453125,-5609.9892578125,-3860.79150390625,-3500.779296875,-6783.80322265625,-1328.7862548828125,5830.12890625,4769.9609375,873.40673828125,1850.9229736328125,-995.000244140625,5223.7509765625,-2710.8193359375,17600.05859375,-6275.1767578125,-0.0,-5768.14013671875,7431.50732421875,-3993.51123046875,-3519.05810546875,557.104736328125,7026.1953125,-6808.43994140625,1866.022705078125,-5633.0361328125,-1861.25439453125,-2136.23046875,7815.36083984375,-5213.41943359375,-13940.333984375,-7459.322265625,-1149.177490234375,135.10386657714844,-8382.0029296875,-2028.942138671875,-4307.4287109375,-11975.765625,2581.278564453125,-127.15657043457031,1189.708740234375,-8482.138671875,-739.892333984375,0.0,-2237.160888671875,0.0,-3245.671630859375,-0.0,778.039306640625
-12033.7802734375,-14003.9130859375,-5534.490234375,-143.0511474609375,190.73486328125,13306.140625,-3886.222900390625,-652.47216796875,-867.8436279296875,5154.60986328125,-8525.8486328125,-9109.1796875,-4870.8916015625,4318.55517578125,-264.6446228027344,-8025.9638671875,292.4601135253906,1386.0067138671875,4024.505615234375,15152.294921875,2860.228271484375,9025.7333984375,607.9674072265625,14217.6943359375,-4457.63232421875,-5584.55810546875,-3840.92333984375,-3465.8115234375,-6769.49853515625,-1304.149658203125,5848.40771484375,4785.06103515625,893.2749633789062,1867.6121826171875,-975.1319580078125,5246.7978515625,-2692.54052734375,17622.3125,-6253.71923828125,-0.0,-5749.861328125,7445.017578125,-3974.437744140625,-3493.626953125,572.20458984375,7052.42138671875,-6789.3662109375,1898.606689453125,-5625.8837890625,-1834.233642578125,-2117.156982421875,7851.91845703125,-4015.763671875,-13879.935546875,-7445.017578125,-1100.6990966796875,155.7667999267578,-8330.3447265625,-2021.78955078125,-4283.5869140625,-11951.923828125,2602.736328125,-108.08309173583984,1190.50341796875,-8463.0654296875,-718.4346313476562,0.0,-2222.06103515625,0.0,-3251.23486328125,-0.0,775.6550903320312
-11963.8447265625,-13982.455078125,-5526.54248046875,-115.23564910888672,205.03997802734375,13312.4990234375,-3872.71240234375,-646.1143798828125,-859.8963623046875,5176.8623046875,-8508.3642578125,-9088.5166015625,-4858.17578125,4320.14453125,-243.18695068359375,-8007.685546875,301.2021484375,1397.9276123046875,4036.426513671875,15168.1904296875,2872.94384765625,9033.6796875,622.2724609375,14228.0263671875,-4445.71142578125,-5581.37890625,-3823.439453125,-3461.837890625,-6742.4775390625,-1292.228759765625,5859.53369140625,4799.3662109375,904.401123046875,1874.7647705078125,-961.62158203125,5255.54052734375,-2682.208984375,17633.4375,-6252.1298828125,-0.0,-5736.35107421875,7445.81201171875,-3958.543212890625,-3485.6796875,581.7413330078125,7064.34228515625,-6777.4453125,1928.8062744140625,-5611.57861328125,-1827.0810546875,-2094.10986328125,7853.5078125,-2322.197021484375,-13836.224609375,-7418.79150390625,-1075.267822265625,172.4561004638672,-8289.01953125,-2024.9683837890625,-4251.00341796875,-11938.4130859375,2617.041259765625,-96.16216278076172,1200.0401611328125,-8439.2236328125,-699.3611450195312,0.0,-2194.24560546875,0.0,-3205.140380859375,-0.0,795.5233154296875
-11936.0283203125,-13940.333984375,-5529.7216796875,-135.89859008789062,206.6294403076172,13319.6513671875,-3869.533447265625,-637.372314453125,-855.9227294921875,5177.65673828125,-8521.080078125,-9085.337890625,-4854.2021484375,4316.9658203125,-224.11346435546875,-7989.40673828125,296.43377685546875,1396.338134765625,4039.605712890625,15172.9580078125,2870.5595703125,9033.6796875,623.0671997070312,14234.3837890625,-4442.533203125,-5580.583984375,-3817.876220703125,-3441.1748046875,-6748.04052734375,-1308.91796875,5857.1494140625,4794.59765625,899.6327514648438,1866.8175048828125,-962.4163208007812,5256.3349609375,-2677.440673828125,17638.20703125,-6286.30322265625,-0.0,-5740.32470703125,7448.9912109375,-3955.3642578125,-3475.34814453125,588.0991821289062,7069.90576171875,-6789.3662109375,1902.580322265625,-5610.7841796875,-1808.007568359375,-2075.8310546875,7867.81298828125,-1675.287841796875,-13836.224609375,-7424.3544921875,-1067.3204345703125,187.5559539794922,-8295.376953125,-2008.279052734375,-4268.4873046875,-11947.1552734375,2618.630615234375,-91.39379119873047,1196.0665283203125,-8449.5546875,-682.671875,0.0,-2213.319091796875,0.0,-3221.82958984375,-0.0,785.1918334960938
-11942.38671875,-13949.87109375,-5538.46337890625,-135.89859008789062,197.88742065429688,13306.935546875,-3879.0703125,-646.9090576171875,-856.7174072265625,5180.8359375,-8533.0009765625,-9101.2314453125,-4862.14990234375,4321.73388671875,-249.54476928710938,-8021.1953125,286.89703369140625,1388.390869140625,4031.658203125,15170.57421875,2860.228271484375,9023.3486328125,614.3251953125,14222.462890625,-4447.30126953125,-5590.12060546875,-3827.412841796875,-3456.274658203125,-6753.603515625,-1321.6336669921875,5848.40771484375,4785.06103515625,890.0960083007812,1858.8701171875,-970.3636474609375,5246.00341796875,-2685.387939453125,17631.0546875,-6294.25048828125,-0.0,-5745.0927734375,7441.8388671875,-3965.69580078125,-3488.8583984375,579.357177734375,7060.369140625,-6802.08203125,1902.580322265625,-5613.962890625,-1834.233642578125,-2101.262451171875,7857.48193359375,-1815.16015625,-13837.814453125,-7429.91796875,-1083.215087890625,175.63502502441406,-8301.7353515625,-2024.9683837890625,-4279.61328125,-11959.076171875,2609.888671875,-98.54634857177734,1194.47705078125,-8458.296875,-687.4402465820312,0.0,-2186.29833984375,0.0,-3214.677001953125,-0.0,776.4498291015625
-11983.7119140625,-13987.2236328125,-5555.94775390625,-123.18293762207031,181.1981201171875,13291.041015625,-3894.170166015625,-665.1878662109375,-861.4857788085938,5161.76220703125,-8540.1533203125,-9102.8212890625,-4893.14404296875,4322.52880859375,-294.0495910644531,-8056.9580078125,273.3866271972656,1374.0858154296875,4018.14794921875,15165.01171875,2845.923095703125,9009.0439453125,598.4306640625,14208.1572265625,-4472.732421875,-5617.1416015625,-3852.049560546875,-3484.885009765625,-6767.1142578125,-1331.965087890625,5832.51318359375,4771.55078125,877.38037109375,1846.94921875,-985.4635009765625,5231.69873046875,-2699.69287109375,17618.337890625,-6287.09814453125,-0.0,-5762.5771484375,7426.73876953125,-3983.974365234375,-3506.342529296875,568.23095703125,7049.24267578125,-6814.7978515625,1917.68017578125,-5631.44677734375,-1838.207275390625,-2144.97265625,7826.4873046875,-1874.7647705078125,-13864.8349609375,-7442.63330078125,-1094.34130859375,130.3354949951172,-8317.6298828125,-2029.73681640625,-4256.56640625,-11971.791015625,2597.173095703125,-108.08309173583984,1187.324462890625,-8471.01171875,-705.718994140625,0.0,-2167.224853515625,0.0,-3211.498291015625,-0.0,758.9658203125
-11986.8916015625,-13986.4287109375,-5571.04736328125,-154.17735290527344,164.50881958007812,13280.708984375,-3907.680419921875,-681.8771362304688,-872.6119995117188,5149.84130859375,-8548.1005859375,-9109.9736328125,-4909.03857421875,4323.32373046875,-307.5599670410156,-8072.85302734375,261.4656982421875,1358.98583984375,4003.8427734375,15145.9375,2834.002197265625,8997.123046875,584.12548828125,14195.4423828125,-4490.216796875,-5625.8837890625,-3868.73876953125,-3498.395263671875,-6783.80322265625,-1330.375732421875,5819.00244140625,4758.8349609375,863.0752563476562,1834.233642578125,-998.973876953125,5219.77734375,-2715.587646484375,17604.828125,-6307.7607421875,-0.0,-5779.2666015625,7416.4072265625,-3999.074462890625,-3519.852783203125,554.7205810546875,7032.55322265625,-6822.74462890625,1882.7120361328125,-5651.3154296875,-1849.3333740234375,-2158.48291015625,7809.00341796875,-1824.6968994140625,-13904.5712890625,-7457.7333984375,-1102.28857421875,116.0303726196289,-8312.861328125,-2039.2735595703125,-4274.84521484375,-11982.123046875,2580.483642578125,-122.38819885253906,1173.814208984375,-8478.958984375,-729.5608520507812,0.0,-2183.11962890625,0.0,-3224.2138671875,-0.0,743.865966796875
-11981.328125,-13990.40234375,-5572.63720703125,-167.68772888183594,158.9457244873047,13275.146484375,-3911.654052734375,-688.2349853515625,-875.7908935546875,5155.40478515625,-8547.3056640625,-9105.205078125,-4895.5283203125,4322.52880859375,-306.7652282714844,-8053.77978515625,262.26043701171875,1355.8070068359375,3997.484619140625,15142.7587890625,2830.028564453125,8995.533203125,580.9465942382812,14192.263671875,-4494.98486328125,-5629.0625,-3871.123046875,-3499.98486328125,-6781.41943359375,-1307.32861328125,5815.82421875,4760.42431640625,861.4857788085938,1832.6441650390625,-1002.9474487304688,5215.8037109375,-2719.561279296875,17600.05859375,-6296.634765625,-0.0,-5781.650390625,7410.84423828125,-4002.253173828125,-3524.621337890625,549.9522094726562,7024.6064453125,-6821.9501953125,1869.20166015625,-5656.08349609375,-1856.4859619140625,-2159.277587890625,7806.619140625,-2326.170654296875,-13900.59765625,-7456.9384765625,-1111.030517578125,123.9776611328125,-8300.1455078125,-2052.783935546875,-4286.76611328125,-11970.9970703125,2577.304931640625,-126.36184692382812,1170.63525390625,-8474.986328125,-712.0768432617188,0.0,-2190.27197265625,0.0,-3232.9560546875,-0.0,741.4818115234375
-11984.5078125,-13995.1708984375,-5561.5107421875,-163.71409606933594,167.68772888183594,13280.708984375,-3901.322509765625,-685.8507690429688,-873.40673828125,5150.63623046875,-8538.5634765625,-9101.2314453125,-4884.40185546875,4307.4287109375,-279.7444763183594,-8074.44287109375,271.00244140625,1362.164794921875,4005.43212890625,15143.5537109375,2838.7705078125,9001.8916015625,588.0991821289062,14196.236328125,-4483.8583984375,-5608.39990234375,-3854.433837890625,-3496.805908203125,-6770.29296875,-1296.9970703125,5822.9765625,4768.37158203125,869.43310546875,1840.5914306640625,-994.2054443359375,5223.7509765625,-2710.024658203125,17603.23828125,-6280.740234375,-0.0,-5771.31884765625,7414.81787109375,-3990.33203125,-3518.263671875,557.8994750976562,7026.990234375,-6810.029296875,1874.7647705078125,-5643.36767578125,-1858.075439453125,-2134.640869140625,7806.619140625,-2617.8359375,-13876.755859375,-7447.4013671875,-1124.5408935546875,142.2564239501953,-8300.9404296875,-2043.2471923828125,-4283.5869140625,-11957.486328125,2583.662841796875,-120.79874420166016,1163.482666015625,-8469.421875,-697.771728515625,0.0,-2195.04052734375,0.0,-3232.161376953125,-0.0,732.73974609375
-11982.91796875,-14003.9130859375,-5556.7421875,-150.20370483398438,170.07191467285156,13291.041015625,-3898.9384765625,-673.1351318359375,-870.227783203125,5160.96728515625,-8538.5634765625,-9096.462890625,-4881.22314453125,4312.9921875,-289.2812194824219,-8052.18994140625,276.5655517578125,1367.7279052734375,4011.789794921875,15152.294921875,2843.5390625,9009.0439453125,592.0728149414062,14204.978515625,-4479.88525390625,-5575.021484375,-3856.81787109375,-3480.9111328125,-6769.49853515625,-1301.765380859375,5830.92333984375,4771.55078125,874.9962158203125,1848.5386962890625,-990.2318725585938,5231.69873046875,-2708.43505859375,17611.98046875,-6273.587890625,-0.0,-5767.34521484375,7427.53369140625,-3988.742919921875,-3508.726806640625,561.078369140625,7037.32177734375,-6803.67138671875,1889.8646240234375,-5642.57275390625,-1854.896484375,-2144.97265625,7822.513671875,-1968.5428466796875,-13871.193359375,-7447.4013671875,-1123.7462158203125,135.89859008789062,-8294.58203125,-2040.863037109375,-4274.05029296875,-11957.486328125,2593.994140625,-113.64618682861328,1173.814208984375,-8467.833984375,-697.771728515625,0.0,-2168.814453125,0.0,-3215.471923828125,-0.0,747.839599609375
-11992.4541015625,-14019.0126953125,-5559.12646484375,-139.8722381591797,162.9193572998047,13288.6572265625,-3906.8857421875,-673.1351318359375,-872.6119995117188,5160.1728515625,-8540.9482421875,-9093.2841796875,-4886.7861328125,4320.939453125,-308.3547058105469,-8046.626953125,271.79718017578125,1362.164794921875,4005.43212890625,15151.5009765625,2837.18115234375,9005.0693359375,584.12548828125,14201.80078125,-4487.83251953125,-5606.81005859375,-3875.0966796875,-3482.500732421875,-6774.2666015625,-1310.5074462890625,5826.9501953125,4767.57666015625,870.227783203125,1844.5650634765625,-996.5896606445312,5226.93017578125,-2713.998046875,17608.0078125,-6279.150390625,-0.0,-5772.11376953125,7422.76513671875,-3999.074462890625,-3509.521484375,556.3099975585938,7036.52734375,-6805.26123046875,1899.4013671875,-5656.8779296875,-1849.3333740234375,-2163.251220703125,7820.923828125,-1204.0137939453125,-13888.6767578125,-7452.169921875,-1109.441162109375,119.20928955078125,-8300.9404296875,-2042.4525146484375,-4274.84521484375,-11964.638671875,2588.43115234375,-119.20928955078125,1172.224609375,-8477.3701171875,-696.1822509765625,0.0,-2160.072265625,0.0,-3220.240234375,-0.0,745.4554443359375
-11995.6328125,-14042.8544921875,-5556.7421875,-139.07749938964844,166.89300537109375,13290.24609375,-3900.52783203125,-663.598388671875,-863.0752563476562,5169.70947265625,-8541.7431640625,-9092.490234375,-4882.017578125,4332.8603515625,-291.6654052734375,-8026.75927734375,272.5919189453125,1366.138427734375,4010.200439453125,15161.83203125,2839.565185546875,9006.6591796875,588.0991821289062,14208.1572265625,-4482.26953125,-5627.47314453125,-3865.559814453125,-3464.221923828125,-6769.49853515625,-1302.5601806640625,5827.7451171875,4767.57666015625,869.43310546875,1844.5650634765625,-994.2054443359375,5228.51953125,-2707.640380859375,17616.748046875,-6283.9189453125,-0.0,-5769.7294921875,7418.79150390625,-3994.30615234375,-3502.368896484375,564.25732421875,7046.8583984375,-6802.876953125,1899.4013671875,-5652.10986328125,-1839.796630859375,-2143.383056640625,7836.0244140625,-1200.0401611328125,-13897.4189453125,-7445.81201171875,-1090.36767578125,128.74603271484375,-8275.5087890625,-2032.915771484375,-4269.28173828125,-11967.0224609375,2593.199462890625,-109.67254638671875,1184.1456298828125,-8471.806640625,-687.4402465820312,0.0,-2157.688232421875,0.0,-3212.29296875,-0.0,761.3499755859375
-11990.865234375,-14050.0068359375,-5545.6162109375,-132.7196807861328,178.0192108154297,13303.7568359375,-3887.017578125,-646.9090576171875,-855.1279907226562,5178.45166015625,-8534.5908203125,-9086.1318359375,-4871.6865234375,4331.2705078125,-262.26043701171875,-7992.5849609375,279.7444763183594,1377.2646484375,4022.916259765625,15174.5478515625,2848.307373046875,9015.4013671875,601.6095581054688,14220.078125,-4470.34814453125,-5606.81005859375,-3847.28125,-3447.53271484375,-6759.16650390625,-1284.2813720703125,5838.076171875,4776.31884765625,877.38037109375,1852.5123291015625,-983.8739624023438,5239.6455078125,-2694.924560546875,17629.46484375,-6277.56103515625,-0.0,-5760.98779296875,7432.3017578125,-3980.79541015625,-3488.063720703125,575.3834838867188,7060.369140625,-6800.49267578125,1906.5538330078125,-5637.8046875,-1823.107421875,-2114.772705078125,7859.8662109375,-2133.051513671875,-13886.2919921875,-7436.275390625,-1072.0888671875,147.02479553222656,-8251.6669921875,-2020.2000732421875,-4263.71923828125,-11960.666015625,2605.120361328125,-97.75161743164062,1196.0665283203125,-8454.3232421875,-679.492919921875,0.0,-2178.35107421875,0.0,-3207.524658203125,-0.0,778.8340454101562
-12001.197265625,-14055.5693359375,-5553.5634765625,-138.28277587890625,170.07191467285156,13295.0146484375,-3892.580810546875,-648.49853515625,-863.8699951171875,5172.88818359375,-8542.5380859375,-9099.642578125,-4869.30224609375,4314.58154296875,-272.5919189453125,-7985.4326171875,271.79718017578125,1369.3173828125,4020.5322265625,15167.3955078125,2841.15478515625,9008.248046875,597.6359252929688,14215.310546875,-4475.91162109375,-5616.3466796875,-3851.254638671875,-3453.890625,-6759.96142578125,-1296.2022705078125,5830.12890625,4769.16650390625,871.0225219726562,1842.9755859375,-990.2318725585938,5231.69873046875,-2699.69287109375,17625.490234375,-6284.7138671875,-0.0,-5768.14013671875,7425.94384765625,-3985.563720703125,-3494.421630859375,569.0256958007812,7060.369140625,-6814.7978515625,1901.7855224609375,-5640.1884765625,-1839.001953125,-2124.3095703125,7860.66064453125,-3190.04052734375,-13893.4453125,-7437.86474609375,-1090.36767578125,149.4089813232422,-8283.4560546875,-2024.1737060546875,-4261.3349609375,-11966.228515625,2599.55712890625,-102.51998901367188,1192.0928955078125,-8458.296875,-697.771728515625,0.0,-2214.90869140625,0.0,-3218.65087890625,-0.0,771.6814575195312
-12005.96484375,-14019.0126953125,-5549.58984375,-130.3354949951172,178.0192108154297,13292.6298828125,-3885.42822265625,-653.2669067382812,-852.7437744140625,5184.0146484375,-8532.2060546875,-9113.15234375,-4853.4072265625,4336.833984375,-267.82354736328125,-8015.6328125,278.1549987792969,1374.0858154296875,4026.094970703125,15179.31640625,2845.923095703125,9010.6328125,602.404296875,14213.7216796875,-4466.375,-5617.1416015625,-3843.3076171875,-3470.579833984375,-6751.21923828125,-1308.123291015625,5835.69189453125,4773.93505859375,878.1751098632812,1848.5386962890625,-984.668701171875,5232.4931640625,-2690.951171875,17623.90234375,-6272.79296875,-0.0,-5760.98779296875,7424.3544921875,-3976.82177734375,-3497.6005859375,577.7677001953125,7061.95849609375,-6806.0556640625,1908.1434326171875,-5632.24169921875,-1855.6912841796875,-2120.3359375,7847.14990234375,-4289.9453125,-13899.802734375,-7426.73876953125,-1104.6727294921875,168.4824676513672,-8347.0341796875,-2013.0474853515625,-4270.07666015625,-11962.2548828125,2602.736328125,-96.9568862915039,1217.524169921875,-8448.759765625,-720.0241088867188,0.0,-2213.319091796875,0.0,-3212.29296875,-0.0,795.5233154296875
-12029.806640625,-14005.501953125,-5539.25830078125,-125.56712341308594,185.17176818847656,13296.6044921875,-3878.275634765625,-655.651123046875,-850.359619140625,5178.45166015625,-8530.6171875,-9115.537109375,-4848.63916015625,4333.65478515625,-229.6765594482422,-8045.83251953125,280.5391845703125,1375.6751708984375,4027.6845703125,15180.111328125,2849.896728515625,9014.6064453125,604.7884521484375,14214.515625,-4462.40087890625,-5606.81005859375,-3829.797119140625,-3476.142822265625,-6749.6298828125,-1312.8916015625,5838.87109375,4776.31884765625,883.7382202148438,1853.30712890625,-980.6951293945312,5235.671875,-2684.59326171875,17624.697265625,-6275.1767578125,-0.0,-5756.21923828125,7429.91796875,-3969.66943359375,-3495.21630859375,588.0991821289062,7056.39501953125,-6793.34033203125,1914.501220703125,-5627.47314453125,-1846.94921875,-2084.572998046875,7839.203125,-5510.6484375,-13918.876953125,-7424.3544921875,-1107.0570068359375,186.76121520996094,-8378.029296875,-1990.00048828125,-4271.666015625,-11964.638671875,2603.53076171875,-96.16216278076172,1213.550537109375,-8451.9384765625,-723.9977416992188,0.0,-2211.729736328125,0.0,-3211.498291015625,-0.0,793.13916015625
-12036.9599609375,-14022.986328125,-5561.5107421875,-143.0511474609375,161.3299102783203,13281.5048828125,-3903.706787109375,-684.2613525390625,-868.6383666992188,5167.32568359375,-8549.6904296875,-9126.6630859375,-4887.5810546875,4313.787109375,-262.26043701171875,-8069.67431640625,263.05517578125,1355.0123291015625,4004.63720703125,15157.8583984375,2830.8232421875,8995.533203125,584.12548828125,14193.0576171875,-4480.68017578125,-5613.962890625,-3855.228515625,-3494.421630859375,-6769.49853515625,-1331.17041015625,5818.2080078125,4759.6298828125,863.8699951171875,1835.822998046875,-1002.1527709960938,5216.5986328125,-2708.43505859375,17603.23828125,-6291.0712890625,-0.0,-5777.67724609375,7418.79150390625,-3993.51123046875,-3517.46875,564.25732421875,7028.57958984375,-6814.0029296875,1897.01708984375,-5649.7255859375,-1854.101806640625,-2114.772705078125,7806.619140625,-6779.03515625,-13922.8505859375,-7445.017578125,-1118.18310546875,150.20370483398438,-8369.2861328125,-2026.557861328125,-4275.64013671875,-11985.3017578125,2580.483642578125,-119.20928955078125,1198.45068359375,-8471.01171875,-734.3292236328125,0.0,-2219.677001953125,0.0,-3212.29296875,-0.0,782.012939453125
-12024.2431640625,-14036.49609375,-5574.2265625,-168.4824676513672,148.61424255371094,13267.994140625,-3915.6279296875,-685.8507690429688,-868.6383666992188,5156.99365234375,-8562.4052734375,-9140.96875,-4915.39599609375,4329.681640625,-315.50726318359375,-8070.46875,251.13424682617188,1343.885986328125,3996.690185546875,15161.83203125,2819.697021484375,8983.6123046875,572.20458984375,14183.521484375,-4492.60107421875,-5621.115234375,-3878.275634765625,-3508.726806640625,-6786.98193359375,-1351.8333740234375,5806.287109375,4748.50341796875,851.9490356445312,1822.312744140625,-1016.4578857421875,5204.677734375,-2722.740234375,17595.291015625,-6307.7607421875,-0.0,-5787.2138671875,7406.87060546875,-4007.81640625,-3530.979248046875,553.131103515625,7030.9638671875,-6821.9501953125,1870.7911376953125,-5666.41455078125,-1873.969970703125,-2166.43017578125,7805.82421875,-7119.9736328125,-13926.8232421875,-7462.50146484375,-1149.9722900390625,112.05673217773438,-8371.6708984375,-2050.39990234375,-4277.2294921875,-11991.66015625,2570.947021484375,-122.38819885253906,1200.0401611328125,-8482.138671875,-745.4554443359375,0.0,-2198.21923828125,0.0,-3225.0087890625,-0.0,774.8603515625
