-13345.8779296875,-10128.8154296875,-3440.380126953125,2652.80419921875,3491.24267578125,20918.05078125,-1128.5146484375,3844.89697265625,-2137.820068359375,5091.03173828125,-7263.02490234375,-3810.7236328125,-4986.921875,3512.700439453125,1261.2342529296875,-3393.490966796875,984.668701171875,4394.84912109375,5930.26513671875,17429.193359375,4074.573486328125,13120.96875,2978.642822265625,17157.396484375,-5338.19189453125,-4688.10400390625,-2472.400634765625,-601.6095581054688,-6146.43115234375,1827.875732421875,7357.59716796875,7892.44921875,4501.3427734375,6082.85302734375,1664.9564208984375,6918.9072265625,219.3450927734375,20741.62109375,-2096.493896484375,-0.0,-1018.8421020507812,10083.5166015625,-1099.9044189453125,1256.4659423828125,2508.9580078125,9865.7607421875,-5265.0771484375,3882.2490234375,-4658.69921875,147.81951904296875,-208.21888732910156,10561.1484375,-13422.9658203125,-12063.185546875,-5900.85986328125,-1223.882080078125,77.08867645263672,-5038.57958984375,-1617.272705078125,-646.1143798828125,-8255.640625,4514.85302734375,1805.6234130859375,1675.287841796875,-5051.294921875,1658.5985107421875,0.0,-2283.25537109375,0.0,-1512.3685302734375,-0.0,135.10386657714844
-13341.9033203125,-10108.947265625,-3441.9697265625,2644.06201171875,3488.8583984375,20918.05078125,-1134.07763671875,3846.486328125,-2154.50927734375,5083.083984375,-7261.43505859375,-3812.31298828125,-4985.33251953125,3506.342529296875,1258.0552978515625,-3385.5439453125,983.8739624023438,4391.67041015625,5926.291015625,17414.09375,4072.189453125,13117.7900390625,2974.669189453125,17155.01171875,-5340.576171875,-4689.693359375,-2475.57958984375,-598.4306640625,-6143.251953125,1823.902099609375,7356.80224609375,7894.0390625,4500.5478515625,6083.6474609375,1662.572265625,6915.72802734375,213.78199768066406,20738.443359375,-2092.5205078125,-0.0,-1020.4315185546875,10081.927734375,-1103.083251953125,1258.0552978515625,2501.010986328125,9862.58203125,-5259.513671875,3872.71240234375,-4662.67236328125,148.61424255371094,-212.19253540039062,10561.943359375,-13422.9658203125,-12071.1328125,-5899.2705078125,-1218.3189697265625,77.8833999633789,-5036.98974609375,-1628.39892578125,-652.47216796875,-8259.6142578125,4510.08447265625,1796.88134765625,1676.0826416015625,-5049.70556640625,1661.7774658203125,0.0,-2295.17626953125,0.0,-1513.1632080078125,-0.0,143.0511474609375
-13322.830078125,-10131.9951171875,-3416.538330078125,2666.314453125,3512.700439453125,20944.27734375,-1111.030517578125,3871.123046875,-2137.820068359375,5104.5419921875,-7238.38818359375,-3791.650146484375,-4963.875,3533.36328125,1289.0498046875,-3349.781005859375,1004.5369873046875,4411.53857421875,5947.74853515625,17434.755859375,4096.03125,13139.248046875,2993.74267578125,17178.05859375,-5315.14501953125,-4661.0830078125,-2446.96923828125,-568.23095703125,-6122.5888671875,1850.9229736328125,7378.26025390625,7912.318359375,4522.80029296875,6103.515625,1683.235107421875,6937.98046875,236.82911682128906,20761.490234375,-2071.062744140625,-0.0,-995.000244140625,10103.384765625,-1079.241455078125,1283.4866943359375,2521.673828125,9888.80859375,-5235.671875,3895.759521484375,-4637.2412109375,174.04556274414062,-180.4033966064453,10591.34765625,-13400.7138671875,-12057.6220703125,-5877.01806640625,-1196.861328125,103.3147201538086,-5022.6845703125,-1604.5570068359375,-633.398681640625,-8235.7724609375,4532.33740234375,1818.3389892578125,1714.2296142578125,-5030.6318359375,1680.0562744140625,0.0,-2291.20263671875,0.0,-1501.2423095703125,-0.0,170.8666534423828
-13341.109375,-10152.6572265625,-3414.154052734375,2667.109130859375,3515.87939453125,20936.330078125,-1107.0570068359375,3871.917724609375,-2124.3095703125,5105.33642578125,-7245.54052734375,-3799.597412109375,-4947.98046875,3540.515869140625,1320.8388671875,-3353.754638671875,1003.7421875,4411.53857421875,5950.1328125,17445.087890625,4095.236328125,13137.658203125,2995.33203125,17177.263671875,-5315.14501953125,-4667.44091796875,-2435.04833984375,-576.9729614257812,-6126.5625,1842.180908203125,7378.26025390625,7908.34423828125,4522.00537109375,6103.515625,1684.0299072265625,6936.39111328125,243.18695068359375,20764.669921875,-2075.8310546875,-0.0,-995.000244140625,10102.58984375,-1072.883544921875,1277.923583984375,2532.800048828125,9895.1650390625,-5237.26123046875,3894.96484375,-4633.26806640625,158.15098571777344,-150.20370483398438,10592.142578125,-13410.2509765625,-12083.0537109375,-5878.607421875,-1205.603271484375,126.36184692382812,-5036.98974609375,-1583.099365234375,-623.8619384765625,-8233.3876953125,4533.92626953125,1823.902099609375,1707.871826171875,-5033.81103515625,1669.724853515625,0.0,-2270.53955078125,0.0,-1500.4476318359375,-0.0,156.56153869628906
-13364.15625,-10090.6689453125,-3428.459228515625,2647.240966796875,3496.805908203125,20917.2578125,-1123.7462158203125,3858.4072265625,-2131.462158203125,5093.41552734375,-7265.4091796875,-3816.286865234375,-4972.61669921875,3544.489501953125,1288.255126953125,-3364.880859375,986.2581787109375,4395.6435546875,5931.0595703125,17434.755859375,4076.162841796875,13117.7900390625,2977.84814453125,17158.189453125,-5335.8076171875,-4677.7724609375,-2458.89013671875,-596.0464477539062,-6142.45751953125,1819.1337890625,7359.9814453125,7891.65478515625,4506.90625,6083.6474609375,1666.5458984375,6918.1123046875,223.31874084472656,20748.7734375,-2094.10986328125,-0.0,-1013.2789306640625,10084.3115234375,-1091.95703125,1260.4395751953125,2516.110595703125,9881.6552734375,-5253.15625,3877.480712890625,-4655.52001953125,131.13021850585938,-178.81393432617188,10578.6328125,-13428.5283203125,-12129.943359375,-5896.09130859375,-1223.882080078125,92.98324584960938,-5044.93701171875,-1598.19921875,-636.57763671875,-8244.5146484375,4517.2373046875,1810.3917236328125,1695.1561279296875,-5045.73193359375,1657.8038330078125,0.0,-2284.050048828125,0.0,-1509.984375,-0.0,139.07749938964844
-13347.466796875,-10054.90625,-3434.022216796875,2648.03564453125,3493.626953125,20923.615234375,-1128.5146484375,3856.023193359375,-2133.84619140625,5096.59423828125,-7269.38232421875,-3814.697265625,-4994.869140625,3538.1318359375,1266.002685546875,-3375.21240234375,982.2845458984375,4393.259765625,5929.47021484375,17434.755859375,4073.778564453125,13117.7900390625,2975.4638671875,17159.78125,-5335.0126953125,-4685.7197265625,-2471.60595703125,-591.278076171875,-6151.994140625,1808.80224609375,7358.39208984375,7889.27099609375,4503.72705078125,6081.26318359375,1665.7510986328125,6917.31787109375,219.3450927734375,20747.185546875,-2092.5205078125,-0.0,-1014.868408203125,10086.6953125,-1098.31494140625,1264.4132080078125,2511.34228515625,9877.681640625,-5258.71875,3879.0703125,-4659.494140625,146.2300567626953,-203.4505157470703,10579.4267578125,-13427.734375,-12128.353515625,-5904.0390625,-1230.2398681640625,68.3466567993164,-5041.75830078125,-1604.5570068359375,-660.41943359375,-8246.8984375,4514.85302734375,1808.007568359375,1695.1561279296875,-5052.08984375,1661.7774658203125,0.0,-2288.023681640625,0.0,-1512.3685302734375,-0.0,146.2300567626953
-13347.466796875,-10120.07421875,-3451.50634765625,2634.525390625,3478.527099609375,20918.845703125,-1142.0250244140625,3853.638916015625,-2141.79345703125,5085.46826171875,-7288.4560546875,-3829.797119140625,-5005.9951171875,3521.4423828125,1247.723876953125,-3373.622802734375,967.9794311523438,4382.13330078125,5919.138671875,17424.42578125,4060.268310546875,13107.458984375,2962.748291015625,17151.83203125,-5344.5498046875,-4691.28271484375,-2489.08984375,-588.8939208984375,-6162.3251953125,1783.3709716796875,7346.47119140625,7874.9658203125,4485.4482421875,6069.34228515625,1655.419677734375,6907.78125,206.6294403076172,20742.416015625,-2096.493896484375,-0.0,-1029.1734619140625,10077.953125,-1112.6199951171875,1261.2342529296875,2499.42138671875,9874.5029296875,-5272.2294921875,3866.354736328125,-4674.59326171875,143.0511474609375,-222.5240020751953,10581.0166015625,-13434.88671875,-12136.2998046875,-5915.1650390625,-1263.618408203125,57.220458984375,-5046.5263671875,-1629.193603515625,-659.624755859375,-8273.9189453125,4505.31640625,1800.060302734375,1680.0562744140625,-5064.8056640625,1645.8829345703125,0.0,-2295.17626953125,0.0,-1521.110595703125,-0.0,135.89859008789062
-13368.923828125,-10146.30078125,-3456.274658203125,2629.7568359375,3473.7587890625,20912.48828125,-1148.3828125,3848.87060546875,-2144.177734375,5093.41552734375,-7308.32421875,-3842.512939453125,-5002.81689453125,3525.416015625,1247.723876953125,-3374.41748046875,956.8532104492188,4375.77587890625,5911.98583984375,17422.833984375,4052.321044921875,13100.306640625,2956.390380859375,17145.474609375,-5342.16552734375,-4676.9775390625,-2492.268798828125,-598.4306640625,-6163.1201171875,1757.1448974609375,7339.31884765625,7856.6865234375,4479.09033203125,6060.60009765625,1646.6776123046875,6899.83349609375,201.86106872558594,20737.6484375,-2124.3095703125,-0.0,-1033.94189453125,10079.54296875,-1115.7989501953125,1253.2869873046875,2493.8583984375,9872.9130859375,-5278.58740234375,3858.4072265625,-4677.7724609375,120.79874420166016,-221.72927856445312,10569.095703125,-13438.861328125,-12129.943359375,-5918.34423828125,-1264.4132080078125,65.1677474975586,-5073.54736328125,-1646.6776123046875,-645.3196411132812,-8306.5029296875,4498.16357421875,1795.2918701171875,1691.1824951171875,-5072.75244140625,1629.98828125,0.0,-2281.665771484375,0.0,-1505.2159423828125,-0.0,148.61424255371094
-13372.8984375,-10097.0263671875,-3437.995849609375,2666.314453125,3492.832275390625,20921.23046875,-1131.6934814453125,3871.123046875,-2131.462158203125,5111.6943359375,-7290.04541015625,-3824.23388671875,-4994.869140625,3526.210693359375,1265.2078857421875,-3348.986328125,971.9530639648438,4389.2861328125,5928.67529296875,17440.318359375,4072.984130859375,13115.40625,2973.874267578125,17160.57421875,-5325.47607421875,-4683.3359375,-2470.81103515625,-588.0991821289062,-6150.404296875,1774.6290283203125,7356.0078125,7870.99169921875,4495.779296875,6075.7001953125,1664.9564208984375,6912.54931640625,217.75563049316406,20753.541015625,-2111.593994140625,-0.0,-1014.07373046875,10089.8740234375,-1097.520263671875,1265.2078857421875,2508.9580078125,9895.1650390625,-5263.4873046875,3896.55419921875,-4660.28857421875,138.28277587890625,-205.03997802734375,10593.7314453125,-13430.9130859375,-12114.0478515625,-5904.0390625,-1235.00830078125,76.2939453125,-5053.67919921875,-1630.7830810546875,-629.425048828125,-8285.83984375,4515.64794921875,1811.981201171875,1710.2559814453125,-5056.06298828125,1655.419677734375,0.0,-2243.518798828125,0.0,-1485.3477783203125,-0.0,170.8666534423828
-13367.3349609375,-10082.7216796875,-3439.58544921875,2648.830322265625,3488.8583984375,20913.283203125,-1130.8988037109375,3872.71240234375,-2123.514892578125,5115.66796875,-7290.04541015625,-3827.412841796875,-5001.22705078125,3534.952880859375,1264.4132080078125,-3343.423095703125,967.9794311523438,4386.10693359375,5930.26513671875,17447.470703125,4069.01025390625,13109.8427734375,2973.07958984375,17157.396484375,-5335.0126953125,-4697.64111328125,-2469.221923828125,-588.8939208984375,-6154.37841796875,1789.728759765625,7351.23974609375,7868.607421875,4494.98486328125,6070.93212890625,1660.9827880859375,6907.78125,219.3450927734375,20752.748046875,-2114.772705078125,-0.0,-1018.8421020507812,10078.748046875,-1097.520263671875,1260.4395751953125,2511.34228515625,9899.1396484375,-5270.64013671875,3879.0703125,-4657.904296875,140.66696166992188,-205.83470153808594,10595.3212890625,-13453.9599609375,-12125.1748046875,-5908.80712890625,-1229.445068359375,66.7572021484375,-5030.6318359375,-1619.6568603515625,-616.7094116210938,-8271.53515625,4516.44287109375,1815.16015625,1711.845458984375,-5058.447265625,1653.0355224609375,0.0,-2252.260986328125,0.0,-1487.73193359375,-0.0,167.68772888183594
-13348.26171875,-10078.748046875,-3445.1484375,2621.014892578125,3481.705810546875,20908.513671875,-1134.8724365234375,3867.1494140625,-2124.3095703125,5110.8994140625,-7284.482421875,-3829.797119140625,-4999.6376953125,3534.952880859375,1256.4659423828125,-3361.701904296875,963.2110595703125,4383.72265625,5925.49658203125,17441.908203125,4064.241943359375,13103.4853515625,2969.90087890625,17151.83203125,-5350.11279296875,-4700.02490234375,-2477.1689453125,-589.6885986328125,-6158.35205078125,1810.3917236328125,7344.0869140625,7871.787109375,4490.216796875,6065.36865234375,1655.419677734375,6902.2177734375,214.57672119140625,20750.365234375,-2124.3095703125,-0.0,-1026.789306640625,10066.8271484375,-1103.083251953125,1255.671142578125,2508.16357421875,9893.576171875,-5276.203125,3850.4599609375,-4665.8515625,139.07749938964844,-212.9872589111328,10586.5791015625,-13468.265625,-12125.1748046875,-5911.19140625,-1237.3924560546875,60.39937210083008,-5048.1162109375,-1622.0411376953125,-617.504150390625,-8268.3564453125,4512.46875,1811.1864013671875,1701.513916015625,-5062.42138671875,1657.0091552734375,0.0,-2267.360595703125,0.0,-1492.500244140625,-0.0,158.15098571777344
-13346.671875,-10095.4375,-3446.738037109375,2615.451904296875,3480.9111328125,20906.92578125,-1136.4619140625,3873.50732421875,-2126.69384765625,5100.568359375,-7274.94580078125,-3844.10205078125,-4998.04833984375,3534.952880859375,1253.2869873046875,-3364.086181640625,964.0057983398438,4382.92822265625,5923.1123046875,17438.73046875,4062.652587890625,13103.4853515625,2968.311279296875,17151.83203125,-5349.31787109375,-4698.435546875,-2478.758544921875,-584.12548828125,-6155.9677734375,1817.5443115234375,7342.49755859375,7874.17138671875,4487.83251953125,6066.16357421875,1656.21435546875,6902.2177734375,212.19253540039062,20750.365234375,-2119.541259765625,-0.0,-1028.3787841796875,10066.8271484375,-1104.6727294921875,1258.0552978515625,2506.573974609375,9895.9609375,-5271.4345703125,3841.718017578125,-4667.44091796875,130.3354949951172,-214.57672119140625,10594.52734375,-13453.9599609375,-12117.2265625,-5908.01220703125,-1254.081787109375,64.37301635742188,-5060.83154296875,-1622.0411376953125,-631.0145263671875,-8274.71484375,4512.46875,1809.5970458984375,1706.2822265625,-5056.85791015625,1661.7774658203125,0.0,-2273.718505859375,0.0,-1502.037109375,-0.0,150.20370483398438
-13359.3876953125,-10149.478515625,-3450.71142578125,2621.014892578125,3480.11669921875,20913.283203125,-1136.4619140625,3876.68603515625,-2127.48828125,5092.62109375,-7275.740234375,-3845.691650390625,-4991.68994140625,3534.157958984375,1260.4395751953125,-3341.833740234375,961.62158203125,4380.5439453125,5920.72802734375,17434.755859375,4060.268310546875,13102.6904296875,2967.5166015625,17154.216796875,-5347.728515625,-4675.38818359375,-2473.1953125,-577.7677001953125,-6148.81494140625,1804.033935546875,7341.703125,7872.58154296875,4485.4482421875,6067.7529296875,1653.8302001953125,6899.03857421875,212.9872589111328,20750.365234375,-2102.05712890625,-0.0,-1028.3787841796875,10071.5947265625,-1105.4674072265625,1261.2342529296875,2507.368896484375,9896.7548828125,-5272.2294921875,3850.4599609375,-4664.26220703125,124.77238464355469,-206.6294403076172,10603.2685546875,-13437.271484375,-12117.2265625,-5901.65478515625,-1258.85009765625,74.7044906616211,-5057.65283203125,-1619.6568603515625,-633.398681640625,-8277.0986328125,4510.87939453125,1808.007568359375,1706.2822265625,-5053.67919921875,1653.8302001953125,0.0,-2278.487060546875,0.0,-1507.6002197265625,-0.0,144.64060974121094
-13353.82421875,-10152.6572265625,-3444.353759765625,2632.14111328125,3489.6533203125,20914.873046875,-1130.10400390625,3870.328125,-2117.156982421875,5116.462890625,-7263.8193359375,-3819.465576171875,-4986.12744140625,3538.92626953125,1266.002685546875,-3341.0390625,968.774169921875,4386.10693359375,5927.880859375,17440.318359375,4066.6259765625,13108.25390625,2973.07958984375,17156.6015625,-5339.78125,-4657.904296875,-2463.65869140625,-589.6885986328125,-6144.046875,1794.4971923828125,7348.85546875,7883.7080078125,4494.1904296875,6074.1103515625,1660.9827880859375,6902.2177734375,218.5503692626953,20752.748046875,-2093.315185546875,-0.0,-1022.815673828125,10077.1591796875,-1097.520263671875,1258.85009765625,2513.7265625,9895.9609375,-5265.0771484375,3861.58642578125,-4653.9306640625,123.18293762207031,-202.65579223632812,10592.9375,-13417.4033203125,-12101.3330078125,-5896.09130859375,-1269.976318359375,77.8833999633789,-5033.01611328125,-1615.6832275390625,-617.504150390625,-8268.3564453125,4517.2373046875,1812.7760009765625,1711.845458984375,-5048.1162109375,1663.366943359375,0.0,-2266.56591796875,0.0,-1473.4267578125,-0.0,161.3299102783203
-13333.95703125,-10081.1318359375,-3437.201171875,2628.16748046875,3495.21630859375,20914.873046875,-1122.9515380859375,3877.480712890625,-2113.97802734375,5118.05224609375,-7254.28271484375,-3828.207763671875,-4982.9482421875,3542.10546875,1277.1287841796875,-3325.14453125,971.1583251953125,4390.87548828125,5929.47021484375,17443.498046875,4072.189453125,13108.25390625,2977.84814453125,17159.78125,-5332.62890625,-4694.4619140625,-2456.506103515625,-583.330810546875,-6138.4833984375,1822.312744140625,7348.85546875,7886.09228515625,4498.95849609375,6074.1103515625,1664.16162109375,6903.80712890625,222.5240020751953,20756.720703125,-2095.69921875,-0.0,-1017.2525634765625,10070.0068359375,-1090.36767578125,1263.618408203125,2518.494873046875,9899.1396484375,-5258.71875,3858.4072265625,-4647.57275390625,140.66696166992188,-192.32432556152344,10600.08984375,-13407.0712890625,-12075.1064453125,-5892.1181640625,-1253.2869873046875,83.44650268554688,-5035.400390625,-1610.1201171875,-619.0935668945312,-8263.587890625,4522.00537109375,1816.74951171875,1708.66650390625,-5043.34765625,1657.8038330078125,0.0,-2282.46044921875,0.0,-1491.70556640625,-0.0,158.15098571777344
-13322.0361328125,-10049.3427734375,-3442.76416015625,2612.27294921875,3489.6533203125,20904.541015625,-1123.7462158203125,3872.71240234375,-2114.772705078125,5115.66796875,-7253.48828125,-3830.591796875,-4984.53759765625,3538.1318359375,1285.870849609375,-3366.47021484375,965.59521484375,4385.3125,5926.291015625,17441.908203125,4066.6259765625,13100.306640625,2975.4638671875,17152.62890625,-5335.8076171875,-4728.63525390625,-2456.506103515625,-596.0464477539062,-6140.0732421875,1816.74951171875,7342.49755859375,7878.939453125,4494.1904296875,6065.36865234375,1662.572265625,6896.65478515625,223.31874084472656,20751.953125,-2099.673095703125,-0.0,-1020.4315185546875,10055.701171875,-1091.95703125,1254.87646484375,2520.08447265625,9896.7548828125,-5262.69287109375,3841.718017578125,-4649.162109375,131.92494201660156,-183.58230590820312,10590.5537109375,-13408.6611328125,-12074.3115234375,-5893.70703125,-1229.445068359375,85.8306884765625,-5064.0107421875,-1606.941162109375,-620.6830444335938,-8255.640625,4517.2373046875,1814.3653564453125,1711.0506591796875,-5041.75830078125,1641.9093017578125,0.0,-2262.59228515625,0.0,-1484.552978515625,-0.0,161.3299102783203
-13322.830078125,-10065.23828125,-3447.53271484375,2603.53076171875,3488.063720703125,20906.92578125,-1128.5146484375,3869.533447265625,-2113.97802734375,5114.07861328125,-7256.66650390625,-3829.00244140625,-4990.10107421875,3542.900146484375,1275.5394287109375,-3359.31787109375,964.800537109375,4381.33837890625,5926.291015625,17444.29296875,4066.6259765625,13101.1005859375,2975.4638671875,17153.421875,-5340.576171875,-4722.27734375,-2462.864013671875,-592.0728149414062,-6143.251953125,1808.80224609375,7340.908203125,7874.9658203125,4494.1904296875,6063.779296875,1662.572265625,6899.03857421875,218.5503692626953,20749.568359375,-2099.673095703125,-0.0,-1020.4315185546875,10054.90625,-1096.7254638671875,1255.671142578125,2518.494873046875,9899.1396484375,-5262.69287109375,3834.5654296875,-4652.34130859375,133.514404296875,-195.50323486328125,10591.34765625,-13415.0185546875,-12085.4375,-5896.88623046875,-1214.3453369140625,70.73084259033203,-5058.447265625,-1613.299072265625,-615.1199340820312,-8256.435546875,4514.05859375,1812.7760009765625,1711.0506591796875,-5044.93701171875,1641.1146240234375,0.0,-2249.081787109375,0.0,-1475.81103515625,-0.0,160.53517150878906
-13325.21484375,-10092.2587890625,-3442.76416015625,2603.53076171875,3489.6533203125,20908.513671875,-1128.5146484375,3871.917724609375,-2112.388671875,5106.92578125,-7254.28271484375,-3829.00244140625,-4995.6640625,3548.463134765625,1268.3868408203125,-3344.218017578125,967.1846923828125,4384.517578125,5926.291015625,17442.703125,4069.80517578125,13103.4853515625,2977.053466796875,17153.421875,-5338.98681640625,-4711.94580078125,-2463.65869140625,-584.9202270507812,-6141.66259765625,1803.2392578125,7346.47119140625,7878.14404296875,4497.369140625,6067.7529296875,1663.366943359375,6900.62841796875,220.1398162841797,20750.365234375,-2097.288818359375,-0.0,-1018.04736328125,10057.2900390625,-1096.7254638671875,1258.0552978515625,2517.7001953125,9897.5498046875,-5261.10302734375,3833.770751953125,-4649.95703125,127.15657043457031,-201.86106872558594,10596.9111328125,-13414.2236328125,-12087.822265625,-5895.29638671875,-1226.2662353515625,65.96247100830078,-5056.85791015625,-1609.325439453125,-623.8619384765625,-8258.8193359375,4518.8271484375,1812.7760009765625,1705.487548828125,-5044.93701171875,1651.446044921875,0.0,-2267.360595703125,0.0,-1492.500244140625,-0.0,155.7667999267578
-13331.572265625,-10150.2734375,-3439.58544921875,2609.888671875,3491.24267578125,20909.30859375,-1126.1304931640625,3876.68603515625,-2110.799072265625,5098.978515625,-7255.0771484375,-3836.155029296875,-4996.45849609375,3546.078857421875,1273.1552734375,-3354.54931640625,969.5689086914062,4390.87548828125,5923.90673828125,17441.115234375,4072.189453125,13103.4853515625,2977.84814453125,17154.216796875,-5337.39697265625,-4696.84619140625,-2461.2744140625,-584.12548828125,-6144.046875,1786.5499267578125,7346.47119140625,7877.349609375,4497.369140625,6072.52099609375,1666.5458984375,6902.2177734375,221.72927856445312,20752.748046875,-2100.4677734375,-0.0,-1017.2525634765625,10061.263671875,-1095.135986328125,1259.6448974609375,2518.494873046875,9903.11328125,-5261.10302734375,3841.718017578125,-4650.75146484375,123.9776611328125,-196.29795837402344,10599.2958984375,-13410.2509765625,-12090.2060546875,-5896.09130859375,-1252.4923095703125,72.32030487060547,-5060.83154296875,-1607.7359619140625,-626.2461547851562,-8262.7939453125,4521.2109375,1812.7760009765625,1703.1033935546875,-5044.93701171875,1652.24072265625,0.0,-2281.665771484375,0.0,-1508.3948974609375,-0.0,152.587890625
-13331.572265625,-10131.2001953125,-3440.380126953125,2607.504638671875,3489.6533203125,20915.666015625,-1131.6934814453125,3877.480712890625,-2114.772705078125,5093.41552734375,-7256.66650390625,-3829.797119140625,-4991.68994140625,3536.542236328125,1258.0552978515625,-3338.65478515625,971.1583251953125,4392.46533203125,5921.5224609375,17438.73046875,4071.39453125,13106.6640625,2977.053466796875,17155.01171875,-5338.19189453125,-4689.693359375,-2468.427001953125,-580.9465942382812,-6144.841796875,1788.93408203125,7349.64990234375,7879.73388671875,4498.95849609375,6076.49462890625,1667.340576171875,6905.39697265625,217.75563049316406,20751.158203125,-2102.05712890625,-0.0,-1018.8421020507812,10070.80078125,-1097.520263671875,1262.029052734375,2512.931884765625,9899.1396484375,-5262.69287109375,3836.94970703125,-4654.7255859375,132.7196807861328,-210.6030731201172,10603.2685546875,-13407.8662109375,-12102.921875,-5896.88623046875,-1242.95556640625,73.90975952148438,-5056.85791015625,-1614.8885498046875,-634.1934204101562,-8265.177734375,4522.00537109375,1810.3917236328125,1699.9244384765625,-5044.93701171875,1655.419677734375,0.0,-2295.17626953125,0.0,-1510.779052734375,-0.0,152.587890625
-13329.1884765625,-10093.052734375,-3437.995849609375,2617.041259765625,3488.063720703125,20911.693359375,-1132.48828125,3863.970458984375,-2117.95166015625,5104.5419921875,-7257.46142578125,-3826.6181640625,-4986.921875,3538.92626953125,1255.671142578125,-3348.19140625,975.9266967773438,4393.259765625,5921.5224609375,17440.318359375,4074.573486328125,13107.458984375,2977.84814453125,17153.421875,-5337.39697265625,-4697.64111328125,-2470.81103515625,-593.6622314453125,-6140.86767578125,1804.033935546875,7352.0341796875,7883.7080078125,4499.75341796875,6079.673828125,1668.13525390625,6903.0126953125,216.96090698242188,20744.005859375,-2099.673095703125,-0.0,-1016.4578857421875,10070.80078125,-1095.9306640625,1251.697509765625,2512.931884765625,9888.80859375,-5259.513671875,3848.87060546875,-4657.10986328125,122.38819885253906,-212.9872589111328,10585.78515625,-13411.044921875,-12133.12109375,-5893.70703125,-1243.750244140625,76.2939453125,-5055.2685546875,-1615.6832275390625,-641.345947265625,-8259.6142578125,4522.80029296875,1807.212890625,1711.0506591796875,-5040.9638671875,1656.21435546875,0.0,-2285.639404296875,0.0,-1493.2950439453125,-0.0,170.07191467285156
-13318.0615234375,-10090.6689453125,-3426.074951171875,2652.00927734375,3503.16357421875,20917.2578125,-1119.7725830078125,3871.917724609375,-2110.799072265625,5117.2578125,-7245.54052734375,-3821.849853515625,-4971.822265625,3543.69482421875,1283.4866943359375,-3364.880859375,987.84765625,4405.1806640625,5931.8544921875,17448.267578125,4084.905029296875,13116.99609375,2988.179443359375,17160.57421875,-5320.7080078125,-4692.87255859375,-2451.737548828125,-589.6885986328125,-6127.357421875,1805.6234130859375,7362.36572265625,7893.24462890625,4514.05859375,6091.5947265625,1679.2615966796875,6912.54931640625,228.8818359375,20754.337890625,-2086.957275390625,-0.0,-1003.7421875,10077.1591796875,-1082.42041015625,1258.85009765625,2525.6474609375,9899.1396484375,-5243.61962890625,3885.42822265625,-4641.21484375,125.56712341308594,-186.76121520996094,10589.7587890625,-13403.892578125,-12147.4267578125,-5882.5810546875,-1243.750244140625,93.7779769897461,-5068.77880859375,-1605.351806640625,-623.8619384765625,-8240.5400390625,4531.54248046875,1818.3389892578125,1722.1768798828125,-5025.06884765625,1655.419677734375,0.0,-2265.771240234375,0.0,-1471.83740234375,-0.0,180.4033966064453
-13314.8828125,-10172.5263671875,-3413.359375,2662.3408203125,3511.90576171875,20939.5078125,-1111.030517578125,3887.812255859375,-2105.236083984375,5117.2578125,-7239.18310546875,-3817.08154296875,-4959.1064453125,3537.337158203125,1297.7918701171875,-3341.833740234375,999.7686157226562,4417.1015625,5938.2119140625,17451.4453125,4094.44189453125,13133.685546875,2998.510986328125,17174.87890625,-5306.40283203125,-4664.26220703125,-2442.200927734375,-562.6678466796875,-6124.97314453125,1796.086669921875,7375.08154296875,7901.19189453125,4524.3896484375,6107.4892578125,1690.3876953125,6928.44384765625,236.82911682128906,20767.84765625,-2080.599609375,-0.0,-993.4107055664062,10106.5634765625,-1073.6783447265625,1279.5130615234375,2532.800048828125,9912.650390625,-5236.466796875,3891.785888671875,-4634.0625,153.3826141357422,-173.25083923339844,10611.216796875,-13400.7138671875,-12140.2744140625,-5879.40234375,-1240.5714111328125,101.72525787353516,-5055.2685546875,-1595.8150634765625,-619.8883056640625,-8234.9775390625,4548.2314453125,1823.902099609375,1718.2032470703125,-5021.09521484375,1665.7510986328125,0.0,-2267.360595703125,0.0,-1478.989990234375,-0.0,176.42974853515625
-13329.982421875,-10136.763671875,-3415.74365234375,2653.598876953125,3500.779296875,20939.5078125,-1120.5673828125,3883.838623046875,-2108.414794921875,5108.51513671875,-7246.33544921875,-3815.491943359375,-4969.43798828125,3544.489501953125,1269.976318359375,-3340.244384765625,998.1790771484375,4414.71728515625,5932.64892578125,17443.498046875,4091.2626953125,13131.30078125,2991.3583984375,17170.111328125,-5318.32373046875,-4660.28857421875,-2456.506103515625,-569.0256958007812,-6133.71533203125,1791.3182373046875,7373.49169921875,7904.3701171875,4522.00537109375,6106.69482421875,1685.619384765625,6925.2646484375,228.0871124267578,20762.28515625,-2079.8046875,-0.0,-998.973876953125,10104.9736328125,-1084.009765625,1278.7183837890625,2523.26318359375,9910.265625,-5246.00341796875,3882.2490234375,-4642.8046875,161.3299102783203,-199.4768829345703,10608.83203125,-13403.09765625,-12113.25390625,-5886.5546875,-1238.1871337890625,79.47286224365234,-5033.81103515625,-1609.325439453125,-624.6566772460938,-8239.74609375,4542.6689453125,1820.72314453125,1715.0242919921875,-5027.453125,1674.4931640625,0.0,-2290.407958984375,0.0,-1493.2950439453125,-0.0,166.09828186035156
-13341.109375,-10069.2109375,-3414.94873046875,2648.830322265625,3498.395263671875,20933.947265625,-1124.5408935546875,3880.659912109375,-2106.82568359375,5106.130859375,-7245.54052734375,-3814.697265625,-4971.822265625,3550.847412109375,1268.3868408203125,-3345.0126953125,999.7686157226562,4412.3330078125,5929.47021484375,17447.470703125,4091.2626953125,13128.12109375,2989.76904296875,17166.93359375,-5322.29736328125,-4669.8251953125,-2457.30078125,-572.9993286132812,-6132.1259765625,1801.649658203125,7371.107421875,7909.138671875,4522.80029296875,6105.10498046875,1683.235107421875,6923.67578125,225.7029266357422,20759.900390625,-2074.24169921875,-0.0,-999.7686157226562,10097.8212890625,-1087.188720703125,1273.1552734375,2522.468505859375,9903.11328125,-5244.4140625,3879.864990234375,-4645.18896484375,153.3826141357422,-200.2716064453125,10605.65234375,-13395.150390625,-12102.126953125,-5883.37548828125,-1238.1871337890625,86.62541961669922,-5041.75830078125,-1613.299072265625,-635.7828979492188,-8234.9775390625,4541.8740234375,1820.72314453125,1721.382080078125,-5031.4267578125,1676.0826416015625,0.0,-2276.102783203125,0.0,-1490.1160888671875,-0.0,171.661376953125
-13366.5400390625,-10107.3583984375,-3414.94873046875,2663.135498046875,3499.190185546875,20925.203125,-1126.1304931640625,3874.302001953125,-2109.209716796875,5103.7470703125,-7245.54052734375,-3827.412841796875,-4966.2587890625,3546.078857421875,1268.3868408203125,-3353.754638671875,999.7686157226562,4411.53857421875,5927.880859375,17445.087890625,4089.673583984375,13125.7373046875,2991.3583984375,17162.958984375,-5319.11865234375,-4684.92529296875,-2457.30078125,-580.9465942382812,-6127.357421875,1805.6234130859375,7371.90234375,7909.93408203125,4522.80029296875,6105.10498046875,1684.0299072265625,6919.7021484375,223.31874084472656,20755.1328125,-2073.447021484375,-0.0,-998.1790771484375,10089.080078125,-1085.5992431640625,1265.2078857421875,2520.08447265625,9896.7548828125,-5243.61962890625,3894.96484375,-4641.21484375,134.3091278076172,-198.68214416503906,10597.7060546875,-13400.7138671875,-12129.1474609375,-5879.40234375,-1237.3924560546875,92.98324584960938,-5064.0107421875,-1612.50439453125,-640.55126953125,-8235.7724609375,4540.28466796875,1816.74951171875,1718.2032470703125,-5033.81103515625,1668.9300537109375,0.0,-2262.59228515625,0.0,-1494.884521484375,-0.0,172.4561004638672
-13372.8984375,-10173.3203125,-3414.154052734375,2664.72509765625,3496.010986328125,20918.05078125,-1126.9251708984375,3871.917724609375,-2107.6201171875,5110.8994140625,-7259.05078125,-3830.591796875,-4975.7958984375,3549.258056640625,1259.6448974609375,-3338.65478515625,995.794921875,4408.359375,5925.49658203125,17445.8828125,4087.289306640625,13120.96875,2988.974365234375,17158.189453125,-5326.27099609375,-4695.2568359375,-2462.0693359375,-579.357177734375,-6132.9208984375,1816.74951171875,7367.13427734375,7905.9599609375,4520.416015625,6102.720703125,1681.645751953125,6914.93359375,221.72927856445312,20753.541015625,-2088.546875,-0.0,-1002.9474487304688,10083.5166015625,-1088.7781982421875,1264.4132080078125,2519.289794921875,9897.5498046875,-5243.61962890625,3897.34912109375,-4645.18896484375,123.18293762207031,-207.42416381835938,10597.7060546875,-13413.4296875,-12138.6845703125,-5885.759765625,-1233.4188232421875,77.08867645263672,-5042.552734375,-1610.1201171875,-647.7037963867188,-8246.1044921875,4538.69482421875,1817.5443115234375,1726.1505126953125,-5039.3740234375,1663.366943359375,0.0,-2277.692138671875,0.0,-1494.0897216796875,-0.0,182.78758239746094
-13327.5986328125,-10161.3994140625,-3413.359375,2654.3935546875,3501.57421875,20935.53515625,-1115.7989501953125,3890.9912109375,-2095.69921875,5113.28369140625,-7259.845703125,-3823.439453125,-4981.35888671875,3561.9736328125,1273.1552734375,-3309.25,1001.3580322265625,4408.359375,5936.62255859375,17458.59765625,4092.85205078125,13129.7109375,2996.126953125,17172.494140625,-5319.91357421875,-4655.52001953125,-2454.121826171875,-564.25732421875,-6133.71533203125,1831.0546875,7375.08154296875,7912.318359375,4525.1845703125,6109.87353515625,1691.1824951171875,6924.47021484375,230.47129821777344,20767.84765625,-2090.13623046875,-0.0,-999.7686157226562,10098.6162109375,-1080.8309326171875,1278.7183837890625,2530.415771484375,9915.0341796875,-5236.466796875,3885.42822265625,-4638.0361328125,131.13021850585938,-194.70851135253906,10621.5478515625,-13404.6865234375,-12109.279296875,-5885.759765625,-1219.1136474609375,80.26758575439453,-5025.86376953125,-1596.6097412109375,-634.9881591796875,-8242.1298828125,4549.8212890625,1827.875732421875,1735.687255859375,-5029.8369140625,1668.9300537109375,0.0,-2280.87109375,0.0,-1509.1895751953125,-0.0,182.78758239746094
-13303.7568359375,-10090.6689453125,-3426.86962890625,2615.451904296875,3498.395263671875,20920.435546875,-1116.59375,3875.0966796875,-2091.7255859375,5117.2578125,-7257.46142578125,-3830.591796875,-4986.921875,3569.126220703125,1281.1025390625,-3380.775390625,989.4371337890625,4386.10693359375,5932.64892578125,17468.134765625,4085.699462890625,13119.3798828125,2988.974365234375,17158.984375,-5319.11865234375,-4676.18310546875,-2453.3271484375,-592.8675537109375,-6140.0732421875,1814.3653564453125,7365.544921875,7905.16552734375,4514.05859375,6097.9521484375,1680.8509521484375,6912.54931640625,228.8818359375,20759.900390625,-2094.904541015625,-0.0,-1004.5369873046875,10083.5166015625,-1084.8045654296875,1262.82373046875,2533.5947265625,9912.650390625,-5253.95068359375,3843.3076171875,-4640.42041015625,112.8514633178711,-189.14540100097656,10587.375,-13400.7138671875,-12094.974609375,-5892.1181640625,-1235.00830078125,82.65177154541016,-5054.4736328125,-1591.046630859375,-607.1726684570312,-8231.798828125,4539.48974609375,1827.875732421875,1742.83984375,-5034.60546875,1657.8038330078125,0.0,-2252.260986328125,0.0,-1477.400390625,-0.0,192.32432556152344
-13302.9619140625,-10050.9326171875,-3441.1748046875,2606.709716796875,3486.474365234375,20901.361328125,-1125.335693359375,3864.76513671875,-2098.08349609375,5114.07861328125,-7258.25634765625,-3827.412841796875,-4989.30615234375,3570.715576171875,1273.1552734375,-3387.13330078125,976.721435546875,4371.00732421875,5926.291015625,17461.77734375,4072.984130859375,13104.279296875,2979.4375,17147.859375,-5332.62890625,-4727.84033203125,-2461.2744140625,-603.9937133789062,-6144.046875,1805.6234130859375,7350.44482421875,7894.83349609375,4503.72705078125,6083.6474609375,1670.51953125,6897.44970703125,221.72927856445312,20747.98046875,-2100.4677734375,-0.0,-1015.6631469726562,10056.49609375,-1093.5465087890625,1253.2869873046875,2526.4423828125,9898.3447265625,-5274.61376953125,3836.94970703125,-4647.57275390625,108.08309173583984,-196.29795837402344,10574.658203125,-13400.7138671875,-12077.4912109375,-5898.4755859375,-1252.4923095703125,72.32030487060547,-5059.2421875,-1595.020263671875,-620.6830444335938,-8231.00390625,4529.158203125,1820.72314453125,1734.8924560546875,-5038.57958984375,1653.0355224609375,0.0,-2268.1552734375,0.0,-1481.3741455078125,-0.0,184.3770294189453
-13279.1201171875,-10065.23828125,-3427.66455078125,2637.7041015625,3502.368896484375,20929.177734375,-1107.0570068359375,3884.63330078125,-2084.572998046875,5135.5361328125,-7241.56689453125,-3809.928955078125,-4962.28564453125,3581.841796875,1300.970703125,-3355.343994140625,994.2054443359375,4390.0810546875,5943.775390625,17471.3125,4090.468017578125,13124.9423828125,2999.3056640625,17170.111328125,-5315.939453125,-4693.6669921875,-2439.02197265625,-572.9993286132812,-6128.15234375,1829.4652099609375,7367.13427734375,7909.138671875,4519.62158203125,6101.13134765625,1688.79833984375,6920.49658203125,240.80276489257812,20769.4375,-2087.752197265625,-0.0,-1000.5632934570312,10081.1318359375,-1074.4730224609375,1278.7183837890625,2544.720947265625,9915.8291015625,-5257.1298828125,3868.73876953125,-4629.2939453125,148.61424255371094,-170.07191467285156,10600.08984375,-13384.8193359375,-12037.75390625,-5881.7861328125,-1227.0609130859375,101.72525787353516,-5047.3212890625,-1571.178466796875,-631.8092041015625,-8223.056640625,4547.43701171875,1836.6177978515625,1740.45556640625,-5025.06884765625,1668.9300537109375,0.0,-2287.228759765625,0.0,-1490.1160888671875,-0.0,186.76121520996094
-13290.24609375,-10075.5693359375,-3423.69091796875,2631.346435546875,3507.13720703125,20933.150390625,-1101.493896484375,3896.55419921875,-2075.036376953125,5148.251953125,-7244.74560546875,-3817.876220703125,-4943.2119140625,3584.225830078125,1328.7862548828125,-3333.091796875,992.6160278320312,4392.46533203125,5949.33837890625,17486.4140625,4092.85205078125,13126.5322265625,3003.279541015625,17174.0859375,-5311.9658203125,-4686.51416015625,-2428.690673828125,-561.8731079101562,-6115.4365234375,1818.3389892578125,7368.7236328125,7900.3974609375,4518.0322265625,6100.33642578125,1691.9771728515625,6925.2646484375,249.54476928710938,20778.1796875,-2106.82568359375,-0.0,-997.3843994140625,10081.1318359375,-1067.3204345703125,1285.076171875,2555.052490234375,9930.9287109375,-5250.77197265625,3859.996826171875,-4622.1416015625,158.15098571777344,-143.0511474609375,10614.3955078125,-13398.330078125,-12040.9326171875,-5867.4814453125,-1254.87646484375,126.36184692382812,-5032.22119140625,-1571.178466796875,-608.7620849609375,-8233.3876953125,4552.20556640625,1847.7440185546875,1749.1976318359375,-5026.65869140625,1668.9300537109375,0.0,-2303.918212890625,0.0,-1497.2686767578125,-0.0,189.14540100097656
-13316.4716796875,-10066.0322265625,-3435.61181640625,2611.47802734375,3492.832275390625,20915.666015625,-1108.6463623046875,3885.42822265625,-2067.089111328125,5169.70947265625,-7266.20361328125,-3836.94970703125,-4955.92724609375,3595.35205078125,1304.9443359375,-3363.29150390625,977.5161743164062,4381.33837890625,5943.775390625,17505.48828125,4079.341796875,13111.431640625,2992.153076171875,17162.958984375,-5325.47607421875,-4694.4619140625,-2446.96923828125,-587.304443359375,-6128.94677734375,1799.2655029296875,7356.80224609375,7886.09228515625,4505.31640625,6086.826171875,1681.645751953125,6910.9599609375,240.80276489257812,20767.052734375,-2106.03076171875,-0.0,-1008.5106201171875,10067.6220703125,-1081.6256103515625,1267.592041015625,2551.078857421875,9924.5712890625,-5261.10302734375,3840.128662109375,-4643.59912109375,127.95130920410156,-164.50881958007812,10598.5,-13416.607421875,-12062.390625,-5882.5810546875,-1298.5865478515625,112.8514633178711,-5064.0107421875,-1575.94677734375,-617.504150390625,-8247.693359375,4543.46337890625,1850.128173828125,1772.2447509765625,-5036.98974609375,1648.26708984375,0.0,-2289.613037109375,0.0,-1480.579345703125,-0.0,224.90818786621094
-13325.21484375,-10073.1845703125,-3437.201171875,2615.451904296875,3488.063720703125,20918.05078125,-1113.414794921875,3887.017578125,-2078.21533203125,5160.1728515625,-7282.09814453125,-3836.94970703125,-4955.92724609375,3569.126220703125,1284.2813720703125,-3361.701904296875,975.9266967773438,4380.5439453125,5941.39111328125,17491.9765625,4077.752685546875,13111.431640625,2988.974365234375,17162.1640625,-5329.4501953125,-4700.8193359375,-2454.121826171875,-586.5097045898438,-6132.1259765625,1819.1337890625,7356.0078125,7887.68115234375,4503.72705078125,6084.4423828125,1679.2615966796875,6910.9599609375,234.44493103027344,20767.052734375,-2109.209716796875,-0.0,-1010.894775390625,10067.6220703125,-1087.188720703125,1270.77099609375,2541.5419921875,9928.5439453125,-5270.64013671875,3845.691650390625,-4649.95703125,131.92494201660156,-184.3770294189453,10600.08984375,-13422.171875,-12069.54296875,-5884.96533203125,-1252.4923095703125,102.51998901367188,-5067.98388671875,-1589.4571533203125,-611.1463012695312,-8246.8984375,4541.0791015625,1845.35986328125,1731.713623046875,-5035.400390625,1648.26708984375,0.0,-2285.639404296875,0.0,-1484.552978515625,-0.0,194.70851135253906
-13338.724609375,-10094.642578125,-3441.9697265625,2600.35205078125,3475.34814453125,20908.513671875,-1133.282958984375,3872.71240234375,-2116.3623046875,5102.15771484375,-7287.6611328125,-3846.486328125,-4994.869140625,3515.08447265625,1259.6448974609375,-3375.21240234375,964.800537109375,4367.828125,5922.3173828125,17437.935546875,4069.01025390625,13099.5107421875,2973.874267578125,17148.65234375,-5338.98681640625,-4712.740234375,-2473.990234375,-593.6622314453125,-6144.841796875,1808.007568359375,7344.88134765625,7879.73388671875,4495.779296875,6073.31591796875,1664.9564208984375,6897.44970703125,213.78199768066406,20751.158203125,-2112.388671875,-0.0,-1019.6367797851562,10059.673828125,-1101.493896484375,1257.2606201171875,2514.521240234375,9902.318359375,-5284.94482421875,3832.97607421875,-4661.0830078125,112.8514633178711,-210.6030731201172,10587.375,-13432.5029296875,-12085.4375,-5896.88623046875,-1243.750244140625,74.7044906616211,-5078.31591796875,-1620.4515380859375,-644.52490234375,-8250.873046875,4524.3896484375,1815.16015625,1654.625,-5040.9638671875,1652.24072265625,0.0,-2295.17626953125,0.0,-1525.0841064453125,-0.0,106.4936294555664
-13363.361328125,-10123.2529296875,-3457.864013671875,2593.199462890625,3455.47998046875,20885.466796875,-1158.71435546875,3836.155029296875,-2143.383056640625,5052.08984375,-7295.6083984375,-3868.73876953125,-5024.2744140625,3515.87939453125,1234.2135009765625,-3409.3857421875,947.3164672851562,4345.57568359375,5895.29638671875,17391.83984375,4049.142333984375,13078.0537109375,2950.032470703125,17125.607421875,-5361.23876953125,-4724.6611328125,-2498.626708984375,-624.6566772460938,-6167.888671875,1779.3973388671875,7325.013671875,7863.044921875,4478.2958984375,6056.626953125,1640.31982421875,6876.78662109375,189.14540100097656,20721.75390625,-2119.541259765625,-0.0,-1041.094482421875,10040.6005859375,-1124.5408935546875,1229.445068359375,2490.679443359375,9859.40234375,-5293.6875,3822.64453125,-4681.74609375,84.2412338256836,-236.03439331054688,10549.2275390625,-13440.4501953125,-12114.8427734375,-5920.72802734375,-1274.74462890625,42.1206169128418,-5105.33642578125,-1632.37255859375,-693.798095703125,-8257.2294921875,4500.5478515625,1781.781494140625,1655.419677734375,-5060.83154296875,1641.9093017578125,0.0,-2314.249755859375,0.0,-1548.926025390625,-0.0,95.367431640625
-13367.3349609375,-10171.7314453125,-3472.169189453125,2588.43115234375,3440.380126953125,20881.494140625,-1170.63525390625,3819.465576171875,-2155.303955078125,5036.1953125,-7299.58203125,-3875.0966796875,-5032.22119140625,3526.210693359375,1223.882080078125,-3426.074951171875,934.600830078125,4331.2705078125,5880.99169921875,17380.71484375,4031.658203125,13066.927734375,2938.111572265625,17112.890625,-5375.5439453125,-4726.2509765625,-2510.547607421875,-634.9881591796875,-6175.8359375,1739.660888671875,7311.5029296875,7847.9453125,4461.6064453125,6045.50048828125,1621.246337890625,6866.455078125,177.22447204589844,20707.44921875,-2140.2041015625,-0.0,-1054.6048583984375,10036.6279296875,-1138.0513916015625,1221.4979248046875,2477.1689453125,9838.740234375,-5296.0712890625,3816.286865234375,-4695.2568359375,92.98324584960938,-247.16058349609375,10532.5380859375,-13442.0390625,-12151.400390625,-5929.47021484375,-1279.5130615234375,34.96805953979492,-5133.94677734375,-1645.088134765625,-720.81884765625,-8275.5087890625,4487.03759765625,1765.886962890625,1676.8773193359375,-5077.52099609375,1607.7359619140625,0.0,-2337.296630859375,0.0,-1555.283935546875,-0.0,112.8514633178711
-13343.4931640625,-10182.857421875,-3463.42724609375,2597.173095703125,3453.890625,20902.15625,-1150.7669677734375,3847.28125,-2133.051513671875,5054.4736328125,-7280.50830078125,-3862.380859375,-5017.916015625,3546.873779296875,1244.544921875,-3381.570068359375,952.8795776367188,4349.5498046875,5902.44921875,17406.14453125,4045.16845703125,13089.1796875,2955.595703125,17135.939453125,-5364.41796875,-4706.3828125,-2493.063720703125,-606.3779296875,-6167.09375,1746.8134765625,7328.9873046875,7863.044921875,4477.5009765625,6066.16357421875,1637.9356689453125,6887.11767578125,197.88742065429688,20730.49609375,-2125.899169921875,-0.0,-1043.4786376953125,10060.4697265625,-1121.362060546875,1242.95556640625,2497.037109375,9867.3505859375,-5286.53466796875,3822.64453125,-4682.541015625,110.46727752685547,-228.0871124267578,10565.9169921875,-13428.5283203125,-12155.3740234375,-5920.72802734375,-1262.82373046875,54.04154586791992,-5104.5419921875,-1627.6041259765625,-693.798095703125,-8277.892578125,4505.31640625,1789.728759765625,1681.645751953125,-5064.0107421875,1625.219970703125,0.0,-2315.839111328125,0.0,-1541.7734375,-0.0,116.0303726196289
-13309.3193359375,-10164.578125,-3447.53271484375,2586.841552734375,3470.579833984375,20911.693359375,-1127.7198486328125,3863.175537109375,-2093.315185546875,5082.2890625,-7259.05078125,-3847.28125,-5001.22705078125,3591.37841796875,1266.79736328125,-3367.264892578125,970.3636474609375,4367.828125,5925.49658203125,17444.29296875,4064.241943359375,13103.4853515625,2974.669189453125,17151.037109375,-5349.31787109375,-4696.05126953125,-2470.81103515625,-600.8148193359375,-6159.14697265625,1768.2711181640625,7347.265625,7882.1181640625,4495.779296875,6081.26318359375,1657.0091552734375,6903.0126953125,221.72927856445312,20749.568359375,-2109.209716796875,-0.0,-1026.789306640625,10072.390625,-1103.083251953125,1254.87646484375,2526.4423828125,9890.3974609375,-5275.408203125,3812.31298828125,-4665.8515625,110.46727752685547,-200.2716064453125,10578.6328125,-13412.634765625,-12127.55859375,-5910.396484375,-1266.79736328125,77.08867645263672,-5071.1630859375,-1594.2255859375,-668.3667602539062,-8258.025390625,4524.3896484375,1818.3389892578125,1716.61376953125,-5050.50048828125,1641.9093017578125,0.0,-2287.228759765625,0.0,-1510.779052734375,-0.0,147.81951904296875
-13307.73046875,-10157.42578125,-3452.301025390625,2611.47802734375,3474.553466796875,20908.513671875,-1127.7198486328125,3860.79150390625,-2093.315185546875,5083.083984375,-7255.8720703125,-3844.10205078125,-4998.8427734375,3580.25244140625,1272.3604736328125,-3384.749267578125,971.1583251953125,4371.00732421875,5926.291015625,17441.908203125,4065.036865234375,13101.1005859375,2973.874267578125,17152.62890625,-5349.31787109375,-4721.48291015625,-2470.81103515625,-601.6095581054688,-6155.1728515625,1781.781494140625,7348.85546875,7885.296875,4495.779296875,6080.46875,1660.1881103515625,6902.2177734375,221.72927856445312,20749.568359375,-2105.236083984375,-0.0,-1026.789306640625,10057.2900390625,-1099.109619140625,1254.87646484375,2528.031494140625,9886.423828125,-5274.61376953125,3843.3076171875,-4663.46728515625,118.41455841064453,-197.88742065429688,10576.248046875,-13403.09765625,-12125.96875,-5908.01220703125,-1258.0552978515625,74.7044906616211,-5095.0048828125,-1588.6624755859375,-685.0560302734375,-8245.30859375,4524.3896484375,1817.5443115234375,1717.4085693359375,-5052.08984375,1639.5250244140625,0.0,-2292.7919921875,0.0,-1512.3685302734375,-0.0,155.7667999267578
-13315.677734375,-10136.763671875,-3452.301025390625,2622.6044921875,3475.34814453125,20909.30859375,-1132.48828125,3861.58642578125,-2120.3359375,5077.52099609375,-7259.845703125,-3841.718017578125,-4991.68994140625,3542.10546875,1266.79736328125,-3365.67578125,969.5689086914062,4367.828125,5920.72802734375,17426.013671875,4065.83154296875,13102.6904296875,2970.695556640625,17152.62890625,-5348.5234375,-4719.89306640625,-2473.1953125,-591.278076171875,-6148.81494140625,1796.88134765625,7348.060546875,7885.296875,4496.57421875,6080.46875,1660.9827880859375,6902.2177734375,217.75563049316406,20747.185546875,-2110.00439453125,-0.0,-1026.789306640625,10058.8798828125,-1103.083251953125,1258.0552978515625,2515.31591796875,9883.244140625,-5271.4345703125,3856.81787109375,-4662.67236328125,117.61983489990234,-205.03997802734375,10583.400390625,-13407.0712890625,-12145.0419921875,-5903.244140625,-1250.108154296875,75.49921417236328,-5091.03173828125,-1612.50439453125,-695.3875122070312,-8249.283203125,4523.59521484375,1804.82861328125,1712.64013671875,-5049.70556640625,1645.8829345703125,0.0,-2314.249755859375,0.0,-1521.110595703125,-0.0,153.3826141357422
-13308.525390625,-10108.947265625,-3434.817138671875,2632.935791015625,3492.03759765625,20929.177734375,-1121.362060546875,3876.68603515625,-2132.2568359375,5087.8525390625,-7243.951171875,-3829.00244140625,-4962.28564453125,3516.674072265625,1282.69189453125,-3347.39697265625,983.8739624023438,4384.517578125,5931.8544921875,17428.3984375,4080.13671875,13119.3798828125,2986.590087890625,17166.13671875,-5327.8603515625,-4683.3359375,-2457.30078125,-575.3834838867188,-6124.97314453125,1799.2655029296875,7363.16064453125,7894.0390625,4509.2900390625,6094.77392578125,1674.4931640625,6919.7021484375,229.6765594482422,20763.078125,-2104.44140625,-0.0,-1007.7158203125,10081.1318359375,-1090.36767578125,1274.74462890625,2517.7001953125,9896.7548828125,-5257.92431640625,3863.175537109375,-4644.39404296875,123.9776611328125,-187.5559539794922,10600.08984375,-13399.1240234375,-12123.5849609375,-5879.40234375,-1251.697509765625,103.3147201538086,-5064.8056640625,-1622.0411376953125,-669.1614990234375,-8242.9248046875,4536.310546875,1812.7760009765625,1719.792724609375,-5028.248046875,1664.16162109375,0.0,-2279.28173828125,0.0,-1501.2423095703125,-0.0,169.27719116210938
-13304.55078125,-10094.642578125,-3437.201171875,2624.19384765625,3498.395263671875,20930.767578125,-1112.6199951171875,3883.838623046875,-2122.719970703125,5090.23681640625,-7240.7724609375,-3832.97607421875,-4950.36474609375,3519.852783203125,1316.070556640625,-3355.343994140625,982.2845458984375,4387.69677734375,5939.0068359375,17433.9609375,4084.1103515625,13118.5849609375,2992.94775390625,17171.701171875,-5319.11865234375,-4684.92529296875,-2442.995849609375,-576.9729614257812,-6121.79443359375,1804.033935546875,7365.544921875,7887.68115234375,4508.4951171875,6093.18408203125,1679.2615966796875,6921.29150390625,239.2133026123047,20767.84765625,-2100.4677734375,-0.0,-1005.3316650390625,10077.1591796875,-1080.8309326171875,1277.1287841796875,2528.031494140625,9909.470703125,-5259.513671875,3852.84423828125,-4638.83056640625,125.56712341308594,-153.3826141357422,10601.6796875,-13403.09765625,-12092.58984375,-5877.01806640625,-1245.3397216796875,118.41455841064453,-5066.39501953125,-1603.7623291015625,-654.8563842773438,-8244.5146484375,4539.48974609375,1818.3389892578125,1711.0506591796875,-5025.06884765625,1663.366943359375,0.0,-2280.87109375,0.0,-1502.037109375,-0.0,166.89300537109375
-13314.8828125,-10096.232421875,-3444.353759765625,2609.888671875,3492.832275390625,20921.23046875,-1116.59375,3875.0966796875,-2129.077880859375,5079.9052734375,-7252.693359375,-3832.97607421875,-4968.64306640625,3511.111083984375,1316.070556640625,-3377.5966796875,973.5425415039062,4378.95458984375,5930.26513671875,17418.861328125,4076.957763671875,13107.458984375,2988.974365234375,17162.1640625,-5324.681640625,-4691.28271484375,-2443.79052734375,-587.304443359375,-6126.5625,1792.90771484375,7355.21337890625,7878.939453125,4501.3427734375,6082.05810546875,1672.9036865234375,6912.54931640625,232.0607452392578,20758.310546875,-2103.646484375,-0.0,-1009.3053588867188,10065.23828125,-1082.42041015625,1268.3868408203125,2520.879150390625,9895.1650390625,-5265.87158203125,3842.512939453125,-4638.0361328125,126.36184692382812,-156.56153869628906,10591.34765625,-13411.83984375,-12081.4638671875,-5878.607421875,-1246.92919921875,112.05673217773438,-5075.13671875,-1606.146484375,-672.3403930664062,-8246.1044921875,4532.33740234375,1808.007568359375,1699.9244384765625,-5033.81103515625,1657.0091552734375,0.0,-2283.25537109375,0.0,-1513.9580078125,-0.0,158.15098571777344
-13349.056640625,-10100.205078125,-3452.301025390625,2600.35205078125,3475.34814453125,20906.92578125,-1141.230224609375,3844.89697265625,-2144.97265625,5074.34228515625,-7274.15087890625,-3840.92333984375,-4997.25341796875,3511.111083984375,1262.029052734375,-3425.2802734375,955.2637939453125,4361.470703125,5910.396484375,17407.736328125,4059.4736328125,13089.974609375,2967.5166015625,17142.294921875,-5338.98681640625,-4703.99853515625,-2469.221923828125,-611.9410400390625,-6144.841796875,1777.807861328125,7340.908203125,7863.83935546875,4487.83251953125,6065.36865234375,1654.625,6892.68115234375,205.83470153808594,20736.853515625,-2122.719970703125,-0.0,-1024.4051513671875,10052.521484375,-1103.083251953125,1246.92919921875,2497.83203125,9870.529296875,-5280.9716796875,3834.5654296875,-4653.9306640625,108.87781524658203,-205.03997802734375,10555.5849609375,-13431.7080078125,-12085.4375,-5897.6806640625,-1271.5657958984375,84.2412338256836,-5126.79443359375,-1633.9620361328125,-677.1087646484375,-8251.6669921875,4514.05859375,1788.93408203125,1710.2559814453125,-5052.884765625,1635.551513671875,0.0,-2275.307861328125,0.0,-1493.2950439453125,-0.0,165.3035430908203
-13368.923828125,-10117.6904296875,-3473.7587890625,2597.9677734375,3456.274658203125,20893.416015625,-1153.9459228515625,3836.94970703125,-2139.409423828125,5083.083984375,-7294.8134765625,-3859.2021484375,-5026.65869140625,3533.36328125,1227.0609130859375,-3414.94873046875,938.574462890625,4347.9599609375,5900.06494140625,17411.708984375,4044.3740234375,13079.6435546875,2953.21142578125,17131.169921875,-5366.00732421875,-4731.81396484375,-2495.44775390625,-622.2724609375,-6163.1201171875,1776.2183837890625,7327.39794921875,7849.5341796875,4468.75927734375,6051.0634765625,1638.7303466796875,6879.1708984375,193.11904907226562,20728.111328125,-2129.077880859375,-0.0,-1046.6575927734375,10040.6005859375,-1122.15673828125,1235.802978515625,2491.47412109375,9867.3505859375,-5300.83984375,3832.18115234375,-4680.95166015625,86.62541961669922,-239.2133026123047,10546.84375,-13453.166015625,-12119.6103515625,-5917.54931640625,-1289.844482421875,42.91534423828125,-5118.05224609375,-1629.98828125,-681.0823974609375,-8273.125,4501.3427734375,1785.755126953125,1722.1768798828125,-5063.2158203125,1626.0146484375,0.0,-2286.43408203125,0.0,-1495.67919921875,-0.0,164.50881958007812
-13353.82421875,-10147.888671875,-3472.964111328125,2607.504638671875,3461.043212890625,20896.59375,-1143.6143798828125,3856.023193359375,-2113.97802734375,5095.7998046875,-7286.86669921875,-3863.970458984375,-5012.353515625,3562.768310546875,1235.802978515625,-3383.954345703125,944.9323120117188,4356.7021484375,5911.98583984375,17435.55078125,4049.936767578125,13086.7958984375,2960.364013671875,17140.70703125,-5368.3916015625,-4732.60888671875,-2489.884521484375,-606.3779296875,-6161.53076171875,1786.5499267578125,7334.55029296875,7851.1240234375,4472.732421875,6057.42138671875,1645.088134765625,6886.3232421875,205.03997802734375,20738.443359375,-2126.69384765625,-0.0,-1045.068115234375,10044.5751953125,-1114.20947265625,1246.92919921875,2504.984619140625,9884.833984375,-5294.48193359375,3840.92333984375,-4679.36181640625,81.85704803466797,-232.0607452392578,10569.095703125,-13446.013671875,-12138.6845703125,-5915.1650390625,-1265.2078857421875,50.86262893676758,-5101.36279296875,-1617.272705078125,-677.9035034179688,-8280.27734375,4510.87939453125,1800.85498046875,1737.2767333984375,-5055.2685546875,1642.7039794921875,0.0,-2294.38134765625,0.0,-1506.0106201171875,-0.0,165.3035430908203
-13348.26171875,-10162.1943359375,-3462.63232421875,2593.199462890625,3469.784912109375,20905.3359375,-1132.48828125,3863.970458984375,-2096.493896484375,5116.462890625,-7278.91943359375,-3871.123046875,-4992.48486328125,3578.662841796875,1258.85009765625,-3376.007080078125,951.2901611328125,4363.85498046875,5920.72802734375,17464.95703125,4056.294921875,13090.76953125,2969.90087890625,17147.859375,-5357.265625,-4737.376953125,-2478.758544921875,-601.6095581054688,-6154.37841796875,1784.165771484375,7340.11328125,7855.89208984375,4479.09033203125,6062.189453125,1653.8302001953125,6893.47607421875,214.57672119140625,20748.7734375,-2144.177734375,-0.0,-1034.736572265625,10044.5751953125,-1102.28857421875,1253.2869873046875,2518.494873046875,9896.7548828125,-5285.73974609375,3825.028564453125,-4668.23583984375,94.57270050048828,-210.6030731201172,10577.837890625,-13442.833984375,-12149.0166015625,-5906.4228515625,-1259.6448974609375,70.73084259033203,-5084.67333984375,-1603.7623291015625,-661.2141723632812,-8271.53515625,4517.2373046875,1815.16015625,1746.8134765625,-5049.70556640625,1635.551513671875,0.0,-2307.09716796875,0.0,-1510.779052734375,-0.0,169.27719116210938
-13347.466796875,-10135.173828125,-3447.53271484375,2599.55712890625,3484.090087890625,20924.41015625,-1117.388427734375,3883.838623046875,-2079.8046875,5147.45703125,-7266.998046875,-3844.89697265625,-4988.51171875,3571.51025390625,1265.2078857421875,-3357.728271484375,969.5689086914062,4378.16015625,5938.2119140625,17493.56640625,4070.60009765625,13106.6640625,2986.590087890625,17163.75390625,-5340.576171875,-4714.330078125,-2468.427001953125,-584.12548828125,-6151.19921875,1801.649658203125,7356.80224609375,7876.5556640625,4496.57421875,6079.673828125,1669.724853515625,6911.75439453125,230.47129821777344,20768.642578125,-2106.82568359375,-0.0,-1019.6367797851562,10059.673828125,-1087.9835205078125,1273.1552734375,2538.36328125,9919.802734375,-5268.255859375,3832.18115234375,-4659.494140625,118.41455841064453,-203.4505157470703,10596.1162109375,-13434.88671875,-12122.7900390625,-5902.44921875,-1243.750244140625,69.93611907958984,-5057.65283203125,-1585.4835205078125,-634.1934204101562,-8251.6669921875,4532.33740234375,1833.4388427734375,1742.83984375,-5041.75830078125,1651.446044921875,0.0,-2294.38134765625,0.0,-1492.500244140625,-0.0,174.8402862548828
-13372.103515625,-10114.5107421875,-3457.864013671875,2589.225830078125,3474.553466796875,20916.462890625,-1130.10400390625,3875.891357421875,-2103.646484375,5125.20458984375,-7272.5615234375,-3852.049560546875,-4995.6640625,3540.515869140625,1254.081787109375,-3364.880859375,958.4426879882812,4367.828125,5925.49658203125,17463.365234375,4059.4736328125,13097.126953125,2973.874267578125,17154.216796875,-5348.5234375,-4699.22998046875,-2477.963623046875,-591.278076171875,-6152.78857421875,1779.3973388671875,7347.265625,7867.81298828125,4488.626953125,6066.16357421875,1658.5985107421875,6900.62841796875,217.75563049316406,20755.92578125,-2102.851806640625,-0.0,-1028.3787841796875,10050.9326171875,-1099.9044189453125,1264.4132080078125,2519.289794921875,9907.8818359375,-5278.58740234375,3823.439453125,-4665.8515625,109.67254638671875,-215.37144470214844,10588.9638671875,-13446.013671875,-12122.7900390625,-5904.0390625,-1269.181640625,67.55193328857422,-5069.57373046875,-1610.914794921875,-649.2932739257812,-8262.7939453125,4519.62158203125,1816.74951171875,1698.3350830078125,-5054.4736328125,1644.29345703125,0.0,-2288.818359375,0.0,-1497.2686767578125,-0.0,145.43533325195312
-13347.466796875,-10133.583984375,-3457.0693359375,2586.046875,3474.553466796875,20907.720703125,-1138.8460693359375,3863.970458984375,-2135.435791015625,5083.083984375,-7266.20361328125,-3851.254638671875,-4997.25341796875,3519.852783203125,1244.544921875,-3372.828125,956.0584716796875,4364.6494140625,5915.1650390625,17420.451171875,4059.4736328125,13093.9482421875,2969.10595703125,17147.064453125,-5345.3447265625,-4713.53515625,-2482.732177734375,-601.6095581054688,-6146.43115234375,1766.681640625,7345.67626953125,7867.0185546875,4485.4482421875,6066.16357421875,1657.0091552734375,6893.47607421875,209.808349609375,20744.80078125,-2110.00439453125,-0.0,-1029.96826171875,10046.958984375,-1103.083251953125,1254.87646484375,2500.21630859375,9888.80859375,-5280.9716796875,3820.26025390625,-4666.646484375,103.3147201538086,-223.31874084472656,10577.837890625,-13438.0654296875,-12134.7109375,-5899.2705078125,-1292.228759765625,69.93611907958984,-5080.69970703125,-1634.7567138671875,-664.3931274414062,-8258.025390625,4511.67431640625,1797.676025390625,1707.871826171875,-5049.70556640625,1644.29345703125,0.0,-2270.53955078125,0.0,-1489.3214111328125,-0.0,155.7667999267578
-13302.1669921875,-10151.068359375,-3456.274658203125,2590.815185546875,3477.732421875,20910.8984375,-1142.8197021484375,3861.58642578125,-2166.43017578125,5030.6318359375,-7259.845703125,-3842.512939453125,-4988.51171875,3499.190185546875,1244.544921875,-3350.57568359375,963.2110595703125,4367.828125,5911.19140625,17367.998046875,4063.447509765625,13095.5380859375,2969.90087890625,17148.65234375,-5339.78125,-4738.171875,-2480.347900390625,-586.5097045898438,-6138.4833984375,1784.96044921875,7350.44482421875,7870.197265625,4488.626953125,6072.52099609375,1657.8038330078125,6897.44970703125,205.83470153808594,20742.416015625,-2104.44140625,-0.0,-1026.789306640625,10047.7529296875,-1101.493896484375,1257.2606201171875,2488.29541015625,9874.5029296875,-5274.61376953125,3822.64453125,-4659.494140625,112.05673217773438,-224.90818786621094,10584.990234375,-13415.0185546875,-12121.9951171875,-5890.5283203125,-1281.897216796875,73.11502838134766,-5052.08984375,-1641.1146240234375,-683.4666137695312,-8244.5146484375,4513.263671875,1780.1920166015625,1696.7454833984375,-5040.9638671875,1656.21435546875,0.0,-2268.9501953125,0.0,-1496.473876953125,-0.0,154.17735290527344
-13282.298828125,-10120.07421875,-3457.0693359375,2588.43115234375,3476.9375,20908.513671875,-1143.6143798828125,3860.79150390625,-2162.45654296875,5047.3212890625,-7261.43505859375,-3844.89697265625,-4985.33251953125,3498.395263671875,1246.92919921875,-3351.37060546875,961.62158203125,4366.2392578125,5908.80712890625,17373.5625,4061.857666015625,13093.9482421875,2969.10595703125,17145.474609375,-5336.6025390625,-4730.224609375,-2477.1689453125,-585.7149658203125,-6136.89404296875,1795.2918701171875,7347.265625,7871.787109375,4488.626953125,6066.9580078125,1657.0091552734375,6895.8603515625,205.03997802734375,20741.62109375,-2109.209716796875,-0.0,-1025.99462890625,10046.1640625,-1101.493896484375,1254.87646484375,2489.08984375,9876.8876953125,-5271.4345703125,3820.26025390625,-4657.904296875,116.82510375976562,-221.72927856445312,10586.5791015625,-13404.6865234375,-12098.1533203125,-5890.5283203125,-1273.1552734375,77.08867645263672,-5052.884765625,-1640.31982421875,-693.0033569335938,-8238.15625,4510.87939453125,1780.98681640625,1697.540283203125,-5040.1689453125,1653.8302001953125,0.0,-2282.46044921875,0.0,-1503.62646484375,-0.0,154.17735290527344
-13292.6298828125,-10100.205078125,-3456.274658203125,2578.894287109375,3479.32177734375,20895.798828125,-1140.435546875,3857.612548828125,-2147.356689453125,5070.3681640625,-7268.58740234375,-3862.380859375,-4985.33251953125,3512.700439453125,1258.85009765625,-3372.033447265625,958.4426879882812,4365.4443359375,5911.98583984375,17398.9921875,4062.652587890625,13089.1796875,2968.311279296875,17141.5,-5336.6025390625,-4743.73486328125,-2470.81103515625,-600.0200805664062,-6142.45751953125,1784.165771484375,7344.88134765625,7868.607421875,4486.24267578125,6061.39501953125,1657.0091552734375,6892.68115234375,206.6294403076172,20740.03125,-2113.97802734375,-0.0,-1025.99462890625,10035.83203125,-1100.6990966796875,1248.5185546875,2495.44775390625,9882.4501953125,-5269.845703125,3810.7236328125,-4654.7255859375,99.34107208251953,-210.6030731201172,10577.04296875,-13407.0712890625,-12097.3583984375,-5895.29638671875,-1296.9970703125,85.8306884765625,-5073.54736328125,-1639.5250244140625,-675.519287109375,-8240.5400390625,4508.4951171875,1789.728759765625,1708.66650390625,-5045.73193359375,1638.7303466796875,0.0,-2266.56591796875,0.0,-1490.1160888671875,-0.0,161.3299102783203
-13302.1669921875,-10090.6689453125,-3450.71142578125,2574.1259765625,3486.474365234375,20899.7734375,-1134.07763671875,3857.612548828125,-2143.383056640625,5075.13671875,-7266.998046875,-3879.864990234375,-4978.1796875,3515.87939453125,1273.1552734375,-3372.828125,960.0321655273438,4371.00732421875,5915.9599609375,17398.9921875,4068.2158203125,13092.3583984375,2974.669189453125,17145.474609375,-5331.03955078125,-4739.76123046875,-2463.65869140625,-599.225341796875,-6142.45751953125,1782.576171875,7351.23974609375,7870.197265625,4491.80615234375,6062.984375,1663.366943359375,6895.8603515625,212.9872589111328,20743.2109375,-2110.799072265625,-0.0,-1018.8421020507812,10039.01171875,-1095.135986328125,1249.3133544921875,2501.8056640625,9883.244140625,-5270.64013671875,3808.33935546875,-4652.34130859375,100.93053436279297,-195.50323486328125,10574.658203125,-13407.0712890625,-12102.921875,-5894.501953125,-1289.0498046875,90.59906005859375,-5068.77880859375,-1633.9620361328125,-670.7509155273438,-8252.4619140625,4514.85302734375,1793.7025146484375,1713.434814453125,-5048.91064453125,1637.9356689453125,0.0,-2265.771240234375,0.0,-1479.78466796875,-0.0,166.89300537109375
-13322.0361328125,-10105.76953125,-3457.864013671875,2566.178466796875,3486.474365234375,20900.568359375,-1132.48828125,3860.79150390625,-2140.2041015625,5075.13671875,-7274.15087890625,-3894.170166015625,-4980.56396484375,3519.852783203125,1275.5394287109375,-3380.775390625,954.4690551757812,4371.00732421875,5915.9599609375,17402.171875,4065.036865234375,13091.564453125,2974.669189453125,17145.474609375,-5332.62890625,-4739.76123046875,-2465.248046875,-601.6095581054688,-6146.43115234375,1757.939697265625,7350.44482421875,7859.8662109375,4487.03759765625,6059.0107421875,1664.16162109375,6895.0654296875,216.1661834716797,20744.005859375,-2118.74658203125,-0.0,-1019.6367797851562,10035.83203125,-1095.135986328125,1250.108154296875,2502.600341796875,9885.62890625,-5282.56103515625,3799.597412109375,-4652.34130859375,102.51998901367188,-194.70851135253906,10574.658203125,-13417.4033203125,-12122.7900390625,-5897.6806640625,-1289.844482421875,85.03595733642578,-5075.13671875,-1629.193603515625,-669.1614990234375,-8278.6875,4513.263671875,1796.88134765625,1718.9979248046875,-5059.2421875,1626.8094482421875,0.0,-2261.002685546875,0.0,-1477.400390625,-0.0,170.8666534423828
-13335.5458984375,-10132.7900390625,-3465.8115234375,2561.41015625,3479.32177734375,20896.59375,-1138.0513916015625,3859.2021484375,-2137.820068359375,5078.31591796875,-7278.12451171875,-3898.9384765625,-4983.7431640625,3530.979248046875,1271.5657958984375,-3378.391357421875,947.3164672851562,4364.6494140625,5911.98583984375,17408.529296875,4060.268310546875,13087.58984375,2969.90087890625,17141.5,-5342.16552734375,-4738.171875,-2470.0166015625,-604.7884521484375,-6151.994140625,1726.1505126953125,7344.0869140625,7848.73974609375,4479.88525390625,6052.65283203125,1657.0091552734375,6892.68115234375,212.9872589111328,20740.03125,-2130.66748046875,-0.0,-1029.1734619140625,10034.2431640625,-1100.6990966796875,1246.1343994140625,2501.8056640625,9884.833984375,-5293.6875,3794.0341796875,-4659.494140625,93.7779769897461,-198.68214416503906,10573.0693359375,-13430.9130859375,-12142.658203125,-5904.83349609375,-1296.9970703125,79.47286224365234,-5064.0107421875,-1614.09375,-673.9298706054688,-8288.224609375,4509.2900390625,1793.7025146484375,1722.9715576171875,-5064.8056640625,1623.6304931640625,0.0,-2276.8974609375,0.0,-1485.3477783203125,-0.0,170.07191467285156
-13326.0087890625,-10114.5107421875,-3454.685302734375,2586.046875,3490.447998046875,20910.10546875,-1127.7198486328125,3874.302001953125,-2123.514892578125,5089.44189453125,-7258.25634765625,-3871.123046875,-4964.669921875,3550.847412109375,1277.923583984375,-3348.19140625,961.62158203125,4375.77587890625,5919.93310546875,17422.041015625,4071.39453125,13096.3330078125,2980.232177734375,17151.037109375,-5327.06591796875,-4719.89306640625,-2460.479736328125,-581.7413330078125,-6140.0732421875,1749.1976318359375,7354.41845703125,7863.044921875,4490.216796875,6066.16357421875,1665.7510986328125,6903.80712890625,220.93455505371094,20753.541015625,-2118.74658203125,-0.0,-1019.6367797851562,10049.3427734375,-1091.162353515625,1260.4395751953125,2513.7265625,9897.5498046875,-5281.7666015625,3818.6708984375,-4649.162109375,98.54634857177734,-190.73486328125,10596.1162109375,-13418.9921875,-12129.1474609375,-5891.3232421875,-1278.7183837890625,100.13580322265625,-5053.67919921875,-1595.020263671875,-674.724609375,-8261.998046875,4518.8271484375,1804.033935546875,1736.4820556640625,-5048.91064453125,1636.34619140625,0.0,-2278.487060546875,0.0,-1484.552978515625,-0.0,178.0192108154297
-13323.625,-10091.4638671875,-3447.53271484375,2601.146728515625,3492.03759765625,20910.10546875,-1129.309326171875,3879.864990234375,-2121.92529296875,5088.6474609375,-7243.15625,-3842.512939453125,-4963.875,3542.10546875,1273.1552734375,-3328.3232421875,965.59521484375,4373.3916015625,5917.54931640625,17425.21875,4072.189453125,13096.3330078125,2978.642822265625,17152.62890625,-5321.5029296875,-4722.27734375,-2458.095458984375,-579.357177734375,-6130.53662109375,1773.834228515625,7355.21337890625,7870.99169921875,4494.1904296875,6070.93212890625,1667.340576171875,6902.2177734375,220.1398162841797,20751.158203125,-2098.08349609375,-0.0,-1017.2525634765625,10050.1376953125,-1091.95703125,1262.82373046875,2512.931884765625,9902.318359375,-5266.66650390625,3833.770751953125,-4644.39404296875,108.08309173583984,-197.0926971435547,10602.474609375,-13400.7138671875,-12104.51171875,-5882.5810546875,-1262.029052734375,108.08309173583984,-5039.3740234375,-1601.3780517578125,-669.9561767578125,-8238.9521484375,4517.2373046875,1803.2392578125,1733.3031005859375,-5035.400390625,1653.0355224609375,0.0,-2276.8974609375,0.0,-1486.9371337890625,-0.0,174.04556274414062
-13309.3193359375,-10078.748046875,-3455.47998046875,2597.173095703125,3474.553466796875,20910.8984375,-1146.7933349609375,3872.71240234375,-2129.87255859375,5079.11083984375,-7249.51416015625,-3826.6181640625,-4994.07421875,3532.568603515625,1237.3924560546875,-3337.0654296875,957.64794921875,4361.470703125,5906.4228515625,17419.65625,4060.268310546875,13092.3583984375,2960.364013671875,17144.6796875,-5340.576171875,-4713.53515625,-2482.732177734375,-584.12548828125,-6136.89404296875,1788.139404296875,7344.88134765625,7868.607421875,4487.03759765625,6066.16357421875,1653.8302001953125,6895.0654296875,202.65579223632812,20742.416015625,-2086.957275390625,-0.0,-1031.5577392578125,10051.7275390625,-1109.441162109375,1258.0552978515625,2496.242431640625,9895.9609375,-5269.845703125,3829.797119140625,-4664.26220703125,131.13021850585938,-232.85548400878906,10593.7314453125,-13396.740234375,-12090.2060546875,-5889.73388671875,-1255.671142578125,75.49921417236328,-5049.70556640625,-1630.7830810546875,-677.9035034179688,-8230.208984375,4505.31640625,1792.1129150390625,1726.1505126953125,-5031.4267578125,1657.8038330078125,0.0,-2291.997314453125,0.0,-1491.70556640625,-0.0,167.68772888183594
-13283.09375,-10070.80078125,-3449.916748046875,2580.483642578125,3473.7587890625,20918.845703125,-1146.7933349609375,3883.838623046875,-2130.66748046875,5078.31591796875,-7252.693359375,-3824.23388671875,-5004.40576171875,3538.1318359375,1232.6240234375,-3346.602294921875,960.0321655273438,4364.6494140625,5909.6015625,17424.42578125,4059.4736328125,13097.126953125,2961.15869140625,17147.859375,-5344.5498046875,-4700.8193359375,-2489.884521484375,-576.9729614257812,-6136.89404296875,1795.2918701171875,7346.47119140625,7874.17138671875,4489.421875,6071.7265625,1653.8302001953125,6899.03857421875,202.65579223632812,20748.7734375,-2086.16259765625,-0.0,-1029.96826171875,10066.0322265625,-1111.030517578125,1262.029052734375,2495.44775390625,9904.7021484375,-5267.46142578125,3809.13427734375,-4669.03076171875,127.95130920410156,-236.82911682128906,10609.626953125,-13385.61328125,-12087.02734375,-5889.73388671875,-1251.697509765625,58.80991744995117,-5052.08984375,-1636.34619140625,-701.745361328125,-8220.6728515625,4506.90625,1795.2918701171875,1738.8662109375,-5022.6845703125,1662.572265625,0.0,-2286.43408203125,0.0,-1501.2423095703125,-0.0,171.661376953125
-13270.3779296875,-10087.490234375,-3453.890625,2601.146728515625,3480.11669921875,20912.48828125,-1138.8460693359375,3874.302001953125,-2121.92529296875,5091.826171875,-7251.10400390625,-3834.5654296875,-4990.10107421875,3557.205078125,1255.671142578125,-3360.112548828125,963.2110595703125,4367.03369140625,5913.57568359375,17436.345703125,4063.447509765625,13097.921875,2966.7216796875,17147.064453125,-5338.19189453125,-4696.05126953125,-2474.784912109375,-592.0728149414062,-6133.71533203125,1794.4971923828125,7349.64990234375,7878.14404296875,4490.216796875,6076.49462890625,1660.9827880859375,6897.44970703125,210.6030731201172,20745.595703125,-2078.21533203125,-0.0,-1024.4051513671875,10066.8271484375,-1101.493896484375,1254.87646484375,2504.189697265625,9903.11328125,-5272.2294921875,3832.97607421875,-4656.31494140625,103.3147201538086,-214.57672119140625,10594.52734375,-13382.4345703125,-12086.232421875,-5888.14404296875,-1268.3868408203125,72.32030487060547,-5071.9580078125,-1616.47802734375,-680.2876586914062,-8221.466796875,4507.70068359375,1800.85498046875,1761.1185302734375,-5027.453125,1657.8038330078125,0.0,-2253.0556640625,0.0,-1477.400390625,-0.0,184.3770294189453
-13283.09375,-10144.7109375,-3461.043212890625,2644.06201171875,3472.964111328125,20902.953125,-1138.0513916015625,3852.84423828125,-2109.209716796875,5108.51513671875,-7260.640625,-3840.92333984375,-4975.0009765625,3582.636474609375,1273.1552734375,-3394.285888671875,957.64794921875,4358.29150390625,5909.6015625,17441.115234375,4057.08935546875,13093.154296875,2963.54296875,17137.52734375,-5341.37109375,-4694.4619140625,-2472.400634765625,-610.3515625,-6141.66259765625,1765.09228515625,7345.67626953125,7866.22314453125,4484.6533203125,6071.7265625,1653.8302001953125,6889.501953125,209.0136260986328,20733.67578125,-2093.315185546875,-0.0,-1029.96826171875,10062.853515625,-1104.6727294921875,1240.5714111328125,2511.34228515625,9891.1923828125,-5276.998046875,3877.480712890625,-4665.056640625,86.62541961669922,-196.29795837402344,10561.1484375,-13394.35546875,-12118.81640625,-5898.4755859375,-1288.255126953125,90.59906005859375,-5094.2099609375,-1606.941162109375,-658.8300170898438,-8238.15625,4502.93212890625,1800.85498046875,1761.1185302734375,-5036.98974609375,1653.8302001953125,0.0,-2247.492431640625,0.0,-1456.737548828125,-0.0,181.1981201171875
-13326.0087890625,-10247.23046875,-3455.47998046875,2652.80419921875,3472.169189453125,20914.078125,-1139.640869140625,3851.254638671875,-2094.10986328125,5109.31005859375,-7271.7666015625,-3845.691650390625,-4986.921875,3605.68359375,1268.3868408203125,-3399.05419921875,956.8532104492188,4355.11279296875,5909.6015625,17453.03515625,4057.08935546875,13097.921875,2960.364013671875,17135.142578125,-5338.98681640625,-4661.8779296875,-2475.57958984375,-610.3515625,-6154.37841796875,1729.3294677734375,7346.47119140625,7860.66064453125,4485.4482421875,6078.08447265625,1653.0355224609375,6892.68115234375,207.42416381835938,20733.67578125,-2110.00439453125,-0.0,-1033.147216796875,10088.2841796875,-1107.0570068359375,1238.9818115234375,2515.31591796875,9891.9873046875,-5274.61376953125,3881.45458984375,-4672.20947265625,105.69890594482422,-201.0663299560547,10557.96875,-13417.4033203125,-12177.626953125,-5911.98583984375,-1310.5074462890625,90.59906005859375,-5098.978515625,-1609.325439453125,-666.7772827148438,-8235.7724609375,4500.5478515625,1804.82861328125,1754.7607421875,-5049.70556640625,1643.498779296875,0.0,-2268.1552734375,0.0,-1469.4532470703125,-0.0,166.89300537109375
-13339.51953125,-10316.3720703125,-3460.248291015625,2652.00927734375,3472.169189453125,20908.513671875,-1140.435546875,3857.612548828125,-2093.315185546875,5094.2099609375,-7287.6611328125,-3859.2021484375,-5002.81689453125,3581.047119140625,1258.0552978515625,-3371.23876953125,960.0321655273438,4354.318359375,5908.80712890625,17451.4453125,4055.5,13095.5380859375,2957.97998046875,17135.142578125,-5339.78125,-4686.51416015625,-2478.758544921875,-604.7884521484375,-6156.7626953125,1742.83984375,7344.0869140625,7868.607421875,4486.24267578125,6082.05810546875,1651.446044921875,6891.091796875,208.21888732910156,20735.263671875,-2102.05712890625,-0.0,-1032.3524169921875,10078.748046875,-1107.8516845703125,1242.95556640625,2516.110595703125,9894.37109375,-5282.56103515625,3883.0439453125,-4667.44091796875,108.08309173583984,-210.6030731201172,10571.4794921875,-13430.9130859375,-12228.4892578125,-5908.80712890625,-1300.176025390625,73.11502838134766,-5066.39501953125,-1606.146484375,-678.6982421875,-8235.7724609375,4497.369140625,1804.82861328125,1729.3294677734375,-5062.42138671875,1633.9620361328125,0.0,-2291.997314453125,0.0,-1501.2423095703125,-0.0,148.61424255371094
-13326.8037109375,-10208.2890625,-3465.0166015625,2626.578125,3465.8115234375,20883.083984375,-1152.3564453125,3837.744384765625,-2120.3359375,5082.2890625,-7294.8134765625,-3871.917724609375,-5009.96923828125,3521.4423828125,1250.90283203125,-3395.08056640625,951.2901611328125,4346.37060546875,5896.09130859375,17419.65625,4046.758056640625,13077.2587890625,2948.443115234375,17119.25,-5350.90771484375,-4746.9140625,-2485.9111328125,-630.2197875976562,-6162.3251953125,1763.502685546875,7333.75537109375,7864.63427734375,4479.88525390625,6069.34228515625,1642.7039794921875,6876.78662109375,197.88742065429688,20721.75390625,-2096.493896484375,-0.0,-1037.120849609375,10042.9853515625,-1118.18310546875,1225.471435546875,2499.42138671875,9877.681640625,-5288.1240234375,3857.612548828125,-4673.00390625,86.62541961669922,-217.75563049316406,10550.81640625,-13432.5029296875,-12219.7470703125,-5915.9599609375,-1275.5394287109375,62.78356170654297,-5082.2890625,-1615.6832275390625,-696.1822509765625,-8245.30859375,4485.4482421875,1788.139404296875,1707.871826171875,-5070.3681640625,1619.6568603515625,0.0,-2269.744873046875,0.0,-1488.5267333984375,-0.0,155.7667999267578
-13319.6513671875,-10070.80078125,-3468.990234375,2590.815185546875,3461.043212890625,20881.494140625,-1161.0985107421875,3844.10205078125,-2156.8935546875,5069.57373046875,-7297.99267578125,-3854.433837890625,-5009.17431640625,3485.6796875,1242.95556640625,-3377.5966796875,942.548095703125,4340.8076171875,5889.73388671875,17388.662109375,4042.7841796875,13068.5166015625,2944.469482421875,17117.658203125,-5359.6494140625,-4762.013671875,-2493.063720703125,-619.0935668945312,-6163.9150390625,1788.139404296875,7328.1923828125,7855.89208984375,4471.9375,6053.44775390625,1637.9356689453125,6872.0185546875,186.76121520996094,20718.57421875,-2108.414794921875,-0.0,-1042.6839599609375,10024.70703125,-1124.5408935546875,1227.855712890625,2480.347900390625,9880.06640625,-5300.044921875,3825.028564453125,-4678.5673828125,89.00960540771484,-227.29237365722656,10557.96875,-13439.6552734375,-12135.505859375,-5919.138671875,-1254.081787109375,70.73084259033203,-5073.54736328125,-1640.31982421875,-685.8507690429688,-8257.2294921875,4479.88525390625,1776.2183837890625,1706.2822265625,-5074.34228515625,1630.7830810546875,0.0,-2269.744873046875,0.0,-1486.1424560546875,-0.0,160.53517150878906
-13301.3720703125,-10027.0908203125,-3478.527099609375,2566.178466796875,3454.685302734375,20882.287109375,-1165.8668212890625,3843.3076171875,-2166.43017578125,5060.83154296875,-7297.19775390625,-3843.3076171875,-5013.14794921875,3492.03759765625,1235.00830078125,-3387.927978515625,933.0113525390625,4332.8603515625,5885.759765625,17388.662109375,4034.837158203125,13062.1591796875,2937.31689453125,17115.275390625,-5366.80224609375,-4750.88720703125,-2496.242431640625,-619.8883056640625,-6165.50439453125,1806.4180908203125,7319.4501953125,7847.9453125,4463.99072265625,6039.9375,1629.98828125,6865.66015625,181.9928436279297,20716.986328125,-2129.87255859375,-0.0,-1053.015380859375,10019.1435546875,-1130.10400390625,1224.6767578125,2473.1953125,9879.271484375,-5304.0185546875,3800.39208984375,-4684.13037109375,89.80432891845703,-235.2396697998047,10555.5849609375,-13434.0927734375,-12056.033203125,-5920.72802734375,-1263.618408203125,65.1677474975586,-5088.6474609375,-1652.24072265625,-680.2876586914062,-8252.4619140625,4471.14306640625,1772.2447509765625,1711.0506591796875,-5075.13671875,1632.37255859375,0.0,-2264.181884765625,0.0,-1493.2950439453125,-0.0,146.2300567626953
-13298.1943359375,-10045.369140625,-3474.553466796875,2566.973388671875,3455.47998046875,20884.671875,-1161.0985107421875,3840.92333984375,-2140.2041015625,5083.87890625,-7293.22412109375,-3838.5390625,-5004.40576171875,3521.4423828125,1235.802978515625,-3399.848876953125,934.600830078125,4333.65478515625,5892.1181640625,17412.50390625,4037.221435546875,13063.748046875,2940.495849609375,17116.0703125,-5364.41796875,-4742.9404296875,-2491.47412109375,-626.2461547851562,-6164.70947265625,1808.007568359375,7321.03955078125,7845.56103515625,4467.16943359375,6038.34765625,1632.37255859375,6868.04443359375,188.35067749023438,20720.1640625,-2135.435791015625,-0.0,-1048.2469482421875,10019.9384765625,-1126.1304931640625,1221.4979248046875,2487.50048828125,9879.271484375,-5291.30322265625,3798.008056640625,-4682.541015625,85.8306884765625,-235.2396697998047,10550.0224609375,-13422.171875,-12034.5751953125,-5918.34423828125,-1275.5394287109375,71.52557373046875,-5092.62109375,-1635.551513671875,-685.0560302734375,-8246.1044921875,4472.732421875,1782.576171875,1718.9979248046875,-5067.98388671875,1637.140869140625,0.0,-2253.850341796875,0.0,-1480.579345703125,-0.0,155.7667999267578
-13327.5986328125,-10093.052734375,-3459.45361328125,2576.51025390625,3466.606201171875,20894.208984375,-1150.7669677734375,3852.84423828125,-2125.899169921875,5099.7734375,-7286.86669921875,-3835.3603515625,-4986.12744140625,3534.157958984375,1246.1343994140625,-3379.980712890625,947.3164672851562,4347.9599609375,5904.0390625,17425.21875,4049.936767578125,13075.6689453125,2952.416748046875,17127.1953125,-5354.88134765625,-4738.171875,-2485.1162109375,-616.7094116210938,-6152.78857421875,1798.4708251953125,7335.3447265625,7855.09765625,4479.88525390625,6054.24267578125,1644.29345703125,6879.96533203125,200.2716064453125,20731.291015625,-2116.3623046875,-0.0,-1037.120849609375,10031.064453125,-1116.59375,1233.4188232421875,2499.42138671875,9891.1923828125,-5277.79248046875,3805.955078125,-4676.18310546875,96.16216278076172,-223.31874084472656,10560.353515625,-13431.7080078125,-12032.9853515625,-5905.62841796875,-1269.976318359375,81.06231689453125,-5071.1630859375,-1624.42529296875,-679.492919921875,-8242.1298828125,4484.6533203125,1796.086669921875,1722.9715576171875,-5058.447265625,1650.6513671875,0.0,-2257.823974609375,0.0,-1474.2215576171875,-0.0,164.50881958007812
-13330.77734375,-10101.0009765625,-3437.201171875,2604.325439453125,3486.474365234375,20926.794921875,-1130.10400390625,3880.659912109375,-2115.5673828125,5110.10498046875,-7276.53515625,-3815.491943359375,-4983.7431640625,3544.489501953125,1269.976318359375,-3340.244384765625,969.5689086914062,4372.5966796875,5926.291015625,17435.55078125,4069.80517578125,13105.0751953125,2972.284912109375,17155.8046875,-5335.0126953125,-4689.693359375,-2465.248046875,-580.15185546875,-6140.0732421875,1800.060302734375,7358.39208984375,7873.3759765625,4501.3427734375,6084.4423828125,1665.7510986328125,6907.78125,217.75563049316406,20755.92578125,-2102.851806640625,-0.0,-1017.2525634765625,10075.5693359375,-1095.9306640625,1263.618408203125,2514.521240234375,9911.8544921875,-5270.64013671875,3832.97607421875,-4655.52001953125,127.95130920410156,-200.2716064453125,10592.9375,-13434.88671875,-12059.2119140625,-5893.70703125,-1251.697509765625,92.98324584960938,-5059.2421875,-1613.299072265625,-673.9298706054688,-8220.6728515625,4507.70068359375,1812.7760009765625,1746.018798828125,-5050.50048828125,1676.0826416015625,0.0,-2260.2080078125,0.0,-1464.684814453125,-0.0,191.5295867919922
-13276.736328125,-10107.3583984375,-3426.86962890625,2644.856689453125,3503.16357421875,20952.224609375,-1115.7989501953125,3900.52783203125,-2113.97802734375,5104.5419921875,-7255.0771484375,-3801.186767578125,-4975.0009765625,3543.69482421875,1294.6129150390625,-3315.607666015625,987.0529174804688,4388.4912109375,5937.41748046875,17430.783203125,4084.905029296875,13127.3271484375,2987.384765625,17173.291015625,-5319.11865234375,-4654.7255859375,-2442.995849609375,-556.3099975585938,-6124.97314453125,1815.16015625,7375.8759765625,7890.0654296875,4516.44287109375,6104.310546875,1680.0562744140625,6928.44384765625,232.0607452392578,20771.822265625,-2090.13623046875,-0.0,-1003.7421875,10107.3583984375,-1079.241455078125,1286.66552734375,2523.26318359375,9925.365234375,-5259.513671875,3873.50732421875,-4632.47314453125,147.81951904296875,-176.42974853515625,10618.369140625,-13399.1240234375,-12078.28515625,-5880.99169921875,-1242.95556640625,113.64618682861328,-5035.400390625,-1595.8150634765625,-658.8300170898438,-8192.0625,4521.2109375,1819.928466796875,1749.992431640625,-5036.1953125,1687.208740234375,0.0,-2244.3134765625,0.0,-1466.2742919921875,-0.0,188.35067749023438
-13270.3779296875,-10116.1005859375,-3433.2275390625,2642.472412109375,3495.21630859375,20925.998046875,-1123.7462158203125,3882.2490234375,-2116.3623046875,5105.33642578125,-7257.46142578125,-3810.7236328125,-4978.1796875,3542.10546875,1289.844482421875,-3360.112548828125,981.4898071289062,4377.365234375,5927.880859375,17432.37109375,4077.752685546875,13109.0478515625,2977.84814453125,17156.6015625,-5329.4501953125,-4684.92529296875,-2450.94287109375,-590.4833374023438,-6132.9208984375,1818.3389892578125,7366.33935546875,7892.44921875,4510.08447265625,6093.18408203125,1669.724853515625,6913.34375,224.90818786621094,20756.720703125,-2086.957275390625,-0.0,-1012.4841918945312,10073.9794921875,-1088.7781982421875,1262.029052734375,2518.494873046875,9918.212890625,-5257.92431640625,3875.891357421875,-4642.8046875,120.79874420166016,-180.4033966064453,10589.7587890625,-13397.5341796875,-12061.595703125,-5890.5283203125,-1257.2606201171875,103.3147201538086,-5033.01611328125,-1586.2783203125,-649.2932739257812,-8194.4462890625,4510.08447265625,1812.7760009765625,1735.687255859375,-5042.552734375,1677.6719970703125,0.0,-2220.4716796875,0.0,-1447.2008056640625,-0.0,173.25083923339844
-13305.3466796875,-10100.205078125,-3459.45361328125,2604.325439453125,3466.606201171875,20899.7734375,-1150.7669677734375,3856.81787109375,-2125.899169921875,5085.46826171875,-7283.6875,-3844.89697265625,-5000.4326171875,3546.078857421875,1239.776611328125,-3380.775390625,962.4163208007812,4353.5234375,5904.83349609375,17414.09375,4055.5,13085.2060546875,2953.21142578125,17131.962890625,-5360.4443359375,-4704.79345703125,-2489.884521484375,-611.1463012695312,-6163.1201171875,1804.82861328125,7344.0869140625,7878.14404296875,4488.626953125,6070.13720703125,1645.8829345703125,6891.88623046875,197.88742065429688,20732.87890625,-2106.03076171875,-0.0,-1039.5050048828125,10044.5751953125,-1118.9779052734375,1236.59765625,2497.037109375,9887.21875,-5283.35546875,3838.5390625,-4681.74609375,89.80432891845703,-229.6765594482422,10565.1220703125,-13425.3505859375,-12049.6748046875,-5917.54931640625,-1268.3868408203125,63.578285217285156,-5052.884765625,-1612.50439453125,-699.3611450195312,-8235.7724609375,4487.03759765625,1790.5235595703125,1718.2032470703125,-5073.54736328125,1657.0091552734375,0.0,-2255.439697265625,0.0,-1482.1688232421875,-0.0,146.2300567626953
-13316.4716796875,-10061.263671875,-3476.142822265625,2559.026123046875,3457.0693359375,20898.9765625,-1158.71435546875,3851.254638671875,-2130.66748046875,5071.9580078125,-7299.58203125,-3840.92333984375,-5012.353515625,3552.436767578125,1234.2135009765625,-3386.33837890625,948.1112060546875,4345.57568359375,5896.88623046875,17406.14453125,4043.5791015625,13075.6689453125,2945.26416015625,17128.78515625,-5368.3916015625,-4729.4296875,-2498.626708984375,-610.3515625,-6176.63037109375,1796.086669921875,7333.75537109375,7863.83935546875,4474.32177734375,6055.83203125,1637.9356689453125,6884.73388671875,189.14540100097656,20728.111328125,-2118.74658203125,-0.0,-1049.8365478515625,10038.216796875,-1127.7198486328125,1235.00830078125,2489.08984375,9877.681640625,-5300.83984375,3790.060791015625,-4690.48828125,106.4936294555664,-235.2396697998047,10560.353515625,-13442.0390625,-12048.0849609375,-5930.26513671875,-1271.5657958984375,60.39937210083008,-5087.0576171875,-1629.98828125,-708.8978881835938,-8263.587890625,4479.09033203125,1782.576171875,1725.355712890625,-5092.62109375,1649.8565673828125,0.0,-2288.818359375,0.0,-1503.62646484375,-0.0,147.81951904296875
-13310.115234375,-10062.05859375,-3470.579833984375,2578.099609375,3461.837890625,20902.15625,-1152.3564453125,3856.81787109375,-2135.435791015625,5073.54736328125,-7289.2509765625,-3825.823486328125,-5010.763671875,3542.900146484375,1246.92919921875,-3356.93359375,947.3164672851562,4349.5498046875,5900.06494140625,17406.14453125,4045.16845703125,13076.46484375,2949.23779296875,17134.34765625,-5358.060546875,-4722.27734375,-2489.08984375,-598.4306640625,-6175.041015625,1791.3182373046875,7334.55029296875,7864.63427734375,4477.5009765625,6052.65283203125,1643.498779296875,6887.91259765625,193.9137725830078,20732.87890625,-2119.541259765625,-0.0,-1044.2734375,10034.2431640625,-1121.362060546875,1242.1607666015625,2490.679443359375,9882.4501953125,-5293.6875,3813.902587890625,-4680.15673828125,108.87781524658203,-222.5240020751953,10570.685546875,-13431.7080078125,-12055.2373046875,-5926.291015625,-1262.82373046875,69.93611907958984,-5055.2685546875,-1629.98828125,-703.3348388671875,-8261.2041015625,4483.8583984375,1786.5499267578125,1738.0714111328125,-5092.62109375,1665.7510986328125,0.0,-2301.533935546875,0.0,-1494.0897216796875,-0.0,170.07191467285156
-13289.451171875,-10069.2109375,-3468.990234375,2598.762451171875,3463.42724609375,20899.7734375,-1153.9459228515625,3863.970458984375,-2140.998779296875,5081.49462890625,-7279.7138671875,-3826.6181640625,-5007.5849609375,3521.4423828125,1235.00830078125,-3354.54931640625,944.1375732421875,4349.5498046875,5901.65478515625,17408.529296875,4046.758056640625,13074.875,2950.032470703125,17135.142578125,-5356.470703125,-4741.3505859375,-2489.884521484375,-594.4569702148438,-6167.888671875,1796.88134765625,7332.96044921875,7858.2763671875,4475.11669921875,6048.67919921875,1641.1146240234375,6886.3232421875,193.11904907226562,20736.853515625,-2121.92529296875,-0.0,-1041.88916015625,10027.0908203125,-1122.15673828125,1243.750244140625,2488.29541015625,9891.9873046875,-5290.50830078125,3833.770751953125,-4678.5673828125,106.4936294555664,-234.44493103027344,10577.837890625,-13410.2509765625,-12051.2646484375,-5920.72802734375,-1250.108154296875,65.96247100830078,-5040.1689453125,-1633.9620361328125,-686.6455078125,-8220.6728515625,4485.4482421875,1788.139404296875,1738.8662109375,-5083.87890625,1664.9564208984375,0.0,-2271.33447265625,0.0,-1479.78466796875,-0.0,177.22447204589844
-13270.3779296875,-10049.3427734375,-3464.221923828125,2598.762451171875,3469.784912109375,20898.9765625,-1149.177490234375,3857.612548828125,-2132.2568359375,5091.826171875,-7271.7666015625,-3828.207763671875,-4999.6376953125,3533.36328125,1241.3660888671875,-3394.285888671875,951.2901611328125,4351.13916015625,5905.62841796875,17414.888671875,4051.526611328125,13078.0537109375,2953.21142578125,17135.142578125,-5351.7021484375,-4738.96630859375,-2486.705810546875,-611.9410400390625,-6160.736328125,1803.2392578125,7337.72900390625,7861.455078125,4481.474609375,6057.42138671875,1644.29345703125,6887.91259765625,197.88742065429688,20738.443359375,-2110.799072265625,-0.0,-1036.3260498046875,10032.654296875,-1116.59375,1238.1871337890625,2493.8583984375,9891.1923828125,-5284.94482421875,3832.97607421875,-4670.6201171875,98.54634857177734,-227.29237365722656,10562.7373046875,-13393.5615234375,-12039.34375,-5914.3701171875,-1256.4659423828125,71.52557373046875,-5088.6474609375,-1627.6041259765625,-685.0560302734375,-8211.1357421875,4487.83251953125,1792.1129150390625,1746.018798828125,-5067.189453125,1646.6776123046875,0.0,-2244.3134765625,0.0,-1456.737548828125,-0.0,179.60865783691406
-13264.01953125,-10041.396484375,-3461.043212890625,2605.120361328125,3478.527099609375,20906.92578125,-1138.8460693359375,3863.175537109375,-2119.541259765625,5089.44189453125,-7268.58740234375,-3824.23388671875,-4989.30615234375,3564.357666015625,1265.2078857421875,-3379.980712890625,958.4426879882812,4357.49658203125,5912.78076171875,17424.42578125,4055.5,13087.58984375,2961.15869140625,17143.091796875,-5346.1396484375,-4727.04541015625,-2473.1953125,-601.6095581054688,-6151.994140625,1811.981201171875,7343.2919921875,7868.607421875,4489.421875,6064.57373046875,1652.24072265625,6894.2705078125,207.42416381835938,20744.005859375,-2103.646484375,-0.0,-1029.1734619140625,10044.5751953125,-1106.26220703125,1246.92919921875,2504.984619140625,9894.37109375,-5280.9716796875,3838.5390625,-4660.28857421875,108.08309173583984,-203.4505157470703,10570.685546875,-13388.79296875,-12038.548828125,-5906.4228515625,-1256.4659423828125,86.62541961669922,-5083.87890625,-1612.50439453125,-696.1822509765625,-8215.904296875,4493.3955078125,1801.649658203125,1751.581787109375,-5058.447265625,1653.0355224609375,0.0,-2257.823974609375,0.0,-1479.78466796875,-0.0,166.89300537109375
-13271.9677734375,-10065.23828125,-3464.221923828125,2596.37841796875,3476.142822265625,20909.30859375,-1136.4619140625,3868.73876953125,-2116.3623046875,5084.67333984375,-7271.7666015625,-3821.05517578125,-4982.9482421875,3572.304931640625,1281.1025390625,-3363.29150390625,953.67431640625,4355.11279296875,5913.57568359375,17428.3984375,4053.91064453125,13084.412109375,2961.15869140625,17143.091796875,-5346.93408203125,-4726.2509765625,-2465.248046875,-591.278076171875,-6151.994140625,1817.5443115234375,7341.703125,7863.83935546875,4483.8583984375,6062.189453125,1652.24072265625,6895.0654296875,210.6030731201172,20747.185546875,-2116.3623046875,-0.0,-1031.5577392578125,10043.7802734375,-1104.6727294921875,1252.4923095703125,2508.16357421875,9896.7548828125,-5282.56103515625,3827.412841796875,-4657.10986328125,115.23564910888672,-190.73486328125,10579.4267578125,-13394.35546875,-12040.138671875,-5904.0390625,-1253.2869873046875,96.9568862915039,-5057.65283203125,-1600.5833740234375,-693.798095703125,-8230.208984375,4493.3955078125,1801.649658203125,1748.4029541015625,-5061.62646484375,1665.7510986328125,0.0,-2250.67138671875,0.0,-1485.3477783203125,-0.0,160.53517150878906
-13277.5302734375,-10082.7216796875,-3467.40087890625,2582.867919921875,3473.7587890625,20905.3359375,-1143.6143798828125,3865.559814453125,-2121.130615234375,5075.13671875,-7272.5615234375,-3821.05517578125,-4986.12744140625,3557.205078125,1268.3868408203125,-3372.033447265625,947.3164672851562,4350.34423828125,5907.21728515625,17422.041015625,4049.936767578125,13078.0537109375,2955.595703125,17139.1171875,-5346.93408203125,-4731.01953125,-2471.60595703125,-591.278076171875,-6160.736328125,1810.3917236328125,7336.1396484375,7859.8662109375,4479.88525390625,6054.24267578125,1645.088134765625,6891.091796875,203.4505157470703,20741.62109375,-2121.130615234375,-0.0,-1037.120849609375,10038.216796875,-1109.441162109375,1248.5185546875,2501.8056640625,9891.1923828125,-5284.150390625,3816.286865234375,-4661.0830078125,113.64618682861328,-203.4505157470703,10577.837890625,-13402.302734375,-12052.0595703125,-5913.57568359375,-1252.4923095703125,92.18851470947266,-5060.83154296875,-1606.146484375,-701.745361328125,-8237.3623046875,4487.03759765625,1794.4971923828125,1721.382080078125,-5072.75244140625,1667.340576171875,0.0,-2254.64501953125,0.0,-1493.2950439453125,-0.0,148.61424255371094
-13282.298828125,-10076.36328125,-3468.195556640625,2597.173095703125,3472.964111328125,20912.48828125,-1145.9986572265625,3877.480712890625,-2121.130615234375,5091.826171875,-7278.12451171875,-3824.23388671875,-4998.04833984375,3564.357666015625,1247.723876953125,-3356.93359375,949.70068359375,4354.318359375,5911.98583984375,17426.80859375,4049.936767578125,13083.6171875,2955.595703125,17144.6796875,-5348.5234375,-4714.330078125,-2480.347900390625,-575.3834838867188,-6162.3251953125,1804.82861328125,7337.72900390625,7859.8662109375,4479.09033203125,6058.21630859375,1645.8829345703125,6897.44970703125,201.86106872558594,20747.185546875,-2123.514892578125,-0.0,-1037.91552734375,10045.369140625,-1112.6199951171875,1259.6448974609375,2497.83203125,9903.908203125,-5284.94482421875,3831.386474609375,-4669.03076171875,120.00402069091797,-222.5240020751953,10592.9375,-13411.044921875,-12074.3115234375,-5915.1650390625,-1258.0552978515625,78.67813110351562,-5033.01611328125,-1620.4515380859375,-684.2613525390625,-8245.30859375,4487.83251953125,1800.060302734375,1716.61376953125,-5080.69970703125,1668.13525390625,0.0,-2226.82958984375,0.0,-1466.2742919921875,-0.0,153.3826141357422
-13268.7880859375,-10126.431640625,-3446.738037109375,2630.551513671875,3485.6796875,20933.150390625,-1134.07763671875,3893.37548828125,-2117.156982421875,5123.615234375,-7264.6142578125,-3813.107666015625,-4998.04833984375,3546.873779296875,1255.671142578125,-3322.76025390625,973.5425415039062,4375.77587890625,5926.291015625,17442.703125,4069.80517578125,13105.0751953125,2969.90087890625,17162.1640625,-5338.19189453125,-4688.8984375,-2473.990234375,-565.052001953125,-6154.37841796875,1819.1337890625,7357.59716796875,7878.14404296875,4497.369140625,6080.46875,1662.572265625,6918.1123046875,214.57672119140625,20764.669921875,-2106.03076171875,-0.0,-1022.0209350585938,10070.0068359375,-1099.9044189453125,1276.3341064453125,2508.16357421875,9920.5966796875,-5265.0771484375,3864.76513671875,-4657.904296875,132.7196807861328,-214.57672119140625,10608.83203125,-13392.765625,-12076.6953125,-5908.80712890625,-1249.3133544921875,73.90975952148438,-4985.33251953125,-1616.47802734375,-657.2405395507812,-8223.8515625,4506.90625,1812.7760009765625,1730.9189453125,-5064.0107421875,1686.4140625,0.0,-2195.04052734375,0.0,-1432.1009521484375,-0.0,177.22447204589844
-13265.609375,-10186.8310546875,-3432.432861328125,2649.625,3499.190185546875,20945.8671875,-1123.7462158203125,3898.9384765625,-2113.97802734375,5125.99951171875,-7252.693359375,-3798.802734375,-4984.53759765625,3540.515869140625,1261.2342529296875,-3328.3232421875,988.642333984375,4386.10693359375,5935.82763671875,17442.703125,4084.905029296875,13120.1748046875,2981.82177734375,17174.0859375,-5325.47607421875,-4678.5673828125,-2462.0693359375,-560.28369140625,-6135.3046875,1831.0546875,7373.49169921875,7895.62890625,4515.64794921875,6098.7470703125,1675.287841796875,6930.033203125,224.11346435546875,20774.20703125,-2086.16259765625,-0.0,-1006.921142578125,10085.900390625,-1088.7781982421875,1285.076171875,2516.110595703125,9928.5439453125,-5251.56640625,3883.838623046875,-4645.18896484375,145.43533325195312,-207.42416381835938,10611.216796875,-13378.4609375,-12060.8017578125,-5889.73388671875,-1233.4188232421875,85.8306884765625,-4987.716796875,-1611.7095947265625,-651.6774291992188,-8212.7255859375,4519.62158203125,1820.72314453125,1744.42919921875,-5043.34765625,1698.3350830078125,0.0,-2206.96142578125,0.0,-1431.3062744140625,-0.0,174.04556274414062
-13265.609375,-10089.8740234375,-3434.817138671875,2633.730712890625,3496.805908203125,20944.27734375,-1127.7198486328125,3895.759521484375,-2121.92529296875,5102.95263671875,-7254.28271484375,-3790.85546875,-4980.56396484375,3534.157958984375,1264.4132080078125,-3330.70751953125,986.2581787109375,4384.517578125,5931.0595703125,17425.21875,4082.52099609375,13116.99609375,2979.4375,17170.111328125,-5328.6552734375,-4685.7197265625,-2462.0693359375,-558.6942138671875,-6132.9208984375,1817.5443115234375,7371.107421875,7898.01318359375,4513.263671875,6095.568359375,1675.287841796875,6926.0595703125,220.93455505371094,20768.642578125,-2086.16259765625,-0.0,-1009.3053588867188,10081.927734375,-1090.36767578125,1281.897216796875,2511.34228515625,9919.0068359375,-5256.3349609375,3867.1494140625,-4649.162109375,149.4089813232422,-204.24525451660156,10610.4208984375,-13379.255859375,-12035.3701171875,-5887.349609375,-1224.6767578125,93.7779769897461,-4985.33251953125,-1610.1201171875,-666.7772827148438,-8216.6982421875,4514.05859375,1813.5706787109375,1726.1505126953125,-5041.75830078125,1699.9244384765625,0.0,-2208.55078125,0.0,-1449.5849609375,-0.0,143.8458709716797
-13270.3779296875,-10000.865234375,-3443.558837890625,2617.8359375,3487.26904296875,20927.587890625,-1137.256591796875,3880.659912109375,-2131.462158203125,5076.7265625,-7259.845703125,-3804.365966796875,-4984.53759765625,3531.77392578125,1250.90283203125,-3351.37060546875,974.3372802734375,4374.18603515625,5917.54931640625,17410.119140625,4071.39453125,13104.279296875,2968.311279296875,17156.6015625,-5337.39697265625,-4700.8193359375,-2470.81103515625,-574.5887451171875,-6142.45751953125,1809.5970458984375,7361.57080078125,7886.88671875,4502.93212890625,6083.6474609375,1663.366943359375,6913.34375,210.6030731201172,20755.1328125,-2096.493896484375,-0.0,-1018.8421020507812,10066.8271484375,-1101.493896484375,1266.79736328125,2501.8056640625,9898.3447265625,-5265.0771484375,3848.87060546875,-4657.10986328125,131.13021850585938,-217.75563049316406,10592.9375,-13384.0244140625,-12028.2177734375,-5895.29638671875,-1241.3660888671875,83.44650268554688,-5011.55859375,-1618.0673828125,-690.619140625,-8220.6728515625,4503.72705078125,1797.676025390625,1723.766357421875,-5051.294921875,1686.4140625,0.0,-2210.934814453125,0.0,-1466.2742919921875,-0.0,135.89859008789062
-13266.404296875,-9998.48046875,-3444.353759765625,2613.067626953125,3489.6533203125,20927.587890625,-1138.0513916015625,3879.0703125,-2128.283203125,5073.54736328125,-7258.25634765625,-3812.31298828125,-4988.51171875,3532.568603515625,1250.108154296875,-3350.57568359375,975.1319580078125,4374.98095703125,5916.75439453125,17411.708984375,4073.778564453125,13104.279296875,2967.5166015625,17156.6015625,-5336.6025390625,-4700.8193359375,-2470.81103515625,-571.4098510742188,-6142.45751953125,1816.74951171875,7364.75,7884.50244140625,4504.52197265625,6085.23681640625,1663.366943359375,6914.138671875,210.6030731201172,20755.1328125,-2100.4677734375,-0.0,-1018.8421020507812,10066.8271484375,-1103.083251953125,1268.3868408203125,2501.010986328125,9896.7548828125,-5261.89794921875,3845.691650390625,-4654.7255859375,118.41455841064453,-219.3450927734375,10593.7314453125,-13385.61328125,-12023.44921875,-5894.501953125,-1243.750244140625,79.47286224365234,-5013.94287109375,-1621.246337890625,-699.3611450195312,-8211.9306640625,4503.72705078125,1797.676025390625,1738.0714111328125,-5050.50048828125,1684.8245849609375,0.0,-2224.4453125,0.0,-1471.83740234375,-0.0,165.3035430908203
-13257.6630859375,-10014.375,-3437.201171875,2614.6572265625,3494.421630859375,20940.3046875,-1133.282958984375,3887.017578125,-2126.69384765625,5071.9580078125,-7253.48828125,-3806.75,-4976.5908203125,3534.157958984375,1260.4395751953125,-3340.244384765625,982.2845458984375,4382.13330078125,5923.1123046875,17415.681640625,4080.13671875,13112.2275390625,2974.669189453125,17166.13671875,-5328.6552734375,-4691.28271484375,-2464.453369140625,-561.8731079101562,-6133.71533203125,1819.1337890625,7371.90234375,7890.8603515625,4511.67431640625,6090.00537109375,1668.13525390625,6922.880859375,216.1661834716797,20761.490234375,-2099.673095703125,-0.0,-1013.2789306640625,10073.9794921875,-1098.31494140625,1276.3341064453125,2505.779296875,9902.318359375,-5255.54052734375,3846.486328125,-4649.162109375,143.8458709716797,-209.808349609375,10603.2685546875,-13386.4091796875,-12013.912109375,-5887.349609375,-1235.802978515625,94.57270050048828,-4994.07421875,-1618.0673828125,-700.1558837890625,-8202.3935546875,4510.08447265625,1802.4444580078125,1753.1712646484375,-5045.73193359375,1692.77197265625,0.0,-2231.597900390625,0.0,-1477.400390625,-0.0,192.32432556152344
-13256.8671875,-10028.6796875,-3427.66455078125,2628.962158203125,3501.57421875,20949.83984375,-1126.1304931640625,3888.60693359375,-2124.3095703125,5080.69970703125,-7244.74560546875,-3801.186767578125,-4958.3115234375,3537.337158203125,1271.5657958984375,-3340.244384765625,991.8212890625,4390.87548828125,5929.47021484375,17418.861328125,4089.673583984375,13120.96875,2982.616455078125,17173.291015625,-5317.529296875,-4677.7724609375,-2454.916748046875,-557.8994750976562,-6120.205078125,1840.5914306640625,7379.85009765625,7900.3974609375,4520.416015625,6097.15771484375,1676.0826416015625,6930.828125,223.31874084472656,20767.052734375,-2094.10986328125,-0.0,-1005.3316650390625,10080.337890625,-1088.7781982421875,1283.4866943359375,2512.13720703125,9904.7021484375,-5247.5927734375,3861.58642578125,-4640.42041015625,147.02479553222656,-197.0926971435547,10599.2958984375,-13383.2294921875,-12008.349609375,-5875.4287109375,-1230.2398681640625,111.26200103759766,-4992.48486328125,-1610.914794921875,-684.2613525390625,-8195.2412109375,4517.2373046875,1808.007568359375,1761.1185302734375,-5037.78466796875,1695.1561279296875,0.0,-2251.466064453125,0.0,-1461.505859375,-0.0,213.78199768066406
-13260.841796875,-10068.4169921875,-3418.92236328125,2631.346435546875,3509.521484375,20949.044921875,-1117.388427734375,3894.96484375,-2114.772705078125,5086.26318359375,-7241.56689453125,-3803.571044921875,-4959.9013671875,3536.542236328125,1286.66552734375,-3337.860107421875,995.794921875,4394.84912109375,5935.82763671875,17427.603515625,4095.236328125,13124.1484375,2990.563720703125,17178.05859375,-5311.1708984375,-4680.95166015625,-2443.79052734375,-555.5152587890625,-6119.41015625,1842.9755859375,7385.41259765625,7905.9599609375,4523.59521484375,6101.13134765625,1684.0299072265625,6934.8017578125,230.47129821777344,20772.615234375,-2094.10986328125,-0.0,-997.3843994140625,10081.927734375,-1080.0361328125,1288.255126953125,2519.289794921875,9914.2392578125,-5242.82470703125,3865.559814453125,-4631.67822265625,143.0511474609375,-183.58230590820312,10604.8583984375,-13384.8193359375,-12009.9384765625,-5873.04443359375,-1250.90283203125,113.64618682861328,-5023.4794921875,-1603.7623291015625,-688.2349853515625,-8197.625,4524.3896484375,1815.954833984375,1762.7080078125,-5033.81103515625,1691.1824951171875,0.0,-2280.87109375,0.0,-1473.4267578125,-0.0,216.1661834716797
-13257.6630859375,-10052.521484375,-3421.306640625,2624.988525390625,3508.726806640625,20942.6875,-1118.18310546875,3899.7333984375,-2115.5673828125,5076.7265625,-7244.74560546875,-3801.186767578125,-4975.0009765625,3534.952880859375,1285.076171875,-3348.19140625,991.0265502929688,4392.46533203125,5936.62255859375,17429.986328125,4092.0576171875,13118.5849609375,2990.563720703125,17175.673828125,-5314.35009765625,-4692.87255859375,-2443.79052734375,-560.28369140625,-6130.53662109375,1830.2598876953125,7381.439453125,7901.986328125,4518.8271484375,6097.9521484375,1684.0299072265625,6934.00732421875,230.47129821777344,20771.822265625,-2096.493896484375,-0.0,-1000.5632934570312,10075.5693359375,-1079.241455078125,1286.66552734375,2518.494873046875,9920.5966796875,-5247.5927734375,3859.2021484375,-4630.0888671875,136.6933135986328,-185.96649169921875,10612.0107421875,-13387.203125,-12017.0908203125,-5881.7861328125,-1243.750244140625,100.13580322265625,-5053.67919921875,-1602.9676513671875,-686.6455078125,-8204.77734375,4523.59521484375,1816.74951171875,1765.886962890625,-5036.98974609375,1679.2615966796875,0.0,-2287.228759765625,0.0,-1493.2950439453125,-0.0,210.6030731201172
-13257.6630859375,-10028.6796875,-3437.201171875,2609.888671875,3497.6005859375,20926.794921875,-1128.5146484375,3879.864990234375,-2119.541259765625,5077.52099609375,-7256.66650390625,-3809.13427734375,-4979.76904296875,3541.310546875,1262.029052734375,-3378.391357421875,977.5161743164062,4380.5439453125,5924.70166015625,17426.013671875,4080.13671875,13104.279296875,2977.84814453125,17161.369140625,-5326.27099609375,-4715.91943359375,-2458.89013671875,-582.5360717773438,-6139.2783203125,1810.3917236328125,7368.7236328125,7890.0654296875,4508.4951171875,6082.85302734375,1673.698486328125,6920.49658203125,220.93455505371094,20758.310546875,-2102.851806640625,-0.0,-1012.4841918945312,10058.0849609375,-1091.162353515625,1267.592041015625,2511.34228515625,9904.7021484375,-5257.92431640625,3844.10205078125,-4644.39404296875,117.61983489990234,-208.21888732910156,10584.990234375,-13388.79296875,-12033.7802734375,-5891.3232421875,-1251.697509765625,86.62541961669922,-5086.26318359375,-1608.5306396484375,-692.2086181640625,-8208.751953125,4512.46875,1806.4180908203125,1769.860595703125,-5045.73193359375,1663.366943359375,0.0,-2303.12353515625,0.0,-1495.67919921875,-0.0,210.6030731201172
-13253.6884765625,-10035.0380859375,-3434.817138671875,2616.24658203125,3499.98486328125,20925.203125,-1125.335693359375,3871.123046875,-2113.183349609375,5103.7470703125,-7248.7197265625,-3812.31298828125,-4965.46435546875,3553.2314453125,1273.949951171875,-3377.5966796875,979.900390625,4383.72265625,5928.67529296875,17433.166015625,4083.3154296875,13106.6640625,2982.616455078125,17159.78125,-5320.7080078125,-4709.56201171875,-2457.30078125,-587.304443359375,-6132.1259765625,1814.3653564453125,7371.107421875,7890.0654296875,4511.67431640625,6086.826171875,1675.287841796875,6919.7021484375,224.11346435546875,20758.310546875,-2101.262451171875,-0.0,-1007.7158203125,10060.4697265625,-1087.9835205078125,1262.82373046875,2519.289794921875,9899.1396484375,-5253.95068359375,3849.665283203125,-4644.39404296875,117.61983489990234,-198.68214416503906,10574.658203125,-13379.255859375,-12037.75390625,-5884.17041015625,-1254.87646484375,105.69890594482422,-5097.38916015625,-1599.7886962890625,-712.0768432617188,-8207.95703125,4515.64794921875,1811.1864013671875,1792.1129150390625,-5038.57958984375,1664.9564208984375,0.0,-2303.918212890625,0.0,-1470.2479248046875,-0.0,245.57113647460938
-13235.41015625,-10036.6279296875,-3422.101318359375,2636.11474609375,3517.46875,20950.63671875,-1103.083251953125,3898.9384765625,-2091.7255859375,5128.3837890625,-7232.0302734375,-3799.597412109375,-4956.72216796875,3569.9208984375,1296.2022705078125,-3343.423095703125,998.973876953125,4402.001953125,5949.33837890625,17457.0078125,4100.7998046875,13127.3271484375,3000.895263671875,17181.23828125,-5304.8134765625,-4676.18310546875,-2443.79052734375,-557.104736328125,-6121.79443359375,1830.2598876953125,7390.18115234375,7906.75439453125,4525.9794921875,6107.4892578125,1694.361328125,6940.36474609375,244.77639770507812,20782.15234375,-2086.16259765625,-0.0,-991.0265502929688,10087.490234375,-1070.4993896484375,1284.2813720703125,2539.157958984375,9926.16015625,-5238.05615234375,3868.73876953125,-4629.2939453125,143.8458709716797,-175.63502502441406,10604.8583984375,-13360.1826171875,-12029.806640625,-5873.8388671875,-1247.723876953125,113.64618682861328,-5083.87890625,-1579.125732421875,-683.4666137695312,-8195.2412109375,4534.72119140625,1831.8494873046875,1819.1337890625,-5025.86376953125,1680.8509521484375,0.0,-2271.33447265625,0.0,-1449.5849609375,-0.0,270.2077331542969
-13229.052734375,-10057.2900390625,-3418.127685546875,2636.909423828125,3523.82666015625,20954.609375,-1093.5465087890625,3902.117431640625,-2081.394287109375,5141.89404296875,-7228.056640625,-3796.41845703125,-4949.56982421875,3590.583740234375,1321.6336669921875,-3360.9072265625,1005.3316650390625,4407.564453125,5958.080078125,17472.109375,4107.1572265625,13135.2744140625,3009.63720703125,17186.80078125,-5303.22412109375,-4654.7255859375,-2428.690673828125,-565.8467407226562,-6117.82080078125,1835.0283203125,7397.33349609375,7911.52294921875,4532.33740234375,6115.4365234375,1703.1033935546875,6945.92822265625,254.31314086914062,20785.33203125,-2082.983642578125,-0.0,-986.2581787109375,10098.6162109375,-1061.7574462890625,1284.2813720703125,2547.89990234375,9938.0810546875,-5232.4931640625,3870.328125,-4622.93603515625,139.8722381591797,-150.20370483398438,10596.9111328125,-13357.0029296875,-12030.6015625,-5868.27587890625,-1255.671142578125,123.18293762207031,-5075.931640625,-1571.97314453125,-654.0616455078125,-8192.0625,4541.0791015625,1842.180908203125,1829.4652099609375,-5023.4794921875,1683.235107421875,0.0,-2229.213623046875,0.0,-1423.35888671875,-0.0,275.77081298828125
-13239.3837890625,-10068.4169921875,-3414.94873046875,2640.88330078125,3524.621337890625,20947.45703125,-1095.135986328125,3895.759521484375,-2083.7783203125,5134.7412109375,-7227.26220703125,-3798.802734375,-4947.185546875,3574.689208984375,1333.5545654296875,-3363.29150390625,1000.5632934570312,4404.38623046875,5954.10693359375,17468.134765625,4103.978515625,13132.095703125,3008.842529296875,17180.443359375,-5296.86572265625,-4669.8251953125,-2420.7431640625,-572.9993286132812,-6116.2314453125,1830.2598876953125,7393.3603515625,7907.5498046875,4529.953125,6111.462890625,1700.71923828125,6941.9541015625,252.72369384765625,20780.5625,-2083.7783203125,-0.0,-983.0792846679688,10092.2587890625,-1059.373291015625,1278.7183837890625,2546.310546875,9932.517578125,-5233.28759765625,3872.71240234375,-4616.57861328125,133.514404296875,-138.28277587890625,10592.142578125,-13360.1826171875,-12036.1640625,-5869.0703125,-1252.4923095703125,139.8722381591797,-5070.3681640625,-1573.5626220703125,-664.3931274414062,-8197.625,4537.10546875,1838.207275390625,1798.4708251953125,-5025.06884765625,1679.2615966796875,0.0,-2248.287109375,0.0,-1445.611328125,-0.0,246.36587524414062
-13275.146484375,-10095.4375,-3435.61181640625,2624.988525390625,3499.190185546875,20925.203125,-1124.5408935546875,3877.480712890625,-2098.878173828125,5117.2578125,-7258.25634765625,-3816.286865234375,-4976.5908203125,3570.715576171875,1266.79736328125,-3372.033447265625,982.2845458984375,4382.13330078125,5928.67529296875,17453.03515625,4082.52099609375,13110.6376953125,2982.616455078125,17158.984375,-5316.734375,-4707.97216796875,-2462.0693359375,-588.0991821289062,-6140.0732421875,1806.4180908203125,7369.51806640625,7886.88671875,4509.2900390625,6090.7998046875,1674.4931640625,6918.1123046875,220.93455505371094,20758.310546875,-2095.69921875,-0.0,-1004.5369873046875,10065.23828125,-1089.5728759765625,1261.2342529296875,2519.289794921875,9915.0341796875,-5257.1298828125,3856.81787109375,-4649.162109375,111.26200103759766,-204.24525451660156,10579.4267578125,-13392.765625,-12064.7744140625,-5895.29638671875,-1254.081787109375,97.75161743164062,-5088.6474609375,-1616.47802734375,-693.798095703125,-8220.6728515625,4512.46875,1817.5443115234375,1769.06591796875,-5044.93701171875,1669.724853515625,0.0,-2287.228759765625,0.0,-1478.989990234375,-0.0,211.39781188964844
-13295.0146484375,-10135.9677734375,-3435.61181640625,2626.578125,3499.190185546875,20922.025390625,-1130.10400390625,3871.123046875,-2115.5673828125,5095.7998046875,-7263.8193359375,-3813.902587890625,-4978.974609375,3550.847412109375,1259.6448974609375,-3369.649169921875,984.668701171875,4379.74951171875,5923.90673828125,17429.193359375,4083.3154296875,13109.0478515625,2981.02685546875,17156.6015625,-5318.32373046875,-4711.94580078125,-2463.65869140625,-588.8939208984375,-6140.0732421875,1813.5706787109375,7368.7236328125,7890.8603515625,4509.2900390625,6090.7998046875,1671.314208984375,6917.31787109375,216.96090698242188,20752.748046875,-2090.930908203125,-0.0,-1007.7158203125,10063.6484375,-1091.95703125,1258.85009765625,2508.9580078125,9903.908203125,-5258.71875,3859.2021484375,-4650.75146484375,115.23564910888672,-212.19253540039062,10577.837890625,-13403.09765625,-12057.6220703125,-5892.91259765625,-1242.95556640625,96.9568862915039,-5083.87890625,-1620.4515380859375,-706.5137329101562,-8220.6728515625,4508.4951171875,1807.212890625,1741.2503662109375,-5044.14208984375,1674.4931640625,0.0,-2283.25537109375,0.0,-1482.1688232421875,-0.0,185.96649169921875
-13296.6044921875,-10107.3583984375,-3447.53271484375,2620.22021484375,3491.24267578125,20914.873046875,-1139.640869140625,3855.228515625,-2131.462158203125,5063.2158203125,-7274.15087890625,-3826.6181640625,-4976.5908203125,3533.36328125,1259.6448974609375,-3391.901611328125,979.1055908203125,4371.8017578125,5913.57568359375,17402.966796875,4076.162841796875,13101.8955078125,2971.490234375,17146.26953125,-5332.62890625,-4718.3037109375,-2469.221923828125,-601.6095581054688,-6144.046875,1804.82861328125,7360.7763671875,7890.8603515625,4502.93212890625,6086.03125,1664.16162109375,6909.37060546875,209.0136260986328,20740.828125,-2089.34130859375,-0.0,-1015.6631469726562,10056.49609375,-1099.109619140625,1246.1343994140625,2500.21630859375,9884.0400390625,-5263.4873046875,3855.228515625,-4656.31494140625,110.46727752685547,-210.6030731201172,10557.1748046875,-13401.5087890625,-12054.443359375,-5899.2705078125,-1254.081787109375,97.75161743164062,-5080.69970703125,-1610.1201171875,-724.79248046875,-8215.109375,4499.75341796875,1791.3182373046875,1734.0977783203125,-5050.50048828125,1659.393310546875,0.0,-2279.28173828125,0.0,-1486.1424560546875,-0.0,174.04556274414062
-13297.3984375,-10086.6953125,-3455.47998046875,2597.173095703125,3473.7587890625,20901.361328125,-1153.151123046875,3845.691650390625,-2136.23046875,5052.08984375,-7281.30322265625,-3834.5654296875,-4995.6640625,3534.952880859375,1221.4979248046875,-3397.46484375,962.4163208007812,4359.08642578125,5901.65478515625,17395.01953125,4062.652587890625,13087.58984375,2957.97998046875,17132.759765625,-5353.2919921875,-4732.60888671875,-2491.47412109375,-613.5304565429688,-6154.37841796875,1785.755126953125,7347.265625,7870.99169921875,4488.626953125,6068.5478515625,1651.446044921875,6896.65478515625,195.50323486328125,20731.291015625,-2133.84619140625,-0.0,-1028.3787841796875,10040.6005859375,-1115.7989501953125,1234.2135009765625,2489.884521484375,9872.9130859375,-5269.845703125,3832.18115234375,-4675.38818359375,88.21487426757812,-247.955322265625,10549.2275390625,-13406.2763671875,-12067.1591796875,-5908.01220703125,-1270.77099609375,64.37301635742188,-5087.0576171875,-1616.47802734375,-738.3028564453125,-8238.9521484375,4487.83251953125,1781.781494140625,1733.3031005859375,-5062.42138671875,1653.8302001953125,0.0,-2285.639404296875,0.0,-1494.884521484375,-0.0,178.0192108154297
-13287.8623046875,-10119.279296875,-3449.916748046875,2605.120361328125,3482.500732421875,20913.283203125,-1145.9986572265625,3859.2021484375,-2128.283203125,5069.57373046875,-7272.5615234375,-3831.386474609375,-4996.45849609375,3554.821044921875,1225.471435546875,-3382.364990234375,967.1846923828125,4367.03369140625,5910.396484375,17407.736328125,4066.6259765625,13095.5380859375,2965.92724609375,17143.091796875,-5342.96044921875,-4720.68798828125,-2481.142822265625,-597.6359252929688,-6145.63623046875,1786.5499267578125,7353.6240234375,7873.3759765625,4493.3955078125,6074.9052734375,1658.5985107421875,6903.80712890625,204.24525451660156,20741.62109375,-2112.388671875,-0.0,-1020.4315185546875,10050.9326171875,-1108.6463623046875,1246.92919921875,2495.44775390625,9887.21875,-5267.46142578125,3838.5390625,-4662.67236328125,104.9041748046875,-243.98167419433594,10565.1220703125,-13397.5341796875,-12070.337890625,-5900.06494140625,-1264.4132080078125,73.11502838134766,-5075.931640625,-1631.577880859375,-725.5872192382812,-8238.15625,4496.57421875,1792.90771484375,1761.913330078125,-5054.4736328125,1657.8038330078125,0.0,-2281.665771484375,0.0,-1481.3741455078125,-0.0,207.42416381835938
