-9366.671875,-8401.87109375,-4156.4306640625,2001.1265869140625,3128.846435546875,20290.216796875,-1637.140869140625,3163.019775390625,-2018.6107177734375,4960.69580078125,-7310.70849609375,-4180.2724609375,-4698.435546875,3760.65576171875,893.2749633789062,-3778.9345703125,522.931396484375,3728.072021484375,5351.7021484375,17042.955078125,3499.190185546875,12650.490234375,2331.733642578125,16607.443359375,-5427.20166015625,-4851.0234375,-2713.998046875,-957.64794921875,-5656.08349609375,1576.7415771484375,6984.86962890625,7304.3505859375,3972.053466796875,5715.68798828125,1004.5369873046875,6696.3828125,-284.5128479003906,20136.037109375,-2393.72265625,-0.0,-1399.51708984375,9334.8818359375,-1591.84130859375,704.1295166015625,2168.814453125,9257.79296875,-5390.64404296875,3240.903076171875,-4997.25341796875,-474.4529724121094,-563.4625854492188,9980.99609375,-9955.5654296875,-9740.98828125,-5393.0283203125,-1072.883544921875,136.6933135986328,-5028.248046875,-1299.3812255859375,-585.7149658203125,-6717.04638671875,3960.132568359375,1405.0802001953125,1475.81103515625,-5000.4326171875,1560.05224609375,0.0,-2441.40625,0.0,-2110.00439453125,-0.0,-380.67498779296875
-9392.1025390625,-8436.8388671875,-4158.02001953125,1997.153076171875,3127.257080078125,20284.65234375,-1642.7039794921875,3156.662109375,-2030.5316162109375,4942.4169921875,-7300.376953125,-4189.80908203125,-4700.02490234375,3744.76123046875,880.5592651367188,-3782.11328125,519.7525024414062,3721.714111328125,5344.5498046875,17026.265625,3495.21630859375,12644.9267578125,2327.760009765625,16600.291015625,-5427.99609375,-4853.4072265625,-2710.8193359375,-963.2110595703125,-5653.69921875,1564.8206787109375,6980.89599609375,7296.4033203125,3966.490234375,5711.71435546875,1001.3580322265625,6691.61474609375,-290.075927734375,20129.6796875,-2398.490966796875,-0.0,-1403.49072265625,9330.9091796875,-1595.020263671875,700.1558837890625,2160.072265625,9248.2568359375,-5404.94921875,3235.340087890625,-4993.27978515625,-479.2213439941406,-576.17822265625,9973.84375,-9957.154296875,-9756.087890625,-5391.43896484375,-1085.5992431640625,132.7196807861328,-5026.65869140625,-1307.32861328125,-588.0991821289062,-6722.60888671875,3955.3642578125,1397.9276123046875,1465.4794921875,-5008.37939453125,1552.10498046875,0.0,-2447.76416015625,0.0,-2119.541259765625,-0.0,-394.1853942871094
-9407.203125,-8470.2177734375,-4171.5302734375,1988.410888671875,3115.336181640625,20272.732421875,-1656.21435546875,3135.204345703125,-2041.65771484375,4925.72802734375,-7301.171875,-4208.8828125,-4710.3564453125,3737.608642578125,873.40673828125,-3821.849853515625,511.80523681640625,3709.79296875,5331.03955078125,17013.55078125,3483.29541015625,12633.80078125,2315.04443359375,16585.19140625,-5428.791015625,-4860.56005859375,-2722.740234375,-986.2581787109375,-5667.20947265625,1544.952392578125,6968.97509765625,7285.27685546875,3955.3642578125,5702.177734375,989.4371337890625,6678.8994140625,-303.5863342285156,20114.580078125,-2409.6171875,-0.0,-1416.206298828125,9321.3720703125,-1606.146484375,682.671875,2146.561767578125,9232.361328125,-5413.69091796875,3228.1875,-5004.40576171875,-491.9369812011719,-582.5360717773438,9948.4130859375,-9952.3857421875,-9769.5986328125,-5402.56494140625,-1107.8516845703125,129.54075622558594,-5064.0107421875,-1327.19677734375,-603.9937133789062,-6734.52978515625,3941.05908203125,1382.032958984375,1444.816650390625,-5020.30029296875,1529.057861328125,0.0,-2454.121826171875,0.0,-2130.66748046875,-0.0,-409.28521728515625
-9405.61328125,-8441.607421875,-4169.14599609375,1989.20556640625,3112.951904296875,20280.6796875,-1654.625,3147.919921875,-2039.2735595703125,4927.3173828125,-7300.376953125,-4199.34619140625,-4712.740234375,3735.224365234375,874.9962158203125,-3806.75,512.5999755859375,3708.99853515625,5335.8076171875,17017.5234375,3482.500732421875,12638.5693359375,2315.04443359375,16591.548828125,-5439.12255859375,-4849.43408203125,-2730.6875,-974.3372802734375,-5673.5673828125,1547.3365478515625,6968.97509765625,7290.84033203125,3959.337646484375,5706.1513671875,989.4371337890625,6680.48876953125,-304.38104248046875,20120.939453125,-2398.490966796875,-0.0,-1417.0010986328125,9328.5244140625,-1608.5306396484375,689.0296630859375,2148.1513671875,9241.8984375,-5416.0751953125,3226.59814453125,-5012.353515625,-485.57916259765625,-580.15185546875,9966.69140625,-9968.28125,-9760.8564453125,-5408.9228515625,-1096.7254638671875,128.74603271484375,-5067.189453125,-1318.4547119140625,-613.5304565429688,-6730.556640625,3942.6484375,1382.8277587890625,1444.816650390625,-5021.89013671875,1540.18408203125,0.0,-2461.2744140625,0.0,-2147.356689453125,-0.0,-414.0535888671875
-9448.5283203125,-8416.17578125,-4171.5302734375,1983.642578125,3113.74658203125,20280.6796875,-1652.24072265625,3151.098876953125,-2040.068359375,4935.2646484375,-7316.271484375,-4194.57763671875,-4697.64111328125,3737.608642578125,870.227783203125,-3791.650146484375,510.21575927734375,3705.8193359375,5338.19189453125,17018.318359375,3482.500732421875,12636.1845703125,2313.454833984375,16590.75390625,-5436.73828125,-4850.22900390625,-2731.482177734375,-971.1583251953125,-5672.77294921875,1552.899658203125,6971.359375,7293.22412109375,3959.337646484375,5703.76708984375,987.0529174804688,6678.8994140625,-301.2021484375,20120.939453125,-2375.443603515625,-0.0,-1415.41162109375,9327.7294921875,-1608.5306396484375,689.0296630859375,2152.125,9241.8984375,-5408.9228515625,3221.82958984375,-5016.3271484375,-491.14227294921875,-584.12548828125,9971.458984375,-10003.2490234375,-9758.47265625,-5407.33349609375,-1091.95703125,125.56712341308594,-5064.0107421875,-1286.66552734375,-598.4306640625,-6724.9931640625,3942.6484375,1385.2119140625,1445.611328125,-5022.6845703125,1545.7471923828125,0.0,-2456.506103515625,0.0,-2138.61474609375,-0.0,-410.87469482421875
-9450.1181640625,-8427.302734375,-4152.45654296875,1972.516357421875,3112.951904296875,20263.1953125,-1660.9827880859375,3130.43603515625,-2040.068359375,4941.6220703125,-7334.55029296875,-4206.49853515625,-4715.91943359375,3736.813720703125,851.9490356445312,-3815.491943359375,503.85791015625,3696.28271484375,5329.4501953125,17018.318359375,3480.11669921875,12624.263671875,2305.507568359375,16579.62890625,-5421.638671875,-4871.6865234375,-2742.6083984375,-989.4371337890625,-5674.3623046875,1540.18408203125,6962.6171875,7284.482421875,3957.74853515625,5692.640625,980.6951293945312,6666.978515625,-309.1494140625,20108.22265625,-2392.927978515625,-0.0,-1410.6431884765625,9307.861328125,-1613.299072265625,671.545654296875,2148.1513671875,9227.59375,-5385.0810546875,3213.087890625,-5014.73779296875,-514.984130859375,-603.9937133789062,9944.4384765625,-10009.6064453125,-9772.77734375,-5408.12841796875,-1097.520263671875,112.8514633178711,-5087.0576171875,-1296.9970703125,-595.251708984375,-6738.50390625,3932.317138671875,1382.032958984375,1448.7901611328125,-5039.3740234375,1535.4156494140625,0.0,-2458.89013671875,0.0,-2129.87255859375,-0.0,-407.6957702636719
-9450.912109375,-8436.8388671875,-4144.509765625,1978.874267578125,3112.951904296875,20267.962890625,-1660.9827880859375,3134.40966796875,-2034.505126953125,4942.4169921875,-7338.52392578125,-4204.90869140625,-4718.3037109375,3748.734619140625,860.6910400390625,-3811.518310546875,507.036865234375,3699.461669921875,5329.4501953125,17023.8828125,3484.090087890625,12627.4423828125,2307.891845703125,16582.806640625,-5410.51220703125,-4864.53369140625,-2742.6083984375,-987.0529174804688,-5677.541015625,1543.3629150390625,6962.6171875,7286.07177734375,3960.927490234375,5694.23046875,984.668701171875,6670.15673828125,-309.94415283203125,20110.607421875,-2393.72265625,-0.0,-1404.285400390625,9310.2451171875,-1613.299072265625,677.9035034179688,2148.1513671875,9232.361328125,-5382.69677734375,3217.061279296875,-5017.916015625,-512.5999755859375,-596.0464477539062,9950.001953125,-9994.5068359375,-9770.3935546875,-5413.69091796875,-1096.7254638671875,118.41455841064453,-5102.15771484375,-1320.044189453125,-602.404296875,-6737.708984375,3936.290771484375,1383.62255859375,1451.9691162109375,-5026.65869140625,1536.21044921875,0.0,-2470.81103515625,0.0,-2135.435791015625,-0.0,-411.6694030761719
-9435.8125,-8451.14453125,-4164.3779296875,1975.6953125,3100.236083984375,20271.142578125,-1668.13525390625,3134.40966796875,-2042.4525146484375,4933.67529296875,-7335.3447265625,-4207.29296875,-4711.94580078125,3737.608642578125,844.0017700195312,-3805.16064453125,499.8843078613281,3694.693359375,5325.47607421875,17015.93359375,3474.553466796875,12623.4697265625,2301.533935546875,16583.6015625,-5441.5068359375,-4878.0439453125,-2750.5556640625,-979.900390625,-5684.69384765625,1538.5946044921875,6956.25927734375,7281.30322265625,3952.97998046875,5687.87255859375,977.5161743164062,6666.978515625,-314.7125244140625,20109.017578125,-2397.6962890625,-0.0,-1421.76953125,9307.0673828125,-1623.6304931640625,678.6982421875,2138.61474609375,9226.798828125,-5400.1806640625,3213.087890625,-5033.01611328125,-494.3211669921875,-610.3515625,9953.181640625,-9978.6123046875,-9774.3671875,-5421.638671875,-1104.6727294921875,112.8514633178711,-5104.5419921875,-1327.991455078125,-613.5304565429688,-6746.45068359375,3931.5224609375,1375.6751708984375,1442.432373046875,-5013.14794921875,1530.647216796875,0.0,-2494.653076171875,0.0,-2154.50927734375,-0.0,-422.0008850097656
-9438.197265625,-8472.6015625,-4154.04638671875,1968.5428466796875,3110.56787109375,20270.34765625,-1660.9827880859375,3139.177978515625,-2039.2735595703125,4940.033203125,-7344.0869140625,-4219.2138671875,-4711.94580078125,3744.76123046875,853.5385131835938,-3806.75,501.4737243652344,3697.077392578125,5331.03955078125,17019.90625,3482.500732421875,12625.05859375,2307.891845703125,16586.78125,-5436.73828125,-4882.8125,-2737.83984375,-979.900390625,-5669.59375,1525.0841064453125,6959.4384765625,7275.740234375,3956.95361328125,5688.66748046875,983.0792846679688,6670.15673828125,-307.5599670410156,20114.580078125,-2408.822265625,-0.0,-1412.2327880859375,9307.0673828125,-1614.09375,679.492919921875,2146.561767578125,9231.5673828125,-5391.43896484375,3206.72998046875,-5013.14794921875,-506.2420959472656,-602.404296875,9957.154296875,-9984.9697265625,-9780.724609375,-5405.744140625,-1119.7725830078125,117.61983489990234,-5090.23681640625,-1323.22314453125,-607.1726684570312,-6749.6298828125,3936.290771484375,1380.443603515625,1445.611328125,-5012.353515625,1512.3685302734375,0.0,-2479.55322265625,0.0,-2147.356689453125,-0.0,-413.2588806152344
-9422.302734375,-8448.759765625,-4144.509765625,1977.28466796875,3129.641357421875,20277.5,-1643.498779296875,3151.8935546875,-2028.1474609375,4954.337890625,-7341.703125,-4206.49853515625,-4706.3828125,3749.529541015625,870.227783203125,-3802.7763671875,511.80523681640625,3712.17724609375,5344.5498046875,17035.0078125,3496.010986328125,12637.7744140625,2323.786376953125,16597.90625,-5405.744140625,-4868.50732421875,-2721.150634765625,-975.1319580078125,-5656.8779296875,1540.18408203125,6973.74365234375,7283.6875,3969.66943359375,5698.9990234375,998.973876953125,6682.078125,-294.0495910644531,20124.912109375,-2406.438232421875,-0.0,-1392.364501953125,9318.1923828125,-1596.6097412109375,689.0296630859375,2162.45654296875,9245.8720703125,-5383.49169921875,3215.471923828125,-4991.68994140625,-503.85791015625,-584.9202270507812,9965.1025390625,-10004.837890625,-9768.0087890625,-5392.2333984375,-1110.23583984375,119.20928955078125,-5058.447265625,-1308.91796875,-588.0991821289062,-6726.5830078125,3949.801025390625,1394.7486572265625,1458.326904296875,-5009.17431640625,1531.4420166015625,0.0,-2457.30078125,0.0,-2126.69384765625,-0.0,-396.569580078125
-9391.3076171875,-8440.8125,-4141.33056640625,1981.2584228515625,3125.66748046875,20280.6796875,-1641.9093017578125,3156.662109375,-2022.584228515625,4955.92724609375,-7327.39794921875,-4206.49853515625,-4714.330078125,3753.503173828125,864.6647338867188,-3805.16064453125,515.7788696289062,3715.356201171875,5349.31787109375,17042.955078125,3494.421630859375,12638.5693359375,2323.786376953125,16601.0859375,-5415.28076171875,-4860.56005859375,-2724.32958984375,-971.1583251953125,-5665.6201171875,1545.7471923828125,6972.94873046875,7284.482421875,3971.258544921875,5700.58837890625,997.3843994140625,6686.0517578125,-292.4601135253906,20129.6796875,-2400.875,-0.0,-1395.54345703125,9319.7822265625,-1597.404541015625,693.798095703125,2163.251220703125,9251.435546875,-5383.49169921875,3221.034912109375,-4998.8427734375,-492.73175048828125,-591.278076171875,9969.0751953125,-10016.7587890625,-9763.2412109375,-5399.3857421875,-1102.28857421875,113.64618682861328,-5060.037109375,-1307.32861328125,-590.4833374023438,-6729.76171875,3951.390625,1401.1064453125,1465.4794921875,-5017.916015625,1538.5946044921875,0.0,-2454.916748046875,0.0,-2125.899169921875,-0.0,-394.1853942871094
-9364.287109375,-8459.8857421875,-4153.25146484375,1981.2584228515625,3117.720458984375,20275.912109375,-1648.26708984375,3148.71484375,-2032.915771484375,4947.185546875,-7317.86083984375,-4209.67724609375,-4717.5087890625,3738.4033203125,856.7174072265625,-3812.31298828125,509.4210510253906,3705.8193359375,5343.75537109375,17029.443359375,3486.474365234375,12631.416015625,2317.4287109375,16594.728515625,-5428.791015625,-4867.71240234375,-2729.892822265625,-977.5161743164062,-5675.95166015625,1546.5418701171875,6965.00146484375,7284.482421875,3962.516845703125,5698.2041015625,990.2318725585938,6679.69384765625,-299.6126708984375,20124.1171875,-2408.027587890625,-0.0,-1406.669677734375,9315.013671875,-1602.9676513671875,689.0296630859375,2155.303955078125,9244.283203125,-5399.3857421875,3219.445556640625,-5007.5849609375,-498.2948303222656,-597.6359252929688,9963.5126953125,-9977.8173828125,-9768.0087890625,-5411.306640625,-1105.4674072265625,116.82510375976562,-5072.75244140625,-1311.30224609375,-599.225341796875,-6751.21923828125,3945.827392578125,1393.9539794921875,1451.9691162109375,-5029.8369140625,1533.031494140625,0.0,-2454.916748046875,0.0,-2130.66748046875,-0.0,-402.9273986816406
-9427.865234375,-8466.244140625,-4162.78857421875,1981.2584228515625,3111.362548828125,20272.732421875,-1653.8302001953125,3142.35693359375,-2043.2471923828125,4943.2119140625,-7328.9873046875,-4209.67724609375,-4715.91943359375,3732.04541015625,866.254150390625,-3811.518310546875,506.2420959472656,3700.25634765625,5335.8076171875,17017.5234375,3480.11669921875,12628.2373046875,2313.454833984375,16589.9609375,-5438.32763671875,-4862.14990234375,-2730.6875,-979.900390625,-5674.3623046875,1541.7734375,6962.6171875,7278.91943359375,3956.1591796875,5693.435546875,984.668701171875,6674.92529296875,-302.7915954589844,20117.759765625,-2388.159423828125,-0.0,-1415.41162109375,9315.013671875,-1606.941162109375,683.4666137695312,2152.919677734375,9238.7197265625,-5421.638671875,3221.82958984375,-5013.14794921875,-505.4473876953125,-588.0991821289062,9957.154296875,-9958.744140625,-9772.77734375,-5413.69091796875,-1114.20947265625,127.95130920410156,-5076.7265625,-1304.149658203125,-596.8411865234375,-6754.3984375,3940.26416015625,1386.0067138671875,1438.458740234375,-5035.400390625,1533.031494140625,0.0,-2461.2744140625,0.0,-2134.640869140625,-0.0,-410.87469482421875
-9438.197265625,-8471.01171875,-4170.73583984375,1985.2320556640625,3109.77294921875,20273.52734375,-1652.24072265625,3145.53564453125,-2038.4788818359375,4945.59619140625,-7313.88720703125,-4211.26708984375,-4703.20361328125,3728.072021484375,886.9171142578125,-3803.571044921875,503.85791015625,3699.461669921875,5337.39697265625,17019.90625,3477.732421875,12629.0322265625,2311.865478515625,16589.1640625,-5444.685546875,-4861.35498046875,-2719.561279296875,-969.5689086914062,-5672.77294921875,1537.005126953125,6962.6171875,7278.12451171875,3953.77490234375,5691.84619140625,983.8739624023438,6675.72021484375,-298.8179626464844,20120.939453125,-2397.6962890625,-0.0,-1420.9747314453125,9314.2197265625,-1605.351806640625,689.0296630859375,2156.0986328125,9241.1044921875,-5435.14892578125,3225.803466796875,-5005.9951171875,-503.85791015625,-567.4362182617188,9961.9228515625,-9953.9755859375,-9781.51953125,-5408.9228515625,-1115.7989501953125,147.02479553222656,-5079.9052734375,-1307.32861328125,-595.251708984375,-6744.86181640625,3939.4697265625,1387.59619140625,1441.6376953125,-5033.81103515625,1535.4156494140625,0.0,-2470.81103515625,0.0,-2133.84619140625,-0.0,-410.0799560546875
-9400.8447265625,-8471.806640625,-4196.1669921875,1968.5428466796875,3096.2626953125,20260.015625,-1667.340576171875,3133.61474609375,-2044.8367919921875,4935.2646484375,-7323.423828125,-4227.16162109375,-4714.330078125,3725.687744140625,872.6119995117188,-3812.31298828125,490.3475646972656,3686.745849609375,5324.681640625,17013.55078125,3464.221923828125,12614.7265625,2298.35498046875,16575.654296875,-5458.1962890625,-4874.07080078125,-2733.866455078125,-987.84765625,-5683.10400390625,1517.931640625,6949.10693359375,7266.998046875,3937.880126953125,5678.33544921875,969.5689086914062,6662.2099609375,-313.91778564453125,20108.22265625,-2439.02197265625,-0.0,-1437.6640625,9299.119140625,-1620.4515380859375,673.9298706054688,2142.58837890625,9230.7734375,-5447.06982421875,3206.72998046875,-5019.505859375,-518.957763671875,-583.330810546875,9950.796875,-9992.123046875,-9801.3876953125,-5417.6650390625,-1134.07763671875,128.74603271484375,-5075.13671875,-1329.5809326171875,-611.9410400390625,-6759.16650390625,3925.164794921875,1378.059326171875,1434.485107421875,-5039.3740234375,1517.136962890625,0.0,-2480.347900390625,0.0,-2151.330322265625,-0.0,-421.2061462402344
-9416.7392578125,-8458.296875,-4201.73046875,1955.8270263671875,3090.699462890625,20255.248046875,-1668.9300537109375,3133.61474609375,-2036.8892822265625,4940.82763671875,-7331.37109375,-4231.9296875,-4697.64111328125,3747.93994140625,854.333251953125,-3817.08154296875,483.1949768066406,3684.36181640625,5323.091796875,17021.498046875,3461.043212890625,12609.958984375,2295.17626953125,16573.271484375,-5462.16943359375,-4882.8125,-2740.22412109375,-997.3843994140625,-5683.89892578125,1512.3685302734375,6944.33837890625,7260.640625,3933.906494140625,5672.77294921875,965.59521484375,6657.44140625,-317.0967102050781,20106.634765625,-2437.4326171875,-0.0,-1443.2271728515625,9292.76171875,-1625.219970703125,669.1614990234375,2141.79345703125,9231.5673828125,-5435.943359375,3194.80908203125,-5030.6318359375,-521.3419799804688,-600.0200805664062,9947.6171875,-10019.9384765625,-9804.56640625,-5420.84375,-1138.8460693359375,123.9776611328125,-5079.9052734375,-1325.6072998046875,-607.1726684570312,-6764.72998046875,3921.190673828125,1379.6488037109375,1444.816650390625,-5048.91064453125,1509.1895751953125,0.0,-2469.221923828125,0.0,-2144.177734375,-0.0,-414.0535888671875
-9508.927734375,-8458.296875,-4192.98779296875,1954.2376708984375,3088.315185546875,20257.630859375,-1670.51953125,3133.61474609375,-2031.3262939453125,4944.80126953125,-7349.64990234375,-4228.75048828125,-4715.91943359375,3759.06640625,848.7701416015625,-3823.439453125,480.0160827636719,3681.9775390625,5323.88671875,17026.265625,3459.45361328125,12609.958984375,2290.407958984375,16572.474609375,-5458.1962890625,-4885.19677734375,-2752.93994140625,-994.2054443359375,-5691.05126953125,1516.3421630859375,6942.7490234375,7252.693359375,3933.906494140625,5670.388671875,962.4163208007812,6657.44140625,-317.8914489746094,20107.427734375,-2418.359130859375,-0.0,-1440.843017578125,9292.76171875,-1629.193603515625,671.545654296875,2141.79345703125,9232.361328125,-5442.30126953125,3194.014404296875,-5040.9638671875,-516.5736083984375,-607.9674072265625,9946.0283203125,-10033.4482421875,-9798.208984375,-5427.99609375,-1126.1304931640625,108.87781524658203,-5079.9052734375,-1320.044189453125,-606.3779296875,-6770.29296875,3921.190673828125,1382.032958984375,1450.3797607421875,-5050.50048828125,1510.779052734375,0.0,-2477.963623046875,0.0,-2142.58837890625,-0.0,-413.2588806152344
-9435.8125,-8461.4755859375,-4165.17236328125,1974.9005126953125,3110.56787109375,20275.115234375,-1653.8302001953125,3149.509521484375,-2020.994873046875,4953.54296875,-7342.49755859375,-4215.240234375,-4721.48291015625,3754.2978515625,860.6910400390625,-3802.7763671875,499.8843078613281,3701.845947265625,5340.576171875,17038.98046875,3480.9111328125,12628.2373046875,2305.507568359375,16589.9609375,-5417.6650390625,-4869.30224609375,-2742.6083984375,-976.721435546875,-5679.13037109375,1535.4156494140625,6963.41162109375,7269.38232421875,3957.74853515625,5688.66748046875,981.4898071289062,6675.72021484375,-302.7915954589844,20122.52734375,-2412.00146484375,-0.0,-1414.616943359375,9310.2451171875,-1612.50439453125,688.2349853515625,2156.8935546875,9246.6669921875,-5408.12841796875,3214.677001953125,-5017.916015625,-500.67901611328125,-593.6622314453125,9967.486328125,-10011.1962890625,-9774.3671875,-5414.48583984375,-1112.6199951171875,111.26200103759766,-5067.189453125,-1301.765380859375,-600.0200805664062,-6771.88232421875,3938.6748046875,1396.338134765625,1455.1480712890625,-5028.248046875,1521.9052734375,0.0,-2476.374267578125,0.0,-2144.97265625,-0.0,-411.6694030761719
-9375.4130859375,-8455.1171875,-4161.99365234375,1976.489990234375,3114.541259765625,20275.115234375,-1650.6513671875,3146.33056640625,-2024.1737060546875,4951.9541015625,-7319.4501953125,-4210.47216796875,-4669.8251953125,3740.78759765625,873.40673828125,-3801.981689453125,504.6526794433594,3702.640625,5342.16552734375,17038.1875,3483.29541015625,12630.6220703125,2309.4814453125,16592.34375,-5409.7177734375,-4869.30224609375,-2732.27685546875,-976.721435546875,-5659.26220703125,1537.005126953125,6965.7958984375,7276.53515625,3957.74853515625,5691.84619140625,984.668701171875,6676.51513671875,-299.6126708984375,20121.732421875,-2408.027587890625,-0.0,-1410.6431884765625,9311.0400390625,-1608.5306396484375,689.0296630859375,2159.277587890625,9245.8720703125,-5389.84912109375,3217.856201171875,-5016.3271484375,-501.4737243652344,-581.7413330078125,9961.9228515625,-10003.2490234375,-9765.625,-5396.20751953125,-1114.20947265625,138.28277587890625,-5070.3681640625,-1301.765380859375,-600.0200805664062,-6750.4248046875,3939.4697265625,1397.1328125,1446.406005859375,-5020.30029296875,1526.6737060546875,0.0,-2478.758544921875,0.0,-2144.177734375,-0.0,-420.41143798828125
-9402.4345703125,-8438.427734375,-4144.509765625,1989.20556640625,3132.025390625,20291.009765625,-1635.551513671875,3164.609130859375,-2017.8157958984375,4961.49072265625,-7291.63525390625,-4193.78271484375,-4661.8779296875,3745.555908203125,889.30126953125,-3761.450439453125,517.3682861328125,3714.5615234375,5355.67626953125,17045.33984375,3498.395263671875,12643.3369140625,2324.5810546875,16607.443359375,-5404.154296875,-4852.61279296875,-2708.43505859375,-952.0848388671875,-5630.65185546875,1548.13134765625,6978.51171875,7291.63525390625,3972.053466796875,5705.3564453125,999.7686157226562,6690.025390625,-285.30755615234375,20139.216796875,-2397.6962890625,-0.0,-1396.338134765625,9327.7294921875,-1590.251953125,707.3084716796875,2171.198486328125,9260.177734375,-5364.41796875,3230.57177734375,-4989.30615234375,-491.9369812011719,-565.8467407226562,9984.9697265625,-9998.48046875,-9753.7041015625,-5366.00732421875,-1099.9044189453125,164.50881958007812,-5065.60009765625,-1293.0234375,-588.8939208984375,-6731.3515625,3952.18505859375,1409.8485107421875,1449.5849609375,-4992.48486328125,1540.18408203125,0.0,-2470.0166015625,0.0,-2132.2568359375,-0.0,-406.9010314941406
-9419.1240234375,-8441.607421875,-4142.919921875,1993.1793212890625,3137.58837890625,20291.8046875,-1629.193603515625,3166.19873046875,-2013.84228515625,4963.875,-7295.6083984375,-4191.3984375,-4707.97216796875,3751.118896484375,906.7853393554688,-3778.139892578125,522.13671875,3720.12451171875,5361.23876953125,17041.365234375,3503.16357421875,12648.900390625,2328.554931640625,16610.623046875,-5404.94921875,-4839.89697265625,-2699.69287109375,-952.8795776367188,-5642.57275390625,1546.5418701171875,6984.0751953125,7299.58203125,3974.437744140625,5711.71435546875,1005.3316650390625,6693.9990234375,-277.36029052734375,20144.78125,-2373.0595703125,-0.0,-1391.5697021484375,9335.6767578125,-1582.3045654296875,708.8978881835938,2178.35107421875,9264.1513671875,-5341.37109375,3233.75048828125,-4976.5908203125,-502.26849365234375,-548.3627319335938,9984.17578125,-9996.0966796875,-9752.1142578125,-5377.92822265625,-1112.6199951171875,148.61424255371094,-5071.9580078125,-1277.923583984375,-583.330810546875,-6722.60888671875,3957.74853515625,1412.2327880859375,1449.5849609375,-4992.48486328125,1544.952392578125,0.0,-2454.121826171875,0.0,-2125.104248046875,-0.0,-394.9801025390625
-9433.4287109375,-8491.67578125,-4170.73583984375,1966.1585693359375,3104.2099609375,20263.1953125,-1663.366943359375,3135.9990234375,-2048.810302734375,4933.67529296875,-7333.75537109375,-4218.41943359375,-4746.119140625,3728.072021484375,859.1016235351562,-3834.5654296875,491.9369812011719,3690.7197265625,5330.24462890625,17009.576171875,3473.7587890625,12620.2900390625,2297.560546875,16579.62890625,-5443.09619140625,-4870.8916015625,-2740.22412109375,-990.2318725585938,-5683.10400390625,1512.3685302734375,6955.46484375,7266.20361328125,3945.03271484375,5684.69384765625,973.5425415039062,6663.00439453125,-313.1230773925781,20114.580078125,-2419.948486328125,-0.0,-1424.1536865234375,9308.6552734375,-1617.272705078125,677.9035034179688,2141.79345703125,9236.3359375,-5385.0810546875,3204.345703125,-5013.94287109375,-518.957763671875,-596.0464477539062,9947.6171875,-9998.48046875,-9785.4931640625,-5420.84375,-1127.7198486328125,92.98324584960938,-5103.7470703125,-1322.4283447265625,-607.9674072265625,-6752.80908203125,3926.75390625,1382.032958984375,1433.6904296875,-5029.04248046875,1516.3421630859375,0.0,-2471.60595703125,0.0,-2142.58837890625,-0.0,-413.2588806152344
-9422.302734375,-8478.958984375,-4155.6357421875,1988.410888671875,3118.51513671875,20286.2421875,-1649.8565673828125,3159.8408203125,-2032.915771484375,4955.92724609375,-7328.1923828125,-4195.3720703125,-4722.27734375,3749.529541015625,863.0752563476562,-3794.8291015625,511.0104675292969,3708.20361328125,5345.3447265625,17034.212890625,3492.03759765625,12638.5693359375,2311.865478515625,16599.49609375,-5422.43359375,-4858.970703125,-2732.27685546875,-964.800537109375,-5679.92529296875,1533.826171875,6973.74365234375,7281.30322265625,3964.90087890625,5702.177734375,991.0265502929688,6682.87255859375,-298.8179626464844,20132.859375,-2396.106689453125,-0.0,-1407.46435546875,9323.755859375,-1605.351806640625,700.1558837890625,2154.50927734375,9256.9990234375,-5424.8173828125,3228.982177734375,-5008.37939453125,-483.1949768066406,-592.8675537109375,9975.43359375,-9966.69140625,-9767.21484375,-5417.6650390625,-1088.7781982421875,107.28836059570312,-5077.52099609375,-1315.2757568359375,-584.12548828125,-6732.9404296875,3945.03271484375,1399.51708984375,1463.0953369140625,-5021.09521484375,1540.978759765625,0.0,-2451.737548828125,0.0,-2120.3359375,-0.0,-389.4170227050781
-9399.2548828125,-8442.40234375,-4137.357421875,2016.2265625,3139.97265625,20306.90625,-1628.39892578125,3186.86181640625,-2003.5107421875,4986.921875,-7309.91357421875,-4173.91455078125,-4710.3564453125,3788.47119140625,880.5592651367188,-3765.424072265625,538.8259887695312,3732.04541015625,5370.77587890625,17062.029296875,3516.674072265625,12662.4111328125,2336.501953125,16624.1328125,-5387.46484375,-4848.63916015625,-2716.38232421875,-941.75341796875,-5673.5673828125,1563.2310791015625,7000.76416015625,7313.0927734375,3990.33203125,5728.40380859375,1016.4578857421875,6706.71484375,-274.9761047363281,20157.49609375,-2354.781005859375,-0.0,-1382.8277587890625,9343.6240234375,-1585.4835205078125,723.2030029296875,2179.145751953125,9284.01953125,-5409.7177734375,3256.003173828125,-4994.869140625,-463.3267822265625,-572.9993286132812,10003.2490234375,-9941.2607421875,-9737.0146484375,-5409.7177734375,-1072.0888671875,124.77238464355469,-5053.67919921875,-1290.6392822265625,-558.6942138671875,-6701.9462890625,3970.464111328125,1424.9483642578125,1498.858154296875,-5016.3271484375,1563.2310791015625,0.0,-2415.974853515625,0.0,-2090.13623046875,-0.0,-356.0384216308594
-9382.5654296875,-8412.2021484375,-4125.4365234375,2027.3525390625,3150.30419921875,20322.00390625,-1613.299072265625,3200.3720703125,-1981.2584228515625,5010.763671875,-7281.30322265625,-4161.99365234375,-4700.02490234375,3822.64453125,894.8643798828125,-3759.861083984375,555.5152587890625,3746.3505859375,5386.67041015625,17085.076171875,3530.979248046875,12679.099609375,2350.80712890625,16640.822265625,-5394.61767578125,-4831.94970703125,-2702.0771484375,-926.653564453125,-5655.28857421875,1584.6888427734375,7017.45361328125,7332.166015625,4007.021484375,5744.29833984375,1030.7630615234375,6722.60888671875,-258.28680419921875,20172.595703125,-2334.117919921875,-0.0,-1373.291015625,9359.5185546875,-1570.3836669921875,739.0975952148438,2198.21923828125,9299.9140625,-5373.15966796875,3267.924072265625,-4982.1533203125,-449.8163757324219,-558.6942138671875,10013.580078125,-9914.2392578125,-9713.9677734375,-5391.43896484375,-1070.4993896484375,134.3091278076172,-5042.552734375,-1276.3341064453125,-539.6207275390625,-6703.53564453125,3984.769287109375,1443.2271728515625,1525.0841064453125,-5006.7900390625,1572.767822265625,0.0,-2398.490966796875,0.0,-2068.6787109375,-0.0,-329.8123779296875
-9448.5283203125,-8414.5859375,-4137.357421875,2019.4053955078125,3139.177978515625,20312.466796875,-1618.8621826171875,3188.451171875,-1984.437255859375,5006.7900390625,-7278.12451171875,-4169.94091796875,-4688.10400390625,3823.439453125,899.6327514648438,-3774.166015625,544.3890991210938,3737.608642578125,5379.51806640625,17081.896484375,3519.05810546875,12667.9736328125,2343.654541015625,16631.28515625,-5417.6650390625,-4837.51318359375,-2705.256103515625,-939.3692016601562,-5653.69921875,1579.125732421875,7007.1220703125,7315.47705078125,3995.1005859375,5733.966796875,1018.04736328125,6712.27783203125,-265.4393615722656,20164.6484375,-2353.986083984375,-0.0,-1388.390869140625,9349.1865234375,-1577.5362548828125,727.9713745117188,2194.24560546875,9290.3779296875,-5383.49169921875,3259.9765625,-4993.27978515625,-459.3531188964844,-557.104736328125,10000.0693359375,-9938.8759765625,-9712.37890625,-5389.84912109375,-1075.267822265625,140.66696166992188,-5044.93701171875,-1274.74462890625,-545.978515625,-6709.0986328125,3975.232666015625,1434.485107421875,1521.9052734375,-4998.04833984375,1565.6153564453125,0.0,-2411.20654296875,0.0,-2075.8310546875,-0.0,-335.3754577636719
-9432.6337890625,-8445.580078125,-4175.50439453125,1988.410888671875,3106.593994140625,20282.267578125,-1648.26708984375,3159.046142578125,-2014.636962890625,4971.822265625,-7289.2509765625,-4202.52490234375,-4692.07763671875,3782.908203125,865.45947265625,-3794.8291015625,515.7788696289062,3708.20361328125,5346.93408203125,17049.3125,3488.063720703125,12636.1845703125,2311.865478515625,16597.90625,-5451.04345703125,-4866.123046875,-2734.6611328125,-966.3899536132812,-5668.00439453125,1550.5155029296875,6976.92236328125,7286.07177734375,3964.106201171875,5702.97265625,985.4635009765625,6682.078125,-295.6390380859375,20131.26953125,-2386.570068359375,-0.0,-1420.9747314453125,9316.603515625,-1610.914794921875,696.1822509765625,2166.43017578125,9256.9990234375,-5422.43359375,3228.1875,-5025.86376953125,-488.7580871582031,-588.0991821289062,9974.638671875,-9982.5859375,-9734.630859375,-5404.94921875,-1094.34130859375,124.77238464355469,-5062.42138671875,-1280.3077392578125,-581.7413330078125,-6740.88818359375,3942.6484375,1403.49072265625,1484.552978515625,-5006.7900390625,1532.2366943359375,0.0,-2450.94287109375,0.0,-2117.156982421875,-0.0,-374.3171691894531
-9392.1025390625,-8477.3701171875,-4182.65673828125,1972.516357421875,3097.85205078125,20267.16796875,-1663.366943359375,3140.767333984375,-2026.557861328125,4957.51708984375,-7309.11865234375,-4220.8037109375,-4715.12451171875,3756.68212890625,851.154296875,-3809.928955078125,503.85791015625,3693.103759765625,5331.03955078125,17035.802734375,3476.142822265625,12622.673828125,2298.35498046875,16582.01171875,-5452.6328125,-4880.42822265625,-2745.787353515625,-983.8739624023438,-5665.6201171875,1535.4156494140625,6964.20654296875,7273.35595703125,3950.595947265625,5687.87255859375,972.747802734375,6666.978515625,-309.94415283203125,20115.375,-2408.822265625,-0.0,-1428.1273193359375,9303.8876953125,-1622.0411376953125,679.492919921875,2149.740966796875,9240.3095703125,-5427.20166015625,3210.70361328125,-5028.248046875,-506.2420959472656,-605.5831909179688,9953.9755859375,-10005.6337890625,-9753.7041015625,-5401.77001953125,-1109.441162109375,106.4936294555664,-5078.31591796875,-1302.5601806640625,-590.4833374023438,-6760.755859375,3929.93310546875,1391.5697021484375,1464.684814453125,-5014.73779296875,1520.3157958984375,0.0,-2462.0693359375,0.0,-2133.051513671875,-0.0,-395.77484130859375
-9406.4072265625,-8502.80078125,-4179.4775390625,1962.9796142578125,3095.4677734375,20263.1953125,-1668.13525390625,3134.40966796875,-2026.557861328125,4958.3115234375,-7340.11328125,-4228.75048828125,-4722.27734375,3765.424072265625,852.7437744140625,-3818.6708984375,495.1159362792969,3686.745849609375,5327.06591796875,17039.775390625,3470.579833984375,12617.9052734375,2291.20263671875,16575.654296875,-5450.24853515625,-4881.22314453125,-2750.5556640625,-985.4635009765625,-5671.97802734375,1513.1632080078125,6954.669921875,7266.20361328125,3945.827392578125,5683.89892578125,966.3899536132812,6662.2099609375,-317.0967102050781,20110.607421875,-2445.3798828125,-0.0,-1429.7166748046875,9304.6826171875,-1627.6041259765625,676.3140258789062,2144.177734375,9237.1298828125,-5420.84375,3199.577392578125,-5029.04248046875,-511.80523681640625,-602.404296875,9947.6171875,-10005.6337890625,-9777.5458984375,-5407.33349609375,-1126.1304931640625,111.26200103759766,-5096.59423828125,-1316.8653564453125,-588.8939208984375,-6759.96142578125,3925.164794921875,1389.185546875,1468.658447265625,-5029.04248046875,1511.57373046875,0.0,-2461.2744140625,0.0,-2130.66748046875,-0.0,-394.9801025390625
-9421.5078125,-8487.701171875,-4172.3251953125,1975.6953125,3097.85205078125,20271.142578125,-1662.572265625,3143.9462890625,-2017.8157958984375,4964.669921875,-7323.423828125,-4217.62451171875,-4716.71435546875,3783.702880859375,851.9490356445312,-3801.186767578125,504.6526794433594,3693.8984375,5334.21826171875,17046.1328125,3476.9375,12626.6484375,2295.970947265625,16583.6015625,-5445.48046875,-4870.0966796875,-2745.787353515625,-980.6951293945312,-5674.3623046875,1510.779052734375,6962.6171875,7281.30322265625,3953.77490234375,5691.05126953125,973.5425415039062,6670.95166015625,-312.3283386230469,20118.5546875,-2429.4853515625,-0.0,-1423.35888671875,9313.423828125,-1623.6304931640625,683.4666137695312,2148.1513671875,9246.6669921875,-5408.12841796875,3214.677001953125,-5027.453125,-503.85791015625,-602.404296875,9957.154296875,-9972.2548828125,-9780.724609375,-5410.51220703125,-1139.640869140625,114.44091796875,-5064.0107421875,-1315.2757568359375,-579.357177734375,-6739.29833984375,3932.317138671875,1394.7486572265625,1477.400390625,-5021.09521484375,1517.931640625,0.0,-2448.558837890625,0.0,-2120.3359375,-0.0,-383.8539123535156
-9433.4287109375,-8478.1650390625,-4163.58349609375,1988.410888671875,3106.593994140625,20274.3203125,-1661.7774658203125,3147.125244140625,-2029.73681640625,4959.9013671875,-7307.529296875,-4211.26708984375,-4717.5087890625,3760.65576171875,855.9227294921875,-3798.802734375,511.80523681640625,3700.25634765625,5336.6025390625,17034.212890625,3484.885009765625,12631.416015625,2301.533935546875,16588.369140625,-5430.38037109375,-4863.7392578125,-2738.634765625,-979.1055908203125,-5671.97802734375,1525.0841064453125,6971.359375,7286.86669921875,3964.106201171875,5697.4091796875,978.3109130859375,6676.51513671875,-309.94415283203125,20120.939453125,-2395.31201171875,-0.0,-1413.0274658203125,9315.80859375,-1618.0673828125,685.8507690429688,2148.946044921875,9248.2568359375,-5407.33349609375,3227.392822265625,-5017.916015625,-500.67901611328125,-597.6359252929688,9959.5380859375,-9976.2275390625,-9768.8037109375,-5409.7177734375,-1112.6199951171875,117.61983489990234,-5064.0107421875,-1302.5601806640625,-575.3834838867188,-6749.6298828125,3937.085693359375,1393.1593017578125,1471.83740234375,-5019.505859375,1517.931640625,0.0,-2442.995849609375,0.0,-2115.5673828125,-0.0,-382.26446533203125
-9415.9443359375,-8466.244140625,-4160.404296875,1998.7423095703125,3108.18359375,20283.857421875,-1657.0091552734375,3156.662109375,-2028.1474609375,4975.0009765625,-7302.76123046875,-4193.78271484375,-4715.91943359375,3766.218994140625,855.1279907226562,-3782.11328125,518.1630249023438,3706.6142578125,5344.5498046875,17042.955078125,3490.447998046875,12638.5693359375,2308.6865234375,16597.90625,-5430.38037109375,-4857.38134765625,-2741.813720703125,-964.0057983398438,-5671.97802734375,1545.7471923828125,6978.51171875,7292.4296875,3968.87451171875,5706.1513671875,984.668701171875,6683.66748046875,-306.7652282714844,20129.6796875,-2383.39111328125,-0.0,-1412.2327880859375,9322.166015625,-1614.8885498046875,697.771728515625,2150.53564453125,9258.587890625,-5407.33349609375,3239.313720703125,-5021.09521484375,-487.9633483886719,-600.0200805664062,9973.84375,-9976.2275390625,-9748.935546875,-5408.9228515625,-1077.6519775390625,108.87781524658203,-5058.447265625,-1315.2757568359375,-568.23095703125,-6745.65625,3941.05908203125,1401.1064453125,1490.1160888671875,-5013.14794921875,1538.5946044921875,0.0,-2433.458984375,0.0,-2102.05712890625,-0.0,-364.7804260253906
-9392.8974609375,-8457.5009765625,-4161.99365234375,2008.279052734375,3113.74658203125,20294.189453125,-1643.498779296875,3173.351318359375,-2005.1002197265625,4992.48486328125,-7294.01904296875,-4178.6826171875,-4709.56201171875,3801.186767578125,865.45947265625,-3765.424072265625,526.1103515625,3715.356201171875,5356.470703125,17067.58984375,3495.21630859375,12648.10546875,2320.607421875,16608.23828125,-5433.5595703125,-4849.43408203125,-2732.27685546875,-948.1112060546875,-5668.798828125,1560.05224609375,6987.25390625,7299.58203125,3974.437744140625,5713.30419921875,992.6160278320312,6693.9990234375,-293.2548522949219,20143.189453125,-2377.033203125,-0.0,-1410.6431884765625,9331.703125,-1608.5306396484375,711.2821044921875,2165.63525390625,9273.6884765625,-5394.61767578125,3249.645263671875,-5017.12158203125,-481.60552978515625,-589.6885986328125,9990.533203125,-9957.154296875,-9725.09375,-5403.35986328125,-1064.1416015625,120.00402069091797,-5037.78466796875,-1310.5074462890625,-560.28369140625,-6721.814453125,3952.18505859375,1418.590576171875,1508.3948974609375,-5005.20068359375,1556.873291015625,0.0,-2425.51171875,0.0,-2090.930908203125,-0.0,-348.8858642578125
-9397.666015625,-8462.26953125,-4159.609375,2011.4581298828125,3118.51513671875,20300.546875,-1633.9620361328125,3180.50390625,-1997.94775390625,4994.07421875,-7297.99267578125,-4172.3251953125,-4710.3564453125,3805.16064453125,877.38037109375,-3757.476806640625,530.8787231445312,3722.5087890625,5364.41796875,17069.181640625,3499.98486328125,12653.66796875,2326.170654296875,16614.595703125,-5430.38037109375,-4846.2548828125,-2721.150634765625,-940.1639404296875,-5664.8251953125,1564.8206787109375,6991.2275390625,7304.3505859375,3978.4111328125,5718.072265625,1000.5632934570312,6698.76708984375,-283.7181091308594,20151.138671875,-2374.64892578125,-0.0,-1405.8748779296875,9336.4716796875,-1599.7886962890625,717.639892578125,2175.172119140625,9280.0458984375,-5393.0283203125,3252.823974609375,-5009.96923828125,-483.9897155761719,-576.9729614257812,10000.865234375,-9963.5126953125,-9709.994140625,-5397.001953125,-1063.346923828125,126.36184692382812,-5029.04248046875,-1294.6129150390625,-557.104736328125,-6715.45654296875,3961.721923828125,1424.1536865234375,1506.805419921875,-5007.5849609375,1559.257568359375,0.0,-2417.564453125,0.0,-2091.7255859375,-0.0,-348.09112548828125
-9431.044921875,-8463.0654296875,-4151.662109375,2013.0474853515625,3127.257080078125,20304.521484375,-1625.219970703125,3188.451171875,-1993.1793212890625,4992.48486328125,-7310.70849609375,-4169.14599609375,-4696.84619140625,3805.955078125,894.0697021484375,-3752.70849609375,533.2628784179688,3728.86669921875,5370.77587890625,17070.76953125,3505.5478515625,12660.0263671875,2333.3232421875,16621.748046875,-5415.28076171875,-4845.46044921875,-2708.43505859375,-936.1903076171875,-5664.8251953125,1567.204833984375,6994.40625,7306.734375,3983.1796875,5721.2509765625,1006.921142578125,6705.12548828125,-273.3866271972656,20159.87890625,-2368.291259765625,-0.0,-1399.51708984375,9339.650390625,-1588.6624755859375,723.2030029296875,2182.32470703125,9287.1982421875,-5389.0546875,3252.029296875,-4998.04833984375,-460.9425964355469,-562.6678466796875,10006.427734375,-9989.73828125,-9709.19921875,-5399.3857421875,-1060.16796875,137.48805236816406,-5020.30029296875,-1287.4603271484375,-542.7996215820312,-6727.37744140625,3968.080078125,1429.7166748046875,1509.984375,-5011.55859375,1562.4364013671875,0.0,-2415.974853515625,0.0,-2089.34130859375,-0.0,-350.4753112792969
-9454.88671875,-8438.427734375,-4144.509765625,2019.4053955078125,3135.9990234375,20310.87890625,-1614.8885498046875,3187.656494140625,-1986.8214111328125,5001.22705078125,-7330.57666015625,-4166.76171875,-4666.646484375,3806.75,936.9849853515625,-3758.271484375,535.6470947265625,3733.635009765625,5377.1337890625,17079.51171875,3509.521484375,12664.794921875,2342.065185546875,16626.515625,-5403.35986328125,-4823.2080078125,-2691.745849609375,-936.9849853515625,-5653.69921875,1567.204833984375,6999.1748046875,7303.55615234375,3985.563720703125,5726.814453125,1012.4841918945312,6711.48291015625,-262.26043701171875,20163.85546875,-2371.47021484375,-0.0,-1392.364501953125,9349.1865234375,-1577.5362548828125,724.79248046875,2193.450927734375,9289.58203125,-5391.43896484375,3256.7978515625,-4989.30615234375,-462.53204345703125,-520.5472412109375,10002.4541015625,-10004.0439453125,-9713.1728515625,-5390.64404296875,-1069.7047119140625,170.07191467285156,-5017.916015625,-1272.3604736328125,-542.7996215820312,-6723.40380859375,3975.232666015625,1437.6640625,1517.136962890625,-5008.37939453125,1565.6153564453125,0.0,-2412.7958984375,0.0,-2083.7783203125,-0.0,-344.9122009277344
-9460.44921875,-8450.3486328125,-4158.02001953125,1999.5372314453125,3119.3095703125,20293.39453125,-1630.7830810546875,3172.556640625,-2002.716064453125,4981.35888671875,-7369.51806640625,-4181.86181640625,-4679.36181640625,3783.702880859375,917.1168212890625,-3781.318603515625,516.5736083984375,3716.15087890625,5361.23876953125,17063.6171875,3492.832275390625,12646.515625,2325.375732421875,16609.826171875,-5412.1015625,-4837.51318359375,-2713.203369140625,-951.2901611328125,-5662.44140625,1546.5418701171875,6980.89599609375,7284.482421875,3967.28515625,5706.94580078125,995.000244140625,6693.20458984375,-280.5391845703125,20145.57421875,-2410.411865234375,-0.0,-1405.8748779296875,9330.11328125,-1595.8150634765625,708.8978881835938,2180.7353515625,9274.482421875,-5406.53857421875,3240.1083984375,-5007.5849609375,-478.4266052246094,-538.03125,9986.5595703125,-10006.427734375,-9729.8623046875,-5399.3857421875,-1091.162353515625,154.97207641601562,-5049.70556640625,-1277.1287841796875,-563.4625854492188,-6740.88818359375,3956.1591796875,1422.564208984375,1489.3214111328125,-5028.248046875,1552.899658203125,0.0,-2439.02197265625,0.0,-2108.414794921875,-0.0,-367.9593505859375
-9481.9072265625,-8477.3701171875,-4152.45654296875,1984.437255859375,3109.77294921875,20278.294921875,-1648.26708984375,3161.430419921875,-2020.2000732421875,4959.9013671875,-7384.6181640625,-4203.3193359375,-4699.22998046875,3769.397705078125,880.5592651367188,-3782.908203125,503.85791015625,3700.25634765625,5345.3447265625,17039.775390625,3483.29541015625,12629.826171875,2309.4814453125,16594.728515625,-5407.33349609375,-4853.4072265625,-2733.866455078125,-957.64794921875,-5682.3095703125,1527.4683837890625,6965.00146484375,7270.9716796875,3957.74853515625,5691.05126953125,980.6951293945312,6677.3095703125,-297.2284851074219,20130.4765625,-2441.40625,-0.0,-1409.8485107421875,9314.2197265625,-1612.50439453125,696.9769897460938,2165.63525390625,9257.79296875,-5390.64404296875,3227.392822265625,-5023.4794921875,-491.9369812011719,-572.9993286132812,9978.6123046875,-10054.90625,-9745.7568359375,-5420.84375,-1096.7254638671875,119.20928955078125,-5066.39501953125,-1265.2078857421875,-582.5360717773438,-6758.3720703125,3937.880126953125,1405.0802001953125,1465.4794921875,-5040.9638671875,1540.978759765625,0.0,-2459.68505859375,0.0,-2129.077880859375,-0.0,-391.80120849609375
-9473.9599609375,-8508.3642578125,-4138.9462890625,1986.0267333984375,3112.951904296875,20265.580078125,-1657.0091552734375,3144.740966796875,-2014.636962890625,4963.080078125,-7352.0341796875,-4206.49853515625,-4715.91943359375,3777.344970703125,856.7174072265625,-3801.186767578125,502.26849365234375,3693.8984375,5336.6025390625,17039.775390625,3485.6796875,12625.853515625,2303.918212890625,16584.396484375,-5404.94921875,-4865.328125,-2737.04541015625,-980.6951293945312,-5679.13037109375,1521.9052734375,6965.00146484375,7273.35595703125,3958.543212890625,5691.05126953125,979.1055908203125,6669.3623046875,-304.38104248046875,20117.759765625,-2433.458984375,-0.0,-1403.49072265625,9309.451171875,-1614.8885498046875,680.2876586914062,2155.303955078125,9241.8984375,-5355.67626953125,3228.982177734375,-5017.12158203125,-514.1893920898438,-597.6359252929688,9961.1279296875,-10053.3173828125,-9755.2939453125,-5415.28076171875,-1103.8780517578125,112.8514633178711,-5058.447265625,-1293.818115234375,-618.298828125,-6752.80908203125,3929.93310546875,1397.1328125,1472.632080078125,-5039.3740234375,1529.057861328125,0.0,-2456.506103515625,0.0,-2129.87255859375,-0.0,-387.0328369140625
-9438.9912109375,-8506.775390625,-4148.4833984375,1994.768798828125,3116.130859375,20263.990234375,-1655.419677734375,3150.30419921875,-2005.1002197265625,4975.7958984375,-7325.80810546875,-4192.98779296875,-4731.81396484375,3801.981689453125,855.9227294921875,-3799.597412109375,508.62628173828125,3697.8720703125,5338.98681640625,17057.259765625,3487.26904296875,12631.416015625,2306.30224609375,16587.576171875,-5420.84375,-4869.30224609375,-2737.04541015625,-978.3109130859375,-5672.77294921875,1529.8525390625,6968.18017578125,7281.30322265625,3961.721923828125,5696.61474609375,983.8739624023438,6673.3359375,-301.2021484375,20124.1171875,-2394.51708984375,-0.0,-1406.669677734375,9313.423828125,-1613.299072265625,681.8771362304688,2159.277587890625,9251.435546875,-5365.212890625,3233.75048828125,-5009.96923828125,-514.1893920898438,-599.225341796875,9963.5126953125,-10001.6591796875,-9762.4462890625,-5407.33349609375,-1107.8516845703125,113.64618682861328,-5050.50048828125,-1310.5074462890625,-584.9202270507812,-6736.9140625,3933.906494140625,1406.669677734375,1485.3477783203125,-5023.4794921875,1533.826171875,0.0,-2446.96923828125,0.0,-2120.3359375,-0.0,-381.4697265625
-9469.986328125,-8501.2119140625,-4179.4775390625,1974.9005126953125,3096.2626953125,20256.04296875,-1672.1090087890625,3133.61474609375,-2034.505126953125,4951.9541015625,-7321.83447265625,-4207.29296875,-4723.86669921875,3745.555908203125,842.4122924804688,-3817.08154296875,499.8843078613281,3686.745849609375,5323.88671875,17026.265625,3468.195556640625,12620.2900390625,2291.997314453125,16573.271484375,-5447.86474609375,-4878.8388671875,-2750.5556640625,-987.84765625,-5675.1572265625,1513.9580078125,6955.46484375,7273.35595703125,3946.622314453125,5686.283203125,968.774169921875,6661.4150390625,-318.6861572265625,20109.8125,-2379.41748046875,-0.0,-1432.8956298828125,9303.0927734375,-1629.193603515625,671.545654296875,2140.998779296875,9233.1572265625,-5430.38037109375,3212.29296875,-5027.453125,-510.21575927734375,-613.5304565429688,9945.2333984375,-10030.26953125,-9785.4931640625,-5411.306640625,-1122.15673828125,113.64618682861328,-5067.98388671875,-1316.8653564453125,-590.4833374023438,-6744.06689453125,3919.6015625,1385.2119140625,1443.2271728515625,-5025.86376953125,1520.3157958984375,0.0,-2458.89013671875,0.0,-2128.283203125,-0.0,-402.9273986816406
-9507.3388671875,-8510.7490234375,-4190.603515625,1962.9796142578125,3081.95751953125,20247.30078125,-1679.2615966796875,3121.69384765625,-2053.57861328125,4936.85400390625,-7310.70849609375,-4223.982421875,-4710.3564453125,3727.277099609375,843.20703125,-3821.849853515625,489.55279541015625,3675.619873046875,5314.35009765625,17007.986328125,3455.47998046875,12609.958984375,2280.076171875,16562.939453125,-5477.26953125,-4893.14404296875,-2759.297607421875,-998.1790771484375,-5675.1572265625,1506.805419921875,6945.92822265625,7265.4091796875,3938.6748046875,5675.1572265625,955.2637939453125,6651.08349609375,-326.6334533691406,20098.685546875,-2396.9013671875,-0.0,-1451.1744384765625,9290.3779296875,-1639.5250244140625,660.41943359375,2129.077880859375,9221.236328125,-5433.5595703125,3202.756103515625,-5044.93701171875,-519.7525024414062,-611.1463012695312,9938.0810546875,-10027.0908203125,-9796.619140625,-5411.306640625,-1122.15673828125,111.26200103759766,-5077.52099609375,-1332.7598876953125,-607.9674072265625,-6761.55078125,3909.269775390625,1371.7015380859375,1438.458740234375,-5028.248046875,1504.4212646484375,0.0,-2467.63232421875,0.0,-2137.025146484375,-0.0,-406.9010314941406
-9506.54296875,-8537.76953125,-4191.3984375,1958.211181640625,3076.394287109375,20232.99609375,-1692.77197265625,3108.978271484375,-2074.24169921875,4917.7802734375,-7325.80810546875,-4241.46630859375,-4727.04541015625,3704.22998046875,828.107177734375,-3829.00244140625,476.837158203125,3662.904052734375,5300.044921875,16987.32421875,3448.327392578125,12597.2431640625,2267.360595703125,16549.4296875,-5472.50146484375,-4905.859375,-2765.655517578125,-1007.7158203125,-5687.078125,1497.2686767578125,6933.21240234375,7254.28271484375,3928.34326171875,5662.44140625,943.3428344726562,6638.3681640625,-340.9385681152344,20084.380859375,-2417.564453125,-0.0,-1454.353271484375,9277.6611328125,-1649.061767578125,646.1143798828125,2110.00439453125,9204.546875,-5420.04931640625,3199.577392578125,-5045.73193359375,-542.0048828125,-625.451416015625,9926.955078125,-10011.1962890625,-9793.4404296875,-5422.43359375,-1139.640869140625,108.08309173583984,-5084.67333984375,-1360.5753173828125,-627.8355712890625,-6783.0087890625,3894.96484375,1355.8070068359375,1417.7957763671875,-5050.50048828125,1489.3214111328125,0.0,-2492.268798828125,0.0,-2157.688232421875,-0.0,-425.9745178222656
-9444.5546875,-8509.1591796875,-4188.2197265625,1964.569091796875,3083.546875,20240.94140625,-1689.593017578125,3116.130859375,-2067.8837890625,4921.75439453125,-7336.9345703125,-4234.31396484375,-4732.60888671875,3711.382568359375,824.9282836914062,-3832.18115234375,483.1949768066406,3668.46728515625,5303.22412109375,16992.88671875,3453.890625,12603.6005859375,2271.33447265625,16554.990234375,-5459.78564453125,-4891.55419921875,-2762.4765625,-998.1790771484375,-5689.46240234375,1498.858154296875,6937.98046875,7261.43505859375,3932.317138671875,5668.00439453125,948.9059448242188,6645.5205078125,-338.55438232421875,20087.560546875,-2404.848876953125,-0.0,-1446.406005859375,9287.9931640625,-1644.29345703125,653.2669067382812,2113.97802734375,9211.69921875,-5420.84375,3205.140380859375,-5037.78466796875,-534.8523559570312,-629.425048828125,9934.90234375,-10003.2490234375,-9780.724609375,-5426.40673828125,-1150.7669677734375,104.10944366455078,-5092.62109375,-1355.0123291015625,-626.2461547851562,-6782.2138671875,3900.52783203125,1359.7806396484375,1424.1536865234375,-5052.884765625,1498.858154296875,0.0,-2481.9375,0.0,-2156.0986328125,-0.0,-422.0008850097656
-9431.8388671875,-8479.7548828125,-4182.65673828125,1981.2584228515625,3100.236083984375,20264.783203125,-1671.314208984375,3131.230712890625,-2046.426025390625,4940.82763671875,-7326.60302734375,-4212.0615234375,-4719.89306640625,3728.86669921875,859.8963623046875,-3814.697265625,501.4737243652344,3686.745849609375,5319.91357421875,17014.345703125,3469.784912109375,12625.05859375,2288.818359375,16572.474609375,-5447.06982421875,-4844.66552734375,-2742.6083984375,-991.0265502929688,-5680.7197265625,1502.037109375,6958.6435546875,7278.91943359375,3945.827392578125,5688.66748046875,965.59521484375,6667.77294921875,-318.6861572265625,20102.66015625,-2379.41748046875,-0.0,-1433.6904296875,9322.9609375,-1625.219970703125,667.572021484375,2137.025146484375,9227.59375,-5424.0224609375,3216.2666015625,-5022.6845703125,-528.4945068359375,-594.4569702148438,9948.4130859375,-9996.0966796875,-9770.3935546875,-5416.8701171875,-1136.4619140625,114.44091796875,-5052.08984375,-1325.6072998046875,-607.9674072265625,-6746.45068359375,3918.01220703125,1379.6488037109375,1446.406005859375,-5029.04248046875,1513.9580078125,0.0,-2458.89013671875,0.0,-2137.025146484375,-0.0,-405.31158447265625
-9486.6748046875,-8482.9326171875,-4169.94091796875,2001.1265869140625,3108.978271484375,20265.580078125,-1664.9564208984375,3131.230712890625,-2043.2471923828125,4939.23828125,-7317.06640625,-4204.1142578125,-4723.072265625,3728.072021484375,863.8699951171875,-3809.13427734375,507.8315734863281,3693.103759765625,5324.681640625,17016.728515625,3478.527099609375,12632.2109375,2294.38134765625,16575.654296875,-5445.48046875,-4845.46044921875,-2733.071533203125,-997.3843994140625,-5675.95166015625,1504.4212646484375,6965.00146484375,7282.09814453125,3956.95361328125,5698.2041015625,973.5425415039062,6670.15673828125,-313.91778564453125,20106.634765625,-2381.0068359375,-0.0,-1423.35888671875,9325.3447265625,-1618.0673828125,668.3667602539062,2141.79345703125,9227.59375,-5412.896484375,3240.903076171875,-5016.3271484375,-514.984130859375,-590.4833374023438,9949.20703125,-10002.4541015625,-9766.4189453125,-5412.1015625,-1118.18310546875,117.61983489990234,-5040.1689453125,-1319.24951171875,-616.7094116210938,-6719.4306640625,3922.780517578125,1382.032958984375,1441.6376953125,-5021.89013671875,1521.110595703125,0.0,-2463.65869140625,0.0,-2144.97265625,-0.0,-410.0799560546875
-9463.6279296875,-8463.859375,-4165.17236328125,2026.557861328125,3115.336181640625,20271.142578125,-1657.0091552734375,3143.9462890625,-2035.300048828125,4948.77490234375,-7304.3505859375,-4197.75634765625,-4707.97216796875,3733.635009765625,860.6910400390625,-3804.365966796875,517.3682861328125,3701.051025390625,5333.423828125,17026.265625,3486.474365234375,12640.158203125,2303.918212890625,16587.576171875,-5441.5068359375,-4864.53369140625,-2728.30322265625,-979.900390625,-5669.59375,1527.4683837890625,6973.74365234375,7294.01904296875,3966.490234375,5706.94580078125,983.0792846679688,6681.28369140625,-305.17578125,20118.5546875,-2392.927978515625,-0.0,-1415.41162109375,9322.9609375,-1609.325439453125,682.671875,2148.946044921875,9241.1044921875,-5413.69091796875,3270.308349609375,-5010.763671875,-500.67901611328125,-595.251708984375,9964.306640625,-9969.0751953125,-9758.47265625,-5403.35986328125,-1090.36767578125,124.77238464355469,-5035.400390625,-1311.30224609375,-607.1726684570312,-6741.6826171875,3936.290771484375,1390.7750244140625,1439.25341796875,-5015.5322265625,1535.4156494140625,0.0,-2459.68505859375,0.0,-2143.383056640625,-0.0,-404.516845703125
-9416.7392578125,-8459.0908203125,-4178.6826171875,2018.6107177734375,3109.77294921875,20274.3203125,-1658.5985107421875,3146.33056640625,-2034.505126953125,4959.1064453125,-7292.4296875,-4198.55126953125,-4704.79345703125,3739.197998046875,851.9490356445312,-3812.31298828125,514.1893920898438,3700.25634765625,5332.62890625,17034.212890625,3480.9111328125,12638.5693359375,2302.328857421875,16589.1640625,-5451.837890625,-4868.50732421875,-2738.634765625,-976.721435546875,-5667.20947265625,1537.7998046875,6972.154296875,7294.01904296875,3959.337646484375,5703.76708984375,979.1055908203125,6682.078125,-307.5599670410156,20119.34765625,-2396.9013671875,-0.0,-1424.1536865234375,9320.5771484375,-1615.6832275390625,685.0560302734375,2145.76708984375,9245.8720703125,-5431.97021484375,3260.771484375,-5017.916015625,-491.14227294921875,-603.198974609375,9959.5380859375,-9970.6650390625,-9756.087890625,-5401.77001953125,-1088.7781982421875,117.61983489990234,-5049.70556640625,-1325.6072998046875,-589.6885986328125,-6767.90869140625,3937.085693359375,1393.9539794921875,1431.3062744140625,-5015.5322265625,1529.057861328125,0.0,-2454.916748046875,0.0,-2133.84619140625,-0.0,-402.9273986816406
-9395.2822265625,-8457.5009765625,-4176.298828125,2003.5107421875,3118.51513671875,20283.857421875,-1647.472412109375,3162.22509765625,-2017.021240234375,4982.9482421875,-7290.04541015625,-4193.78271484375,-4700.8193359375,3757.476806640625,873.40673828125,-3787.676513671875,511.80523681640625,3704.22998046875,5345.3447265625,17058.849609375,3485.6796875,12642.54296875,2310.276123046875,16598.701171875,-5443.09619140625,-4862.14990234375,-2726.7138671875,-963.2110595703125,-5659.26220703125,1544.952392578125,6976.12744140625,7288.4560546875,3960.927490234375,5702.97265625,986.2581787109375,6686.84619140625,-295.6390380859375,20132.859375,-2403.25927734375,-0.0,-1419.38525390625,9323.755859375,-1604.5570068359375,696.1822509765625,2160.866943359375,9264.1513671875,-5425.61181640625,3242.49267578125,-5006.7900390625,-479.2213439941406,-580.9465942382812,9979.4072265625,-9971.458984375,-9738.6044921875,-5393.8232421875,-1079.241455078125,131.92494201660156,-5045.73193359375,-1305.739013671875,-570.6151123046875,-6766.3193359375,3945.03271484375,1409.8485107421875,1442.432373046875,-5010.763671875,1529.057861328125,0.0,-2450.94287109375,0.0,-2121.130615234375,-0.0,-391.0064697265625
-9407.9970703125,-8463.0654296875,-4184.24609375,1983.642578125,3116.130859375,20277.5,-1645.088134765625,3165.404052734375,-2000.3319091796875,5005.9951171875,-7317.06640625,-4198.55126953125,-4708.76708984375,3778.139892578125,871.8172607421875,-3782.11328125,503.85791015625,3702.640625,5347.728515625,17075.5390625,3477.732421875,12634.5947265625,2309.4814453125,16597.11328125,-5439.9169921875,-4869.30224609375,-2725.9189453125,-963.2110595703125,-5668.00439453125,1542.5682373046875,6969.77001953125,7279.7138671875,3953.77490234375,5693.435546875,983.8739624023438,6679.69384765625,-291.6654052734375,20135.244140625,-2408.027587890625,-0.0,-1421.76953125,9312.6298828125,-1602.9676513671875,695.3875122070312,2169.609130859375,9268.919921875,-5432.7646484375,3223.419189453125,-5005.9951171875,-493.5264587402344,-580.9465942382812,9981.791015625,-9970.6650390625,-9732.24609375,-5402.56494140625,-1084.009765625,130.3354949951172,-5051.294921875,-1285.076171875,-565.8467407226562,-6759.96142578125,3941.85400390625,1416.206298828125,1475.0162353515625,-5022.6845703125,1522.699951171875,0.0,-2450.1484375,0.0,-2105.236083984375,-0.0,-362.396240234375
-9431.044921875,-8455.1171875,-4183.451171875,1986.8214111328125,3116.130859375,20280.6796875,-1643.498779296875,3163.019775390625,-1990.00048828125,5005.20068359375,-7314.68212890625,-4181.86181640625,-4715.12451171875,3801.981689453125,866.254150390625,-3787.676513671875,506.2420959472656,3707.408935546875,5352.4970703125,17073.94921875,3480.11669921875,12636.9794921875,2313.454833984375,16600.291015625,-5442.30126953125,-4862.14990234375,-2729.892822265625,-963.2110595703125,-5673.5673828125,1555.283935546875,6971.359375,7285.27685546875,3956.1591796875,5695.02490234375,986.2581787109375,6684.4619140625,-288.4864807128906,20137.62890625,-2404.053955078125,-0.0,-1421.76953125,9315.80859375,-1603.7623291015625,698.56640625,2174.37744140625,9267.330078125,-5420.84375,3227.392822265625,-5009.96923828125,-487.9633483886719,-586.5097045898438,9976.2275390625,-9981.791015625,-9713.9677734375,-5409.7177734375,-1076.0625,112.8514633178711,-5036.1953125,-1280.3077392578125,-560.28369140625,-6750.4248046875,3945.03271484375,1420.179931640625,1500.4476318359375,-5025.86376953125,1539.3892822265625,0.0,-2428.690673828125,0.0,-2084.572998046875,-0.0,-351.2700500488281
-9468.396484375,-8451.14453125,-4173.91455078125,1996.358154296875,3120.1044921875,20287.83203125,-1638.7303466796875,3163.019775390625,-1991.58984375,4982.1533203125,-7323.423828125,-4165.96728515625,-4705.587890625,3805.955078125,878.9698486328125,-3784.49755859375,511.80523681640625,3711.382568359375,5357.265625,17065.20703125,3486.474365234375,12642.54296875,2319.01806640625,16604.265625,-5439.9169921875,-4851.81787109375,-2725.124267578125,-957.64794921875,-5674.3623046875,1564.02587890625,6975.33251953125,7286.86669921875,3960.927490234375,5699.79345703125,991.0265502929688,6692.40966796875,-284.5128479003906,20140.013671875,-2405.6435546875,-0.0,-1417.0010986328125,9324.55078125,-1598.993896484375,704.1295166015625,2176.76171875,9262.5615234375,-5408.9228515625,3239.313720703125,-5011.55859375,-476.837158203125,-574.5887451171875,9977.0234375,-10004.0439453125,-9699.662109375,-5408.9228515625,-1065.7310791015625,120.00402069091797,-5021.89013671875,-1285.870849609375,-562.6678466796875,-6752.80908203125,3949.801025390625,1420.179931640625,1508.3948974609375,-5024.2744140625,1552.10498046875,0.0,-2419.15380859375,0.0,-2096.493896484375,-0.0,-363.9856872558594
-9465.2177734375,-8467.0380859375,-4167.556640625,1993.1793212890625,3121.69384765625,20282.267578125,-1645.088134765625,3149.509521484375,-2010.663330078125,4940.82763671875,-7344.0869140625,-4174.70947265625,-4710.3564453125,3790.060791015625,874.9962158203125,-3795.623779296875,507.8315734863281,3706.6142578125,5346.1396484375,17034.212890625,3484.885009765625,12635.390625,2313.454833984375,16596.31640625,-5432.7646484375,-4859.765625,-2721.150634765625,-966.3899536132812,-5674.3623046875,1555.283935546875,6970.564453125,7282.09814453125,3958.543212890625,5696.61474609375,988.642333984375,6685.2568359375,-293.2548522949219,20128.091796875,-2411.20654296875,-0.0,-1415.41162109375,9318.1923828125,-1602.1728515625,694.5927734375,2164.046142578125,9241.1044921875,-5408.9228515625,3235.340087890625,-5006.7900390625,-483.1949768066406,-579.357177734375,9963.5126953125,-10030.26953125,-9706.814453125,-5407.33349609375,-1076.0625,123.18293762207031,-5030.6318359375,-1303.3548583984375,-590.4833374023438,-6758.3720703125,3942.6484375,1401.1064453125,1486.9371337890625,-5025.06884765625,1544.1575927734375,0.0,-2428.690673828125,0.0,-2121.92529296875,-0.0,-384.6486511230469
-9467.6015625,-8499.6220703125,-4177.88818359375,1978.874267578125,3111.362548828125,20268.7578125,-1658.5985107421875,3135.204345703125,-2020.994873046875,4933.67529296875,-7379.05517578125,-4194.57763671875,-4716.71435546875,3770.9873046875,861.4857788085938,-3809.13427734375,491.14227294921875,3693.103759765625,5331.03955078125,17018.318359375,3472.964111328125,12622.673828125,2301.533935546875,16582.806640625,-5436.73828125,-4874.865234375,-2732.27685546875,-980.6951293945312,-5680.7197265625,1536.21044921875,6957.84912109375,7266.20361328125,3945.03271484375,5680.7197265625,974.3372802734375,6670.95166015625,-306.7652282714844,20113.787109375,-2433.458984375,-0.0,-1424.9483642578125,9303.0927734375,-1613.299072265625,679.492919921875,2151.330322265625,9226.798828125,-5431.97021484375,3220.240234375,-5014.73779296875,-498.2948303222656,-593.6622314453125,9949.20703125,-10050.1376953125,-9732.24609375,-5419.25439453125,-1103.083251953125,120.79874420166016,-5052.08984375,-1307.32861328125,-605.5831909179688,-6771.88232421875,3928.34326171875,1386.8013916015625,1459.1217041015625,-5038.57958984375,1525.87890625,0.0,-2447.76416015625,0.0,-2133.051513671875,-0.0,-397.3642883300781
-9520.8486328125,-8499.6220703125,-4166.76171875,1978.07958984375,3116.130859375,20266.375,-1660.9827880859375,3129.641357421875,-2043.2471923828125,4928.11181640625,-7372.697265625,-4202.52490234375,-4717.5087890625,3743.171630859375,867.8436279296875,-3817.876220703125,491.9369812011719,3693.103759765625,5327.06591796875,17002.423828125,3475.34814453125,12621.8798828125,2302.328857421875,16582.01171875,-5424.0224609375,-4873.27587890625,-2730.6875,-985.4635009765625,-5675.1572265625,1528.2630615234375,6958.6435546875,7264.6142578125,3946.622314453125,5679.13037109375,975.1319580078125,6669.3623046875,-308.3547058105469,20111.40234375,-2419.15380859375,-0.0,-1414.616943359375,9303.0927734375,-1611.7095947265625,676.3140258789062,2143.383056640625,9223.6201171875,-5411.306640625,3217.856201171875,-5007.5849609375,-503.0632019042969,-586.5097045898438,9947.6171875,-10042.9853515625,-9743.373046875,-5412.896484375,-1107.8516845703125,123.9776611328125,-5070.3681640625,-1315.2757568359375,-614.3251953125,-6776.65087890625,3926.75390625,1378.8541259765625,1437.6640625,-5036.1953125,1519.5211181640625,0.0,-2466.042724609375,0.0,-2143.383056640625,-0.0,-402.9273986816406
-9559.791015625,-8491.67578125,-4156.4306640625,1977.28466796875,3122.48876953125,20269.552734375,-1657.0091552734375,3128.846435546875,-2061.526123046875,4924.138671875,-7352.8291015625,-4203.3193359375,-4691.28271484375,3701.051025390625,890.8907470703125,-3825.028564453125,496.7053527832031,3694.693359375,5327.8603515625,16992.88671875,3482.500732421875,12626.6484375,2304.712890625,16582.806640625,-5414.48583984375,-4863.7392578125,-2720.35595703125,-984.668701171875,-5670.388671875,1521.9052734375,6963.41162109375,7267.79296875,3951.390625,5683.10400390625,979.900390625,6672.541015625,-305.17578125,20112.9921875,-2382.59619140625,-0.0,-1407.46435546875,9307.0673828125,-1606.941162109375,677.9035034179688,2140.2041015625,9221.236328125,-5382.69677734375,3215.471923828125,-5002.02197265625,-504.6526794433594,-565.8467407226562,9947.6171875,-10035.0380859375,-9746.5517578125,-5406.53857421875,-1108.6463623046875,149.4089813232422,-5087.8525390625,-1309.7127685546875,-616.7094116210938,-6779.82958984375,3929.13818359375,1374.0858154296875,1413.8221435546875,-5036.1953125,1514.752685546875,0.0,-2474.784912109375,0.0,-2149.740966796875,-0.0,-414.84832763671875
-9543.1015625,-8509.1591796875,-4174.70947265625,1966.1585693359375,3108.978271484375,20259.22265625,-1665.7510986328125,3122.48876953125,-2058.346923828125,4940.82763671875,-7345.67626953125,-4220.0087890625,-4703.20361328125,3708.99853515625,875.7908935546875,-3827.412841796875,486.3739013671875,3682.7724609375,5319.11865234375,17007.986328125,3469.784912109375,12616.31640625,2292.7919921875,16573.271484375,-5433.5595703125,-4871.6865234375,-2737.04541015625,-996.5896606445312,-5682.3095703125,1504.4212646484375,6952.28564453125,7259.05078125,3941.85400390625,5673.5673828125,968.774169921875,6662.2099609375,-315.50726318359375,20103.455078125,-2392.133056640625,-0.0,-1422.564208984375,9295.9404296875,-1620.4515380859375,667.572021484375,2133.84619140625,9221.236328125,-5417.6650390625,3205.935302734375,-5019.505859375,-518.957763671875,-580.9465942382812,9940.46484375,-10025.5009765625,-9768.0087890625,-5419.25439453125,-1130.10400390625,143.0511474609375,-5093.41552734375,-1313.6864013671875,-607.1726684570312,-6790.1611328125,3918.806640625,1371.7015380859375,1428.9219970703125,-5049.70556640625,1498.858154296875,0.0,-2480.347900390625,0.0,-2144.97265625,-0.0,-401.33795166015625
-9489.0595703125,-8510.7490234375,-4159.609375,1984.437255859375,3116.130859375,20270.34765625,-1660.1881103515625,3140.767333984375,-2030.5316162109375,4970.232421875,-7314.68212890625,-4211.26708984375,-4714.330078125,3754.2978515625,853.5385131835938,-3805.955078125,500.67901611328125,3693.8984375,5330.24462890625,17037.392578125,3480.9111328125,12628.2373046875,2300.7392578125,16587.576171875,-5424.8173828125,-4870.8916015625,-2741.01904296875,-983.8739624023438,-5678.33544921875,1519.5211181640625,6964.20654296875,7278.12451171875,3956.1591796875,5687.87255859375,977.5161743164062,6673.3359375,-309.1494140625,20116.96484375,-2384.185791015625,-0.0,-1416.206298828125,9308.6552734375,-1615.6832275390625,681.0823974609375,2143.383056640625,9240.3095703125,-5385.0810546875,3224.2138671875,-5016.3271484375,-505.4473876953125,-601.6095581054688,9957.94921875,-10008.017578125,-9755.2939453125,-5412.896484375,-1108.6463623046875,120.00402069091797,-5060.037109375,-1323.22314453125,-588.0991821289062,-6762.345703125,3930.7275390625,1390.7750244140625,1460.711181640625,-5030.6318359375,1516.3421630859375,0.0,-2467.63232421875,0.0,-2131.462158203125,-0.0,-386.23809814453125
-9451.70703125,-8497.23828125,-4127.025390625,2012.2528076171875,3134.40966796875,20302.13671875,-1636.34619140625,3177.324951171875,-2000.3319091796875,4994.869140625,-7289.2509765625,-4193.78271484375,-4681.74609375,3793.239501953125,866.254150390625,-3763.834716796875,529.2892456054688,3720.12451171875,5358.85498046875,17067.58984375,3507.13720703125,12656.84765625,2325.375732421875,16616.185546875,-5412.1015625,-4843.87060546875,-2724.32958984375,-943.3428344726562,-5653.69921875,1544.952392578125,6991.2275390625,7308.32421875,3983.974365234375,5713.30419921875,1000.5632934570312,6702.7412109375,-286.89703369140625,20147.958984375,-2371.47021484375,-0.0,-1391.5697021484375,9337.265625,-1595.8150634765625,716.84521484375,2168.814453125,9274.482421875,-5345.3447265625,3252.029296875,-5002.02197265625,-470.4793395996094,-588.8939208984375,9999.275390625,-9998.48046875,-9732.24609375,-5389.0546875,-1080.0361328125,127.15657043457031,-5027.453125,-1304.149658203125,-561.8731079101562,-6740.09326171875,3956.1591796875,1419.38525390625,1498.0634765625,-4989.30615234375,1540.18408203125,0.0,-2439.02197265625,0.0,-2106.03076171875,-0.0,-367.16461181640625
-9476.34375,-8497.23828125,-4131.7939453125,2006.6898193359375,3125.66748046875,20296.57421875,-1644.29345703125,3170.17236328125,-2006.6898193359375,4971.822265625,-7292.4296875,-4206.49853515625,-4680.95166015625,3793.239501953125,860.6910400390625,-3770.1923828125,522.13671875,3712.17724609375,5352.4970703125,17052.4921875,3496.805908203125,12649.6953125,2318.22314453125,16608.23828125,-5431.17529296875,-4845.46044921875,-2725.9189453125,-948.1112060546875,-5651.3154296875,1527.4683837890625,6982.4853515625,7297.99267578125,3976.82177734375,5705.3564453125,994.2054443359375,6696.3828125,-294.0495910644531,20143.189453125,-2369.880615234375,-0.0,-1402.696044921875,9335.6767578125,-1601.3780517578125,709.692626953125,2162.45654296875,9264.9462890625,-5358.060546875,3246.46630859375,-5006.7900390625,-488.7580871582031,-594.4569702148438,9994.5068359375,-10024.70703125,-9752.1142578125,-5386.67041015625,-1108.6463623046875,129.54075622558594,-5039.3740234375,-1306.5338134765625,-577.7677001953125,-6755.98779296875,3949.006591796875,1409.0538330078125,1497.2686767578125,-4992.48486328125,1529.057861328125,0.0,-2439.816650390625,0.0,-2113.97802734375,-0.0,-376.70135498046875
-9487.4697265625,-8510.7490234375,-4158.81494140625,1998.7423095703125,3113.74658203125,20283.064453125,-1658.5985107421875,3143.151611328125,-2034.505126953125,4923.34375,-7295.6083984375,-4212.8564453125,-4718.3037109375,3768.60302734375,859.8963623046875,-3790.060791015625,507.036865234375,3699.461669921875,5334.21826171875,17009.576171875,3482.500732421875,12637.7744140625,2305.507568359375,16591.548828125,-5447.86474609375,-4843.87060546875,-2730.6875,-971.9530639648438,-5654.49365234375,1506.805419921875,6968.97509765625,7285.27685546875,3959.337646484375,5695.02490234375,979.1055908203125,6683.66748046875,-306.7652282714844,20121.732421875,-2358.75439453125,-0.0,-1419.38525390625,9328.5244140625,-1611.7095947265625,689.8244018554688,2145.76708984375,9229.9775390625,-5383.49169921875,3237.724365234375,-5005.20068359375,-505.4473876953125,-596.0464477539062,9967.486328125,-10032.654296875,-9767.21484375,-5390.64404296875,-1111.030517578125,117.61983489990234,-5053.67919921875,-1316.070556640625,-619.0935668945312,-6758.3720703125,3933.111572265625,1383.62255859375,1469.4532470703125,-5000.4326171875,1510.779052734375,0.0,-2454.121826171875,0.0,-2136.23046875,-0.0,-391.80120849609375
-9454.88671875,-8515.517578125,-4173.91455078125,1990.795166015625,3109.77294921875,20271.935546875,-1660.9827880859375,3135.204345703125,-2040.068359375,4933.67529296875,-7305.1455078125,-4208.087890625,-4725.4560546875,3748.734619140625,856.7174072265625,-3805.955078125,500.67901611328125,3693.8984375,5330.24462890625,17007.986328125,3476.9375,12628.2373046875,2300.7392578125,16584.396484375,-5452.6328125,-4858.17578125,-2729.892822265625,-982.2845458984375,-5667.20947265625,1503.62646484375,6962.6171875,7282.892578125,3951.390625,5689.46240234375,973.5425415039062,6674.92529296875,-307.5599670410156,20116.96484375,-2388.9541015625,-0.0,-1425.7431640625,9313.423828125,-1614.8885498046875,683.4666137695312,2142.58837890625,9226.798828125,-5406.53857421875,3229.777099609375,-5005.9951171875,-500.67901611328125,-598.4306640625,9956.359375,-10011.1962890625,-9768.8037109375,-5403.35986328125,-1102.28857421875,117.61983489990234,-5053.67919921875,-1317.6600341796875,-608.7620849609375,-6766.3193359375,3926.75390625,1382.8277587890625,1450.3797607421875,-5020.30029296875,1512.3685302734375,0.0,-2444.585205078125,0.0,-2129.077880859375,-0.0,-397.3642883300781
-9446.14453125,-8506.775390625,-4189.0146484375,1974.9005126953125,3100.236083984375,20260.810546875,-1668.13525390625,3128.0517578125,-2050.39990234375,4924.93310546875,-7334.55029296875,-4202.52490234375,-4715.12451171875,3737.608642578125,857.5121459960938,-3825.823486328125,484.7844543457031,3681.9775390625,5323.091796875,17000.041015625,3462.63232421875,12615.521484375,2289.613037109375,16574.859375,-5459.78564453125,-4889.17041015625,-2737.83984375,-987.0529174804688,-5679.92529296875,1509.1895751953125,6947.517578125,7267.79296875,3937.880126953125,5673.5673828125,963.2110595703125,6663.00439453125,-315.50726318359375,20109.017578125,-2429.4853515625,-0.0,-1436.0745849609375,9295.9404296875,-1625.219970703125,673.1351318359375,2137.025146484375,9219.646484375,-5427.20166015625,3213.88232421875,-5018.7109375,-506.2420959472656,-596.8411865234375,9946.8232421875,-10008.8115234375,-9775.162109375,-5416.8701171875,-1091.95703125,131.92494201660156,-5067.98388671875,-1312.096923828125,-615.9146728515625,-6786.98193359375,3915.6279296875,1375.6751708984375,1446.406005859375,-5048.91064453125,1515.54736328125,0.0,-2461.2744140625,0.0,-2136.23046875,-0.0,-404.516845703125
-9453.296875,-8492.4697265625,-4204.90869140625,1970.927001953125,3088.315185546875,20258.42578125,-1672.9036865234375,3128.0517578125,-2046.426025390625,4920.16455078125,-7343.2919921875,-4200.935546875,-4718.3037109375,3745.555908203125,867.0488891601562,-3823.439453125,474.4529724121094,3673.235595703125,5317.529296875,17000.833984375,3453.890625,12609.1640625,2280.87109375,16570.88671875,-5470.91162109375,-4889.17041015625,-2751.350341796875,-988.642333984375,-5687.078125,1518.726318359375,6939.56982421875,7259.05078125,3928.34326171875,5663.236328125,953.67431640625,6655.85205078125,-320.275634765625,20104.25,-2427.10107421875,-0.0,-1447.9954833984375,9291.171875,-1635.551513671875,669.1614990234375,2135.435791015625,9220.4404296875,-5458.99072265625,3209.90869140625,-5034.60546875,-506.2420959472656,-588.8939208984375,9949.20703125,-10019.1435546875,-9775.9560546875,-5424.0224609375,-1098.31494140625,131.92494201660156,-5073.54736328125,-1300.176025390625,-623.0671997070312,-6789.3662109375,3909.269775390625,1373.291015625,1449.5849609375,-5048.1162109375,1511.57373046875,0.0,-2473.990234375,0.0,-2152.919677734375,-0.0,-410.87469482421875
-9443.759765625,-8472.6015625,-4196.1669921875,1984.437255859375,3093.083740234375,20265.580078125,-1668.13525390625,3136.7939453125,-2026.557861328125,4945.59619140625,-7318.6552734375,-4189.80908203125,-4728.63525390625,3772.57666015625,855.9227294921875,-3813.902587890625,487.9633483886719,3681.9775390625,5326.27099609375,17025.470703125,3462.63232421875,12618.701171875,2288.023681640625,16579.62890625,-5467.73291015625,-4874.07080078125,-2752.14501953125,-983.8739624023438,-5684.69384765625,1531.4420166015625,6951.49072265625,7270.9716796875,3940.26416015625,5675.95166015625,961.62158203125,6666.18359375,-315.50726318359375,20113.787109375,-2402.464599609375,-0.0,-1441.6376953125,9301.5029296875,-1630.7830810546875,676.3140258789062,2144.97265625,9233.1572265625,-5443.89111328125,3225.803466796875,-5033.01611328125,-514.984130859375,-598.4306640625,9954.7705078125,-9999.275390625,-9752.1142578125,-5418.45947265625,-1108.6463623046875,112.8514633178711,-5071.1630859375,-1313.6864013671875,-594.4569702148438,-6773.4716796875,3918.01220703125,1386.8013916015625,1470.2479248046875,-5026.65869140625,1514.752685546875,0.0,-2450.1484375,0.0,-2130.66748046875,-0.0,-394.1853942871094
-9427.0703125,-8458.296875,-4176.298828125,2001.92138671875,3107.388671875,20282.267578125,-1660.1881103515625,3150.30419921875,-2015.431640625,4969.43798828125,-7303.55615234375,-4172.3251953125,-4727.04541015625,3782.908203125,839.2333984375,-3801.981689453125,506.2420959472656,3698.666748046875,5338.98681640625,17042.16015625,3480.9111328125,12635.390625,2301.533935546875,16594.728515625,-5447.06982421875,-4854.2021484375,-2748.171630859375,-968.774169921875,-5672.77294921875,1551.3101806640625,6969.77001953125,7290.04541015625,3958.543212890625,5694.23046875,975.9266967773438,6680.48876953125,-306.7652282714844,20128.884765625,-2388.9541015625,-0.0,-1423.35888671875,9318.1923828125,-1620.4515380859375,693.0033569335938,2150.53564453125,9248.2568359375,-5414.48583984375,3242.49267578125,-5021.89013671875,-495.91064453125,-613.5304565429688,9968.28125,-9978.6123046875,-9724.2998046875,-5407.33349609375,-1091.162353515625,93.7779769897461,-5055.2685546875,-1322.4283447265625,-574.5887451171875,-6755.193359375,3933.906494140625,1401.9012451171875,1483.75830078125,-5006.7900390625,1537.7998046875,0.0,-2429.4853515625,0.0,-2104.44140625,-0.0,-371.9329833984375
-9431.044921875,-8464.654296875,-4171.5302734375,2000.3319091796875,3111.362548828125,20283.857421875,-1657.8038330078125,3151.098876953125,-2018.6107177734375,4963.080078125,-7315.47705078125,-4177.88818359375,-4706.3828125,3782.908203125,852.7437744140625,-3792.44482421875,505.4473876953125,3700.25634765625,5335.8076171875,17038.98046875,3481.705810546875,12636.1845703125,2303.12353515625,16594.728515625,-5440.7119140625,-4854.9970703125,-2744.992431640625,-966.3899536132812,-5671.97802734375,1548.926025390625,6970.564453125,7287.6611328125,3957.74853515625,5691.05126953125,979.900390625,6680.48876953125,-305.97052001953125,20128.884765625,-2397.6962890625,-0.0,-1417.0010986328125,9316.603515625,-1618.8621826171875,693.798095703125,2150.53564453125,9245.8720703125,-5410.51220703125,3240.903076171875,-5019.505859375,-487.9633483886719,-602.404296875,9972.2548828125,-9984.17578125,-9727.478515625,-5407.33349609375,-1088.7781982421875,114.44091796875,-5057.65283203125,-1315.2757568359375,-589.6885986328125,-6757.57763671875,3930.7275390625,1398.7222900390625,1476.605712890625,-5012.353515625,1534.620849609375,0.0,-2444.585205078125,0.0,-2114.772705078125,-0.0,-377.49609375
-9475.548828125,-8486.9072265625,-4174.70947265625,1980.4637451171875,3098.64697265625,20270.34765625,-1672.9036865234375,3132.820068359375,-2040.068359375,4937.64892578125,-7338.52392578125,-4207.29296875,-4714.330078125,3758.271484375,852.7437744140625,-3808.33935546875,489.55279541015625,3683.567138671875,5319.11865234375,17013.55078125,3469.784912109375,12620.2900390625,2285.639404296875,16578.0390625,-5444.685546875,-4862.14990234375,-2753.734619140625,-984.668701171875,-5689.46240234375,1522.699951171875,6954.669921875,7270.9716796875,3943.443359375,5674.3623046875,964.800537109375,6664.59423828125,-320.275634765625,20110.607421875,-2407.23291015625,-0.0,-1428.1273193359375,9303.0927734375,-1632.37255859375,677.9035034179688,2134.640869140625,9226.798828125,-5412.1015625,3221.034912109375,-5033.81103515625,-501.4737243652344,-603.198974609375,9955.5654296875,-10012.7861328125,-9751.3203125,-5426.40673828125,-1122.15673828125,119.20928955078125,-5077.52099609375,-1322.4283447265625,-609.5568237304688,-6778.240234375,3912.448974609375,1380.443603515625,1448.7901611328125,-5030.6318359375,1506.0106201171875,0.0,-2473.990234375,0.0,-2144.97265625,-0.0,-404.516845703125
-9521.6435546875,-8493.2646484375,-4160.404296875,1991.58984375,3106.593994140625,20279.08984375,-1664.9564208984375,3141.562255859375,-2036.0947265625,4947.185546875,-7332.166015625,-4199.34619140625,-4711.1513671875,3763.834716796875,865.45947265625,-3813.107666015625,502.26849365234375,3693.103759765625,5329.4501953125,17021.498046875,3481.705810546875,12629.826171875,2292.7919921875,16585.984375,-5443.09619140625,-4849.43408203125,-2742.6083984375,-975.1319580078125,-5680.7197265625,1525.87890625,6963.41162109375,7281.30322265625,3955.3642578125,5685.48828125,974.3372802734375,6673.3359375,-310.7388916015625,20117.759765625,-2391.33837890625,-0.0,-1423.35888671875,9315.013671875,-1623.6304931640625,685.0560302734375,2143.383056640625,9232.361328125,-5404.154296875,3232.161376953125,-5026.65869140625,-496.7053527832031,-589.6885986328125,9959.5380859375,-10023.9111328125,-9745.7568359375,-5416.0751953125,-1112.6199951171875,118.41455841064453,-5077.52099609375,-1299.3812255859375,-596.8411865234375,-6763.14013671875,3920.396240234375,1387.59619140625,1459.1217041015625,-5021.09521484375,1515.54736328125,0.0,-2456.506103515625,0.0,-2129.87255859375,-0.0,-393.3906555175781
-9473.1650390625,-8510.7490234375,-4134.97314453125,2019.4053955078125,3128.0517578125,20300.546875,-1641.1146240234375,3170.17236328125,-2004.3055419921875,4981.35888671875,-7328.1923828125,-4173.1201171875,-4698.435546875,3795.623779296875,869.43310546875,-3783.702880859375,529.2892456054688,3716.945556640625,5354.88134765625,17056.46484375,3507.931884765625,12655.2578125,2316.634033203125,16610.623046875,-5424.8173828125,-4838.3076171875,-2727.508544921875,-946.521728515625,-5657.6728515625,1534.620849609375,6990.4326171875,7309.91357421875,3983.974365234375,5713.30419921875,998.1790771484375,6697.177734375,-288.4864807128906,20144.78125,-2352.396728515625,-0.0,-1397.1328125,9338.85546875,-1602.1728515625,708.1031494140625,2168.814453125,9262.5615234375,-5368.3916015625,3256.7978515625,-5005.9951171875,-483.9897155761719,-583.330810546875,9990.533203125,-10039.01171875,-9731.4521484375,-5390.64404296875,-1078.44677734375,116.82510375976562,-5052.08984375,-1277.923583984375,-566.6414794921875,-6734.52978515625,3946.622314453125,1416.206298828125,1494.884521484375,-4998.04833984375,1550.5155029296875,0.0,-2425.51171875,0.0,-2097.288818359375,-0.0,-360.0120544433594
-9491.443359375,-8517.9013671875,-4114.3095703125,2028.1474609375,3138.383056640625,20310.083984375,-1636.34619140625,3175.7353515625,-1993.9739990234375,4992.48486328125,-7347.265625,-4169.14599609375,-4698.435546875,3816.286865234375,854.333251953125,-3770.9873046875,538.03125,3726.482421875,5361.23876953125,17066.796875,3518.263671875,12664.794921875,2323.786376953125,16618.5703125,-5399.3857421875,-4825.591796875,-2729.09814453125,-944.1375732421875,-5652.904296875,1544.952392578125,7001.55859375,7317.06640625,3994.30615234375,5722.0458984375,1007.7158203125,6705.12548828125,-285.30755615234375,20154.318359375,-2371.47021484375,-0.0,-1377.2646484375,9351.5712890625,-1595.8150634765625,716.0504760742188,2171.198486328125,9271.3037109375,-5359.6494140625,3266.33447265625,-4998.04833984375,-464.1214904785156,-598.4306640625,9997.685546875,-10037.421875,-9737.0146484375,-5385.0810546875,-1061.7574462890625,115.23564910888672,-5040.9638671875,-1306.5338134765625,-560.28369140625,-6741.6826171875,3952.97998046875,1421.76953125,1505.2159423828125,-4998.04833984375,1548.926025390625,0.0,-2419.948486328125,0.0,-2090.13623046875,-0.0,-352.06475830078125
-9496.2119140625,-8484.5224609375,-4126.23095703125,2021.78955078125,3137.58837890625,20304.521484375,-1638.7303466796875,3172.556640625,-2002.716064453125,4982.9482421875,-7347.265625,-4174.70947265625,-4690.48828125,3799.597412109375,868.6383666992188,-3775.755615234375,533.2628784179688,3720.91943359375,5357.265625,17056.46484375,3512.700439453125,12659.232421875,2322.197021484375,16614.595703125,-5392.2333984375,-4833.53955078125,-2722.740234375,-949.70068359375,-5652.904296875,1551.3101806640625,6995.99609375,7309.91357421875,3987.153564453125,5717.27734375,1004.5369873046875,6697.177734375,-287.6917419433594,20150.34375,-2369.880615234375,-0.0,-1382.032958984375,9346.0078125,-1595.8150634765625,711.2821044921875,2165.63525390625,9264.1513671875,-5369.9814453125,3261.566162109375,-4994.869140625,-479.2213439941406,-586.5097045898438,9994.5068359375,-10020.732421875,-9745.7568359375,-5388.259765625,-1071.294189453125,128.74603271484375,-5063.2158203125,-1309.7127685546875,-581.7413330078125,-6756.78271484375,3947.416748046875,1417.0010986328125,1490.910888671875,-5006.7900390625,1535.4156494140625,0.0,-2439.02197265625,0.0,-2106.82568359375,-0.0,-366.369873046875
-9476.34375,-8463.859375,-4130.20458984375,2012.2528076171875,3134.40966796875,20299.75390625,-1633.9620361328125,3170.967041015625,-2003.5107421875,4977.38525390625,-7352.8291015625,-4181.06689453125,-4669.8251953125,3790.060791015625,900.427490234375,-3763.039794921875,524.5208740234375,3715.356201171875,5357.265625,17054.876953125,3507.13720703125,12652.0791015625,2319.812744140625,16610.623046875,-5404.154296875,-4848.63916015625,-2710.024658203125,-945.72705078125,-5647.34130859375,1540.18408203125,6990.4326171875,7299.58203125,3980.79541015625,5707.74072265625,999.7686157226562,6692.40966796875,-284.5128479003906,20147.958984375,-2374.64892578125,-0.0,-1386.8013916015625,9334.0869140625,-1592.6361083984375,710.4873657226562,2171.198486328125,9263.3564453125,-5361.23876953125,3251.23486328125,-4992.48486328125,-476.837158203125,-554.7205810546875,9997.685546875,-10031.859375,-9746.5517578125,-5381.107421875,-1079.241455078125,150.99842834472656,-5063.2158203125,-1293.0234375,-588.0991821289062,-6763.93505859375,3945.03271484375,1414.616943359375,1481.3741455078125,-5016.3271484375,1529.057861328125,0.0,-2455.71142578125,0.0,-2117.95166015625,-0.0,-376.70135498046875
-9493.033203125,-8468.6279296875,-4130.9990234375,2001.1265869140625,3131.230712890625,20294.189453125,-1637.140869140625,3166.993408203125,-2009.86865234375,4964.669921875,-7353.6240234375,-4194.57763671875,-4675.38818359375,3766.218994140625,903.6064453125,-3765.424072265625,515.7788696289062,3708.99853515625,5354.08642578125,17046.1328125,3500.779296875,12644.9267578125,2315.04443359375,16606.6484375,-5408.9228515625,-4854.2021484375,-2710.8193359375,-948.1112060546875,-5648.13623046875,1533.031494140625,6982.4853515625,7295.6083984375,3976.027099609375,5702.97265625,994.2054443359375,6685.2568359375,-286.102294921875,20142.396484375,-2381.801513671875,-0.0,-1391.5697021484375,9325.3447265625,-1596.6097412109375,704.9242553710938,2168.01953125,9256.9990234375,-5371.57080078125,3240.903076171875,-4990.10107421875,-484.7844543457031,-550.7469482421875,9992.9169921875,-10043.7802734375,-9748.935546875,-5382.69677734375,-1091.162353515625,155.7667999267578,-5072.75244140625,-1284.2813720703125,-587.304443359375,-6764.72998046875,3941.05908203125,1406.669677734375,1464.684814453125,-5022.6845703125,1517.931640625,0.0,-2468.427001953125,0.0,-2137.820068359375,-0.0,-393.3906555175781
-9499.390625,-8486.111328125,-4142.12548828125,1989.20556640625,3121.69384765625,20282.267578125,-1648.26708984375,3157.45654296875,-2010.663330078125,4955.1328125,-7332.166015625,-4201.73046875,-4702.4091796875,3782.11328125,869.43310546875,-3796.41845703125,507.8315734863281,3700.25634765625,5343.75537109375,17043.748046875,3490.447998046875,12636.1845703125,2304.712890625,16596.31640625,-5416.0751953125,-4851.81787109375,-2729.09814453125,-964.800537109375,-5668.798828125,1526.6737060546875,6972.94873046875,7286.86669921875,3967.28515625,5695.02490234375,983.8739624023438,6678.1044921875,-298.0232238769531,20134.44921875,-2389.748779296875,-0.0,-1403.49072265625,9318.98828125,-1607.7359619140625,694.5927734375,2158.48291015625,9249.8466796875,-5398.59130859375,3230.57177734375,-5002.81689453125,-499.08953857421875,-585.7149658203125,9977.0234375,-10040.6005859375,-9759.2666015625,-5401.77001953125,-1103.083251953125,127.95130920410156,-5085.46826171875,-1302.5601806640625,-573.7940673828125,-6772.6767578125,3931.5224609375,1400.311767578125,1466.2742919921875,-5044.14208984375,1512.3685302734375,0.0,-2458.095458984375,0.0,-2133.84619140625,-0.0,-397.3642883300781
-9469.986328125,-8509.1591796875,-4163.58349609375,1985.2320556640625,3102.620361328125,20270.34765625,-1657.8038330078125,3143.151611328125,-2012.2528076171875,4963.875,-7302.76123046875,-4202.52490234375,-4734.1982421875,3790.85546875,859.1016235351562,-3821.849853515625,501.4737243652344,3689.130126953125,5334.21826171875,17042.955078125,3478.527099609375,12628.2373046875,2294.38134765625,16586.78125,-5454.22216796875,-4857.38134765625,-2742.6083984375,-980.6951293945312,-5687.87255859375,1522.699951171875,6963.41162109375,7285.27685546875,3958.543212890625,5687.078125,969.5689086914062,6668.56787109375,-305.97052001953125,20125.70703125,-2407.23291015625,-0.0,-1425.7431640625,9311.0400390625,-1620.4515380859375,681.8771362304688,2152.125,9242.6943359375,-5417.6650390625,3225.803466796875,-5022.6845703125,-502.26849365234375,-595.251708984375,9960.333984375,-10017.5546875,-9767.21484375,-5421.638671875,-1110.23583984375,111.26200103759766,-5092.62109375,-1304.149658203125,-576.9729614257812,-6779.82958984375,3921.985595703125,1395.54345703125,1476.605712890625,-5048.1162109375,1511.57373046875,0.0,-2443.79052734375,0.0,-2115.5673828125,-0.0,-383.8539123535156
-9468.396484375,-8514.7216796875,-4189.0146484375,1989.20556640625,3092.2890625,20266.375,-1663.366943359375,3140.767333984375,-2022.584228515625,4964.669921875,-7294.01904296875,-4199.34619140625,-4727.04541015625,3772.57666015625,847.9754028320312,-3816.286865234375,495.91064453125,3682.7724609375,5331.03955078125,17039.775390625,3467.40087890625,12620.2900390625,2288.818359375,16582.806640625,-5465.3486328125,-4873.27587890625,-2752.14501953125,-983.8739624023438,-5684.69384765625,1523.4947509765625,6957.05419921875,7284.482421875,3948.211669921875,5683.10400390625,961.62158203125,6663.00439453125,-309.94415283203125,20121.732421875,-2392.927978515625,-0.0,-1440.843017578125,9303.8876953125,-1626.8094482421875,680.2876586914062,2148.946044921875,9239.5146484375,-5427.99609375,3229.777099609375,-5029.8369140625,-503.85791015625,-606.3779296875,9958.744140625,-9995.30078125,-9771.1875,-5419.25439453125,-1105.4674072265625,105.69890594482422,-5091.03173828125,-1302.5601806640625,-584.9202270507812,-6781.41943359375,3918.01220703125,1391.5697021484375,1473.4267578125,-5029.04248046875,1511.57373046875,0.0,-2443.79052734375,0.0,-2117.156982421875,-0.0,-381.4697265625
-9499.390625,-8486.111328125,-4155.6357421875,2009.86865234375,3115.336181640625,20284.65234375,-1648.26708984375,3159.046142578125,-2010.663330078125,4978.974609375,-7277.330078125,-4183.451171875,-4694.4619140625,3789.265869140625,855.9227294921875,-3789.265869140625,513.3946533203125,3700.25634765625,5347.728515625,17050.107421875,3487.26904296875,12638.5693359375,2307.09716796875,16600.291015625,-5430.38037109375,-4858.970703125,-2736.250732421875,-963.2110595703125,-5664.03076171875,1541.7734375,6972.94873046875,7301.171875,3969.66943359375,5698.9990234375,980.6951293945312,6680.48876953125,-293.2548522949219,20138.421875,-2354.781005859375,-0.0,-1415.41162109375,9322.166015625,-1608.5306396484375,699.3611450195312,2160.072265625,9258.587890625,-5393.8232421875,3250.43994140625,-5013.14794921875,-487.16864013671875,-597.6359252929688,9980.99609375,-10019.9384765625,-9749.73046875,-5400.1806640625,-1091.162353515625,116.0303726196289,-5071.9580078125,-1307.32861328125,-569.0256958007812,-6762.345703125,3936.290771484375,1407.46435546875,1488.5267333984375,-5005.20068359375,1528.2630615234375,0.0,-2427.895751953125,0.0,-2102.05712890625,-0.0,-363.9856872558594
-9501.7744140625,-8477.3701171875,-4152.45654296875,2005.8948974609375,3118.51513671875,20284.65234375,-1645.088134765625,3159.8408203125,-2010.663330078125,4980.56396484375,-7290.84033203125,-4194.57763671875,-4684.13037109375,3790.060791015625,870.227783203125,-3782.11328125,509.4210510253906,3698.666748046875,5347.728515625,17046.927734375,3486.474365234375,12636.1845703125,2308.6865234375,16599.49609375,-5427.99609375,-4852.61279296875,-2732.27685546875,-956.0584716796875,-5659.26220703125,1533.031494140625,6970.564453125,7297.19775390625,3964.90087890625,5696.61474609375,982.2845458984375,6680.48876953125,-293.2548522949219,20136.833984375,-2382.59619140625,-0.0,-1412.2327880859375,9322.166015625,-1603.7623291015625,699.3611450195312,2163.251220703125,9253.025390625,-5385.0810546875,3244.876953125,-5009.96923828125,-485.57916259765625,-583.330810546875,9983.3798828125,-10050.1376953125,-9748.935546875,-5396.20751953125,-1097.520263671875,130.3354949951172,-5073.54736328125,-1299.3812255859375,-584.12548828125,-6755.98779296875,3937.085693359375,1405.8748779296875,1486.9371337890625,-4999.6376953125,1516.3421630859375,0.0,-2448.558837890625,0.0,-2111.593994140625,-0.0,-367.9593505859375
-9495.41796875,-8488.49609375,-4169.94091796875,1990.795166015625,3112.1572265625,20273.52734375,-1655.419677734375,3147.125244140625,-2024.1737060546875,4960.69580078125,-7312.2978515625,-4203.3193359375,-4710.3564453125,3754.2978515625,867.8436279296875,-3795.623779296875,494.3211669921875,3685.951171875,5335.8076171875,17027.85546875,3474.553466796875,12624.263671875,2297.560546875,16586.78125,-5433.5595703125,-4858.17578125,-2736.250732421875,-968.774169921875,-5673.5673828125,1517.136962890625,6955.46484375,7282.09814453125,3949.006591796875,5682.3095703125,970.3636474609375,6667.77294921875,-302.7915954589844,20124.912109375,-2387.36474609375,-0.0,-1420.179931640625,9312.6298828125,-1611.7095947265625,688.2349853515625,2152.919677734375,9239.5146484375,-5400.1806640625,3228.982177734375,-5013.94287109375,-495.91064453125,-585.7149658203125,9969.8701171875,-10040.6005859375,-9764.8310546875,-5409.7177734375,-1107.0570068359375,127.95130920410156,-5082.2890625,-1304.149658203125,-589.6885986328125,-6767.90869140625,3923.574951171875,1393.1593017578125,1454.353271484375,-5012.353515625,1500.4476318359375,0.0,-2466.042724609375,0.0,-2133.051513671875,-0.0,-395.77484130859375
-9500.185546875,-8512.337890625,-4198.55126953125,1964.569091796875,3088.315185546875,20243.326171875,-1680.0562744140625,3117.720458984375,-2046.426025390625,4941.6220703125,-7326.60302734375,-4222.39306640625,-4719.0986328125,3730.4560546875,832.8755493164062,-3849.665283203125,471.2740478515625,3662.109375,5313.55517578125,17010.37109375,3452.301025390625,12601.216796875,2273.718505859375,16560.5546875,-5465.3486328125,-4885.19677734375,-2756.913330078125,-1009.3053588867188,-5691.84619140625,1494.0897216796875,6933.21240234375,7257.46142578125,3926.75390625,5660.05712890625,947.3164672851562,6641.546875,-328.222900390625,20097.09765625,-2410.411865234375,-0.0,-1445.611328125,9284.8134765625,-1635.551513671875,656.44580078125,2125.899169921875,9215.6728515625,-5429.5859375,3205.935302734375,-5035.400390625,-532.4681396484375,-621.477783203125,9934.107421875,-10054.111328125,-9783.904296875,-5427.99609375,-1140.435546875,114.44091796875,-5124.41015625,-1339.912353515625,-610.3515625,-6798.90283203125,3898.9384765625,1370.112060546875,1437.6640625,-5039.3740234375,1478.989990234375,0.0,-2470.81103515625,0.0,-2141.79345703125,-0.0,-410.87469482421875
-9507.3388671875,-8523.4638671875,-4198.55126953125,1960.5953369140625,3087.5205078125,20240.1484375,-1681.645751953125,3117.720458984375,-2051.9892578125,4932.88037109375,-7326.60302734375,-4233.51904296875,-4729.4296875,3729.6611328125,838.4386596679688,-3845.691650390625,468.8898620605469,3659.72509765625,5310.37646484375,17006.396484375,3452.301025390625,12598.0380859375,2271.33447265625,16556.58203125,-5470.1171875,-4888.3759765625,-2756.913330078125,-1008.5106201171875,-5690.2568359375,1485.3477783203125,6932.41748046875,7253.48828125,3924.369873046875,5656.8779296875,946.521728515625,6638.3681640625,-329.8123779296875,20096.302734375,-2432.6640625,-0.0,-1451.9691162109375,9281.6357421875,-1637.140869140625,653.2669067382812,2122.719970703125,9210.904296875,-5435.14892578125,3203.551025390625,-5032.22119140625,-536.4417724609375,-618.298828125,9939.6708984375,-10049.3427734375,-9788.6728515625,-5426.40673828125,-1149.177490234375,110.46727752685547,-5125.99951171875,-1339.912353515625,-636.57763671875,-6810.82373046875,3897.34912109375,1366.138427734375,1436.0745849609375,-5042.552734375,1467.0689697265625,0.0,-2486.705810546875,0.0,-2160.866943359375,-0.0,-417.2325134277344
-9524.02734375,-8536.974609375,-4209.67724609375,1949.46923828125,3079.573486328125,20234.583984375,-1690.3876953125,3110.56787109375,-2055.962890625,4920.95947265625,-7340.908203125,-4244.6455078125,-4718.3037109375,3722.5087890625,840.0281372070312,-3838.5390625,460.1478576660156,3651.778076171875,5301.63427734375,16999.244140625,3442.76416015625,12590.884765625,2264.181884765625,16549.4296875,-5477.26953125,-4893.9384765625,-2762.4765625,-1011.6895141601562,-5693.435546875,1472.632080078125,6926.0595703125,7246.33544921875,3914.0380859375,5648.13623046875,937.7797241210938,6630.4208984375,-337.7596435546875,20088.353515625,-2433.458984375,-0.0,-1459.1217041015625,9274.482421875,-1640.31982421875,646.9090576171875,2117.156982421875,9205.341796875,-5449.45361328125,3191.630126953125,-5040.9638671875,-539.6207275390625,-617.504150390625,9934.90234375,-10052.521484375,-9799.7978515625,-5429.5859375,-1156.330078125,108.87781524658203,-5133.94677734375,-1343.885986328125,-637.372314453125,-6821.9501953125,3891.785888671875,1356.6016845703125,1423.35888671875,-5052.08984375,1459.91650390625,0.0,-2504.189697265625,0.0,-2184.708740234375,-0.0,-437.1007385253906
-9512.1064453125,-8540.1533203125,-4208.8828125,1950.263916015625,3076.394287109375,20229.021484375,-1695.9508056640625,3095.4677734375,-2060.731201171875,4920.16455078125,-7351.23974609375,-4243.0556640625,-4727.84033203125,3719.329833984375,835.259765625,-3863.175537109375,456.96893310546875,3649.393798828125,5295.27685546875,16994.4765625,3439.58544921875,12587.70703125,2261.002685546875,16543.0703125,-5478.06396484375,-4901.8857421875,-2764.86083984375,-1028.3787841796875,-5695.81982421875,1473.4267578125,6922.880859375,7239.9775390625,3910.859619140625,5644.16259765625,936.1903076171875,6623.26806640625,-343.32275390625,20078.0234375,-2448.558837890625,-0.0,-1459.1217041015625,9268.125,-1644.29345703125,635.7828979492188,2112.388671875,9194.21484375,-5447.86474609375,3190.04052734375,-5040.9638671875,-545.183837890625,-619.8883056640625,9912.650390625,-10054.111328125,-9796.619140625,-5432.7646484375,-1154.74072265625,109.67254638671875,-5158.5830078125,-1341.5018310546875,-628.6303100585938,-6821.9501953125,3887.017578125,1350.243896484375,1416.206298828125,-5061.62646484375,1459.91650390625,0.0,-2503.39501953125,0.0,-2171.9931640625,-0.0,-438.690185546875
-9482.701171875,-8514.7216796875,-4177.88818359375,1975.6953125,3107.388671875,20254.453125,-1668.9300537109375,3126.462158203125,-2040.863037109375,4942.4169921875,-7339.31884765625,-4214.44580078125,-4709.56201171875,3743.171630859375,863.0752563476562,-3829.797119140625,484.7844543457031,3674.824951171875,5321.5029296875,17019.90625,3469.784912109375,12613.9326171875,2288.023681640625,16571.6796875,-5447.86474609375,-4885.19677734375,-2737.04541015625,-997.3843994140625,-5670.388671875,1502.831787109375,6949.10693359375,7267.79296875,3940.26416015625,5671.97802734375,964.800537109375,6651.87841796875,-317.8914489746094,20107.427734375,-2423.92236328125,-0.0,-1430.511474609375,9294.3505859375,-1619.6568603515625,663.598388671875,2138.61474609375,9225.208984375,-5420.84375,3213.88232421875,-5011.55859375,-521.3419799804688,-592.0728149414062,9948.4130859375,-10045.369140625,-9767.21484375,-5406.53857421875,-1115.7989501953125,131.92494201660156,-5124.41015625,-1317.6600341796875,-602.404296875,-6788.57177734375,3914.8330078125,1377.2646484375,1441.6376953125,-5033.81103515625,1487.73193359375,0.0,-2477.1689453125,0.0,-2151.330322265625,-0.0,-415.64306640625
-9469.19140625,-8510.7490234375,-4154.04638671875,1995.5634765625,3132.025390625,20273.52734375,-1644.29345703125,3148.71484375,-2026.557861328125,4955.92724609375,-7332.96044921875,-4192.193359375,-4684.92529296875,3754.2978515625,893.2749633789062,-3805.955078125,502.26849365234375,3697.077392578125,5342.96044921875,17033.41796875,3489.6533203125,12632.2109375,2308.6865234375,16591.548828125,-5417.6650390625,-4866.91796875,-2712.40869140625,-975.9266967773438,-5648.93115234375,1525.87890625,6969.77001953125,7285.27685546875,3961.721923828125,5692.640625,986.2581787109375,6673.3359375,-293.2548522949219,20128.884765625,-2403.25927734375,-0.0,-1405.0802001953125,9313.423828125,-1593.430908203125,684.2613525390625,2161.661865234375,9245.8720703125,-5393.0283203125,3235.340087890625,-4990.8955078125,-504.6526794433594,-562.6678466796875,9973.048828125,-10070.0068359375,-9754.498046875,-5383.49169921875,-1090.36767578125,151.7931671142578,-5102.95263671875,-1285.076171875,-584.12548828125,-6761.55078125,3937.085693359375,1396.338134765625,1453.55859375,-5006.7900390625,1504.4212646484375,0.0,-2461.2744140625,0.0,-2134.640869140625,-0.0,-402.1326599121094
-9480.3173828125,-8521.8740234375,-4134.97314453125,2005.8948974609375,3144.740966796875,20286.2421875,-1634.7567138671875,3158.25146484375,-2007.484375,4976.5908203125,-7354.41845703125,-4184.24609375,-4665.056640625,3784.49755859375,901.2222290039062,-3783.702880859375,514.1893920898438,3708.20361328125,5351.7021484375,17050.107421875,3502.368896484375,12644.9267578125,2319.812744140625,16602.673828125,-5392.2333984375,-4852.61279296875,-2705.256103515625,-961.62158203125,-5648.13623046875,1533.031494140625,6982.4853515625,7297.99267578125,3972.848388671875,5703.76708984375,998.1790771484375,6682.87255859375,-282.9233703613281,20137.62890625,-2389.748779296875,-0.0,-1384.417236328125,9323.755859375,-1583.8941650390625,696.1822509765625,2171.198486328125,9249.8466796875,-5366.00732421875,3245.671630859375,-4982.1533203125,-494.3211669921875,-554.7205810546875,9982.5859375,-10093.052734375,-9755.2939453125,-5385.0810546875,-1080.8309326171875,157.35626220703125,-5085.46826171875,-1290.6392822265625,-588.0991821289062,-6759.96142578125,3946.622314453125,1409.0538330078125,1478.989990234375,-5006.7900390625,1515.54736328125,0.0,-2462.0693359375,0.0,-2125.104248046875,-0.0,-379.0855407714844
-9476.34375,-8517.9013671875,-4115.1044921875,2015.431640625,3157.45654296875,20298.162109375,-1625.219970703125,3165.404052734375,-1993.9739990234375,4994.07421875,-7360.7763671875,-4178.6826171875,-4662.67236328125,3813.107666015625,903.6064453125,-3791.650146484375,529.2892456054688,3716.15087890625,5361.23876953125,17066.796875,3516.674072265625,12658.4365234375,2329.349609375,16613.005859375,-5369.9814453125,-4839.89697265625,-2701.282470703125,-948.9059448242188,-5649.7255859375,1536.21044921875,6995.99609375,7312.2978515625,3988.742919921875,5715.68798828125,1008.5106201171875,6692.40966796875,-277.36029052734375,20147.958984375,-2382.59619140625,-0.0,-1367.7279052734375,9338.0615234375,-1577.5362548828125,707.3084716796875,2179.145751953125,9260.9716796875,-5356.470703125,3256.003173828125,-4973.41162109375,-480.810791015625,-552.3363647460938,9990.533203125,-10054.111328125,-9747.345703125,-5385.0810546875,-1079.241455078125,150.20370483398438,-5095.7998046875,-1285.870849609375,-579.357177734375,-6762.345703125,3953.77490234375,1419.38525390625,1502.037109375,-5011.55859375,1522.699951171875,0.0,-2453.3271484375,0.0,-2119.541259765625,-0.0,-364.7804260253906
-9508.1328125,-8507.5693359375,-4126.23095703125,2018.6107177734375,3143.151611328125,20292.6015625,-1637.9356689453125,3159.8408203125,-1998.7423095703125,4991.68994140625,-7350.44482421875,-4190.603515625,-4687.30908203125,3801.186767578125,874.2014770507812,-3801.186767578125,526.1103515625,3710.587646484375,5356.470703125,17065.20703125,3511.111083984375,12653.66796875,2319.812744140625,16607.443359375,-5397.001953125,-4835.923828125,-2722.740234375,-958.4426879882812,-5656.08349609375,1526.6737060546875,6990.4326171875,7306.734375,3983.1796875,5712.50927734375,997.3843994140625,6687.64111328125,-286.102294921875,20142.396484375,-2386.570068359375,-0.0,-1380.443603515625,9336.4716796875,-1591.046630859375,699.3611450195312,2171.198486328125,9260.177734375,-5362.82861328125,3256.7978515625,-4993.27978515625,-500.67901611328125,-580.15185546875,9982.5859375,-10044.5751953125,-9753.7041015625,-5389.84912109375,-1099.109619140625,133.514404296875,-5104.5419921875,-1293.0234375,-563.4625854492188,-6761.55078125,3945.827392578125,1413.0274658203125,1494.0897216796875,-5022.6845703125,1519.5211181640625,0.0,-2445.3798828125,0.0,-2110.799072265625,-0.0,-370.3435363769531
-9574.095703125,-8487.701171875,-4132.5888671875,2025.7633056640625,3135.204345703125,20302.13671875,-1637.9356689453125,3163.814453125,-1992.3846435546875,5005.9951171875,-7339.31884765625,-4192.98779296875,-4703.99853515625,3831.386474609375,865.45947265625,-3785.29248046875,526.905029296875,3715.356201171875,5358.85498046875,17073.94921875,3509.521484375,12656.84765625,2318.22314453125,16611.41796875,-5419.25439453125,-4824.0029296875,-2728.30322265625,-962.4163208007812,-5659.26220703125,1526.6737060546875,6992.02197265625,7306.734375,3983.1796875,5717.27734375,998.1790771484375,6693.20458984375,-285.30755615234375,20146.369140625,-2353.986083984375,-0.0,-1389.185546875,9345.2138671875,-1593.430908203125,704.9242553710938,2172.787841796875,9263.3564453125,-5349.31787109375,3263.15576171875,-5000.4326171875,-483.9897155761719,-588.0991821289062,9984.17578125,-10064.4423828125,-9767.21484375,-5393.8232421875,-1109.441162109375,110.46727752685547,-5088.6474609375,-1297.7918701171875,-557.104736328125,-6754.3984375,3947.416748046875,1418.590576171875,1513.1632080078125,-5018.7109375,1518.726318359375,0.0,-2426.306396484375,0.0,-2093.315185546875,-0.0,-346.5016784667969
-9571.7119140625,-8490.8798828125,-4138.9462890625,2032.1209716796875,3134.40966796875,20302.13671875,-1631.577880859375,3171.76171875,-1983.642578125,5017.916015625,-7327.39794921875,-4189.0146484375,-4709.56201171875,3832.18115234375,879.7645263671875,-3778.139892578125,526.905029296875,3713.766845703125,5363.623046875,17084.279296875,3505.5478515625,12657.642578125,2322.197021484375,16615.390625,-5423.22802734375,-4822.4130859375,-2724.32958984375,-952.8795776367188,-5673.5673828125,1524.2894287109375,6991.2275390625,7306.734375,3980.0009765625,5717.27734375,998.1790771484375,6693.20458984375,-279.7444763183594,20152.7265625,-2346.038818359375,-0.0,-1393.1593017578125,9345.2138671875,-1591.046630859375,707.3084716796875,2182.32470703125,9272.892578125,-5393.8232421875,3270.308349609375,-5000.4326171875,-496.7053527832031,-576.17822265625,9996.0966796875,-10050.9326171875,-9775.9560546875,-5407.33349609375,-1098.31494140625,112.8514633178711,-5083.87890625,-1266.79736328125,-552.3363647460938,-6749.6298828125,3950.595947265625,1426.537841796875,1512.3685302734375,-5024.2744140625,1517.136962890625,0.0,-2427.10107421875,0.0,-2093.315185546875,-0.0,-329.8123779296875
-9509.72265625,-8498.828125,-4155.6357421875,2025.7633056640625,3128.846435546875,20290.216796875,-1639.5250244140625,3166.19873046875,-1989.20556640625,5014.73779296875,-7320.2451171875,-4178.6826171875,-4694.4619140625,3809.13427734375,873.40673828125,-3781.318603515625,514.984130859375,3705.8193359375,5357.265625,17077.921875,3496.010986328125,12647.3115234375,2316.634033203125,16607.443359375,-5428.791015625,-4851.81787109375,-2725.9189453125,-960.0321655273438,-5678.33544921875,1526.6737060546875,6982.4853515625,7296.4033203125,3968.87451171875,5706.94580078125,990.2318725585938,6683.66748046875,-286.89703369140625,20147.166015625,-2366.701904296875,-0.0,-1401.9012451171875,9329.3193359375,-1595.8150634765625,700.1558837890625,2175.967041015625,9268.919921875,-5429.5859375,3265.539794921875,-5003.611328125,-489.55279541015625,-580.15185546875,9991.328125,-10020.732421875,-9771.9833984375,-5410.51220703125,-1079.241455078125,119.20928955078125,-5081.49462890625,-1282.69189453125,-549.157470703125,-6763.93505859375,3944.23828125,1422.564208984375,1469.4532470703125,-5031.4267578125,1521.110595703125,0.0,-2442.995849609375,0.0,-2105.236083984375,-0.0,-352.8594970703125
-9483.4970703125,-8509.1591796875,-4157.22509765625,2020.2000732421875,3132.025390625,20290.216796875,-1640.31982421875,3165.404052734375,-1990.795166015625,5016.3271484375,-7292.4296875,-4181.86181640625,-4698.435546875,3812.31298828125,871.8172607421875,-3785.29248046875,512.5999755859375,3705.8193359375,5357.265625,17081.1015625,3496.805908203125,12644.1318359375,2316.634033203125,16605.853515625,-5421.638671875,-4858.17578125,-2724.32958984375,-959.2374267578125,-5670.388671875,1530.647216796875,6983.2802734375,7299.58203125,3968.87451171875,5705.3564453125,991.8212890625,6685.2568359375,-287.6917419433594,20146.369140625,-2387.36474609375,-0.0,-1401.9012451171875,9326.140625,-1595.8150634765625,700.9506225585938,2175.172119140625,9267.330078125,-5402.56494140625,3259.9765625,-4998.04833984375,-495.1159362792969,-580.9465942382812,9989.73828125,-10025.5009765625,-9764.8310546875,-5402.56494140625,-1072.883544921875,126.36184692382812,-5088.6474609375,-1291.4339599609375,-547.5679931640625,-6775.06103515625,3944.23828125,1423.35888671875,1471.0426025390625,-5024.2744140625,1517.136962890625,0.0,-2440.611572265625,0.0,-2101.262451171875,-0.0,-375.1119079589844
-9477.9326171875,-8529.02734375,-4172.3251953125,1997.94775390625,3121.69384765625,20283.064453125,-1640.31982421875,3161.430419921875,-1984.437255859375,5007.5849609375,-7291.63525390625,-4207.29296875,-4708.76708984375,3829.00244140625,882.9434814453125,-3790.85546875,502.26849365234375,3697.8720703125,5353.2919921875,17085.87109375,3486.474365234375,12635.390625,2312.66015625,16600.291015625,-5446.275390625,-4866.123046875,-2724.32958984375,-964.0057983398438,-5675.95166015625,1515.54736328125,6972.94873046875,7289.2509765625,3956.95361328125,5694.23046875,981.4898071289062,6679.69384765625,-289.2812194824219,20138.421875,-2401.669677734375,-0.0,-1417.0010986328125,9316.603515625,-1599.7886962890625,697.771728515625,2175.172119140625,9263.3564453125,-5416.8701171875,3239.313720703125,-5002.81689453125,-491.14227294921875,-570.6151123046875,9987.3544921875,-10023.9111328125,-9773.572265625,-5410.51220703125,-1093.5465087890625,123.18293762207031,-5091.826171875,-1283.4866943359375,-558.6942138671875,-6784.59765625,3937.085693359375,1420.9747314453125,1505.2159423828125,-5033.81103515625,1495.67919921875,0.0,-2444.585205078125,0.0,-2108.414794921875,-0.0,-370.3435363769531
-9472.3701171875,-8552.869140625,-4195.3720703125,1977.28466796875,3105.79931640625,20264.783203125,-1661.7774658203125,3139.97265625,-2011.4581298828125,4957.51708984375,-7316.271484375,-4226.36669921875,-4719.0986328125,3808.33935546875,856.7174072265625,-3809.13427734375,487.16864013671875,3683.567138671875,5331.83447265625,17044.544921875,3469.784912109375,12619.4951171875,2295.17626953125,16582.806640625,-5455.01708984375,-4881.22314453125,-2744.19775390625,-981.4898071289062,-5684.69384765625,1499.65283203125,6954.669921875,7272.5615234375,3941.05908203125,5675.95166015625,965.59521484375,6661.4150390625,-310.7388916015625,20120.14453125,-2400.080322265625,-0.0,-1432.8956298828125,9299.119140625,-1617.272705078125,678.6982421875,2151.330322265625,9233.951171875,-5453.427734375,3218.65087890625,-5017.12158203125,-511.0104675292969,-598.4306640625,9965.896484375,-10040.6005859375,-9778.3408203125,-5417.6650390625,-1126.9251708984375,110.46727752685547,-5089.44189453125,-1308.123291015625,-593.6622314453125,-6802.08203125,3919.6015625,1394.7486572265625,1486.9371337890625,-5044.14208984375,1477.400390625,0.0,-2453.3271484375,0.0,-2131.462158203125,-0.0,-378.2908020019531
-9464.4228515625,-8533.0009765625,-4189.80908203125,1979.6688232421875,3108.18359375,20272.732421875,-1664.16162109375,3143.151611328125,-2032.1209716796875,4958.3115234375,-7316.271484375,-4217.62451171875,-4709.56201171875,3767.013671875,863.0752563476562,-3804.365966796875,491.14227294921875,3685.951171875,5328.6552734375,17030.23828125,3473.7587890625,12623.4697265625,2295.970947265625,16585.19140625,-5451.04345703125,-4862.14990234375,-2737.83984375,-975.9266967773438,-5679.92529296875,1508.3948974609375,6957.05419921875,7271.7666015625,3942.6484375,5677.541015625,968.774169921875,6664.59423828125,-310.7388916015625,20120.939453125,-2421.5380859375,-0.0,-1428.9219970703125,9303.8876953125,-1616.47802734375,682.671875,2144.177734375,9235.541015625,-5434.3544921875,3221.034912109375,-5014.73779296875,-503.0632019042969,-590.4833374023438,9972.2548828125,-10042.1904296875,-9765.625,-5414.48583984375,-1123.7462158203125,127.15657043457031,-5081.49462890625,-1315.2757568359375,-596.8411865234375,-6806.0556640625,3922.780517578125,1388.390869140625,1459.91650390625,-5036.98974609375,1486.1424560546875,0.0,-2454.916748046875,0.0,-2130.66748046875,-0.0,-383.0591735839844
-9470.7802734375,-8510.7490234375,-4177.88818359375,1982.847900390625,3110.56787109375,20275.115234375,-1663.366943359375,3150.30419921875,-2042.4525146484375,4967.0537109375,-7312.2978515625,-4201.73046875,-4703.20361328125,3753.503173828125,851.154296875,-3791.650146484375,495.1159362792969,3690.7197265625,5330.24462890625,17028.650390625,3478.527099609375,12629.0322265625,2297.560546875,16586.78125,-5448.6591796875,-4863.7392578125,-2739.429443359375,-969.5689086914062,-5668.798828125,1517.931640625,6961.02783203125,7275.740234375,3949.006591796875,5683.10400390625,973.5425415039062,6670.15673828125,-311.5335998535156,20125.70703125,-2421.5380859375,-0.0,-1425.7431640625,9309.451171875,-1617.272705078125,688.2349853515625,2140.998779296875,9239.5146484375,-5417.6650390625,3223.419189453125,-5013.14794921875,-503.0632019042969,-601.6095581054688,9983.3798828125,-10039.01171875,-9756.087890625,-5403.35986328125,-1098.31494140625,126.36184692382812,-5078.31591796875,-1323.22314453125,-589.6885986328125,-6794.134765625,3925.164794921875,1389.9803466796875,1463.89013671875,-5026.65869140625,1493.2950439453125,0.0,-2458.095458984375,0.0,-2121.92529296875,-0.0,-378.2908020019531
-9481.9072265625,-8484.5224609375,-4155.6357421875,1998.7423095703125,3126.462158203125,20290.216796875,-1652.24072265625,3156.662109375,-2036.0947265625,4963.875,-7312.2978515625,-4178.6826171875,-4692.07763671875,3774.960693359375,855.1279907226562,-3782.11328125,511.80523681640625,3705.024658203125,5342.96044921875,17031.828125,3494.421630859375,12643.3369140625,2311.07080078125,16601.0859375,-5424.8173828125,-4856.58642578125,-2733.866455078125,-956.0584716796875,-5655.28857421875,1535.4156494140625,6976.12744140625,7291.63525390625,3966.490234375,5696.61474609375,989.4371337890625,6683.66748046875,-301.9968566894531,20136.037109375,-2392.927978515625,-0.0,-1407.46435546875,9319.7822265625,-1606.146484375,700.1558837890625,2149.740966796875,9243.48828125,-5400.1806640625,3240.1083984375,-5004.40576171875,-489.55279541015625,-599.225341796875,9987.3544921875,-10041.396484375,-9738.6044921875,-5388.259765625,-1076.0625,123.18293762207031,-5063.2158203125,-1312.8916015625,-569.0256958007812,-6778.240234375,3938.6748046875,1397.9276123046875,1499.65283203125,-5018.7109375,1518.726318359375,0.0,-2440.611572265625,0.0,-2102.05712890625,-0.0,-363.9856872558594
-9477.138671875,-8487.701171875,-4155.6357421875,2009.86865234375,3130.43603515625,20294.189453125,-1648.26708984375,3155.867431640625,-2024.9683837890625,4946.390625,-7326.60302734375,-4182.65673828125,-4702.4091796875,3790.060791015625,863.0752563476562,-3794.8291015625,515.7788696289062,3708.20361328125,5345.3447265625,17023.8828125,3499.190185546875,12647.3115234375,2314.249755859375,16605.05859375,-5412.896484375,-4847.8447265625,-2730.6875,-954.4690551757812,-5664.8251953125,1529.8525390625,6981.69091796875,7294.8134765625,3968.87451171875,5701.38330078125,995.000244140625,6687.64111328125,-296.43377685546875,20136.833984375,-2376.238525390625,-0.0,-1400.311767578125,9326.9345703125,-1601.3780517578125,700.1558837890625,2154.50927734375,9238.7197265625,-5399.3857421875,3248.8505859375,-5003.611328125,-487.16864013671875,-591.278076171875,9983.3798828125,-10044.5751953125,-9740.193359375,-5397.796875,-1080.8309326171875,115.23564910888672,-5075.13671875,-1303.3548583984375,-586.5097045898438,-6767.1142578125,3943.443359375,1398.7222900390625,1498.0634765625,-5014.73779296875,1515.54736328125,0.0,-2438.227294921875,0.0,-2119.541259765625,-0.0,-377.49609375
-9476.34375,-8515.517578125,-4147.6884765625,2011.4581298828125,3134.40966796875,20292.6015625,-1646.6776123046875,3158.25146484375,-2023.3790283203125,4951.1591796875,-7315.47705078125,-4190.603515625,-4689.693359375,3792.44482421875,874.9962158203125,-3789.265869140625,515.7788696289062,3709.79296875,5346.93408203125,17029.443359375,3502.368896484375,12645.7216796875,2315.839111328125,16604.265625,-5409.7177734375,-4847.8447265625,-2725.124267578125,-956.8532104492188,-5667.20947265625,1508.3948974609375,6982.4853515625,7295.6083984375,3972.848388671875,5702.177734375,995.000244140625,6688.43603515625,-294.0495910644531,20138.421875,-2375.443603515625,-0.0,-1396.338134765625,9328.5244140625,-1598.19921875,699.3611450195312,2156.8935546875,9244.283203125,-5379.51806640625,3249.645263671875,-5000.4326171875,-488.7580871582031,-583.330810546875,9987.3544921875,-10023.9111328125,-9760.0625,-5401.77001953125,-1094.34130859375,127.15657043457031,-5079.11083984375,-1304.9443359375,-590.4833374023438,-6766.3193359375,3943.443359375,1400.311767578125,1493.2950439453125,-5017.916015625,1506.805419921875,0.0,-2441.40625,0.0,-2124.3095703125,-0.0,-376.70135498046875
-9499.390625,-8527.4384765625,-4163.58349609375,1997.153076171875,3119.3095703125,20279.884765625,-1655.419677734375,3147.919921875,-2034.505126953125,4943.2119140625,-7328.1923828125,-4207.29296875,-4662.67236328125,3767.013671875,867.0488891601562,-3790.060791015625,501.4737243652344,3698.666748046875,5338.19189453125,17020.703125,3488.063720703125,12634.5947265625,2303.918212890625,16593.93359375,-5427.99609375,-4858.970703125,-2735.455810546875,-967.9794311523438,-5676.74658203125,1492.500244140625,6968.97509765625,7285.27685546875,3960.132568359375,5690.2568359375,981.4898071289062,6675.72021484375,-305.17578125,20127.296875,-2381.0068359375,-0.0,-1408.259033203125,9315.013671875,-1610.1201171875,687.4402465820312,2148.1513671875,9235.541015625,-5381.90234375,3234.54541015625,-5019.505859375,-500.67901611328125,-588.8939208984375,9980.99609375,-10043.7802734375,-9780.724609375,-5411.306640625,-1108.6463623046875,138.28277587890625,-5075.931640625,-1307.32861328125,-592.0728149414062,-6786.98193359375,3929.93310546875,1390.7750244140625,1467.0689697265625,-5027.453125,1495.67919921875,0.0,-2457.30078125,0.0,-2135.435791015625,-0.0,-393.3906555175781
