-5253.41259765625,-11018.4814453125,5860.4208984375,7591.00732421875,14017.7939453125,13433.7666015625,13181.1025390625,11664.77734375,12338.955078125,9138.021484375,15569.2529296875,0.0,12305.55859375,0.0,11029.884765625,15012.85546875,24489.568359375,11327.20703125,7210.03125,4953.66162109375,2790.336181640625,13945.8818359375,12366.8828125,8702.93359375,0.0,1531.8714599609375,6155.65380859375,3779.072998046875,-2288.95849609375,-8186.92333984375,12201.251953125,2256.37646484375,8548.068359375,13157.8359375,9438.0068359375,14685.369140625,4312.70947265625,8830.6396484375,2970.96337890625,0.0,3862.16845703125,10884.078125,6317.775390625,7291.154296875,18530.1328125,5341.60693359375,-4350.78466796875,6705.5146484375,5049.50244140625,24621.6796875,5305.25634765625,10919.1796875,-7832.345703125,-11284.79296875,6613.15087890625,4303.19580078125,8552.54296875,3719.057373046875,5615.31640625,3685.61181640625,-1525.838623046875,7607.97705078125,7292.95361328125,7849.9716796875,-15175.994140625,-0.0,-0.0,8363.958984375,6164.41650390625,-4793.87841796875,0.0,11069.2890625
-5224.7705078125,-10986.9638671875,5864.44970703125,7603.0673828125,14028.439453125,13446.1796875,13192.2138671875,11679.0791015625,12348.4833984375,9161.689453125,15608.59765625,0.0,12315.9833984375,0.0,11036.2763671875,15026.1259765625,24500.890625,11339.228515625,7223.66455078125,4970.669921875,2800.2041015625,13957.6162109375,12377.9384765625,8714.953125,0.0,1547.6136474609375,6166.66650390625,3791.834716796875,-2277.89453125,-8170.6669921875,12213.703125,2263.44873046875,8557.0859375,13168.408203125,9449.9375,14697.0478515625,4325.72802734375,8844.94921875,3004.205322265625,0.0,3869.620849609375,10896.9326171875,6328.3251953125,7304.39208984375,18542.880859375,5355.77978515625,-4331.8466796875,6716.869140625,5060.37353515625,24634.056640625,5316.96142578125,10932.4404296875,-7778.48583984375,-11276.5009765625,6634.5478515625,4319.64013671875,8565.1162109375,3730.85205078125,5626.9990234375,3700.21630859375,-1490.65283203125,7623.494140625,7306.2236328125,7865.68408203125,-15136.0859375,-0.0,-0.0,8390.14453125,6169.30029296875,-4762.4140625,0.0,11098.35546875
-5216.6904296875,-11001.9130859375,5854.60205078125,7588.396484375,14018.1630859375,13429.4873046875,13179.65625,11661.8662109375,12337.3701171875,9150.8349609375,15600.259765625,0.0,12303.8740234375,0.0,11018.8330078125,15003.337890625,24488.802734375,11326.2109375,7209.3818359375,4958.31494140625,2786.6240234375,13945.0,12363.3662109375,8699.615234375,0.0,1533.00341796875,6156.12744140625,3772.708984375,-2281.810791015625,-8189.6484375,12201.4638671875,2249.94677734375,8546.4296875,13155.0869140625,9437.9130859375,14683.4990234375,4311.98291015625,8828.66015625,2997.572998046875,0.0,3860.06689453125,10880.41015625,6316.2998046875,7284.9404296875,18529.771484375,5341.82470703125,-4340.2705078125,6701.11572265625,5053.00244140625,24616.611328125,5303.40380859375,10907.58984375,-7770.7158203125,-11295.8505859375,6617.03955078125,4303.29736328125,8556.88671875,3713.009033203125,5614.6015625,3690.27392578125,-1493.7152099609375,7610.72509765625,7292.912109375,7846.177734375,-15144.94140625,-0.0,-0.0,8372.4541015625,6173.45361328125,-4781.66455078125,0.0,11075.0830078125
-5249.94287109375,-11054.357421875,5861.38134765625,7592.35107421875,14019.37890625,13429.0712890625,13177.6171875,11663.67578125,12344.587890625,9157.44921875,15598.43359375,0.0,12302.56640625,0.0,11014.083984375,15006.4794921875,24491.271484375,11327.1181640625,7210.9970703125,4964.04150390625,2787.697509765625,13950.1279296875,12363.654296875,8702.29296875,0.0,1534.6767578125,6152.29736328125,3774.121826171875,-2285.47900390625,-8184.7060546875,12204.8857421875,2254.8974609375,8552.5546875,13159.349609375,9439.4150390625,14685.9443359375,4312.3671875,8830.4228515625,3007.738525390625,0.0,3865.27587890625,10883.0322265625,6317.001953125,7286.3828125,18529.958984375,5344.423828125,-4325.91943359375,6704.55078125,5052.77490234375,24616.611328125,5299.130859375,10910.3486328125,-7820.83642578125,-11296.8125,6617.955078125,4303.67822265625,8550.12890625,3716.79248046875,5604.966796875,3691.34814453125,-1483.92626953125,7612.10986328125,7295.7744140625,7850.86767578125,-15155.939453125,-0.0,-0.0,8365.291015625,6186.63623046875,-4780.8740234375,0.0,11078.1318359375
-5233.0859375,-11077.5439453125,5843.6005859375,7580.05126953125,14000.8359375,13413.0947265625,13161.3486328125,11650.7978515625,12334.3076171875,9131.6826171875,15568.3046875,0.0,12296.640625,0.0,10998.8984375,15001.462890625,24473.501953125,11310.1015625,7195.92529296875,4945.89794921875,2768.63671875,13932.580078125,12347.9619140625,8684.7578125,0.0,1515.671630859375,6136.27099609375,3761.306884765625,-2299.234375,-8197.4248046875,12187.796875,2235.170166015625,8534.1767578125,13142.2216796875,9419.763671875,14669.0615234375,4296.83544921875,8816.3828125,2987.996826171875,0.0,3848.414794921875,10867.08984375,6299.4912109375,7273.0380859375,18514.75390625,5327.765625,-4339.82958984375,6693.076171875,5033.509765625,24599.845703125,5280.86962890625,10903.2265625,-7857.734375,-11324.54296875,6600.138671875,4283.1240234375,8541.1533203125,3703.684814453125,5595.6044921875,3672.074462890625,-1490.0045166015625,7595.32568359375,7279.96826171875,7836.73486328125,-15171.7919921875,-0.0,-0.0,8346.115234375,6180.79345703125,-4807.56884765625,0.0,11049.58203125
-5223.31689453125,-11062.794921875,5832.04296875,7572.99072265625,13992.1884765625,13408.365234375,13155.654296875,11651.517578125,12331.443359375,9121.1318359375,15545.7666015625,0.0,12291.0654296875,0.0,10992.1806640625,15009.142578125,24464.2734375,11301.90625,7189.30078125,4937.42919921875,2759.08544921875,13924.822265625,12342.2197265625,8679.310546875,0.0,1502.857177734375,6130.29736328125,3763.610107421875,-2312.70849609375,-8211.220703125,12178.638671875,2229.216552734375,8524.3154296875,13134.033203125,9410.6943359375,14662.09375,4288.42041015625,8813.12109375,2961.46533203125,0.0,3837.82177734375,10859.060546875,6292.93994140625,7269.8310546875,18508.17578125,5325.58984375,-4366.0927734375,6688.5009765625,5027.7880859375,24597.236328125,5274.5712890625,10909.521484375,-7852.9521484375,-11353.6865234375,6592.1416015625,4271.25,8539.0537109375,3705.586669921875,5589.39501953125,3682.739013671875,-1517.3231201171875,7586.01171875,7274.6650390625,7830.12890625,-15191.93359375,-0.0,-0.0,8365.7421875,6180.3525390625,-4799.1513671875,0.0,11045.7099609375
-5170.80908203125,-11074.458984375,5868.03173828125,7612.81787109375,14030.9228515625,13446.880859375,13192.931640625,11689.603515625,12369.2119140625,9162.17578125,15588.171875,0.0,12325.0478515625,0.0,11029.912109375,15039.6923828125,24502.2890625,11339.9697265625,7226.38525390625,4974.962890625,2797.703369140625,13963.92578125,12381.3876953125,8716.966796875,0.0,1542.6015625,6168.3251953125,3799.247314453125,-2285.888916015625,-8178.28271484375,12215.734375,2265.054443359375,8562.681640625,13171.3017578125,9449.2568359375,14700.3037109375,4325.2568359375,8850.1064453125,3007.4697265625,0.0,3874.328125,10897.1748046875,6333.15234375,7308.0517578125,18545.92578125,5362.86376953125,-4340.68017578125,6728.0986328125,5066.958984375,24637.01953125,5315.0849609375,10947.9404296875,-7804.619140625,-11323.41015625,6629.5625,4309.35546875,8573.7529296875,3737.43115234375,5624.796875,3716.401611328125,-1511.5968017578125,7623.84375,7310.94677734375,7869.037109375,-15154.9453125,-0.0,-0.0,8409.3076171875,6216.9990234375,-4752.88232421875,0.0,11094.8388671875
-5115.17431640625,-11026.974609375,5890.63916015625,7640.1015625,14056.6513671875,13472.7021484375,13218.1328125,11705.703125,12390.7021484375,9188.7216796875,15607.912109375,0.0,12346.177734375,0.0,11048.0771484375,15039.7099609375,24527.447265625,11366.763671875,7250.22900390625,4996.794921875,2824.35107421875,13990.0126953125,12407.4072265625,8741.21875,0.0,1575.157470703125,6192.62890625,3814.600341796875,-2259.21044921875,-8140.353515625,12241.111328125,2285.7275390625,8586.16796875,13198.07421875,9475.3076171875,14726.634765625,4350.69580078125,8871.76171875,3038.615234375,0.0,3901.5078125,10924.451171875,6357.71337890625,7328.63671875,18569.392578125,5381.984375,-4332.24169921875,6755.0546875,5095.0029296875,24663.08984375,5337.44189453125,10953.197265625,-7721.4921875,-11290.6142578125,6662.34326171875,4341.265625,8590.0576171875,3755.4638671875,5655.60791015625,3725.475830078125,-1471.19970703125,7650.380859375,7333.57470703125,7893.541015625,-15109.365234375,-0.0,-0.0,8410.44921875,6233.98193359375,-4751.5458984375,0.0,11109.2451171875
-5154.287109375,-11005.9384765625,5864.8427734375,7611.2470703125,14032.3232421875,13450.068359375,13197.142578125,11679.8896484375,12368.2451171875,9174.435546875,15587.19921875,0.0,12309.892578125,0.0,11025.4765625,15005.9013671875,24503.12890625,11345.8583984375,7229.49853515625,4978.27197265625,2801.013427734375,13965.9189453125,12385.1640625,8721.5107421875,0.0,1553.720703125,6167.98681640625,3788.662109375,-2288.33203125,-8156.0546875,12220.517578125,2263.70751953125,8560.1708984375,13175.0341796875,9453.2451171875,14704.30859375,4329.3935546875,8849.921875,2978.872802734375,0.0,3876.524169921875,10900.990234375,6332.71142578125,7304.388671875,18547.322265625,5362.62744140625,-4350.00732421875,6723.892578125,5066.67041015625,24640.150390625,5316.14697265625,10918.884765625,-7739.658203125,-11292.2236328125,6641.45556640625,4319.34765625,8555.7861328125,3735.064453125,5636.56494140625,3707.119873046875,-1453.92626953125,7630.802734375,7314.662109375,7875.45361328125,-15126.5849609375,-0.0,-0.0,8381.29296875,6220.48193359375,-4776.92236328125,0.0,11090.53515625
-5209.65087890625,-11011.7724609375,5829.38525390625,7564.09228515625,13995.8896484375,13409.40234375,13160.767578125,11641.6318359375,12329.1962890625,9136.91796875,15553.9482421875,0.0,12268.013671875,0.0,10995.8828125,14969.5693359375,24464.146484375,11308.52734375,7192.37744140625,4941.0458984375,2763.9306640625,13925.6953125,12347.0927734375,8683.25,0.0,1511.9693603515625,6131.41357421875,3750.40869140625,-2325.116943359375,-8196.74609375,12182.236328125,2225.239501953125,8523.759765625,13133.9287109375,9416.3779296875,14665.390625,4292.1435546875,8811.2568359375,2942.25048828125,0.0,3839.862548828125,10859.4296875,6297.41845703125,7265.2373046875,18512.609375,5325.20654296875,-4364.03466796875,6676.826171875,5028.6728515625,24598.9609375,5281.6669921875,10878.583984375,-7827.783203125,-11304.7744140625,6596.95068359375,4277.9443359375,8519.55859375,3695.906982421875,5602.36669921875,3667.920654296875,-1498.2158203125,7592.9521484375,7277.63818359375,7834.4375,-15177.205078125,-0.0,-0.0,8329.9716796875,6191.5751953125,-4816.111328125,0.0,11053.7490234375
-5243.7548828125,-10982.955078125,5828.95849609375,7555.72900390625,13991.0078125,13404.2138671875,13151.0341796875,11638.60546875,12315.005859375,9118.2890625,15557.4091796875,0.0,12272.3779296875,0.0,10986.7021484375,14983.142578125,24458.32421875,11301.8818359375,7183.4794921875,4925.025390625,2759.440185546875,13920.0712890625,12338.91015625,8677.3916015625,0.0,1503.2254638671875,6123.11083984375,3750.482666015625,-2305.7548828125,-8203.2099609375,12175.45703125,2219.924560546875,8521.5146484375,13127.80859375,9410.576171875,14659.263671875,4283.052734375,8805.521484375,2957.83544921875,0.0,3838.2099609375,10853.6650390625,6291.7333984375,7263.009765625,18501.7421875,5315.8896484375,-4367.26220703125,6668.5419921875,5026.560546875,24595.27734375,5270.04248046875,10884.044921875,-7839.2578125,-11305.5673828125,6598.56689453125,4273.92333984375,8515.744140625,3696.925048828125,5584.365234375,3648.59814453125,-1511.508544921875,7584.71630859375,7266.29931640625,7813.85986328125,-15186.34765625,-0.0,-0.0,8325.572265625,6167.46240234375,-4832.13916015625,0.0,11034.76953125
-5227.55615234375,-11019.5888671875,5815.1513671875,7551.29248046875,13981.5615234375,13397.7431640625,13143.0546875,11634.8095703125,12308.947265625,9109.30859375,15561.3681640625,0.0,12273.2421875,0.0,10984.048828125,14989.771484375,24451.22265625,11293.224609375,7175.4130859375,4918.21728515625,2749.2568359375,13912.5439453125,12330.6337890625,8670.03125,0.0,1494.2808837890625,6118.64892578125,3749.199951171875,-2301.548583984375,-8215.5927734375,12166.3330078125,2214.43505859375,8511.7119140625,13120.2138671875,9401.033203125,14652.00390625,4275.43212890625,8800.3466796875,2944.6298828125,0.0,3825.098876953125,10846.892578125,6282.7939453125,7258.703125,18493.734375,5310.94970703125,-4378.8486328125,6662.8037109375,5018.22900390625,24588.939453125,5265.2421875,10887.72265625,-7843.5771484375,-11314.544921875,6588.34521484375,4266.4267578125,8518.3349609375,3691.760986328125,5571.4404296875,3640.218505859375,-1528.4224853515625,7574.65771484375,7259.40625,7806.31103515625,-15193.8583984375,-0.0,-0.0,8331.5283203125,6160.818359375,-4830.3671875,0.0,11032.75
-5234.46337890625,-11029.380859375,5818.09033203125,7555.294921875,13983.2509765625,13401.8017578125,13147.77734375,11639.6015625,12317.83984375,9115.93359375,15548.9189453125,0.0,12278.0703125,0.0,10997.4716796875,14991.0126953125,24452.693359375,11293.890625,7178.83447265625,4926.45361328125,2749.76611328125,13914.11328125,12332.998046875,8670.83984375,0.0,1495.74267578125,6125.205078125,3753.01416015625,-2303.2568359375,-8217.3515625,12166.69140625,2214.908447265625,8512.8408203125,13121.4599609375,9401.986328125,14653.755859375,4279.3154296875,8802.0888671875,2960.80810546875,0.0,3826.282470703125,10849.208984375,6286.42431640625,7260.916015625,18500.73046875,5317.7783203125,-4361.58447265625,6667.49462890625,5020.669921875,24592.083984375,5273.4482421875,10892.6748046875,-7832.689453125,-11318.4638671875,6588.2607421875,4272.7548828125,8531.423828125,3692.75927734375,5574.8154296875,3660.644287109375,-1539.5455322265625,7574.79443359375,7264.33203125,7812.74853515625,-15197.8994140625,-0.0,-0.0,8346.64453125,6170.0458984375,-4810.23681640625,0.0,11047.5654296875
-5263.54248046875,-11029.4208984375,5840.2216796875,7570.8603515625,13997.3857421875,13415.26171875,13158.9404296875,11649.841796875,12329.19140625,9126.609375,15542.4365234375,0.0,12285.705078125,0.0,11008.1015625,14988.033203125,24467.875,11306.666015625,7191.02880859375,4936.7890625,2763.87890625,13927.828125,12345.1337890625,8681.7509765625,0.0,1511.82470703125,6135.98828125,3757.537109375,-2301.41943359375,-8204.373046875,12180.57421875,2229.345947265625,8529.1552734375,13137.787109375,9413.7744140625,14665.7646484375,4290.46142578125,8811.9384765625,2974.335205078125,0.0,3844.0908203125,10864.16796875,6297.21484375,7272.18505859375,18511.025390625,5330.77978515625,-4329.51123046875,6684.60595703125,5030.78857421875,24604.828125,5283.79248046875,10896.724609375,-7824.89404296875,-11305.7119140625,6603.974609375,4292.6474609375,8536.8701171875,3699.6708984375,5585.0751953125,3688.31005859375,-1524.095703125,7586.83349609375,7275.28759765625,7822.8134765625,-15183.134765625,-0.0,-0.0,8343.359375,6181.44921875,-4808.1767578125,0.0,11053.46484375
-5238.8759765625,-11006.615234375,5843.65478515625,7572.47216796875,13999.255859375,13417.87109375,13159.8544921875,11651.6650390625,12331.6689453125,9135.0107421875,15528.5185546875,0.0,12276.8408203125,0.0,10997.765625,14982.92578125,24472.609375,11309.736328125,7194.4326171875,4942.2734375,2767.43798828125,13930.8486328125,12348.8603515625,8684.2138671875,0.0,1518.419189453125,6135.44921875,3759.717529296875,-2316.603271484375,-8199.2431640625,12184.47265625,2237.2490234375,8532.9619140625,13143.818359375,9415.447265625,14669.029296875,4293.98388671875,8814.5478515625,2961.521240234375,0.0,3846.190185546875,10868.845703125,6298.4384765625,7275.4111328125,18514.662109375,5333.24365234375,-4325.17041015625,6686.9755859375,5029.2099609375,24606.828125,5280.88330078125,10895.2275390625,-7849.9697265625,-11298.744140625,6599.9794921875,4296.18359375,8525.513671875,3705.10009765625,5597.11669921875,3691.735595703125,-1499.020751953125,7588.6025390625,7280.59033203125,7832.19189453125,-15174.662109375,-0.0,-0.0,8329.0048828125,6192.01513671875,-4811.81884765625,0.0,11056.615234375
-5237.4453125,-10987.515625,5836.75732421875,7565.4130859375,13990.771484375,13406.2587890625,13149.5078125,11636.5263671875,12319.58203125,9121.8759765625,15517.994140625,0.0,12269.923828125,0.0,10987.6455078125,14964.857421875,24465.548828125,11299.212890625,7183.49755859375,4929.91015625,2760.61376953125,13922.0185546875,12338.2177734375,8672.5966796875,0.0,1509.6165771484375,6125.47119140625,3746.61572265625,-2324.814697265625,-8207.9658203125,12176.587890625,2231.38916015625,8526.349609375,13135.8134765625,9407.412109375,14656.84765625,4282.97802734375,8802.654296875,2963.213623046875,0.0,3840.073974609375,10858.91796875,6290.24755859375,7263.57666015625,18505.037109375,5316.5537109375,-4358.55810546875,6679.171875,5021.5087890625,24597.0078125,5272.48193359375,10877.16015625,-7834.14599609375,-11310.205078125,6593.03369140625,4285.58544921875,8518.154296875,3696.044921875,5590.4794921875,3663.89697265625,-1506.1580810546875,7577.43505859375,7266.58984375,7818.9775390625,-15180.27734375,-0.0,-0.0,8318.9765625,6180.84326171875,-4831.9599609375,0.0,11038.96875
-5250.38232421875,-11017.083984375,5829.19775390625,7561.4423828125,13983.212890625,13394.9375,13140.119140625,11624.900390625,12310.064453125,9116.689453125,15534.0712890625,0.0,12280.314453125,0.0,10984.05859375,14955.666015625,24459.5546875,11290.986328125,7174.98876953125,4922.6630859375,2753.04736328125,13915.119140625,12330.4130859375,8663.533203125,0.0,1500.8255615234375,6120.8212890625,3734.83837890625,-2313.813720703125,-8212.85546875,12169.5166015625,2219.5263671875,8519.7197265625,13125.212890625,9402.328125,14648.181640625,4274.328125,8793.55859375,2964.9462890625,0.0,3834.79443359375,10849.9140625,6283.28857421875,7252.33740234375,18496.376953125,5305.8720703125,-4407.455078125,6675.0087890625,5014.337890625,24588.041015625,5266.568359375,10863.029296875,-7811.52734375,-11320.046875,6592.3173828125,4278.412109375,8524.4482421875,3683.426025390625,5581.18359375,3645.50634765625,-1552.3973388671875,7568.65380859375,7258.0302734375,7812.3310546875,-15188.5,-0.0,-0.0,8312.6435546875,6166.71435546875,-4840.34814453125,0.0,11035.6865234375
-5222.09716796875,-11012.0234375,5850.08984375,7581.599609375,14005.8701171875,13419.03125,13164.5,11652.515625,12339.947265625,9147.6240234375,15584.11328125,0.0,12288.58984375,0.0,11003.580078125,14990.564453125,24482.857421875,11315.509765625,7200.36962890625,4952.2763671875,2777.08203125,13939.302734375,12355.0302734375,8691.7412109375,0.0,1521.3814697265625,6143.79248046875,3760.968505859375,-2280.187255859375,-8189.21728515625,12191.6923828125,2240.396484375,8540.23828125,13148.154296875,9425.431640625,14672.966796875,4301.4150390625,8820.2958984375,2973.508056640625,-0.0,3855.41259765625,10873.271484375,6308.35595703125,7276.818359375,18522.45703125,5333.7373046875,-4361.4326171875,6694.4033203125,5037.66455078125,24610.263671875,5289.6484375,10893.970703125,-7779.7080078125,-11297.697265625,6600.90869140625,4295.13427734375,8540.3203125,3703.162109375,5609.04736328125,3670.265625,-1526.9466552734375,7594.50732421875,7286.4111328125,7843.24658203125,-15164.279296875,-0.0,-0.0,8347.326171875,6202.89306640625,-4801.85302734375,0.0,11075.7060546875
-5236.017578125,-11006.1669921875,5855.470703125,7590.92138671875,14014.640625,13429.806640625,13175.380859375,11662.33203125,12353.7529296875,9149.55859375,15592.6494140625,0.0,12283.5791015625,0.0,11015.921875,15001.4814453125,24491.16796875,11325.0244140625,7209.7412109375,4960.44580078125,2785.4150390625,13946.841796875,12362.623046875,8701.171875,0.0,1529.166748046875,6150.9658203125,3769.845703125,-2291.1044921875,-8182.80322265625,12200.69921875,2249.44775390625,8546.1533203125,13157.6005859375,9432.5537109375,14681.70703125,4310.431640625,8829.6669921875,2988.604248046875,0.0,3861.195068359375,10882.1591796875,6315.677734375,7286.31640625,18532.044921875,5342.853515625,-4344.03759765625,6704.63037109375,5042.73095703125,24620.302734375,5299.68115234375,10905.31640625,-7788.853515625,-11291.837890625,6584.58154296875,4298.89697265625,8539.75,3706.11865234375,5618.91748046875,3683.21826171875,-1504.1497802734375,7604.423828125,7294.76513671875,7849.490234375,-15165.833984375,-0.0,-0.0,8353.53515625,6223.8701171875,-4801.43212890625,0.0,11077.6162109375
-5249.056640625,-10997.021484375,5858.62646484375,7602.60888671875,14016.6875,13439.873046875,13179.5068359375,11675.5,12359.892578125,9151.6201171875,15587.8984375,0.0,12295.3427734375,0.0,11023.37890625,15017.595703125,24497.787109375,11332.083984375,7217.486328125,4965.9599609375,2789.46630859375,13953.6875,12368.97265625,8708.7578125,0.0,1539.1981201171875,6155.232421875,3783.599609375,-2306.22802734375,-8179.52783203125,12207.6015625,2253.3046875,8549.9404296875,13163.0234375,9437.4814453125,14689.7734375,4316.71435546875,8837.7900390625,3011.1953125,0.0,3861.182373046875,10891.2783203125,6318.8173828125,7297.92431640625,18538.154296875,5352.6279296875,-4349.40087890625,6717.47021484375,5042.5869140625,24632.751953125,5305.92919921875,10921.6943359375,-7817.84228515625,-11293.89453125,6594.06884765625,4311.1845703125,8543.6318359375,3715.824462890625,5623.875,3706.370361328125,-1503.79345703125,7612.70654296875,7302.66357421875,7857.15771484375,-15172.45703125,-0.0,-0.0,8368.72265625,6231.3427734375,-4792.68310546875,0.0,11080.0986328125
-5251.47509765625,-10981.1728515625,5883.64208984375,7624.37890625,14038.71484375,13463.1875,13199.1650390625,11697.767578125,12373.984375,9170.623046875,15603.2060546875,0.0,12313.17578125,0.0,11039.3544921875,15038.5888671875,24520.36328125,11355.203125,7237.771484375,4980.703125,2812.7197265625,13976.8388671875,12390.0400390625,8730.0703125,0.0,1561.7889404296875,6175.83251953125,3807.336669921875,-2278.235595703125,-8166.728515625,12228.3720703125,2278.58203125,8573.8203125,13187.2958984375,9458.74609375,14711.638671875,4335.78759765625,8858.900390625,3028.331787109375,0.0,3882.529052734375,10914.0888671875,6340.72998046875,7320.50439453125,18555.732421875,5373.53271484375,-4303.65185546875,6738.2353515625,5068.77978515625,24658.099609375,5325.4541015625,10948.7548828125,-7798.76416015625,-11278.5869140625,6630.783203125,4334.68603515625,8558.814453125,3734.22900390625,5640.11767578125,3729.757080078125,-1469.5872802734375,7635.87255859375,7320.6875,7870.86962890625,-15145.68359375,-0.0,-0.0,8394.73828125,6246.158203125,-4763.59619140625,0.0,11096.671875
-5272.3388671875,-11024.9423828125,5863.623046875,7602.462890625,14018.7607421875,13435.4638671875,13176.12890625,11666.203125,12344.625,9144.5361328125,15588.3583984375,0.0,12305.5322265625,0.0,11019.3662109375,15001.4814453125,24498.154296875,11331.3125,7209.7578125,4953.75830078125,2790.810546875,13953.908203125,12365.982421875,8702.0673828125,0.0,1536.3214111328125,6156.39208984375,3775.414794921875,-2285.803955078125,-8185.33935546875,12205.673828125,2257.9951171875,8554.357421875,13165.509765625,9437.384765625,14688.12109375,4309.13330078125,8830.66796875,2994.2744140625,0.0,3865.1396484375,10889.205078125,6318.52685546875,7292.1396484375,18528.775390625,5343.2939453125,-4341.67822265625,6716.81640625,5053.19873046875,24630.5,5302.4501953125,10915.2080078125,-7814.72021484375,-11294.7373046875,6620.3193359375,4309.86328125,8548.30859375,3704.882568359375,5610.86669921875,3684.35107421875,-1495.0712890625,7611.46923828125,7292.18896484375,7842.76318359375,-15156.4580078125,-0.0,-0.0,8362.107421875,6212.41943359375,-4795.4560546875,0.0,11065.2734375
-5283.9951171875,-11078.4658203125,5827.6162109375,7568.4443359375,13982.5693359375,13399.125,13142.03125,11631.05859375,12314.130859375,9117.37890625,15558.2841796875,0.0,12277.0224609375,0.0,10992.185546875,14967.6962890625,24464.255859375,11295.6953125,7175.607421875,4924.32373046875,2754.0927734375,13918.322265625,12331.6591796875,8667.798828125,0.0,1504.0140380859375,6124.283203125,3737.5888671875,-2322.067138671875,-8208.8271484375,12169.9697265625,2225.09326171875,8519.0859375,13130.1298828125,9402.4423828125,14653.2744140625,4274.548828125,8797.5341796875,2926.754150390625,0.0,3829.2919921875,10855.1552734375,6284.38720703125,7254.97119140625,18494.412109375,5310.814453125,-4370.2509765625,6683.79931640625,5019.9541015625,24591.12109375,5270.7783203125,10877.08984375,-7841.453125,-11324.6220703125,6591.5087890625,4275.04345703125,8526.681640625,3674.72705078125,5576.0556640625,3655.23681640625,-1548.7293701171875,7576.1533203125,7260.388671875,7817.6259765625,-15182.1650390625,-0.0,-0.0,8339.2626953125,6181.86474609375,-4819.83056640625,0.0,11042.2861328125
-5306.7763671875,-11081.8154296875,5825.16552734375,7558.3046875,13972.79296875,13390.01171875,13130.369140625,11617.8720703125,12300.583984375,9102.3408203125,15553.8125,0.0,12258.4833984375,0.0,10977.4072265625,14953.78515625,24457.15234375,11287.3310546875,7163.95458984375,4908.71875,2745.485595703125,13907.6318359375,12321.333984375,8657.3984375,0.0,1495.52978515625,6110.67578125,3727.26513671875,-2334.329345703125,-8215.1845703125,12162.349609375,2218.90576171875,8511.958984375,13122.908203125,9392.681640625,14644.1728515625,4262.7138671875,8784.537109375,2934.731201171875,0.0,3821.58251953125,10846.1337890625,6272.30029296875,7242.78955078125,18481.123046875,5296.75390625,-4343.5419921875,6674.2138671875,5007.92236328125,24578.568359375,5256.07177734375,10863.9814453125,-7862.78759765625,-11344.5078125,6570.4365234375,4263.990234375,8514.154296875,3665.10205078125,5565.201171875,3644.948974609375,-1557.916748046875,7565.2451171875,7246.99365234375,7796.90576171875,-15195.302734375,-0.0,-0.0,8321.6513671875,6172.197265625,-4838.89404296875,0.0,11022.9990234375
-5297.26123046875,-11091.5078125,5814.85400390625,7541.74365234375,13958.8720703125,13373.115234375,13116.8681640625,11600.953125,12287.8076171875,9081.34375,15536.2275390625,0.0,12240.89453125,0.0,10958.0322265625,14939.21875,24443.673828125,11273.2734375,7148.79296875,4892.71875,2732.593505859375,13893.46484375,12306.537109375,8642.1044921875,0.0,1478.8095703125,6095.439453125,3710.656494140625,-2347.5869140625,-8236.830078125,12148.4873046875,2201.8759765625,8500.4619140625,13108.7373046875,9380.0888671875,14628.78125,4249.01513671875,8767.94140625,2940.714111328125,0.0,3809.9677734375,10830.1708984375,6257.6533203125,7227.50341796875,18466.6484375,5279.55908203125,-4357.10107421875,6655.86962890625,4994.69775390625,24558.24609375,5240.5244140625,10846.1474609375,-7895.3671875,-11364.8603515625,6550.3583984375,4244.89501953125,8499.6103515625,3651.3505859375,5555.94677734375,3618.156494140625,-1552.2374267578125,7552.1787109375,7231.435546875,7777.671875,-15227.0478515625,-0.0,-0.0,8303.0087890625,6166.5400390625,-4860.78173828125,0.0,11002.2421875
-5240.515625,-11063.5703125,5828.69189453125,7565.49951171875,13986.0263671875,13401.1123046875,13144.751953125,11632.9345703125,12319.9248046875,9108.30859375,15543.625,0.0,12255.3232421875,0.0,10985.4736328125,14979.4521484375,24465.564453125,11301.982421875,7177.68798828125,4923.44287109375,2755.290283203125,13918.990234375,12333.275390625,8671.873046875,0.0,1507.2689208984375,6124.89013671875,3744.275634765625,-2329.32861328125,-8211.1484375,12173.3515625,2223.21826171875,8520.677734375,13132.291015625,9405.37109375,14655.78125,4278.42333984375,8799.291015625,2949.090576171875,0.0,3830.36376953125,10856.5810546875,6286.53857421875,7258.6513671875,18496.90625,5308.49560546875,-4359.4443359375,6678.806640625,5021.234375,24587.658203125,5270.20751953125,10882.57421875,-7865.3291015625,-11336.986328125,6578.4482421875,4274.39013671875,8522.9462890625,3687.110595703125,5587.5009765625,3641.23193359375,-1531.541259765625,7582.4873046875,7260.80126953125,7813.19384765625,-15207.462890625,-0.0,-0.0,8329.6318359375,6203.58544921875,-4838.65869140625,0.0,11029.205078125
-5208.42724609375,-11019.720703125,5852.95556640625,7600.60302734375,14021.9541015625,13437.7978515625,13182.361328125,11671.1171875,12354.1982421875,9147.189453125,15578.7724609375,0.0,12297.0283203125,0.0,11032.01171875,15018.3671875,24495.111328125,11337.560546875,7214.7685546875,4961.67236328125,2787.8173828125,13952.6689453125,12369.2158203125,8707.9951171875,0.0,1543.2899169921875,6164.13134765625,3785.4609375,-2293.42822265625,-8168.74462890625,12206.4638671875,2247.630126953125,8548.2314453125,13162.455078125,9438.7841796875,14692.0068359375,4316.41015625,8836.466796875,2995.97216796875,0.0,3861.379150390625,10890.8251953125,6323.44677734375,7297.39111328125,18533.916015625,5346.3642578125,-4337.607421875,6713.25537109375,5058.533203125,24628.958984375,5311.0693359375,10923.5615234375,-7801.3271484375,-11298.6865234375,6614.7626953125,4316.31396484375,8560.0546875,3728.500732421875,5622.8388671875,3682.88720703125,-1502.4638671875,7619.1015625,7298.06787109375,7851.33544921875,-15166.0751953125,-0.0,-0.0,8363.287109375,6236.39501953125,-4799.96240234375,0.0,11065.380859375
-5211.412109375,-10991.802734375,5860.60302734375,7602.83251953125,14024.525390625,13444.3564453125,13192.4228515625,11679.40234375,12360.2919921875,9166.7646484375,15587.453125,0.0,12317.9296875,0.0,11055.1650390625,15021.611328125,24501.2265625,11342.552734375,7222.9755859375,4975.82763671875,2794.035888671875,13958.9130859375,12375.6806640625,8714.060546875,0.0,1548.7689208984375,6173.9267578125,3792.2890625,-2278.4072265625,-8158.75830078125,12211.2216796875,2251.135986328125,8554.802734375,13166.7861328125,9444.697265625,14698.3671875,4324.1806640625,8844.041015625,2994.05322265625,0.0,3870.119140625,10896.3251953125,6331.00732421875,7303.6181640625,18540.921875,5359.2470703125,-4339.05078125,6715.5791015625,5064.74462890625,24636.98046875,5323.6435546875,10929.0576171875,-7766.00927734375,-11274.2646484375,6628.76025390625,4322.84716796875,8572.4169921875,3736.83056640625,5622.34521484375,3698.38916015625,-1487.6051025390625,7624.09765625,7308.70263671875,7867.326171875,-15153.99609375,-0.0,-0.0,8388.4912109375,6242.3310546875,-4769.4873046875,0.0,11095.126953125
-5226.193359375,-10985.591796875,5859.158203125,7596.66796875,14018.3134765625,13437.5693359375,13184.5556640625,11671.5595703125,12349.41796875,9162.4130859375,15570.2060546875,0.0,12311.20703125,0.0,11045.2685546875,15012.814453125,24497.40234375,11334.4794921875,7216.16650390625,4967.66064453125,2788.806884765625,13951.673828125,12370.0009765625,8707.21875,0.0,1543.4407958984375,6165.50048828125,3782.531005859375,-2282.389404296875,-8161.986328125,12206.08984375,2251.622314453125,8551.7236328125,13162.90234375,9439.5673828125,14691.8994140625,4316.24365234375,8837.0546875,2988.592529296875,0.0,3867.563232421875,10889.8466796875,6324.71142578125,7295.34912109375,18533.23046875,5352.30615234375,-4367.6181640625,6711.24072265625,5057.8095703125,24629.2734375,5316.640625,10917.9775390625,-7779.22705078125,-11265.287109375,6625.8369140625,4316.1025390625,8562.1884765625,3731.614013671875,5609.5107421875,3699.415283203125,-1499.086669921875,7614.62451171875,7299.56884765625,7863.12939453125,-15156.8291015625,-0.0,-0.0,8389.96875,6224.5625,-4769.029296875,0.0,11098.45703125
-5211.95947265625,-10988.3681640625,5873.123046875,7610.54296875,14027.84765625,13449.744140625,13191.2958984375,11681.44921875,12353.4951171875,9165.2548828125,15573.7666015625,0.0,12322.5439453125,0.0,11034.908203125,15024.876953125,24511.650390625,11344.1240234375,7224.873046875,4967.671875,2799.329345703125,13963.44140625,12380.2685546875,8716.7666015625,0.0,1557.3963623046875,6168.8349609375,3793.86962890625,-2269.925537109375,-8153.505859375,12218.412109375,2268.88671875,8565.5,13175.4716796875,9449.87109375,14702.5927734375,4324.47119140625,8846.2705078125,3019.99755859375,0.0,3879.134765625,10901.982421875,6331.4736328125,7305.08056640625,18540.09375,5358.02880859375,-4349.4521484375,6725.31005859375,5065.7353515625,24640.119140625,5319.197265625,10927.8818359375,-7787.77294921875,-11261.7021484375,6632.8037109375,4328.2314453125,8565.7021484375,3743.9541015625,5625.41259765625,3713.686279296875,-1482.3863525390625,7623.04931640625,7306.81201171875,7857.3486328125,-15153.40625,-0.0,-0.0,8401.0771484375,6224.85400390625,-4763.115234375,0.0,11096.650390625
-5198.0908203125,-10993.0478515625,5869.56884765625,7605.05615234375,14024.3154296875,13445.5166015625,13187.4521484375,11677.5263671875,12344.2109375,9156.212890625,15581.138671875,0.0,12319.775390625,0.0,11026.4384765625,15026.7587890625,24509.154296875,11340.810546875,7219.8876953125,4959.33056640625,2795.145263671875,13958.826171875,12376.990234375,8712.1982421875,0.0,1550.4515380859375,6167.53759765625,3792.650634765625,-2272.81884765625,-8166.47314453125,12214.7744140625,2266.442626953125,8563.1142578125,13172.61328125,9445.876953125,14696.9521484375,4320.20556640625,8842.4501953125,3010.646728515625,0.0,3875.71435546875,10895.8447265625,6326.486328125,7300.79345703125,18536.255859375,5352.9619140625,-4327.31884765625,6718.92919921875,5062.68505859375,24635.63671875,5315.1220703125,10926.8466796875,-7791.46875,-11273.91015625,6636.68017578125,4323.4716796875,8568.8046875,3738.86474609375,5623.98193359375,3700.056396484375,-1477.64013671875,7619.28466796875,7302.23095703125,7847.85205078125,-15159.630859375,-0.0,-0.0,8389.27734375,6219.4921875,-4774.37939453125,0.0,11087.7734375
-5201.52099609375,-11024.951171875,5836.05224609375,7573.12353515625,13999.1318359375,13416.982421875,13162.9453125,11653.5537109375,12320.69140625,9135.537109375,15547.9609375,0.0,12290.384765625,0.0,11002.9384765625,15008.4501953125,24476.88671875,11312.41796875,7193.7041015625,4938.5751953125,2766.54638671875,13929.91796875,12350.376953125,8685.189453125,0.0,1517.9049072265625,6144.12109375,3766.845947265625,-2307.858154296875,-8198.94140625,12185.087890625,2231.841552734375,8531.3359375,13140.1396484375,9417.275390625,14666.9248046875,4294.93994140625,8816.9072265625,2968.465576171875,0.0,3844.259521484375,10865.1123046875,6302.5302734375,7275.7080078125,18513.20703125,5330.59228515625,-4349.42333984375,6686.6298828125,5037.0205078125,24608.5703125,5292.23876953125,10905.193359375,-7824.19384765625,-11302.5888671875,6612.3310546875,4295.2705078125,8547.7041015625,3716.01611328125,5602.3466796875,3676.197021484375,-1512.21484375,7593.68505859375,7278.34619140625,7828.01513671875,-15177.6376953125,-0.0,-0.0,8358.7783203125,6201.32568359375,-4801.1357421875,0.0,11063.2421875
-5243.79150390625,-11065.6767578125,5818.1982421875,7559.49267578125,13982.9873046875,13406.5498046875,13148.3271484375,11648.1552734375,12319.0537109375,9134.7041015625,15535.271484375,0.0,12277.09375,0.0,10988.94921875,15002.244140625,24459.5859375,11299.080078125,7183.3076171875,4937.9482421875,2750.87109375,13916.369140625,12335.685546875,8675.18359375,0.0,1506.7100830078125,6129.03662109375,3761.6669921875,-2330.575439453125,-8212.314453125,12170.0078125,2211.39453125,8513.8623046875,13123.380859375,9399.3984375,14655.7568359375,4283.1494140625,8808.3388671875,2956.866455078125,0.0,3827.160888671875,10854.1083984375,6287.83203125,7266.97607421875,18503.0625,5326.2431640625,-4374.95556640625,6673.22265625,5018.80078125,24599.615234375,5278.02490234375,10903.4013671875,-7850.802734375,-11328.6005859375,6589.95654296875,4281.24658203125,8529.1552734375,3713.513671875,5587.49365234375,3682.170654296875,-1527.7464599609375,7584.36328125,7271.76513671875,7824.67431640625,-15186.611328125,-0.0,-0.0,8356.8935546875,6201.80615234375,-4799.13525390625,0.0,11053.048828125
-5280.2177734375,-11068.82421875,5808.47021484375,7547.47412109375,13969.09375,13394.568359375,13132.6337890625,11637.3984375,12318.2421875,9128.615234375,15531.6689453125,0.0,12265.732421875,0.0,10976.2783203125,14989.3505859375,24448.74609375,11287.8173828125,7172.67919921875,4933.11865234375,2739.360107421875,13903.9794921875,12322.3544921875,8664.7236328125,0.0,1494.8123779296875,6113.9521484375,3751.465087890625,-2338.7587890625,-8227.455078125,12158.671875,2201.893798828125,8503.8193359375,13113.0546875,9388.0498046875,14644.7744140625,4271.33154296875,8797.837890625,2948.102294921875,0.0,3815.480224609375,10841.568359375,6273.3623046875,7255.36767578125,18492.30859375,5319.078125,-4396.15185546875,6661.7021484375,5005.74560546875,24587.98828125,5261.59033203125,10893.0478515625,-7853.0703125,-11347.77734375,6572.8623046875,4268.16748046875,8513.76171875,3702.88330078125,5571.07958984375,3683.178955078125,-1543.775146484375,7573.7900390625,7263.01318359375,7823.4765625,-15200.5947265625,-0.0,-0.0,8360.5517578125,6195.41015625,-4787.1435546875,0.0,11051.9638671875
-5243.00390625,-11031.5126953125,5810.6181640625,7546.8349609375,13967.4228515625,13391.3212890625,13128.529296875,11629.5986328125,12316.7841796875,9116.13671875,15532.3291015625,0.0,12256.908203125,0.0,10960.849609375,14974.533203125,24451.73046875,11286.654296875,7168.68896484375,4923.55615234375,2739.528076171875,13903.8564453125,12321.0107421875,8661.7861328125,0.0,1492.6533203125,6106.6484375,3740.705322265625,-2328.08935546875,-8225.63671875,12159.314453125,2209.4189453125,8506.2412109375,13114.8974609375,9389.1220703125,14642.611328125,4267.564453125,8792.7626953125,2933.80126953125,0.0,3817.94580078125,10840.5205078125,6269.9697265625,7250.87939453125,18487.439453125,5309.33642578125,-4396.26806640625,6661.3017578125,5004.14599609375,24584.5,5253.1826171875,10881.5068359375,-7835.01123046875,-11345.46875,6570.09765625,4266.33251953125,8503.7724609375,3687.644287109375,5573.39111328125,3667.87744140625,-1560.10400390625,7572.5517578125,7255.8818359375,7817.03173828125,-15205.3818359375,-0.0,-0.0,8355.7333984375,6192.49072265625,-4807.1982421875,0.0,11041.4111328125
-5260.44970703125,-11046.4814453125,5807.42529296875,7542.44140625,13959.53125,13376.85546875,13115.1513671875,11608.4091796875,12300.541015625,9087.7041015625,15539.7841796875,0.0,12238.9892578125,0.0,10943.2392578125,14942.6357421875,24447.498046875,11276.5185546875,7153.70703125,4898.3505859375,2730.83056640625,13895.056640625,12309.7578125,8648.0517578125,0.0,1481.0389404296875,6095.50048828125,3716.487060546875,-2338.1357421875,-8236.4521484375,12151.5810546875,2208.2529296875,8500.783203125,13110.224609375,9380.15234375,14633.048828125,4253.326171875,8775.4130859375,2925.286865234375,0.0,3812.909912109375,10830.23046875,6259.66552734375,7232.39990234375,18472.966796875,5285.81591796875,-4386.3095703125,6657.40380859375,4997.03759765625,24567.689453125,5241.11474609375,10853.1982421875,-7830.38134765625,-11359.2529296875,6560.69482421875,4253.8369140625,8489.962890625,3653.940673828125,5563.25146484375,3631.691162109375,-1556.3416748046875,7561.37353515625,7236.62646484375,7790.71484375,-15218.1337890625,-0.0,-0.0,8303.353515625,6181.7646484375,-4863.3056640625,0.0,11005.2275390625
-5302.3447265625,-11088.7763671875,5808.14013671875,7544.62841796875,13959.9228515625,13373.92578125,13113.7275390625,11602.458984375,12292.193359375,9078.7685546875,15532.0390625,0.0,12242.3154296875,0.0,10947.7705078125,14937.0302734375,24448.71875,11274.6337890625,7147.255859375,4887.0693359375,2729.957763671875,13893.736328125,12306.8369140625,8642.74609375,0.0,1477.76318359375,6095.8037109375,3712.5712890625,-2339.3818359375,-8236.765625,12150.263671875,2213.07958984375,8500.6357421875,13112.8330078125,9378.201171875,14629.7822265625,4249.47412109375,8770.0078125,2925.172607421875,0.0,3812.62646484375,10828.353515625,6259.16845703125,7226.10546875,18466.87890625,5279.49365234375,-4364.9267578125,6658.9169921875,4998.17822265625,24564.0234375,5240.06689453125,10843.16015625,-7848.09033203125,-11352.6494140625,6562.4814453125,4251.89990234375,8494.9541015625,3653.087158203125,5562.181640625,3622.07861328125,-1566.9171142578125,7556.634765625,7229.82666015625,7769.90771484375,-15213.1474609375,-0.0,-0.0,8294.4658203125,6181.041015625,-4868.19580078125,0.0,11000.193359375
-5266.03466796875,-11071.2939453125,5827.41845703125,7563.953125,13975.640625,13392.037109375,13131.07421875,11619.8134765625,12303.2392578125,9091.439453125,15531.1904296875,0.0,12267.376953125,0.0,10970.34375,14954.89453125,24463.20703125,11290.9140625,7162.74951171875,4902.5283203125,2748.9287109375,13911.548828125,12324.0556640625,8659.4794921875,0.0,1497.412109375,6114.05859375,3734.771484375,-2329.597900390625,-8213.55859375,12167.5458984375,2223.51123046875,8517.5791015625,13129.4365234375,9393.84765625,14646.369140625,4266.03662109375,8785.90625,2953.420166015625,0.0,3830.958251953125,10847.390625,6275.67041015625,7245.78369140625,18481.626953125,5295.1962890625,-4347.39013671875,6676.578125,5011.248046875,24584.3203125,5258.61865234375,10860.3359375,-7853.154296875,-11328.4775390625,6581.04150390625,4271.7666015625,8514.4677734375,3679.26904296875,5574.89501953125,3635.284423828125,-1550.40283203125,7571.60595703125,7245.51708984375,7781.904296875,-15196.5556640625,-0.0,-0.0,8305.5224609375,6193.9921875,-4859.71630859375,0.0,11013.51953125
-5257.111328125,-11019.4091796875,5854.521484375,7583.4765625,13999.5146484375,13417.9384765625,13156.4638671875,11647.32421875,12331.974609375,9125.2705078125,15564.7939453125,0.0,12288.3408203125,0.0,10996.1513671875,14980.9521484375,24485.69921875,11316.4443359375,7190.20166015625,4934.43359375,2774.775146484375,13937.365234375,12349.13671875,8686.482421875,0.0,1523.5975341796875,6139.46044921875,3763.54638671875,-2312.00244140625,-8189.21435546875,12192.150390625,2241.384033203125,8543.314453125,13151.49609375,9420.396484375,14673.5234375,4291.255859375,8812.296875,2994.709716796875,0.0,3855.238037109375,10872.9482421875,6300.70849609375,7273.1650390625,18508.517578125,5324.93798828125,-4331.12744140625,6696.82275390625,5035.31591796875,24610.412109375,5284.09326171875,10891.1044921875,-7830.4775390625,-11309.9287109375,6605.5693359375,4295.0927734375,8534.7890625,3710.197509765625,5594.97216796875,3671.9853515625,-1494.5025634765625,7597.115234375,7272.72802734375,7813.29443359375,-15184.109375,-0.0,-0.0,8336.8369140625,6216.09228515625,-4822.14404296875,0.0,11042.0791015625
-5245.427734375,-10992.59375,5872.02099609375,7595.14599609375,14019.958984375,13436.345703125,13175.62109375,11667.103515625,12352.6591796875,9150.1142578125,15586.8486328125,0.0,12305.4599609375,0.0,11013.220703125,15001.1025390625,24501.541015625,11335.376953125,7210.44873046875,4957.30419921875,2792.830078125,13954.275390625,12368.1162109375,8705.1103515625,0.0,1539.822021484375,6157.24853515625,3782.104248046875,-2286.1923828125,-8167.513671875,12208.5361328125,2255.91748046875,8560.388671875,13166.6142578125,9440.2705078125,14690.765625,4310.46240234375,8832.9990234375,2998.3076171875,0.0,3874.432861328125,10888.849609375,6319.197265625,7291.00048828125,18528.390625,5347.39404296875,-4314.58447265625,6707.88525390625,5056.642578125,24628.025390625,5302.19775390625,10910.771484375,-7814.7265625,-11294.81640625,6622.5048828125,4309.61572265625,8553.8564453125,3731.495849609375,5614.46630859375,3700.961181640625,-1510.8424072265625,7615.47265625,7292.58837890625,7834.251953125,-15160.431640625,-0.0,-0.0,8376.7294921875,6229.73779296875,-4781.01708984375,0.0,11070.6904296875
-5189.62939453125,-10971.2822265625,5871.20068359375,7597.7060546875,14023.8291015625,13439.5537109375,13179.6005859375,11672.462890625,12352.783203125,9153.7607421875,15590.4404296875,0.0,12307.8173828125,0.0,11018.1259765625,15007.5830078125,24503.7109375,11340.3798828125,7215.26953125,4961.23095703125,2795.386962890625,13956.9462890625,12373.5517578125,8709.615234375,0.0,1544.0361328125,6161.65869140625,3784.19580078125,-2284.598876953125,-8163.5478515625,12213.1328125,2256.785400390625,8560.140625,13168.09375,9443.1806640625,14694.9765625,4315.9404296875,8837.580078125,2993.751708984375,0.0,3876.590087890625,10892.3330078125,6324.177734375,7297.7216796875,18534.681640625,5351.900390625,-4309.75390625,6710.46240234375,5059.3388671875,24631.740234375,5307.3232421875,10916.6953125,-7820.63134765625,-11284.328125,6629.53125,4312.4375,8559.4453125,3729.303955078125,5622.2861328125,3704.218505859375,-1520.624267578125,7619.22412109375,7297.72705078125,7845.46533203125,-15147.0859375,-0.0,-0.0,8386.2158203125,6226.5810546875,-4779.892578125,0.0,11078.193359375
-5216.66064453125,-10996.5302734375,5836.17041015625,7566.291015625,13994.466796875,13412.78515625,13155.30078125,11644.9287109375,12320.216796875,9130.2412109375,15566.2998046875,0.0,12281.2919921875,0.0,10999.9609375,14986.751953125,24474.84765625,11313.4033203125,7189.91650390625,4934.869140625,2762.793212890625,13927.7998046875,12347.01171875,8681.9912109375,0.0,1514.829345703125,6139.134765625,3755.703369140625,-2312.633544921875,-8193.50390625,12183.1669921875,2229.397705078125,8528.341796875,13138.1708984375,9414.2109375,14667.3544921875,4289.69775390625,8811.4169921875,2956.08935546875,0.0,3844.636474609375,10862.9736328125,6298.81201171875,7270.24462890625,18509.484375,5325.3095703125,-4367.2705078125,6680.23974609375,5032.68359375,24602.98046875,5286.8203125,10892.3955078125,-7850.60791015625,-11307.9091796875,6586.94677734375,4283.21533203125,8536.37109375,3698.937255859375,5598.75830078125,3679.53662109375,-1543.0078125,7595.03076171875,7270.39404296875,7818.9892578125,-15189.32421875,-0.0,-0.0,8372.412109375,6203.15625,-4797.5751953125,0.0,11057.3408203125
-5259.53955078125,-11047.5537109375,5798.533203125,7531.97119140625,13959.716796875,13378.337890625,13122.30078125,11608.859375,12284.5068359375,9091.375,15519.2880859375,0.0,12249.998046875,0.0,10971.615234375,14955.447265625,24439.6796875,11277.0634765625,7154.33984375,4899.96240234375,2726.500732421875,13894.1640625,12312.25,8647.0576171875,0.0,1479.8963623046875,6105.8828125,3722.46875,-2340.73388671875,-8229.033203125,12148.89453125,2194.8046875,8492.326171875,13103.3447265625,9379.056640625,14632.1259765625,4255.17236328125,8775.763671875,2913.8935546875,0.0,3808.301513671875,10827.6982421875,6263.3291015625,7235.62548828125,18474.564453125,5289.2275390625,-4420.90966796875,6645.44775390625,4997.84130859375,24569.70703125,5255.50537109375,10856.7392578125,-7871.31201171875,-11336.091796875,6546.96484375,4252.142578125,8506.4111328125,3667.053466796875,5561.38427734375,3637.743408203125,-1570.4495849609375,7561.921875,7235.4052734375,7774.990234375,-15225.9609375,-0.0,-0.0,8318.388671875,6175.86083984375,-4840.693359375,0.0,11019.0771484375
-5254.53759765625,-11044.96484375,5796.26318359375,7542.13427734375,13964.908203125,13386.1337890625,13126.0947265625,11616.7197265625,12291.388671875,9089.63671875,15509.923828125,0.0,12258.7900390625,0.0,10975.5,14968.796875,24443.8671875,11280.5224609375,7158.44287109375,4898.80029296875,2730.567626953125,13900.6611328125,12315.896484375,8653.578125,0.0,1488.727294921875,6111.10693359375,3733.91455078125,-2328.156494140625,-8227.8623046875,12154.45703125,2198.159423828125,8495.767578125,13108.8974609375,9382.998046875,14637.865234375,4260.072265625,8782.201171875,2933.442138671875,0.0,3809.951904296875,10836.607421875,6268.39892578125,7244.16552734375,18478.0859375,5291.93017578125,-4446.6875,6655.05224609375,5005.46923828125,24578.51953125,5257.8515625,10869.4169921875,-7851.09765625,-11331.3994140625,6575.6552734375,4265.73779296875,8507.927734375,3678.097900390625,5565.650390625,3633.8740234375,-1548.2584228515625,7563.64111328125,7239.86767578125,7770.3583984375,-15212.982421875,-0.0,-0.0,8319.1923828125,6182.94091796875,-4842.3671875,0.0,11016.1923828125
-5266.9697265625,-11036.9462890625,5798.693359375,7542.9912109375,13966.56640625,13387.0888671875,13126.8603515625,11618.0126953125,12289.7275390625,9086.6923828125,15516.4375,0.0,12266.56640625,0.0,10978.4833984375,14970.373046875,24445.669921875,11280.0888671875,7159.1083984375,4894.47314453125,2731.55419921875,13901.205078125,12315.142578125,8654.376953125,0.0,1490.42578125,6112.06640625,3736.87841796875,-2316.687744140625,-8229.4833984375,12155.271484375,2201.06103515625,8499.3037109375,13110.626953125,9383.361328125,14638.2578125,4259.8974609375,8782.3994140625,2940.047607421875,0.0,3811.068359375,10837.4814453125,6268.42333984375,7246.17333984375,18476.4140625,5288.90478515625,-4446.25537109375,6657.1552734375,5010.537109375,24581.041015625,5257.79345703125,10873.7373046875,-7830.19873046875,-11337.548828125,6582.15673828125,4268.36669921875,8514.9833984375,3678.982666015625,5558.06298828125,3629.8818359375,-1558.3624267578125,7562.44091796875,7238.03515625,7766.9599609375,-15211.970703125,-0.0,-0.0,8321.79296875,6176.833984375,-4843.20361328125,0.0,11011.853515625
-5323.9033203125,-11064.83203125,5783.82861328125,7521.67529296875,13946.2685546875,13363.6416015625,13106.26171875,11592.8369140625,12269.560546875,9063.84765625,15499.37890625,0.0,12248.89453125,0.0,10961.560546875,14932.69921875,24427.24609375,11258.6044921875,7138.35400390625,4872.01220703125,2713.63525390625,13881.8154296875,12295.216796875,8632.12109375,0.0,1469.7952880859375,6092.0771484375,3709.70263671875,-2341.647216796875,-8249.53515625,12135.0205078125,2180.697021484375,8481.2578125,13090.06640625,9363.8046875,14617.45703125,4238.10791015625,8759.2421875,2923.36962890625,0.0,3793.15966796875,10815.8134765625,6247.337890625,7222.1865234375,18453.41015625,5266.15380859375,-4432.421875,6637.302734375,4989.2294921875,24556.53125,5236.373046875,10844.28125,-7842.78857421875,-11358.2724609375,6564.15673828125,4243.302734375,8502.81640625,3645.742431640625,5531.552734375,3607.14404296875,-1591.9757080078125,7540.19580078125,7216.11962890625,7741.00244140625,-15230.0537109375,-0.0,-0.0,8278.591796875,6151.87939453125,-4882.8662109375,0.0,10980.1259765625
-5344.20849609375,-11106.6796875,5783.35302734375,7517.70751953125,13942.6767578125,13355.93359375,13101.900390625,11586.9833984375,12268.583984375,9059.2685546875,15493.85546875,0.0,12247.6591796875,0.0,10958.267578125,14917.7900390625,24421.767578125,11254.1337890625,7136.18798828125,4871.17236328125,2710.63916015625,13875.748046875,12292.1181640625,8625.423828125,0.0,1460.522705078125,6089.8564453125,3697.509521484375,-2356.73486328125,-8255.2353515625,12129.1328125,2171.6416015625,8475.734375,13084.8095703125,9359.037109375,14609.958984375,4235.1953125,8755.162109375,2906.491455078125,0.0,3790.000732421875,10809.3291015625,6247.0341796875,7212.67138671875,18451.7734375,5262.41259765625,-4403.17724609375,6632.359375,4986.6162109375,24545.7734375,5232.068359375,10830.9091796875,-7865.919921875,-11365.6611328125,6557.27490234375,4232.4169921875,8504.541015625,3629.624755859375,5536.38720703125,3617.10009765625,-1589.727294921875,7534.74658203125,7213.54541015625,7739.28466796875,-15239.4140625,-0.0,-0.0,8281.818359375,6154.10205078125,-4891.826171875,0.0,10976.9306640625
-5310.728515625,-11090.818359375,5809.77587890625,7534.6494140625,13962.1259765625,13374.4091796875,13119.1552734375,11608.1162109375,12285.064453125,9078.1640625,15522.587890625,0.0,12266.69140625,0.0,10971.9169921875,14944.337890625,24440.978515625,11273.6591796875,7154.97900390625,4892.99951171875,2730.510498046875,13893.2724609375,12311.484375,8645.2265625,0.0,1477.1121826171875,6106.93994140625,3716.658935546875,-2342.052978515625,-8237.0986328125,12148.1201171875,2190.6513671875,8495.599609375,13103.7919921875,9378.6767578125,14628.3134765625,4254.97119140625,8774.818359375,2921.1953125,0.0,3812.069580078125,10826.939453125,6265.20849609375,7231.6259765625,18470.640625,5286.17724609375,-4366.27978515625,6647.25830078125,5004.2138671875,24564.00390625,5249.669921875,10855.03515625,-7873.62255859375,-11349.001953125,6559.38427734375,4248.904296875,8524.19140625,3650.84326171875,5550.3662109375,3655.2001953125,-1569.2479248046875,7554.091796875,7232.28125,7762.615234375,-15224.2666015625,-0.0,-0.0,8314.9755859375,6160.91259765625,-4854.01171875,0.0,11004.5009765625
-5271.07421875,-11045.8193359375,5836.16552734375,7556.2099609375,13987.435546875,13400.724609375,13142.1240234375,11637.6689453125,12309.1884765625,9102.32421875,15556.91015625,0.0,12283.5546875,0.0,10987.1904296875,14978.98828125,24465.8828125,11299.4951171875,7178.79638671875,4915.86474609375,2755.77197265625,13917.8466796875,12336.3427734375,8671.69921875,0.0,1500.688232421875,6128.2568359375,3745.654052734375,-2319.549560546875,-8218.8154296875,12172.591796875,2211.430419921875,8520.5263671875,13126.8740234375,9403.8447265625,14655.6044921875,4279.6953125,8801.0068359375,2950.6474609375,0.0,3838.824462890625,10852.169921875,6288.23193359375,7258.60498046875,18493.365234375,5313.8154296875,-4354.1728515625,6671.193359375,5028.75244140625,24590.345703125,5270.5732421875,10889.853515625,-7851.8447265625,-11332.69140625,6581.30419921875,4274.4521484375,8537.380859375,3681.189208984375,5573.5068359375,3679.23486328125,-1533.86474609375,7581.58251953125,7256.90576171875,7787.20166015625,-15197.5908203125,-0.0,-0.0,8339.609375,6178.1806640625,-4826.208984375,0.0,11026.759765625
-5235.197265625,-11046.3505859375,5842.02587890625,7568.748046875,13997.97265625,13415.771484375,13155.9248046875,11657.322265625,12328.9833984375,9115.9755859375,15560.6767578125,0.0,12282.7900390625,0.0,10999.037109375,15004.2412109375,24477.623046875,11312.734375,7193.33349609375,4934.2353515625,2766.333251953125,13930.1318359375,12349.1630859375,8685.8388671875,0.0,1510.708984375,6138.48681640625,3763.7470703125,-2310.511962890625,-8213.06640625,12183.8388671875,2225.126953125,8529.65234375,13139.7744140625,9414.8271484375,14669.521484375,4293.31298828125,8817.021484375,2964.899169921875,0.0,3847.559814453125,10865.796875,6301.2734375,7274.21728515625,18509.904296875,5328.64453125,-4347.66796875,6683.60595703125,5039.01611328125,24606.287109375,5284.26611328125,10911.732421875,-7825.4853515625,-11323.474609375,6600.91015625,4289.9833984375,8537.6845703125,3702.454833984375,5590.49951171875,3683.6806640625,-1507.686279296875,7597.068359375,7273.87060546875,7814.1240234375,-15187.302734375,-0.0,-0.0,8368.3564453125,6207.51416015625,-4804.53076171875,0.0,11048.408203125
-5203.43017578125,-11025.2880859375,5861.35986328125,7597.92236328125,14020.3466796875,13447.033203125,13180.5224609375,11687.841796875,12358.6884765625,9154.271484375,15570.4208984375,0.0,12296.4169921875,0.0,11025.22265625,15043.392578125,24502.900390625,11339.5712890625,7221.654296875,4967.21337890625,2789.08984375,13957.64453125,12373.7607421875,8715.896484375,0.0,1542.2926025390625,6159.97021484375,3797.508056640625,-2292.45849609375,-8182.349609375,12210.3505859375,2254.36572265625,8552.966796875,13166.2685546875,9439.6552734375,14699.208984375,4319.515625,8846.755859375,2984.137939453125,0.0,3869.443603515625,10894.169921875,6324.82177734375,7306.09619140625,18536.67578125,5361.2138671875,-4345.279296875,6713.13232421875,5054.765625,24639.259765625,5310.7685546875,10948.4033203125,-7795.48583984375,-11287.9736328125,6623.17529296875,4319.0849609375,8549.7392578125,3741.6845703125,5607.9521484375,3713.03662109375,-1509.746826171875,7625.798828125,7304.5166015625,7852.5634765625,-15167.7109375,-0.0,-0.0,8416.1318359375,6233.87158203125,-4753.4453125,0.0,11089.3212890625
-5197.7880859375,-10986.740234375,5873.48291015625,7609.0615234375,14032.6904296875,13460.732421875,13196.173828125,11699.0234375,12375.7822265625,9185.626953125,15588.0537109375,0.0,12308.173828125,0.0,11036.416015625,15052.521484375,24512.830078125,11353.609375,7236.3623046875,4990.353515625,2801.206787109375,13970.853515625,12388.7646484375,8730.34765625,0.0,1559.38671875,6174.19921875,3811.854248046875,-2283.40087890625,-8162.2236328125,12223.8486328125,2264.9833984375,8565.89453125,13178.123046875,9454.056640625,14714.7734375,4334.13623046875,8860.7470703125,2978.35009765625,0.0,3881.11376953125,10908.3505859375,6337.8291015625,7321.45263671875,18552.9921875,5376.42724609375,-4349.86572265625,6726.39306640625,5065.65380859375,24652.916015625,5325.14013671875,10956.98828125,-7790.28466796875,-11269.6162109375,6633.361328125,4332.982421875,8561.0732421875,3757.527099609375,5629.908203125,3721.12646484375,-1509.8118896484375,7641.8369140625,7322.81640625,7878.14794921875,-15159.5029296875,-0.0,-0.0,8424.0087890625,6253.49951171875,-4735.83056640625,0.0,11115.3876953125
-5241.720703125,-11014.1220703125,5850.2138671875,7581.01318359375,14004.6572265625,13428.0927734375,13170.7939453125,11662.6962890625,12349.9296875,9158.05078125,15569.0712890625,0.0,12283.2548828125,0.0,11004.7734375,15002.546875,24486.41015625,11325.7041015625,7208.6328125,4965.6650390625,2775.73291015625,13943.9130859375,12363.1044921875,8700.1015625,0.0,1531.4595947265625,6148.48828125,3775.25732421875,-2309.592041015625,-8184.16455078125,12196.2509765625,2237.79736328125,8540.146484375,13151.3701171875,9428.828125,14684.2119140625,4307.78759765625,8830.7568359375,2951.561767578125,0.0,3855.124267578125,10880.2021484375,6311.3056640625,7288.7705078125,18528.326171875,5342.595703125,-4363.4072265625,6695.79736328125,5040.54296875,24620.349609375,5298.69970703125,10910.4931640625,-7827.6376953125,-11295.3017578125,6605.05078125,4304.23486328125,8535.9794921875,3720.81591796875,5616.29541015625,3675.48193359375,-1530.6741943359375,7611.0029296875,7294.60791015625,7852.1435546875,-15180.841796875,-0.0,-0.0,8362.4169921875,6239.59423828125,-4787.48095703125,0.0,11083.0927734375
-5255.890625,-11031.361328125,5841.62451171875,7577.2509765625,13994.79296875,13415.2294921875,13160.4111328125,11646.013671875,12338.2978515625,9144.12890625,15569.4287109375,0.0,12275.6064453125,0.0,11000.6025390625,14978.8935546875,24479.291015625,11314.8642578125,7196.0546875,4952.05029296875,2767.033203125,13933.8720703125,12350.1005859375,8687.4033203125,0.0,1521.3636474609375,6138.98681640625,3758.40234375,-2320.77001953125,-8188.26171875,12187.90234375,2225.749755859375,8531.3486328125,13143.1328125,9418.5927734375,14672.7001953125,4298.57421875,8816.7412109375,2961.444091796875,0.0,3846.33251953125,10870.9248046875,6300.1181640625,7275.59423828125,18516.67578125,5328.8388671875,-4360.1005859375,6691.9306640625,5028.943359375,24607.8359375,5289.04931640625,10887.255859375,-7830.6533203125,-11309.2724609375,6584.4794921875,4293.04736328125,8532.0947265625,3702.846923828125,5606.62744140625,3662.178955078125,-1533.998779296875,7596.48193359375,7280.44775390625,7834.7734375,-15179.8515625,-0.0,-0.0,8337.583984375,6232.31494140625,-4820.5400390625,0.0,11060.5546875
-5268.7236328125,-11039.65625,5809.8779296875,7555.013671875,13971.376953125,13390.8642578125,13138.923828125,11625.4169921875,12318.9052734375,9124.5693359375,15545.3740234375,0.0,12260.81640625,0.0,10994.0732421875,14964.7880859375,24452.490234375,11289.0703125,7171.43994140625,4930.49365234375,2739.6005859375,13907.8125,12326.87109375,8663.1083984375,0.0,1495.4766845703125,6122.12255859375,3737.308837890625,-2342.2265625,-8217.8076171875,12161.70703125,2198.371337890625,8503.826171875,13116.427734375,9393.6533203125,14647.9873046875,4274.79345703125,8792.7109375,2934.004638671875,0.0,3819.50390625,10847.005859375,6278.322265625,7252.37158203125,18493.0078125,5309.53076171875,-4392.29150390625,6670.107421875,5008.37646484375,24582.146484375,5271.10400390625,10869.61328125,-7861.62548828125,-11344.662109375,6564.2646484375,4268.111328125,8525.6142578125,3682.41357421875,5582.47265625,3647.9150390625,-1558.985107421875,7570.86474609375,7257.7705078125,7811.041015625,-15199.7587890625,-0.0,-0.0,8333.384765625,6212.77294921875,-4823.287109375,0.0,11044.1240234375
-5245.08251953125,-11058.66796875,5791.21044921875,7535.75390625,13956.0087890625,13376.31640625,13123.2685546875,11615.5322265625,12304.146484375,9110.076171875,15514.568359375,0.0,12242.27734375,0.0,10981.775390625,14961.62109375,24438.173828125,11271.974609375,7157.482421875,4916.31103515625,2722.590576171875,13890.9931640625,12311.5107421875,8648.478515625,0.0,1476.8446044921875,6108.07861328125,3726.3349609375,-2362.407470703125,-8243.119140625,12143.51953125,2185.47216796875,8487.5947265625,13099.734375,9376.6591796875,14631.2890625,4258.48095703125,8779.8173828125,2920.21533203125,0.0,3801.871826171875,10829.4150390625,6263.35498046875,7239.53662109375,18477.0859375,5299.5595703125,-4405.81201171875,6651.20166015625,4993.98828125,24567.03515625,5255.95751953125,10865.734375,-7891.17333984375,-11355.28125,6551.88525390625,4248.39599609375,8512.498046875,3671.87158203125,5564.59619140625,3650.36962890625,-1565.869140625,7554.2275390625,7245.03955078125,7797.02197265625,-15230.3447265625,-0.0,-0.0,8338.083984375,6192.7412109375,-4808.68896484375,0.0,11046.5751953125
-5220.01416015625,-11038.537109375,5818.513671875,7557.970703125,13979.2783203125,13403.1796875,13145.0380859375,11646.669921875,12327.6787109375,9136.1494140625,15518.396484375,0.0,12247.5107421875,0.0,10992.7744140625,15000.623046875,24462.029296875,11295.1123046875,7184.046875,4943.466796875,2745.92578125,13915.4375,12333.802734375,8674.1923828125,0.0,1501.197998046875,6126.3564453125,3757.4658203125,-2350.579833984375,-8216.8779296875,12167.62890625,2212.0322265625,8512.1875,13124.8779296875,9400.505859375,14655.876953125,4281.75927734375,8807.5595703125,2951.652099609375,0.0,3825.736572265625,10853.583984375,6284.7255859375,7267.94677734375,18500.533203125,5331.3212890625,-4376.5546875,6674.04150390625,5011.6220703125,24595.017578125,5274.0947265625,10903.1416015625,-7853.19970703125,-11324.75390625,6563.72900390625,4269.94970703125,8525.9951171875,3704.370361328125,5587.10400390625,3702.83837890625,-1530.4224853515625,7579.0537109375,7271.79736328125,7826.63916015625,-15220.630859375,-0.0,-0.0,8383.220703125,6213.390625,-4760.568359375,0.0,11088.7685546875
-5317.0087890625,-11037.6064453125,5820.42626953125,7546.92626953125,13975.1005859375,13390.7255859375,13136.2880859375,11629.505859375,12314.201171875,9114.0068359375,15512.6396484375,0.0,12249.5087890625,0.0,10985.095703125,14975.0947265625,24454.40234375,11287.8173828125,7172.00439453125,4923.45751953125,2741.302490234375,13906.736328125,12326.884765625,8662.4560546875,0.0,1491.58642578125,6122.03564453125,3740.737060546875,-2348.5888671875,-8227.3544921875,12161.224609375,2205.816162109375,8509.005859375,13117.0205078125,9396.6787109375,14644.818359375,4270.82470703125,8793.279296875,2934.51220703125,0.0,3826.38134765625,10843.6083984375,6279.10498046875,7252.34521484375,18489.71875,5310.60009765625,-4383.55419921875,6661.12060546875,5011.6455078125,24580.140625,5267.841796875,10884.3369140625,-7850.9384765625,-11338.06640625,6550.0,4255.35107421875,8523.85546875,3686.241455078125,5578.96435546875,3666.442626953125,-1561.77685546875,7569.810546875,7256.8857421875,7803.79052734375,-15219.3857421875,-0.0,-0.0,8331.375,6198.912109375,-4817.419921875,0.0,11051.3447265625
-5332.7646484375,-11048.0546875,5827.4619140625,7540.68603515625,13962.9091796875,13376.3173828125,13120.984375,11600.54296875,12286.6142578125,9076.7587890625,15528.513671875,0.0,12260.5390625,0.0,10972.578125,14932.015625,24449.9140625,11278.85546875,7152.986328125,4889.98583984375,2738.128662109375,13898.126953125,12312.1552734375,8644.1318359375,0.0,1482.1868896484375,6108.00439453125,3714.13671875,-2345.803955078125,-8232.58984375,12153.126953125,2197.4521484375,8509.1640625,13111.6865234375,9385.0966796875,14633.689453125,4253.89111328125,8771.630859375,2961.0068359375,0.0,3825.8818359375,10833.5791015625,6265.1572265625,7232.078125,18469.1875,5275.8056640625,-4373.07958984375,6654.3408203125,5003.1689453125,24563.935546875,5253.3701171875,10847.28515625,-7829.17822265625,-11343.7451171875,6554.60546875,4248.1162109375,8517.95703125,3656.64013671875,5561.00927734375,3605.126220703125,-1584.8809814453125,7557.3994140625,7230.83251953125,7763.74560546875,-15220.5712890625,-0.0,-0.0,8271.0888671875,6171.29443359375,-4895.54052734375,0.0,10987.5712890625
-5327.55126953125,-11066.564453125,5826.1064453125,7546.07275390625,13959.0517578125,13379.154296875,13120.123046875,11602.806640625,12285.423828125,9080.9599609375,15518.1689453125,0.0,12256.2685546875,0.0,10966.7939453125,14940.4365234375,24450.087890625,11279.62109375,7154.10400390625,4891.59326171875,2737.791748046875,13901.2783203125,12311.068359375,8646.5966796875,0.0,1487.0284423828125,6102.04345703125,3719.004638671875,-2347.351318359375,-8228.2724609375,12154.5048828125,2194.04541015625,8508.5322265625,13114.150390625,9382.5478515625,14635.6201171875,4254.3623046875,8773.77734375,2969.30419921875,0.0,3822.732177734375,10836.96875,6261.458984375,7235.12109375,18468.9609375,5278.39208984375,-4367.83837890625,6660.5625,4995.96875,24571.240234375,5249.62548828125,10848.59375,-7811.66943359375,-11341.6787109375,6566.20556640625,4259.568359375,8509.21875,3661.552734375,5561.5419921875,3604.284423828125,-1580.7109375,7561.97021484375,7232.15380859375,7768.6298828125,-15231.8369140625,-0.0,-0.0,8284.60546875,6169.87255859375,-4882.583984375,0.0,10994.861328125
-5323.7666015625,-11074.474609375,5803.35791015625,7536.71630859375,13951.119140625,13372.2333984375,13115.03125,11599.208984375,12283.548828125,9079.2265625,15496.767578125,0.0,12249.73046875,0.0,10969.2822265625,14944.91796875,24440.1171875,11271.7470703125,7149.646484375,4888.95751953125,2726.4853515625,13891.775390625,12304.9423828125,8642.337890625,0.0,1477.44677734375,6099.4228515625,3717.41162109375,-2360.016845703125,-8243.333984375,12144.2021484375,2186.180908203125,8493.9248046875,13102.4130859375,9374.876953125,14629.6025390625,4249.44921875,8768.7822265625,2930.821044921875,0.0,3807.407470703125,10826.6904296875,6256.34716796875,7230.2568359375,18465.314453125,5274.23193359375,-4392.12841796875,6650.24951171875,4987.2978515625,24564.455078125,5247.87548828125,10849.2177734375,-7863.75634765625,-11371.181640625,6560.16650390625,4255.24658203125,8504.357421875,3656.677001953125,5559.3759765625,3599.768798828125,-1608.4532470703125,7556.66552734375,7228.2998046875,7768.2001953125,-15251.2509765625,-0.0,-0.0,8286.9697265625,6170.7392578125,-4880.4287109375,0.0,10995.724609375
-5260.92138671875,-11043.736328125,5810.677734375,7547.125,13964.7802734375,13388.5576171875,13130.521484375,11619.513671875,12299.7958984375,9099.9951171875,15525.8544921875,0.0,12263.8994140625,0.0,10984.12109375,14968.478515625,24451.64453125,11285.103515625,7167.09228515625,4907.79541015625,2737.5400390625,13904.291015625,12319.888671875,8657.8896484375,0.0,1489.698974609375,6113.76318359375,3737.48095703125,-2349.261474609375,-8231.876953125,12156.0625,2198.958740234375,8503.064453125,13113.2138671875,9387.208984375,14644.642578125,4264.583984375,8786.9345703125,2926.707275390625,0.0,3815.23388671875,10839.01953125,6271.103515625,7247.66357421875,18479.525390625,5295.4755859375,-4378.59716796875,6661.95458984375,4998.93896484375,24579.9453125,5262.48828125,10872.1357421875,-7918.75,-11365.51171875,6577.51416015625,4271.23583984375,8520.19140625,3677.24267578125,5573.248046875,3632.603271484375,-1579.6190185546875,7569.9677734375,7244.953125,7785.64111328125,-15236.08203125,-0.0,-0.0,8325.728515625,6190.3798828125,-4839.60693359375,0.0,11021.751953125
-5236.4560546875,-11040.2216796875,5816.2939453125,7561.37890625,13978.888671875,13402.412109375,13145.6884765625,11635.9189453125,12319.9619140625,9121.5693359375,15530.4296875,0.0,12268.25390625,0.0,10989.9560546875,14975.7705078125,24462.4453125,11296.87109375,7182.51318359375,4930.6279296875,2748.150146484375,13917.2421875,12334.580078125,8670.5,0.0,1502.693359375,6125.70947265625,3752.071044921875,-2335.930908203125,-8217.0517578125,12170.1708984375,2214.440673828125,8511.8544921875,13125.8037109375,9399.7607421875,14656.3125,4280.36083984375,8802.95703125,2922.90576171875,0.0,3824.20947265625,10854.146484375,6284.6748046875,7262.58447265625,18497.966796875,5315.8994140625,-4398.93505859375,6676.29052734375,5011.31591796875,24597.19140625,5275.43310546875,10884.419921875,-7919.3349609375,-11338.861328125,6577.26904296875,4284.716796875,8526.4111328125,3692.7333984375,5589.45556640625,3659.650146484375,-1543.0435791015625,7582.154296875,7263.0439453125,7812.3359375,-15214.4326171875,-0.0,-0.0,8329.7275390625,6211.0107421875,-4819.17041015625,0.0,11050.0263671875
-5252.94287109375,-11059.984375,5820.59716796875,7572.7080078125,13984.728515625,13408.8173828125,13150.58203125,11640.3955078125,12322.1357421875,9120.2138671875,15533.60546875,0.0,12275.76171875,0.0,10992.3154296875,14975.177734375,24469.916015625,11304.84375,7187.77978515625,4933.49072265625,2753.92626953125,13925.2373046875,12339.4921875,8676.5341796875,0.0,1514.6632080078125,6130.6806640625,3759.119873046875,-2328.3046875,-8204.4033203125,12177.1865234375,2221.12646484375,8517.6669921875,13134.533203125,9407.3544921875,14665.087890625,4287.22314453125,8808.673828125,2907.48095703125,0.0,3829.509521484375,10863.4541015625,6291.046875,7269.43017578125,18505.505859375,5318.0830078125,-4408.1591796875,6687.60546875,5013.97412109375,24605.330078125,5281.9501953125,10887.765625,-7868.87939453125,-11322.6513671875,6568.89013671875,4293.73095703125,8524.4462890625,3700.8134765625,5599.03173828125,3657.461669921875,-1538.39404296875,7587.2138671875,7267.55078125,7817.25634765625,-15196.9208984375,-0.0,-0.0,8318.6591796875,6213.16162109375,-4835.51318359375,0.0,11043.662109375
-5274.14208984375,-11083.4931640625,5824.52001953125,7573.177734375,13981.82421875,13409.49609375,13147.2763671875,11640.935546875,12311.2392578125,9113.4140625,15536.275390625,0.0,12268.2021484375,0.0,10994.09375,14984.3115234375,24468.703125,11304.5869140625,7184.33154296875,4925.7119140625,2754.60302734375,13925.5732421875,12337.2763671875,8675.9287109375,0.0,1514.3154296875,6127.36328125,3758.4052734375,-2334.299560546875,-8204.484375,12177.57421875,2211.178955078125,8519.3193359375,13134.3203125,9406.1259765625,14664.7919921875,4284.07958984375,8806.9404296875,2911.397216796875,0.0,3830.27001953125,10863.1796875,6289.35986328125,7269.72412109375,18499.939453125,5315.17041015625,-4387.0458984375,6688.02197265625,5010.71533203125,24605.107421875,5279.0537109375,10890.771484375,-7832.95263671875,-11319.3671875,6567.34375,4293.24609375,8523.267578125,3703.505126953125,5595.02880859375,3653.072021484375,-1535.1231689453125,7584.65185546875,7264.103515625,7811.5302734375,-15198.689453125,-0.0,-0.0,8329.4599609375,6200.529296875,-4838.24365234375,0.0,11034.58984375
-5250.97021484375,-11048.3837890625,5836.25,7583.2978515625,13989.765625,13418.2412109375,13155.13671875,11648.4208984375,12315.8916015625,9125.0537109375,15532.150390625,0.0,12274.8408203125,0.0,11004.595703125,14995.638671875,24478.0390625,11313.1328125,7192.98974609375,4934.99755859375,2764.612060546875,13932.1689453125,12345.75,8684.60546875,0.0,1522.30419921875,6138.1494140625,3763.444091796875,-2326.50830078125,-8191.955078125,12186.5009765625,2220.015625,8530.5625,13143.044921875,9413.5693359375,14673.3798828125,4290.748046875,8815.0830078125,2959.81103515625,0.0,3840.167724609375,10871.5517578125,6297.5048828125,7277.4033203125,18505.38671875,5323.56396484375,-4369.58349609375,6696.5283203125,5020.7431640625,24612.296875,5285.38427734375,10900.380859375,-7826.353515625,-11309.291015625,6588.83056640625,4297.2373046875,8537.8701171875,3706.48095703125,5596.35009765625,3666.4140625,-1534.6258544921875,7593.201171875,7271.63134765625,7821.3857421875,-15194.12109375,-0.0,-0.0,8344.7197265625,6193.07421875,-4814.83447265625,0.0,11053.1484375
-5237.1650390625,-10975.5205078125,5876.53857421875,7616.99365234375,14025.65234375,13452.521484375,13189.048828125,11686.5263671875,12352.7802734375,9166.6328125,15557.3623046875,0.0,12310.8251953125,0.0,11034.427734375,15029.173828125,24513.3828125,11349.69140625,7229.068359375,4972.03857421875,2800.02099609375,13970.013671875,12381.2255859375,8721.0625,0.0,1559.2027587890625,6172.443359375,3799.572509765625,-2293.98193359375,-8155.009765625,12221.7001953125,2254.536376953125,8567.7744140625,13179.1474609375,9451.6279296875,14709.0625,4327.13720703125,8852.2431640625,3002.0517578125,0.0,3875.784912109375,10907.1259765625,6332.734375,7313.48828125,18539.056640625,5362.3427734375,-4309.90380859375,6732.8564453125,5055.8818359375,24647.4140625,5318.70556640625,10937.58203125,-7820.98974609375,-11281.2109375,6628.63720703125,4327.603515625,8570.7490234375,3740.4892578125,5624.60009765625,3712.6591796875,-1513.76708984375,7630.4326171875,7307.62548828125,7856.8642578125,-15162.9873046875,-0.0,-0.0,8392.0986328125,6222.77978515625,-4760.65869140625,0.0,11100.21484375
-5258.708984375,-10953.9599609375,5880.3359375,7616.515625,14027.341796875,13452.02734375,13192.689453125,11689.0,12365.47265625,9175.3037109375,15568.3193359375,0.0,12308.298828125,0.0,11039.2333984375,15029.171875,24513.171875,11351.6044921875,7231.45068359375,4976.84423828125,2801.748291015625,13971.1904296875,12384.1220703125,8722.55078125,0.0,1557.5574951171875,6173.8115234375,3800.068115234375,-2288.87255859375,-8164.8369140625,12224.97265625,2256.67529296875,8569.3076171875,13180.1103515625,9455.4423828125,14709.3271484375,4330.0576171875,8854.158203125,2998.456787109375,0.0,3879.05126953125,10906.5166015625,6335.7861328125,7314.43994140625,18542.77734375,5367.388671875,-4335.458984375,6729.7890625,5059.95166015625,24646.8046875,5322.5185546875,10937.53515625,-7832.02783203125,-11271.9052734375,6628.1904296875,4324.0869140625,8575.8818359375,3745.5126953125,5619.75537109375,3728.755859375,-1519.3575439453125,7631.8271484375,7311.38916015625,7859.185546875,-15170.61328125,-0.0,-0.0,8428.43359375,6241.9609375,-4737.06884765625,0.0,11110.3505859375
-5248.96630859375,-10940.2353515625,5875.19189453125,7621.93017578125,14029.2158203125,13454.91796875,13194.2685546875,11686.8798828125,12377.638671875,9181.501953125,15579.3349609375,0.0,12300.751953125,0.0,11038.078125,15022.0166015625,24517.603515625,11354.2421875,7234.09521484375,4984.66357421875,2803.606201171875,13973.107421875,12384.7958984375,8725.4599609375,0.0,1562.8660888671875,6174.17724609375,3799.385498046875,-2282.85205078125,-8159.80126953125,12228.126953125,2268.04736328125,8570.5830078125,13185.1826171875,9457.9736328125,14713.0087890625,4331.91650390625,8856.001953125,3019.34423828125,0.0,3879.346435546875,10910.34765625,6336.13671875,7315.10693359375,18547.11328125,5369.3583984375,-4374.64013671875,6734.51171875,5063.28759765625,24648.2109375,5322.8896484375,10932.345703125,-7808.15283203125,-11253.279296875,6631.56005859375,4328.6640625,8571.21484375,3743.92333984375,5619.0849609375,3731.381103515625,-1505.9542236328125,7634.30322265625,7315.35986328125,7864.4853515625,-15170.8359375,-0.0,-0.0,8428.666015625,6254.4013671875,-4735.7490234375,0.0,11113.787109375
-5210.9423828125,-10974.169921875,5854.37548828125,7605.9443359375,14010.21484375,13435.888671875,13173.287109375,11663.931640625,12358.9306640625,9151.5478515625,15572.8408203125,0.0,12285.990234375,0.0,11008.287109375,14991.150390625,24502.94921875,11335.96484375,7212.98583984375,4960.51025390625,2785.8701171875,13957.94140625,12364.2216796875,8705.19921875,0.0,1545.875732421875,6151.03125,3777.248779296875,-2298.838134765625,-8172.5419921875,12209.7001953125,2257.65771484375,8554.1962890625,13169.544921875,9438.880859375,14694.546875,4311.85205078125,8834.7060546875,2994.2890625,0.0,3859.761962890625,10893.53515625,6317.37255859375,7295.1025390625,18528.84765625,5344.57421875,-4366.41455078125,6719.10791015625,5045.84033203125,24629.80078125,5301.138671875,10906.357421875,-7778.63427734375,-11276.27734375,6608.80908203125,4316.7060546875,8544.18359375,3716.2685546875,5611.5537109375,3696.413330078125,-1501.55029296875,7614.5830078125,7293.60400390625,7840.45654296875,-15178.98046875,-0.0,-0.0,8358.8740234375,6236.70654296875,-4799.04541015625,0.0,11071.3525390625
-5254.2255859375,-11014.6240234375,5827.7998046875,7573.03662109375,13984.4677734375,13410.9033203125,13146.4921875,11641.3974609375,12330.9091796875,9125.8720703125,15542.267578125,0.0,12263.3623046875,0.0,10979.5576171875,14980.0927734375,24476.84375,11308.07421875,7186.05126953125,4932.92431640625,2759.35888671875,13929.537109375,12338.1298828125,8680.1083984375,0.0,1518.998779296875,6124.09716796875,3757.294677734375,-2321.00634765625,-8202.1240234375,12181.5068359375,2237.19921875,8528.4462890625,13142.0078125,9411.8359375,14668.349609375,4286.7763671875,8810.8017578125,2960.543701171875,0.0,3833.185791015625,10865.529296875,6290.89599609375,7271.65234375,18503.865234375,5319.73876953125,-4374.8017578125,6684.720703125,5017.1376953125,24606.07421875,5274.49951171875,10889.935546875,-7798.6943359375,-11309.6875,6577.59619140625,4293.51220703125,8518.2802734375,3693.49462890625,5594.79833984375,3673.12841796875,-1537.1668701171875,7584.64599609375,7269.33203125,7814.52197265625,-15212.34765625,-0.0,-0.0,8346.9560546875,6214.88671875,-4817.83447265625,0.0,11048.5390625
-5271.39404296875,-10999.9228515625,5839.94140625,7579.5400390625,13995.6767578125,13421.248046875,13153.8955078125,11650.255859375,12335.7119140625,9131.0,15559.9912109375,0.0,12268.8251953125,0.0,10986.7900390625,14989.1826171875,24487.93359375,11315.9599609375,7194.26171875,4938.240234375,2768.5263671875,13938.5576171875,12347.908203125,8688.1279296875,0.0,1526.41455078125,6134.14892578125,3766.67529296875,-2308.771240234375,-8185.67822265625,12191.6220703125,2248.187744140625,8539.1591796875,13152.7548828125,9420.91015625,14676.5302734375,4294.55029296875,8818.7412109375,2984.693115234375,0.0,3843.261962890625,10875.7392578125,6298.1533203125,7280.53076171875,18510.90625,5326.8427734375,-4340.697265625,6693.61669921875,5024.63525390625,24615.3125,5282.31494140625,10900.1650390625,-7821.671875,-11287.310546875,6588.67724609375,4303.068359375,8527.6826171875,3699.083251953125,5601.7587890625,3673.72607421875,-1541.8023681640625,7590.51318359375,7276.9208984375,7816.57568359375,-15195.1787109375,-0.0,-0.0,8339.634765625,6218.38720703125,-4819.01123046875,0.0,11050.4970703125
-5245.68359375,-11000.759765625,5838.3857421875,7584.8515625,13990.6357421875,13415.6640625,13151.08203125,11642.7919921875,12326.7978515625,9121.1884765625,15572.4052734375,0.0,12278.9404296875,0.0,10986.9716796875,14976.3310546875,24480.849609375,11311.4072265625,7188.9541015625,4927.75732421875,2763.093017578125,13935.619140625,12343.546875,8681.828125,0.0,1523.59619140625,6135.07666015625,3759.453125,-2306.850341796875,-8184.078125,12187.6279296875,2234.33935546875,8534.9404296875,13149.9931640625,9415.935546875,14671.7734375,4288.84521484375,8812.0927734375,2971.92333984375,0.0,3839.18603515625,10873.5810546875,6294.81396484375,7275.16162109375,18505.359375,5318.48974609375,-4332.26318359375,6699.36474609375,5023.23779296875,24609.791015625,5280.0087890625,10888.3359375,-7837.044921875,-11282.2822265625,6593.43798828125,4300.21875,8533.15234375,3697.346923828125,5594.10009765625,3659.498779296875,-1538.0960693359375,7582.7255859375,7269.85302734375,7805.22021484375,-15179.2431640625,-0.0,-0.0,8318.4541015625,6204.9462890625,-4834.771484375,0.0,11038.259765625
-5256.85302734375,-11028.6845703125,5813.88037109375,7562.83203125,13968.5263671875,13395.24609375,13132.90234375,11626.21484375,12307.0478515625,9105.626953125,15548.09765625,0.0,12264.5,0.0,10974.4111328125,14968.2724609375,24455.876953125,11289.529296875,7170.142578125,4909.48681640625,2739.726318359375,13913.2744140625,12323.796875,8661.8896484375,0.0,1505.444580078125,6116.638671875,3744.5244140625,-2322.928955078125,-8209.525390625,12165.0625,2203.017822265625,8509.4443359375,13125.4296875,9394.744140625,14650.7216796875,4270.8779296875,8794.0830078125,2936.32275390625,0.0,3817.638671875,10851.3896484375,6275.29638671875,7257.69873046875,18486.689453125,5302.4794921875,-4384.69482421875,6676.02978515625,5004.40283203125,24593.904296875,5262.2509765625,10873.5537109375,-7854.1103515625,-11301.5224609375,6581.3427734375,4281.7431640625,8518.49609375,3691.07177734375,5570.056640625,3650.916015625,-1574.536376953125,7562.89892578125,7253.0361328125,7784.19970703125,-15204.1015625,-0.0,-0.0,8331.5654296875,6181.8955078125,-4830.11083984375,0.0,11030.5751953125
-5253.91259765625,-11048.3212890625,5799.7138671875,7548.51806640625,13958.99609375,13384.9033203125,13124.8369140625,11617.669921875,12298.26171875,9093.7392578125,15535.2001953125,0.0,12249.1982421875,0.0,10971.2177734375,14962.0732421875,24445.76171875,11278.751953125,7162.24169921875,4900.6953125,2728.84033203125,13901.1708984375,12312.9765625,8652.197265625,0.0,1492.496337890625,6108.2392578125,3736.223388671875,-2332.735107421875,-8223.900390625,12156.0732421875,2190.14111328125,8496.71484375,13113.267578125,9382.8115234375,14639.4677734375,4260.22998046875,8784.591796875,2928.917724609375,0.0,3804.869384765625,10838.689453125,6266.30126953125,7246.5888671875,18478.28125,5294.4130859375,-4409.13134765625,6661.73486328125,4997.861328125,24581.8046875,5253.94384765625,10866.4111328125,-7855.884765625,-11318.5693359375,6562.77978515625,4270.27392578125,8508.7041015625,3681.275634765625,5559.89990234375,3643.616455078125,-1575.4766845703125,7555.625,7243.81005859375,7774.7158203125,-15222.1435546875,-0.0,-0.0,8322.1455078125,6172.86083984375,-4839.75537109375,0.0,11020.7724609375
-5247.84814453125,-11063.6572265625,5790.89404296875,7541.10693359375,13950.96484375,13375.8623046875,13115.482421875,11608.892578125,12285.4345703125,9086.1630859375,15516.9111328125,0.0,12238.83984375,0.0,10967.798828125,14950.890625,24435.5390625,11268.3984375,7153.19677734375,4892.3583984375,2721.58544921875,13891.26171875,12303.78125,8644.3515625,0.0,1482.81103515625,6103.0986328125,3726.585693359375,-2354.772705078125,-8232.720703125,12145.974609375,2181.834716796875,8488.3046875,13102.7109375,9372.84765625,14631.6103515625,4251.869140625,8775.421875,2915.54736328125,0.0,3797.98193359375,10829.78515625,6259.20166015625,7237.470703125,18467.37890625,5284.7861328125,-4405.62353515625,6653.96875,4990.6982421875,24571.69921875,5246.927734375,10858.451171875,-7866.140625,-11347.2431640625,6533.36865234375,4257.23876953125,8504.1669921875,3671.19873046875,5549.29248046875,3632.958984375,-1570.4158935546875,7550.1181640625,7232.20166015625,7769.0859375,-15234.65625,-0.0,-0.0,8312.3837890625,6161.69287109375,-4849.52587890625,0.0,11012.8544921875
-5255.33935546875,-11085.1845703125,5792.6162109375,7535.0986328125,13947.962890625,13371.1630859375,13111.138671875,11607.6474609375,12281.6357421875,9087.732421875,15508.751953125,0.0,12238.052734375,0.0,10963.8505859375,14951.2734375,24432.21875,11264.86328125,7149.89794921875,4893.3544921875,2720.67529296875,13886.962890625,12300.8486328125,8639.8994140625,0.0,1477.2081298828125,6098.18994140625,3723.913330078125,-2367.923583984375,-8240.18359375,12139.7021484375,2178.723876953125,8486.490234375,13097.6123046875,9369.05859375,14627.64453125,4250.26904296875,8772.9755859375,2910.740234375,0.0,3798.486083984375,10825.77734375,6256.3388671875,7234.2744140625,18463.330078125,5282.9375,-4403.728515625,6646.0107421875,4986.9501953125,24570.208984375,5243.33447265625,10857.6826171875,-7873.1943359375,-11355.9609375,6532.88134765625,4249.50390625,8501.5263671875,3669.444580078125,5546.92529296875,3636.1787109375,-1588.8333740234375,7549.00732421875,7229.4501953125,7770.09716796875,-15247.3115234375,-0.0,-0.0,8323.6513671875,6157.91943359375,-4838.8701171875,0.0,11020.12890625
-5285.5068359375,-11079.2255859375,5811.2724609375,7548.82275390625,13961.009765625,13383.0341796875,13122.05859375,11621.3701171875,12297.125,9103.0322265625,15515.654296875,0.0,12246.798828125,0.0,10971.03515625,14965.2587890625,24445.615234375,11278.21875,7162.0673828125,4908.2294921875,2733.573974609375,13900.4814453125,12311.96875,8653.2138671875,0.0,1487.924072265625,6108.8017578125,3738.451416015625,-2354.5390625,-8232.140625,12152.6884765625,2190.191650390625,8501.513671875,13112.0888671875,9381.697265625,14639.169921875,4262.09423828125,8785.9296875,2929.336181640625,0.0,3812.691162109375,10838.1279296875,6266.8037109375,7246.70068359375,18475.841796875,5297.95654296875,-4410.02734375,6661.14453125,4999.1220703125,24582.716796875,5254.43115234375,10872.1201171875,-7843.20361328125,-11341.33203125,6562.0986328125,4260.5205078125,8507.697265625,3682.74609375,5561.65771484375,3654.50048828125,-1582.5517578125,7561.44775390625,7244.1826171875,7783.8994140625,-15236.3515625,-0.0,-0.0,8342.271484375,6177.740234375,-4814.91796875,0.0,11041.095703125
-5307.94287109375,-11053.7255859375,5832.30029296875,7563.57861328125,13972.70703125,13393.2666015625,13131.6630859375,11627.962890625,12304.5244140625,9104.041015625,15524.9052734375,0.0,12254.55859375,0.0,10980.1103515625,14970.4833984375,24458.787109375,11288.91796875,7170.060546875,4911.2958984375,2744.650390625,13911.4306640625,12322.5595703125,8662.9853515625,0.0,1498.1309814453125,6119.9189453125,3744.833984375,-2345.189208984375,-8222.6337890625,12164.8779296875,2201.406982421875,8515.13671875,13123.8349609375,9393.380859375,14649.1396484375,4270.43896484375,8792.908203125,2942.290771484375,0.0,3828.32470703125,10849.6923828125,6276.859375,7256.12060546875,18483.314453125,5302.92919921875,-4415.53271484375,6675.48779296875,5010.4208984375,24589.6875,5263.50341796875,10879.2275390625,-7821.689453125,-11326.5595703125,6583.7421875,4270.744140625,8516.3955078125,3689.952880859375,5568.1171875,3658.69970703125,-1581.4986572265625,7570.04345703125,7250.79150390625,7783.21923828125,-15221.2470703125,-0.0,-0.0,8327.3115234375,6185.06884765625,-4826.15966796875,0.0,11035.3955078125
-5295.07666015625,-11032.810546875,5861.0234375,7583.849609375,13996.7255859375,13417.5390625,13157.369140625,11653.294921875,12329.2080078125,9122.330078125,15562.2646484375,0.0,12284.1015625,0.0,11000.4765625,14996.8486328125,24485.59375,11314.625,7194.8798828125,4933.751953125,2771.51025390625,13935.5732421875,12346.9423828125,8686.9609375,0.0,1524.1475830078125,6141.92822265625,3769.239013671875,-2318.977294921875,-8196.248046875,12190.017578125,2231.730712890625,8542.0625,13150.408203125,9419.10546875,14673.50390625,4296.1962890625,8819.0498046875,2957.566162109375,0.0,3855.264892578125,10873.6201171875,6300.91064453125,7280.4013671875,18507.44140625,5326.95703125,-4365.92333984375,6696.9189453125,5036.14599609375,24613.04296875,5285.30712890625,10905.1708984375,-7819.12353515625,-11296.6064453125,6613.7373046875,4297.9765625,8539.8505859375,3715.424072265625,5592.75244140625,3680.91259765625,-1551.771484375,7593.39306640625,7274.4169921875,7805.9658203125,-15188.8935546875,-0.0,-0.0,8335.2744140625,6205.13037109375,-4820.12109375,0.0,11043.240234375
-5280.90576171875,-10981.9482421875,5879.05908203125,7599.3671875,14017.82421875,13443.2470703125,13180.353515625,11680.6787109375,12357.294921875,9151.2412109375,15588.83984375,0.0,12303.74609375,0.0,11016.7158203125,15025.0,24508.705078125,11337.44140625,7220.0810546875,4962.14306640625,2792.48193359375,13959.0859375,12369.9462890625,8711.4833984375,0.0,1547.6910400390625,6161.33837890625,3798.604248046875,-2299.314453125,-8170.23193359375,12213.3671875,2258.1533203125,8563.021484375,13171.5009765625,9441.5234375,14696.244140625,4320.1923828125,8844.3779296875,2987.185302734375,0.0,3874.0712890625,10896.2392578125,6321.521484375,7305.8994140625,18532.73828125,5353.55029296875,-4309.2080078125,6714.1396484375,5054.70556640625,24639.15625,5306.6083984375,10934.76953125,-7820.216796875,-11272.1572265625,6623.44091796875,4326.5966796875,8555.466796875,3745.172607421875,5619.1416015625,3698.02197265625,-1524.3458251953125,7616.7783203125,7300.22705078125,7841.03857421875,-15167.279296875,-0.0,-0.0,8375.30078125,6230.97802734375,-4788.10595703125,0.0,11076.41015625
-5258.728515625,-10974.5869140625,5874.42724609375,7607.49853515625,14017.4853515625,13447.064453125,13182.3642578125,11683.73828125,12360.587890625,9156.8759765625,15577.9853515625,0.0,12295.5810546875,0.0,11021.3291015625,15032.853515625,24513.234375,11339.6318359375,7222.59912109375,4967.01123046875,2793.193359375,13962.3896484375,12371.9169921875,8714.251953125,0.0,1551.0572509765625,6163.1220703125,3801.752197265625,-2309.60888671875,-8161.28857421875,12217.171875,2263.379150390625,8564.24609375,13175.841796875,9444.068359375,14700.267578125,4323.71044921875,8846.3212890625,2991.649658203125,0.0,3871.409423828125,10902.1328125,6322.68212890625,7309.638671875,18536.982421875,5355.97509765625,-4313.50390625,6720.06982421875,5049.99951171875,24642.58203125,5310.42236328125,10938.5576171875,-7822.82763671875,-11263.19921875,6609.1484375,4334.70556640625,8554.1259765625,3742.674560546875,5622.2607421875,3692.060302734375,-1520.98095703125,7619.00048828125,7303.796875,7851.37451171875,-15176.814453125,-0.0,-0.0,8392.525390625,6235.63671875,-4777.63818359375,0.0,11092.861328125
-5240.34228515625,-11017.9873046875,5858.46240234375,7599.4560546875,14004.7216796875,13434.41796875,13169.9443359375,11670.46875,12344.255859375,9150.435546875,15560.47265625,0.0,12281.88671875,0.0,11010.529296875,15017.8974609375,24500.37109375,11327.76171875,7210.31689453125,4957.48291015625,2781.93701171875,13950.5625,12359.5224609375,8703.189453125,0.0,1538.92333984375,6151.10986328125,3786.891357421875,-2321.179931640625,-8173.25048828125,12203.1171875,2245.764404296875,8551.58203125,13165.685546875,9432.2568359375,14689.5361328125,4310.19677734375,8833.7392578125,3001.2724609375,0.0,3858.795166015625,10891.0869140625,6311.50732421875,7296.64111328125,18523.345703125,5344.7275390625,-4332.0126953125,6713.2900390625,5038.2138671875,24631.353515625,5299.7373046875,10924.1240234375,-7848.05419921875,-11270.70703125,6594.55029296875,4319.44482421875,8543.8759765625,3726.162109375,5611.02490234375,3682.4375,-1525.500732421875,7607.1630859375,7290.95849609375,7842.953125,-15189.5439453125,-0.0,-0.0,8374.6064453125,6217.6708984375,-4786.70849609375,0.0,11091.603515625
-5231.7783203125,-10995.765625,5831.82421875,7572.07666015625,13983.759765625,13409.08203125,13149.5830078125,11642.6298828125,12318.8779296875,9127.9443359375,15524.1826171875,0.0,12265.951171875,0.0,10995.6103515625,14984.69140625,24475.7578125,11304.3125,7186.96484375,4931.6552734375,2756.687255859375,13927.0966796875,12337.5439453125,8678.134765625,0.0,1513.963623046875,6132.70361328125,3759.11376953125,-2332.04248046875,-8200.5537109375,12179.625,2219.9609375,8526.2822265625,13139.8857421875,9409.7734375,14664.6923828125,4285.22802734375,8809.2958984375,3002.090576171875,0.0,3833.307373046875,10865.1748046875,6290.9091796875,7271.1181640625,18500.099609375,5318.6142578125,-4367.1201171875,6686.51953125,5019.16796875,24607.431640625,5281.02197265625,10891.7607421875,-7865.21728515625,-11296.79296875,6581.67724609375,4287.1259765625,8529.8134765625,3699.384033203125,5587.2060546875,3663.04150390625,-1536.6632080078125,7586.67578125,7266.408203125,7814.1513671875,-15207.5478515625,-0.0,-0.0,8350.544921875,6194.337890625,-4806.36328125,0.0,11069.61328125
-5240.72705078125,-10999.103515625,5808.50732421875,7548.56640625,13961.099609375,13384.5166015625,13129.1181640625,11615.9970703125,12296.056640625,9100.8876953125,15496.3037109375,0.0,12252.8603515625,0.0,10986.40625,14957.203125,24453.314453125,11280.3759765625,7163.66162109375,4904.220703125,2732.401611328125,13904.2939453125,12315.3466796875,8653.8134765625,0.0,1493.8670654296875,6115.19921875,3731.359375,-2350.9306640625,-8224.4091796875,12157.646484375,2201.264404296875,8502.255859375,13117.4189453125,9387.2294921875,14641.107421875,4263.3369140625,8784.9365234375,2963.265869140625,0.0,3809.910400390625,10842.205078125,6269.53173828125,7245.86279296875,18477.49609375,5293.58056640625,-4413.978515625,6662.14404296875,4998.12890625,24581.1875,5264.08251953125,10861.8662109375,-7858.32177734375,-11324.50390625,6562.3896484375,4260.833984375,8520.048828125,3670.234375,5558.33447265625,3643.3876953125,-1549.291259765625,7563.62841796875,7243.771484375,7779.48486328125,-15225.982421875,-0.0,-0.0,8324.8955078125,6176.8046875,-4831.52734375,0.0,11040.0302734375
-5249.07470703125,-11011.7216796875,5815.42431640625,7552.791015625,13964.466796875,13390.958984375,13130.603515625,11624.6123046875,12299.24609375,9107.46875,15507.4189453125,0.0,12259.7880859375,0.0,10983.12890625,14972.4189453125,24456.447265625,11283.7138671875,7167.8046875,4909.796875,2734.788818359375,13909.10546875,12318.4521484375,8658.7060546875,0.0,1499.310546875,6114.98974609375,3740.192138671875,-2343.886962890625,-8221.626953125,12161.2958984375,2206.598876953125,8505.654296875,13121.33984375,9390.111328125,14645.8125,4266.11962890625,8790.6025390625,2970.59765625,0.0,3815.743896484375,10847.4208984375,6272.828125,7252.99658203125,18480.091796875,5301.3408203125,-4417.82421875,6666.4716796875,5002.55419921875,24586.509765625,5262.65234375,10872.8525390625,-7847.95556640625,-11324.29296875,6569.10888671875,4267.8125,8523.3037109375,3684.221435546875,5561.3818359375,3655.505615234375,-1550.376708984375,7566.505859375,7246.96533203125,7778.04736328125,-15217.5078125,-0.0,-0.0,8338.7138671875,6176.076171875,-4813.99267578125,0.0,11046.140625
-5239.77783203125,-11016.01171875,5818.78857421875,7562.00048828125,13973.0615234375,13400.8798828125,13138.5380859375,11637.888671875,12310.455078125,9120.5576171875,15523.6181640625,0.0,12268.2451171875,0.0,10980.5107421875,14988.37109375,24464.404296875,11292.642578125,7178.46923828125,4921.91162109375,2742.587158203125,13916.904296875,12327.306640625,8668.1875,0.0,1507.625244140625,6120.50830078125,3755.1787109375,-2325.46533203125,-8215.1259765625,12169.767578125,2214.893798828125,8513.2255859375,13130.4189453125,9399.0146484375,14655.3427734375,4276.20947265625,8801.55078125,2976.81982421875,0.0,3821.492919921875,10857.203125,6280.4150390625,7265.22607421875,18491.150390625,5313.8271484375,-4384.18310546875,6675.96875,5010.736328125,24596.6015625,5266.4755859375,10887.8095703125,-7846.39013671875,-11327.0322265625,6580.20263671875,4281.552734375,8527.06640625,3699.9150390625,5581.66162109375,3666.896484375,-1565.3800048828125,7575.46630859375,7258.23583984375,7789.87353515625,-15205.369140625,-0.0,-0.0,8355.2412109375,6187.7783203125,-4798.6435546875,0.0,11056.2060546875
-5278.447265625,-11062.6484375,5800.64501953125,7544.4775390625,13953.4482421875,13377.4970703125,13117.5546875,11614.001953125,12282.439453125,9096.2236328125,15505.3974609375,0.0,12249.228515625,0.0,10961.76171875,14961.3203125,24443.625,11272.3056640625,7157.34130859375,4900.10498046875,2723.19921875,13894.1142578125,12306.986328125,8646.05078125,0.0,1484.5692138671875,6104.15966796875,3731.125,-2341.6220703125,-8236.3544921875,12147.58203125,2190.2568359375,8492.6171875,13109.505859375,9379.5068359375,14633.5390625,4254.1640625,8778.0087890625,2946.971923828125,0.0,3803.2509765625,10836.7939453125,6260.91748046875,7242.42529296875,18468.4140625,5289.26025390625,-4396.0458984375,6657.4833984375,4994.81298828125,24571.36328125,5247.978515625,10863.705078125,-7846.673828125,-11366.318359375,6556.9482421875,4260.5517578125,8515.283203125,3671.334228515625,5568.1376953125,3638.21728515625,-1597.8709716796875,7553.43701171875,7238.75,7768.62109375,-15235.7001953125,-0.0,-0.0,8325.888671875,6167.01416015625,-4825.77099609375,0.0,11030.7529296875
-5290.1318359375,-11050.1416015625,5817.07958984375,7557.57861328125,13968.0546875,13387.8203125,13127.75,11620.826171875,12291.68359375,9102.140625,15504.6455078125,0.0,12255.591796875,0.0,10972.9775390625,14962.1552734375,24452.990234375,11283.3408203125,7167.2978515625,4908.85205078125,2735.39599609375,13904.0908203125,12318.16015625,8655.50390625,0.0,1495.159912109375,6120.46142578125,3739.463134765625,-2335.351806640625,-8219.609375,12157.2138671875,2198.613525390625,8504.2001953125,13119.455078125,9391.875,14642.837890625,4264.02294921875,8786.4140625,2957.986083984375,0.0,3817.44921875,10847.5673828125,6274.02685546875,7250.49365234375,18477.0078125,5295.78369140625,-4393.56884765625,6671.4580078125,5012.9931640625,24582.611328125,5259.16259765625,10870.109375,-7851.41259765625,-11351.724609375,6568.9599609375,4270.33056640625,8526.9990234375,3680.269287109375,5565.64013671875,3648.30615234375,-1594.9794921875,7565.1181640625,7246.61474609375,7782.88525390625,-15230.0986328125,-0.0,-0.0,8331.53125,6174.28955078125,-4821.6591796875,0.0,11033.7109375
-5272.92724609375,-11001.5810546875,5848.76953125,7580.2734375,14000.75390625,13418.146484375,13161.6298828125,11649.4931640625,12331.3037109375,9130.1220703125,15529.9619140625,0.0,12288.5546875,0.0,11013.4384765625,14990.642578125,24481.8125,11312.6044921875,7198.1142578125,4938.63916015625,2767.01611328125,13934.01953125,12351.6845703125,8686.2041015625,0.0,1524.6904296875,6153.8525390625,3768.781982421875,-2313.9248046875,-8198.6123046875,12186.64453125,2228.437744140625,8534.4365234375,13147.0087890625,9424.0927734375,14673.91796875,4297.40380859375,8817.0302734375,2987.49169921875,0.0,3850.088623046875,10875.599609375,6306.88671875,7279.17431640625,18508.521484375,5327.06005859375,-4347.91943359375,6695.26220703125,5046.00244140625,24613.609375,5294.59814453125,10899.0146484375,-7860.91748046875,-11309.1328125,6594.98828125,4297.17138671875,8552.037109375,3714.803955078125,5588.62353515625,3678.079833984375,-1571.9925537109375,7596.2470703125,7276.74267578125,7816.12109375,-15196.25,-0.0,-0.0,8357.423828125,6203.86328125,-4800.23486328125,0.0,11059.576171875
-5295.578125,-11025.8291015625,5829.11376953125,7553.49658203125,13971.58203125,13396.6005859375,13137.0341796875,11629.44140625,12309.5849609375,9102.1181640625,15524.03125,0.0,12271.76953125,0.0,10991.3466796875,14975.6806640625,24461.287109375,11290.458984375,7174.5029296875,4912.99462890625,2743.8662109375,13912.166015625,12329.0400390625,8664.51953125,0.0,1500.595458984375,6127.111328125,3747.890625,-2332.49072265625,-8227.5263671875,12165.076171875,2208.55615234375,8512.5185546875,13124.189453125,9400.5146484375,14653.59375,4274.32861328125,8795.0986328125,2961.10400390625,0.0,3828.227783203125,10851.1640625,6280.77880859375,7258.32861328125,18485.58203125,5303.7783203125,-4378.5458984375,6667.072265625,5017.99658203125,24591.79296875,5271.6552734375,10880.287109375,-7905.279296875,-11323.5390625,6578.02783203125,4274.93603515625,8523.4951171875,3695.50927734375,5569.2919921875,3651.68798828125,-1573.0816650390625,7573.78173828125,7251.6171875,7787.55517578125,-15215.84765625,-0.0,-0.0,8338.376953125,6177.85791015625,-4820.24609375,0.0,11037.544921875
-5318.84619140625,-11076.46484375,5799.39208984375,7526.0166015625,13937.36328125,13368.8330078125,13103.2578125,11602.3271484375,12286.1357421875,9076.853515625,15503.69921875,0.0,12232.85546875,0.0,10946.1689453125,14947.6123046875,24432.19921875,11260.7939453125,7144.54248046875,4886.02294921875,2711.04443359375,13882.8447265625,12295.0126953125,8634.2353515625,0.0,1469.9376220703125,6088.07666015625,3719.6474609375,-2369.787353515625,-8256.767578125,12134.4560546875,2178.264892578125,8482.345703125,13094.419921875,9368.541015625,14623.375,4243.9140625,8766.0029296875,2936.525390625,0.0,3794.699951171875,10820.6025390625,6245.77880859375,7230.07763671875,18457.462890625,5277.44189453125,-4429.373046875,6639.83740234375,4977.57763671875,24562.248046875,5233.76171875,10851.8466796875,-7934.328125,-11348.13671875,6547.64599609375,4246.46728515625,8484.126953125,3665.648681640625,5544.775390625,3627.3125,-1598.380126953125,7542.73095703125,7222.30419921875,7757.60498046875,-15246.888671875,-0.0,-0.0,8321.2041015625,6156.734375,-4841.71630859375,0.0,11011.4208984375
-5311.38720703125,-11078.1474609375,5807.94677734375,7539.287109375,13944.5859375,13371.6259765625,13108.13671875,11597.353515625,12291.2021484375,9075.00390625,15521.845703125,0.0,12238.9775390625,0.0,10948.5078125,14933.7802734375,24442.1875,11266.671875,7147.7294921875,4886.02978515625,2719.07080078125,13890.7353515625,12298.826171875,8636.3173828125,0.0,1477.1239013671875,6090.79248046875,3713.503662109375,-2362.3271484375,-8245.6357421875,12142.5947265625,2187.022216796875,8493.365234375,13105.333984375,9375.56640625,14628.087890625,4247.54248046875,8767.580078125,2951.406982421875,0.0,3802.900390625,10829.138671875,6250.71728515625,7230.119140625,18460.943359375,5276.40966796875,-4423.09130859375,6653.48388671875,4981.0888671875,24564.935546875,5238.22021484375,10841.23828125,-7872.666015625,-11347.6669921875,6549.5224609375,4254.32958984375,8485.8671875,3652.843994140625,5557.96044921875,3625.209716796875,-1606.1439208984375,7547.80029296875,7225.37109375,7757.833984375,-15233.0859375,-0.0,-0.0,8298.83984375,6169.24658203125,-4867.0576171875,0.0,10996.52734375
-5296.54638671875,-11061.771484375,5838.35986328125,7572.07470703125,13969.97265625,13397.35546875,13131.0771484375,11618.01171875,12308.8349609375,9089.34765625,15556.86328125,0.0,12257.1640625,0.0,10968.552734375,14949.0966796875,24470.580078125,11293.2119140625,7170.2216796875,4904.328125,2748.033935546875,13919.4873046875,12324.4638671875,8661.0517578125,0.0,1507.635009765625,6115.82958984375,3737.087890625,-2333.978759765625,-8205.111328125,12172.52734375,2217.806884765625,8522.4833984375,13136.7744140625,9401.474609375,14656.0302734375,4270.94287109375,8789.7275390625,2978.33154296875,0.0,3830.0908203125,10860.537109375,6272.95166015625,7255.9228515625,18483.30859375,5293.353515625,-4378.95849609375,6687.00830078125,5003.90625,24593.70703125,5261.97900390625,10859.1640625,-7829.6259765625,-11317.654296875,6573.544921875,4284.28369140625,8511.3984375,3666.83544921875,5580.19384765625,3640.568115234375,-1582.238525390625,7574.30859375,7245.9560546875,7778.7705078125,-15208.1650390625,-0.0,-0.0,8311.7431640625,6192.3115234375,-4860.84423828125,0.0,11001.6591796875
-5280.90380859375,-11017.80859375,5852.546875,7578.4326171875,13985.1328125,13405.67578125,13142.1337890625,11626.431640625,12315.90625,9092.1064453125,15566.2763671875,0.0,12263.7138671875,0.0,10981.4296875,14963.5400390625,24479.845703125,11302.3857421875,7178.427734375,4910.07666015625,2759.358642578125,13927.40234375,12333.673828125,8669.3623046875,0.0,1516.6292724609375,6129.3515625,3747.206298828125,-2328.11572265625,-8191.97119140625,12181.7275390625,2225.923583984375,8532.1279296875,13144.3896484375,9411.7333984375,14663.7890625,4280.10693359375,8797.822265625,3004.775634765625,0.0,3843.734619140625,10870.7158203125,6285.4453125,7264.70654296875,18491.15234375,5298.21337890625,-4344.17431640625,6694.1796875,5020.40625,24602.64453125,5272.94775390625,10870.4814453125,-7830.75,-11291.0732421875,6585.16943359375,4291.138671875,8530.310546875,3676.162353515625,5581.431640625,3636.577880859375,-1562.1475830078125,7581.40673828125,7253.49755859375,7785.65283203125,-15198.1259765625,-0.0,-0.0,8329.5712890625,6198.04052734375,-4854.56884765625,0.0,11011.87109375
-5256.79443359375,-10974.4208984375,5859.68359375,7587.16455078125,13995.22265625,13411.7626953125,13150.8974609375,11634.4072265625,12322.052734375,9091.99609375,15571.728515625,0.0,12277.98828125,0.0,10995.978515625,14978.0634765625,24490.20703125,11309.33984375,7186.68408203125,4913.81103515625,2767.82861328125,13934.880859375,12341.564453125,8676.451171875,0.0,1525.2261962890625,6140.94140625,3754.2275390625,-2315.160400390625,-8184.80078125,12190.2060546875,2236.357177734375,8542.4013671875,13152.6787109375,9419.619140625,14670.560546875,4287.5078125,8804.9013671875,3014.0703125,0.0,3853.0615234375,10877.4140625,6295.43798828125,7269.99853515625,18496.888671875,5302.244140625,-4334.80712890625,6700.12841796875,5034.130859375,24607.896484375,5282.98974609375,10882.080078125,-7812.60546875,-11266.0810546875,6597.33935546875,4302.74609375,8540.890625,3690.46875,5584.9873046875,3632.346923828125,-1543.9014892578125,7587.806640625,7259.21484375,7787.84765625,-15179.2939453125,-0.0,-0.0,8318.6943359375,6203.4658203125,-4864.4697265625,0.0,11014.8916015625
-5224.673828125,-10978.119140625,5844.5859375,7579.91650390625,13983.56640625,13406.6123046875,13142.85546875,11632.3447265625,12312.494140625,9087.349609375,15557.4287109375,0.0,12270.169921875,0.0,10986.029296875,14976.0439453125,24483.412109375,11301.109375,7180.04931640625,4908.5078125,2758.326904296875,13930.0712890625,12334.2060546875,8671.6640625,0.0,1518.7911376953125,6131.2998046875,3754.643310546875,-2324.352783203125,-8198.568359375,12182.3193359375,2234.183349609375,8532.9287109375,13145.9228515625,9409.794921875,14664.4619140625,4280.875,8799.736328125,3012.18017578125,0.0,3840.54541015625,10869.8359375,6284.86865234375,7266.0498046875,18489.912109375,5298.494140625,-4347.64453125,6690.96923828125,5022.056640625,24603.158203125,5273.89892578125,10882.9072265625,-7809.4384765625,-11266.353515625,6585.861328125,4298.9384765625,8527.875,3694.879150390625,5581.83642578125,3631.7685546875,-1542.2047119140625,7579.21337890625,7251.58740234375,7778.32421875,-15184.3095703125,-0.0,-0.0,8313.265625,6197.86181640625,-4867.693359375,0.0,11009.1796875
-5239.83154296875,-10991.7705078125,5830.2607421875,7564.6748046875,13969.5634765625,13392.7607421875,13128.255859375,11621.220703125,12297.9873046875,9077.70703125,15545.8095703125,0.0,12250.76953125,0.0,10968.83984375,14957.7802734375,24470.939453125,11287.05859375,7166.6982421875,4899.09521484375,2744.69580078125,13914.669921875,12320.04296875,8657.9765625,0.0,1504.2100830078125,6113.02490234375,3740.906005859375,-2338.474853515625,-8215.4365234375,12166.984375,2222.072998046875,8518.7236328125,13131.248046875,9395.5927734375,14649.3134765625,4266.09765625,8788.53515625,3002.72705078125,0.0,3826.068359375,10855.150390625,6270.32177734375,7252.91943359375,18476.521484375,5291.017578125,-4362.72998046875,6675.23779296875,5006.27880859375,24589.384765625,5258.5302734375,10869.5390625,-7802.49169921875,-11289.4443359375,6570.7001953125,4278.86962890625,8508.4453125,3686.4072265625,5571.53125,3640.535888671875,-1562.81201171875,7562.85693359375,7241.42822265625,7769.8837890625,-15199.779296875,-0.0,-0.0,8307.4619140625,6184.75244140625,-4864.166015625,0.0,11005.6630859375
-5274.6962890625,-11005.6982421875,5842.6435546875,7579.54931640625,13979.7255859375,13403.7412109375,13137.34375,11633.0146484375,12312.962890625,9097.6005859375,15548.0712890625,0.0,12253.2412109375,0.0,10978.92578125,14968.3759765625,24483.69140625,11297.2490234375,7178.04736328125,4913.37158203125,2754.887451171875,13927.37890625,12330.376953125,8668.724609375,0.0,1518.17578125,6122.087890625,3753.47412109375,-2339.276123046875,-8199.7705078125,12178.685546875,2239.44873046875,8531.724609375,13142.921875,9406.5986328125,14660.9091796875,4277.57958984375,8800.7626953125,3009.60107421875,0.0,3836.356201171875,10867.5341796875,6280.08984375,7262.419921875,18488.650390625,5305.62255859375,-4356.732421875,6692.3720703125,5013.56982421875,24602.001953125,5268.81640625,10879.6748046875,-7794.88037109375,-11302.6494140625,6578.396484375,4284.91845703125,8520.98828125,3701.849365234375,5582.208984375,3665.55908203125,-1566.3240966796875,7573.29638671875,7254.78515625,7788.25830078125,-15199.2197265625,-0.0,-0.0,8326.8779296875,6198.5859375,-4842.57421875,0.0,11020.2314453125
-5262.06201171875,-11008.9306640625,5862.931640625,7603.2529296875,13999.134765625,13426.845703125,13157.3779296875,11653.505859375,12333.818359375,9126.7900390625,15563.0146484375,0.0,12279.4306640625,0.0,10998.8134765625,14992.4033203125,24504.37890625,11318.4775390625,7197.9619140625,4936.3193359375,2775.8154296875,13950.3876953125,12351.232421875,8690.080078125,0.0,1541.0799560546875,6144.8408203125,3775.910400390625,-2314.24072265625,-8175.90869140625,12199.7626953125,2257.328125,8551.8974609375,13164.1591796875,9425.951171875,14683.328125,4298.41162109375,8821.26953125,3033.9638671875,0.0,3858.003662109375,10890.859375,6301.28076171875,7285.4033203125,18509.3515625,5325.8251953125,-4333.03076171875,6716.4052734375,5037.19970703125,24626.599609375,5288.02978515625,10902.05859375,-7809.4228515625,-11304.3876953125,6602.18212890625,4309.90673828125,8543.87890625,3722.60205078125,5599.47119140625,3684.10107421875,-1541.3173828125,7592.89990234375,7275.4599609375,7815.24365234375,-15180.134765625,-0.0,-0.0,8368.046875,6214.24560546875,-4808.0068359375,0.0,11053.6396484375
-5218.33544921875,-10978.5380859375,5868.64306640625,7603.9345703125,14004.630859375,13431.109375,13164.5830078125,11658.1640625,12340.15234375,9141.01171875,15565.9921875,0.0,12290.671875,0.0,11005.955078125,14997.6953125,24507.193359375,11325.044921875,7203.67138671875,4948.39501953125,2781.844970703125,13953.0693359375,12356.888671875,8695.48828125,0.0,1541.5191650390625,6151.43505859375,3776.7138671875,-2296.28955078125,-8168.70751953125,12205.361328125,2255.19580078125,8555.5732421875,13167.2412109375,9431.5146484375,14689.1982421875,4304.0771484375,8825.646484375,3028.232177734375,0.0,3863.889404296875,10893.818359375,6308.9140625,7290.47265625,18516.22265625,5334.181640625,-4329.44189453125,6717.13427734375,5045.08056640625,24629.869140625,5295.2109375,10905.521484375,-7815.96826171875,-11278.458984375,6611.58837890625,4317.482421875,8551.1416015625,3720.1923828125,5609.20556640625,3686.904541015625,-1523.05078125,7600.15478515625,7284.45263671875,7827.56396484375,-15172.5107421875,-0.0,-0.0,8379.748046875,6214.1826171875,-4787.5185546875,0.0,11075.1328125
-5195.5390625,-10989.2021484375,5844.1923828125,7586.6298828125,13982.9384765625,13406.685546875,13145.662109375,11632.2890625,12316.544921875,9120.984375,15534.421875,0.0,12274.82421875,0.0,10992.7001953125,14972.7109375,24482.96484375,11302.5048828125,7181.53857421875,4925.03515625,2759.297119140625,13930.0166015625,12335.63671875,8672.240234375,0.0,1518.2762451171875,6133.689453125,3750.924560546875,-2316.14208984375,-8196.3115234375,12181.2529296875,2231.2578125,8532.166015625,13145.623046875,9409.466796875,14666.1943359375,4282.35400390625,8801.3681640625,2999.841064453125,0.0,3838.181640625,10872.1357421875,6289.72119140625,7264.650390625,18495.7578125,5309.43212890625,-4359.892578125,6699.70263671875,5024.53173828125,24604.30859375,5281.23876953125,10876.4931640625,-7823.97216796875,-11279.1474609375,6593.62841796875,4297.22802734375,8537.921875,3691.97900390625,5599.7666015625,3657.950439453125,-1526.802490234375,7579.8564453125,7260.595703125,7798.96875,-15190.6796875,-0.0,-0.0,8357.9111328125,6196.36767578125,-4813.08203125,0.0,11048.404296875
-5190.5498046875,-10989.2109375,5839.318359375,7584.958984375,13980.7119140625,13405.9501953125,13145.177734375,11629.4619140625,12308.869140625,9116.189453125,15543.9228515625,0.0,12271.94921875,0.0,10994.326171875,14972.2841796875,24480.900390625,11300.89453125,7178.1337890625,4922.5810546875,2754.95166015625,13928.5244140625,12334.0478515625,8670.19140625,0.0,1517.43115234375,6134.48828125,3749.38720703125,-2323.5283203125,-8199.1357421875,12178.08203125,2227.71484375,8528.6796875,13146.435546875,9405.8095703125,14663.228515625,4278.34912109375,8798.8544921875,2988.49853515625,0.0,3834.44970703125,10870.5751953125,6288.61474609375,7264.7802734375,18492.37109375,5306.705078125,-4367.599609375,6696.85546875,5023.041015625,24602.162109375,5281.38916015625,10874.51953125,-7812.263671875,-11267.51171875,6589.451171875,4298.4462890625,8534.9384765625,3693.771484375,5598.3916015625,3656.926025390625,-1516.496826171875,7578.18310546875,7257.2294921875,7794.54638671875,-15185.564453125,-0.0,-0.0,8358.501953125,6192.9580078125,-4807.689453125,0.0,11048.3349609375
-5218.6787109375,-11008.015625,5839.12548828125,7574.55029296875,13974.3876953125,13399.5400390625,13138.93359375,11620.29296875,12295.99609375,9100.091796875,15545.560546875,0.0,12262.7529296875,0.0,10990.4423828125,14962.408203125,24477.919921875,11293.8046875,7168.41259765625,4911.0146484375,2750.27392578125,13922.8134765625,12327.505859375,8662.1845703125,0.0,1508.0838623046875,6127.44873046875,3742.625244140625,-2337.598388671875,-8204.9208984375,12173.4326171875,2229.6591796875,8525.0771484375,13140.8720703125,9400.5654296875,14657.5703125,4269.80078125,8790.119140625,2978.67529296875,0.0,3832.217041015625,10863.830078125,6282.2138671875,7257.95166015625,18482.0625,5296.7568359375,-4365.86474609375,6688.302734375,5017.17578125,24595.109375,5275.09326171875,10867.0078125,-7802.83056640625,-11262.203125,6578.42236328125,4288.17578125,8529.4208984375,3683.734375,5583.9013671875,3644.206298828125,-1522.8621826171875,7571.43408203125,7247.853515625,7783.39990234375,-15189.3857421875,-0.0,-0.0,8325.8251953125,6179.939453125,-4828.11572265625,0.0,11033.740234375
-5257.5615234375,-11037.1015625,5843.1953125,7571.93994140625,13970.4775390625,13391.4609375,13129.8896484375,11610.5390625,12282.259765625,9079.9072265625,15538.7568359375,0.0,12257.4833984375,0.0,10982.6103515625,14952.6455078125,24478.900390625,11286.4951171875,7158.36328125,4893.81591796875,2747.21826171875,13916.4306640625,12319.8525390625,8653.8681640625,0.0,1500.80810546875,6120.1923828125,3733.73095703125,-2345.9111328125,-8221.384765625,12169.6533203125,2236.162841796875,8526.5400390625,13138.1298828125,9396.6171875,14648.9248046875,4259.8359375,8779.755859375,3004.9736328125,0.0,3832.91552734375,10858.080078125,6273.81396484375,7248.484375,18470.03125,5281.52392578125,-4358.98974609375,6686.53662109375,5011.4541015625,24585.640625,5266.259765625,10856.9873046875,-7794.41015625,-11285.1328125,6573.8896484375,4276.5927734375,8527.4013671875,3672.79052734375,5562.93603515625,3626.88671875,-1521.4388427734375,7563.5634765625,7233.43017578125,7761.96044921875,-15197.6337890625,-0.0,-0.0,8294.744140625,6173.30078125,-4869.96533203125,0.0,10999.7294921875
-5226.904296875,-10983.2451171875,5860.76904296875,7584.73681640625,13986.2919921875,13405.96875,13138.8095703125,11623.99609375,12296.791015625,9095.5732421875,15560.939453125,0.0,12275.3154296875,0.0,10989.8857421875,14964.5146484375,24494.77734375,11300.8427734375,7171.0068359375,4907.3173828125,2761.71728515625,13930.8291015625,12331.3125,8667.484375,0.0,1516.935302734375,6132.38037109375,3745.527587890625,-2325.270263671875,-8208.4326171875,12185.1533203125,2251.842529296875,8544.779296875,13153.5966796875,9411.21875,14662.0205078125,4271.3193359375,8791.5234375,3033.800048828125,0.0,3850.218017578125,10871.23046875,6285.419921875,7261.05224609375,18481.56640625,5294.990234375,-4348.1220703125,6700.7236328125,5025.02294921875,24597.16015625,5273.2021484375,10870.1669921875,-7785.583984375,-11276.1953125,6592.56884765625,4292.3818359375,8538.5927734375,3685.089599609375,5561.9169921875,3638.50634765625,-1518.382568359375,7577.49609375,7246.27880859375,7778.53955078125,-15189.9970703125,-0.0,-0.0,8305.7548828125,6186.74853515625,-4858.22119140625,0.0,11017.9521484375
-5192.75634765625,-10953.794921875,5857.1845703125,7587.04052734375,13984.8994140625,13403.9892578125,13135.92578125,11622.818359375,12302.5546875,9098.4169921875,15559.8115234375,0.0,12278.111328125,0.0,10986.689453125,14960.80859375,24493.921875,11299.7890625,7171.83642578125,4909.08837890625,2763.6064453125,13931.21875,12328.7587890625,8665.796875,0.0,1517.358642578125,6128.78076171875,3742.65185546875,-2323.224365234375,-8208.193359375,12185.3154296875,2250.57568359375,8542.4306640625,13153.4365234375,9410.1259765625,14662.05078125,4270.13134765625,8791.603515625,3030.32275390625,0.0,3848.3916015625,10871.279296875,6282.70166015625,7259.76416015625,18480.912109375,5296.34765625,-4348.8349609375,6701.36328125,5023.3505859375,24596.595703125,5266.515625,10868.10546875,-7779.119140625,-11265.5751953125,6595.11083984375,4296.95166015625,8533.9873046875,3679.318603515625,5557.890625,3639.273193359375,-1515.2967529296875,7577.48095703125,7247.73974609375,7782.876953125,-15179.634765625,-0.0,-0.0,8310.8515625,6185.55224609375,-4853.87451171875,0.0,11023.9853515625
-5179.46435546875,-10922.9111328125,5872.34521484375,7604.27734375,13997.923828125,13418.951171875,13148.7216796875,11639.27734375,12320.6328125,9109.8935546875,15564.0302734375,0.0,12285.080078125,0.0,10999.7734375,14982.0625,24509.931640625,11313.443359375,7185.623046875,4924.712890625,2780.087646484375,13945.7431640625,12342.2373046875,8681.84765625,0.0,1533.7305908203125,6138.42626953125,3759.8505859375,-2322.439453125,-8192.654296875,12198.6533203125,2271.13427734375,8558.01953125,13170.337890625,9424.375,14677.033203125,4283.203125,8807.6669921875,3051.984375,0.0,3862.481689453125,10888.7783203125,6295.40869140625,7275.71142578125,18494.49609375,5312.5,-4325.396484375,6718.81103515625,5032.93115234375,24613.384765625,5280.1865234375,10887.5634765625,-7753.802734375,-11235.0673828125,6601.86865234375,4314.50244140625,8543.81640625,3696.061767578125,5573.06787109375,3659.02978515625,-1495.5667724609375,7591.57861328125,7262.30126953125,7797.6689453125,-15167.1982421875,-0.0,-0.0,8338.5400390625,6199.64013671875,-4833.6162109375,0.0,11039.1875
-5169.0966796875,-10906.31640625,5893.50390625,7620.453125,14012.0029296875,13436.0693359375,13160.392578125,11657.5400390625,12330.9931640625,9115.513671875,15594.583984375,0.0,12295.7705078125,0.0,11006.77734375,15005.8291015625,24528.841796875,11329.1455078125,7198.48095703125,4932.74658203125,2796.833251953125,13962.59375,12357.064453125,8696.861328125,0.0,1551.4241943359375,6149.4951171875,3780.635986328125,-2303.288818359375,-8172.9990234375,12214.2900390625,2293.63134765625,8575.615234375,13188.3994140625,9440.1806640625,14692.78515625,4296.76806640625,8822.7529296875,3056.87548828125,0.0,3879.923583984375,10907.30859375,6309.1318359375,7293.1103515625,18506.818359375,5327.54638671875,-4323.52978515625,6735.982421875,5046.4326171875,24630.751953125,5292.66357421875,10909.625,-7745.34033203125,-11210.5185546875,6608.7255859375,4329.80908203125,8555.357421875,3717.85498046875,5589.9052734375,3682.2900390625,-1476.2618408203125,7608.623046875,7274.70654296875,7802.57275390625,-15159.181640625,-0.0,-0.0,8361.8310546875,6200.427734375,-4805.6494140625,0.0,11052.7763671875
-5156.81201171875,-10918.376953125,5903.0458984375,7625.27587890625,14016.099609375,13438.3134765625,13162.9375,11661.49609375,12331.8583984375,9120.74609375,15615.9248046875,0.0,12297.8955078125,0.0,10997.4599609375,15010.1328125,24537.451171875,11334.3876953125,7203.46435546875,4934.07958984375,2802.55712890625,13966.470703125,12359.80078125,8700.564453125,0.0,1552.9481201171875,6150.58349609375,3787.05615234375,-2293.490234375,-8180.6376953125,12220.36328125,2304.103515625,8584.3154296875,13194.9814453125,9444.419921875,14697.693359375,4299.97314453125,8827.822265625,3072.12255859375,0.0,3886.302490234375,10908.779296875,6311.51904296875,7297.4482421875,18509.10546875,5330.96044921875,-4298.60498046875,6739.677734375,5050.7021484375,24634.216796875,5290.30517578125,10917.6796875,-7701.68115234375,-11205.6689453125,6622.59130859375,4329.11767578125,8554.294921875,3726.286376953125,5598.43115234375,3688.768798828125,-1456.4761962890625,7614.47412109375,7278.0732421875,7800.96484375,-15151.6494140625,-0.0,-0.0,8358.21875,6198.16162109375,-4800.06640625,0.0,11054.685546875
-5158.6484375,-10909.7880859375,5906.4052734375,7617.8701171875,14012.3662109375,13430.0498046875,13158.6748046875,11652.396484375,12328.3837890625,9116.4189453125,15598.333984375,0.0,12284.048828125,0.0,10989.951171875,14993.3359375,24535.021484375,11329.6474609375,7198.11279296875,4931.90185546875,2797.77197265625,13958.6787109375,12354.5478515625,8695.142578125,0.0,1544.6612548828125,6145.697265625,3776.02197265625,-2316.34716796875,-8195.7998046875,12215.84375,2304.78173828125,8584.009765625,13190.205078125,9440.5,14690.939453125,4294.4130859375,8819.9033203125,3083.41796875,0.0,3884.8837890625,10900.005859375,6306.4921875,7288.9384765625,18505.291015625,5322.40380859375,-4289.04296875,6733.78466796875,5045.4736328125,24626.439453125,5286.97216796875,10905.9833984375,-7681.7451171875,-11211.015625,6617.982421875,4319.552734375,8543.265625,3717.314208984375,5596.2314453125,3678.13525390625,-1458.26318359375,7608.24267578125,7272.06201171875,7801.47119140625,-15159.4384765625,-0.0,-0.0,8339.478515625,6203.32080078125,-4816.3701171875,0.0,11047.9111328125
