-5459.16064453125,-11273.9453125,6102.73681640625,8466.546875,14540.1357421875,14377.384765625,13440.8818359375,12348.486328125,12790.38671875,9569.0048828125,16394.763671875,0.0,12195.7734375,0.0,11526.587890625,15679.9384765625,25368.2109375,11750.48046875,7691.0751953125,5541.3251953125,3163.4208984375,14378.6748046875,12749.8876953125,9191.203125,0.0,1933.4703369140625,6445.12890625,4267.39208984375,-1680.9739990234375,-7652.99462890625,12688.5078125,2907.64501953125,8790.3623046875,13845.021484375,9610.8759765625,15226.0556640625,4925.53759765625,9511.126953125,3387.27734375,-0.0,4307.6982421875,11660.2978515625,6637.8662109375,8478.181640625,18966.86328125,6204.61328125,-3898.90234375,7290.19873046875,5635.7890625,25424.5,5718.39208984375,11668.3017578125,-7740.2265625,-10862.4931640625,7200.0556640625,4245.35595703125,8755.4453125,4431.466796875,6015.94189453125,4442.03564453125,292.8905334472656,8216.130859375,7957.07275390625,8193.8134765625,-15316.3876953125,-0.0,-0.0,8811.97265625,6443.86279296875,-4018.29736328125,0.0,11729.4248046875
-5498.6767578125,-11282.2451171875,6095.62939453125,8458.1875,14533.6484375,14372.6142578125,13436.0439453125,12343.8681640625,12785.93359375,9563.412109375,16389.2421875,0.0,12184.6328125,0.0,11521.1240234375,15681.44140625,25366.986328125,11746.1845703125,7685.70703125,5536.6806640625,3158.530029296875,14373.8212890625,12746.630859375,9188.853515625,0.0,1928.04052734375,6441.15283203125,4263.93115234375,-1684.450927734375,-7648.25927734375,12684.22265625,2909.3046875,8784.328125,13843.109375,9606.0224609375,15221.8125,4921.17626953125,9507.0576171875,3393.102783203125,0.0,4299.62939453125,11654.75,6632.04248046875,8474.759765625,18962.11328125,6199.42919921875,-3893.323486328125,7281.6337890625,5628.3271484375,25420.091796875,5713.48681640625,11667.927734375,-7735.70654296875,-10841.748046875,7196.65234375,4238.42529296875,8749.0673828125,4422.5810546875,6012.7333984375,4429.79541015625,275.947509765625,8213.5693359375,7951.75390625,8191.0947265625,-15314.740234375,-0.0,-0.0,8796.1318359375,6444.0927734375,-4034.237060546875,0.0,11715.1708984375
-5487.04248046875,-11239.4033203125,6092.521484375,8442.501953125,14534.1025390625,14369.77734375,13435.884765625,12342.078125,12781.029296875,9560.4189453125,16392.123046875,0.0,12171.2255859375,0.0,11520.2099609375,15683.41796875,25361.244140625,11743.8681640625,7682.9296875,5532.90625,3154.137939453125,14368.3017578125,12746.0029296875,9183.8505859375,0.0,1919.1329345703125,6440.4658203125,4262.18896484375,-1687.641357421875,-7646.08447265625,12680.7060546875,2898.837158203125,8783.1396484375,13835.4189453125,9605.0693359375,15218.1513671875,4920.5927734375,9504.990234375,3382.89599609375,0.0,4300.1552734375,11645.140625,6631.94287109375,8473.6484375,18958.005859375,6196.47705078125,-3898.49072265625,7264.22998046875,5632.6494140625,25414.65625,5713.60400390625,11667.234375,-7697.12548828125,-10787.732421875,7202.0703125,4235.03515625,8743.080078125,4423.1591796875,6007.14013671875,4424.22412109375,289.9674987792969,8209.716796875,7949.443359375,8189.384765625,-15305.4150390625,-0.0,-0.0,8796.333984375,6436.873046875,-4035.975830078125,0.0,11720.1435546875
-5480.779296875,-11177.73828125,6085.15576171875,8437.3623046875,14533.759765625,14371.375,13435.8251953125,12345.314453125,12783.3779296875,9557.330078125,16384.78515625,0.0,12175.9658203125,0.0,11525.4765625,15689.3828125,25354.6640625,11742.267578125,7684.88623046875,5534.81884765625,3149.16650390625,14367.08984375,12745.697265625,9183.8349609375,0.0,1919.13671875,6440.7685546875,4266.1884765625,-1687.715576171875,-7645.9814453125,12677.0849609375,2887.634765625,8778.7392578125,13830.3564453125,9603.6396484375,15215.7998046875,4921.2666015625,9506.271484375,3357.875244140625,-0.0,4297.68505859375,11645.0654296875,6634.43212890625,8477.3056640625,18959.640625,6198.61865234375,-3921.52685546875,7259.478515625,5632.70654296875,25416.900390625,5717.34375,11673.2646484375,-7702.869140625,-10770.1669921875,7199.57177734375,4246.90185546875,8748.08984375,4430.078125,6010.37646484375,4429.677734375,292.3638000488281,8207.646484375,7950.64208984375,8190.90869140625,-15312.828125,-0.0,-0.0,8796.1767578125,6446.26123046875,-4031.793212890625,0.0,11725.447265625
-5450.14453125,-11194.765625,6085.548828125,8436.5634765625,14537.994140625,14376.5673828125,13440.7060546875,12355.751953125,12792.6767578125,9566.8701171875,16385.16796875,0.0,12189.34765625,0.0,11530.6552734375,15706.4873046875,25357.203125,11746.11328125,7690.61328125,5542.046875,3152.95458984375,14371.0166015625,12750.3896484375,9189.955078125,0.0,1923.3270263671875,6447.6015625,4276.7294921875,-1682.3560791015625,-7644.150390625,12680.8173828125,2886.935546875,8780.4228515625,13833.095703125,9607.203125,15219.39453125,4926.3447265625,9512.982421875,3362.99462890625,-0.0,4300.56689453125,11649.302734375,6640.8583984375,8484.892578125,18965.150390625,6207.52197265625,-3917.239501953125,7259.7353515625,5638.72509765625,25423.912109375,5723.02294921875,11686.5009765625,-7707.79248046875,-10780.2138671875,7207.3544921875,4263.97998046875,8760.060546875,4442.7646484375,6019.1015625,4441.93115234375,294.71307373046875,8209.4189453125,7957.01708984375,8197.7373046875,-15314.5185546875,-0.0,-0.0,8793.0546875,6457.47509765625,-4028.552734375,0.0,11729.09375
-5392.95068359375,-11238.681640625,6083.12744140625,8442.9052734375,14538.2041015625,14377.8486328125,13443.2900390625,12360.40625,12795.0791015625,9574.29296875,16392.10546875,0.0,12197.681640625,0.0,11533.4326171875,15709.0517578125,25358.373046875,11746.439453125,7693.458984375,5545.52197265625,3153.304443359375,14373.4482421875,12750.2138671875,9192.177734375,0.0,1920.22802734375,6450.0634765625,4282.92822265625,-1674.99267578125,-7653.26025390625,12682.048828125,2886.623291015625,8779.7490234375,13836.064453125,9606.466796875,15222.04296875,4927.39453125,9516.4931640625,3339.03173828125,0.0,4298.1845703125,11651.3896484375,6642.32763671875,8487.4345703125,18967.830078125,6210.5673828125,-3905.29931640625,7265.8935546875,5638.6630859375,25425.822265625,5724.51416015625,11693.00390625,-7708.91552734375,-10788.091796875,7213.5068359375,4257.65869140625,8764.8564453125,4448.98095703125,6020.9755859375,4440.126953125,316.0009460449219,8206.5595703125,7961.4296875,8199.7763671875,-15311.150390625,-0.0,-0.0,8805.220703125,6459.63671875,-4018.103271484375,0.0,11737.3173828125
-5419.45751953125,-11220.908203125,6074.42919921875,8421.822265625,14530.3955078125,14366.830078125,13439.4287109375,12352.7314453125,12796.9501953125,9576.34765625,16381.5712890625,0.0,12195.3740234375,0.0,11535.115234375,15695.197265625,25347.30859375,11738.279296875,7689.08251953125,5547.841796875,3146.0458984375,14360.5625,12743.919921875,9183.865234375,0.0,1906.7230224609375,6445.29736328125,4269.6103515625,-1683.671630859375,-7661.548828125,12672.6513671875,2879.57568359375,8771.095703125,13824.2236328125,9598.5302734375,15213.521484375,4922.38671875,9510.7724609375,3340.33935546875,0.0,4286.74462890625,11637.4755859375,6636.4423828125,8477.44140625,18967.08203125,6208.09326171875,-3916.057373046875,7244.5595703125,5628.5185546875,25413.962890625,5721.31591796875,11683.2490234375,-7729.40380859375,-10804.2451171875,7201.09375,4236.94677734375,8763.9248046875,4438.86865234375,6021.03076171875,4435.74560546875,307.062255859375,8197.6357421875,7960.30078125,8205.021484375,-15324.005859375,-0.0,-0.0,8819.6279296875,6467.0830078125,-4004.079345703125,0.0,11744.8955078125
-5446.1875,-11219.619140625,6082.79931640625,8416.318359375,14530.9931640625,14362.796875,13441.669921875,12348.61328125,12802.6708984375,9581.5849609375,16375.30859375,0.0,12191.2490234375,0.0,11538.0927734375,15689.6669921875,25344.49609375,11737.0087890625,7688.39208984375,5550.708984375,3147.484375,14357.9169921875,12744.2275390625,9182.0244140625,0.0,1903.3463134765625,6445.18505859375,4259.6474609375,-1693.4354248046875,-7664.47802734375,12669.9150390625,2874.589111328125,8772.26953125,13820.533203125,9600.1494140625,15210.4072265625,4923.6044921875,9507.84765625,3364.446533203125,-0.0,4289.2021484375,11634.4775390625,6636.7861328125,8472.52734375,18969.828125,6209.1103515625,-3919.220947265625,7238.890625,5628.337890625,25408.150390625,5722.50732421875,11675.748046875,-7727.767578125,-10816.703125,7195.02197265625,4228.7919921875,8761.5029296875,4428.23095703125,6024.66796875,4433.95068359375,304.1030578613281,8195.6005859375,7961.69677734375,8211.630859375,-15325.505859375,-0.0,-0.0,8818.91015625,6478.54931640625,-4008.198974609375,0.0,11746.03125
-5435.6162109375,-11228.4404296875,6095.15087890625,8441.4423828125,14538.71484375,14374.5537109375,13444.64453125,12352.33984375,12792.595703125,9578.2099609375,16381.904296875,0.0,12194.0,0.0,11538.826171875,15697.2822265625,25356.140625,11746.587890625,7692.83642578125,5544.82470703125,3158.580810546875,14371.2861328125,12752.3056640625,9190.7158203125,0.0,1918.829345703125,6448.63525390625,4268.02099609375,-1683.5137939453125,-7652.5517578125,12680.3203125,2887.50927734375,8784.390625,13834.1123046875,9609.3662109375,15219.830078125,4928.1005859375,9512.6728515625,3377.50537109375,-0.0,4300.51904296875,11650.544921875,6641.70361328125,8480.322265625,18970.28125,6210.57421875,-3905.619873046875,7263.2861328125,5635.03271484375,25419.677734375,5723.4052734375,11681.103515625,-7710.15283203125,-10836.765625,7203.689453125,4246.5146484375,8762.6748046875,4432.05615234375,6015.71533203125,4431.8271484375,302.11395263671875,8204.26953125,7963.0390625,8200.4345703125,-15306.75390625,-0.0,-0.0,8816.5751953125,6449.33642578125,-4013.447509765625,0.0,11743.076171875
-5447.24169921875,-11206.65625,6099.5849609375,8458.5302734375,14542.8876953125,14386.8388671875,13449.9384765625,12363.2353515625,12791.689453125,9581.1103515625,16385.673828125,0.0,12199.9892578125,0.0,11545.3232421875,15714.29296875,25363.3359375,11754.34375,7698.97607421875,5545.3740234375,3164.772705078125,14379.7158203125,12758.533203125,9197.8466796875,0.0,1934.86865234375,6454.59033203125,4283.13037109375,-1681.148681640625,-7626.61474609375,12688.044921875,2888.90966796875,8790.1982421875,13840.546875,9617.384765625,15229.6630859375,4933.13818359375,9520.7119140625,3385.75146484375,0.0,4305.4599609375,11663.4375,6646.9287109375,8491.9287109375,18973.265625,6218.12939453125,-3897.3203125,7282.11328125,5639.72607421875,25435.861328125,5727.158203125,11692.1015625,-7718.666015625,-10853.5361328125,7213.35693359375,4264.87939453125,8767.841796875,4449.560546875,6012.5732421875,4443.22314453125,300.4864501953125,8211.806640625,7966.0537109375,8198.7021484375,-15300.748046875,-0.0,-0.0,8829.1806640625,6436.25537109375,-4001.415771484375,0.0,11744.654296875
-5468.32421875,-11224.361328125,6101.515625,8460.5634765625,14542.29296875,14387.5224609375,13452.92578125,12364.4658203125,12799.044921875,9587.0986328125,16378.1826171875,0.0,12198.904296875,0.0,11548.3076171875,15711.88671875,25361.236328125,11752.705078125,7700.5771484375,5552.28271484375,3162.413330078125,14381.54296875,12759.28125,9198.525390625,0.0,1936.3609619140625,6456.21484375,4286.43798828125,-1682.169677734375,-7617.95068359375,12687.00390625,2884.362060546875,8788.544921875,13840.0791015625,9617.87109375,15230.904296875,4936.1845703125,9522.3857421875,3374.50732421875,0.0,4305.970703125,11666.25,6648.3134765625,8494.001953125,18976.48828125,6220.791015625,-3912.65380859375,7285.30322265625,5638.78466796875,25436.734375,5731.8837890625,11693.55078125,-7727.65673828125,-10852.2998046875,7213.22607421875,4256.22900390625,8770.3427734375,4454.35888671875,6022.4404296875,4455.37890625,294.3707275390625,8213.419921875,7969.2041015625,8203.72265625,-15308.7421875,-0.0,-0.0,8827.8759765625,6456.49462890625,-3998.9072265625,0.0,11747.4609375
-5475.75537109375,-11239.873046875,6099.09130859375,8463.310546875,14541.349609375,14383.8427734375,13450.501953125,12359.3994140625,12797.8759765625,9585.0546875,16367.0009765625,0.0,12194.748046875,0.0,11538.41796875,15691.73828125,25362.8359375,11751.26171875,7698.8564453125,5550.22412109375,3162.39990234375,14381.3603515625,12757.564453125,9195.4208984375,0.0,1932.86669921875,6451.7841796875,4277.92578125,-1672.78857421875,-7626.31884765625,12687.5791015625,2892.572998046875,8789.5673828125,13843.6630859375,9614.580078125,15227.9658203125,4934.34619140625,9519.1318359375,3372.698974609375,-0.0,4306.099609375,11664.4609375,6645.54248046875,8489.4658203125,18973.896484375,6214.912109375,-3932.8095703125,7286.4443359375,5638.1162109375,25427.06640625,5728.74609375,11682.1923828125,-7706.4072265625,-10840.982421875,7209.3818359375,4243.2822265625,8764.1923828125,4445.18603515625,6026.26220703125,4453.97021484375,285.4236145019531,8208.9384765625,7967.341796875,8202.302734375,-15313.3232421875,-0.0,-0.0,8813.25,6457.6708984375,-4008.7919921875,0.0,11742.6708984375
-5466.24755859375,-11247.857421875,6093.54931640625,8454.68359375,14538.41796875,14377.7099609375,13447.1015625,12353.21875,12790.5673828125,9578.16796875,16374.669921875,0.0,12190.08203125,0.0,11530.8876953125,15680.53515625,25358.703125,11746.234375,7694.56787109375,5544.771484375,3158.7568359375,14375.029296875,12752.75390625,9190.0302734375,0.0,1922.85888671875,6447.021484375,4268.42724609375,-1675.453369140625,-7639.33740234375,12683.6376953125,2890.781982421875,8786.05078125,13839.1376953125,9609.0634765625,15221.4873046875,4929.0390625,9513.29296875,3367.923583984375,0.0,4300.88720703125,11657.0693359375,6640.798828125,8483.69921875,18968.69921875,6207.9990234375,-3920.494140625,7276.69970703125,5635.04345703125,25420.0546875,5724.6640625,11673.10546875,-7715.77294921875,-10835.109375,7207.17919921875,4250.47314453125,8756.9365234375,4438.89794921875,6023.7861328125,4444.7626953125,284.40771484375,8199.7666015625,7961.74560546875,8199.828125,-15315.6083984375,-0.0,-0.0,8804.134765625,6446.1298828125,-4012.9130859375,0.0,11739.134765625
-5443.8447265625,-11273.9501953125,6089.654296875,8440.3310546875,14537.3037109375,14374.4921875,13443.638671875,12350.76953125,12784.5751953125,9570.4072265625,16384.28515625,0.0,12190.3017578125,0.0,11528.1044921875,15685.078125,25351.216796875,11743.9248046875,7692.26904296875,5540.09716796875,3154.917724609375,14371.1630859375,12751.1240234375,9187.046875,0.0,1913.3895263671875,6444.19189453125,4265.7255859375,-1679.992431640625,-7650.923828125,12679.552734375,2882.074462890625,8781.654296875,13832.5146484375,9606.9072265625,15217.7236328125,4928.4482421875,9510.8056640625,3362.726318359375,0.0,4299.38671875,11649.6865234375,6639.05859375,8481.8984375,18965.79296875,6205.4169921875,-3901.93017578125,7263.11474609375,5632.3466796875,25416.61328125,5721.92041015625,11672.9296875,-7738.544921875,-10832.4833984375,7206.3828125,4239.93994140625,8753.736328125,4435.72802734375,6021.69482421875,4435.89990234375,286.28302001953125,8194.7587890625,7957.51806640625,8198.5771484375,-15308.2138671875,-0.0,-0.0,8793.3701171875,6441.02880859375,-4019.165771484375,0.0,11736.4052734375
-5440.28564453125,-11240.24609375,6097.42919921875,8438.1552734375,14541.5009765625,14382.26171875,13445.8720703125,12359.7734375,12785.130859375,9559.126953125,16389.193359375,0.0,12195.181640625,0.0,11533.2548828125,15704.0615234375,25357.390625,11748.3544921875,7695.751953125,5534.61328125,3160.3173828125,14376.3701171875,12754.568359375,9191.751953125,0.0,1924.8421630859375,6447.3017578125,4275.4091796875,-1675.020263671875,-7645.935546875,12684.521484375,2889.9677734375,8787.9462890625,13838.1513671875,9612.904296875,15222.5087890625,4931.1279296875,9515.0498046875,3376.972412109375,0.0,4306.04345703125,11653.556640625,6641.88525390625,8487.298828125,18968.482421875,6207.7890625,-3893.228515625,7260.314453125,5636.93701171875,25423.86328125,5723.41845703125,11686.869140625,-7729.95263671875,-10792.6650390625,7202.99169921875,4236.93603515625,8757.9140625,4442.6416015625,6017.13330078125,4433.6630859375,295.0309143066406,8195.7978515625,7958.81005859375,8193.5498046875,-15299.3994140625,-0.0,-0.0,8785.33203125,6448.97216796875,-4036.479736328125,0.0,11725.7763671875
-5441.560546875,-11198.859375,6108.0859375,8445.564453125,14547.478515625,14392.15625,13450.544921875,12373.8134765625,12783.4150390625,9562.87109375,16383.8623046875,0.0,12202.166015625,0.0,11538.517578125,15730.4052734375,25369.30859375,11755.369140625,7702.47705078125,5533.73876953125,3169.941650390625,14384.5556640625,12760.52734375,9201.3876953125,0.0,1935.287353515625,6452.119140625,4293.85400390625,-1668.84326171875,-7630.486328125,12693.080078125,2901.266357421875,8797.3720703125,13846.7099609375,9621.23828125,15233.099609375,4935.94580078125,9526.423828125,3382.715087890625,0.0,4315.556640625,11662.75,6647.1826171875,8499.630859375,18971.625,6218.642578125,-3907.429443359375,7268.03125,5642.22509765625,25438.376953125,5726.15478515625,11709.4658203125,-7707.66845703125,-10780.8701171875,7204.34716796875,4255.52099609375,8766.6396484375,4459.56591796875,6010.48486328125,4445.07666015625,315.91693115234375,8202.5322265625,7962.80419921875,8187.1318359375,-15298.0966796875,-0.0,-0.0,8806.3818359375,6435.87158203125,-4027.549072265625,0.0,11723.6611328125
-5444.58984375,-11254.1591796875,6115.1787109375,8462.1806640625,14552.23046875,14398.3447265625,13455.73828125,12381.19140625,12794.1376953125,9580.427734375,16364.455078125,0.0,12204.7353515625,0.0,11544.8125,15735.609375,25379.353515625,11762.5400390625,7709.39892578125,5544.9287109375,3175.510009765625,14394.3759765625,12768.1953125,9208.15625,0.0,1940.652587890625,6457.42724609375,4300.921875,-1673.5831298828125,-7628.11328125,12700.7734375,2912.073974609375,8804.8310546875,13860.40625,9626.4560546875,15240.6484375,4942.2353515625,9534.966796875,3375.262939453125,0.0,4322.03173828125,11673.837890625,6653.0244140625,8505.9609375,18978.265625,6229.38818359375,-3900.3671875,7286.19873046875,5646.15869140625,25442.251953125,5732.1826171875,11717.0283203125,-7696.4130859375,-10815.841796875,7211.646484375,4255.22021484375,8774.9560546875,4459.41357421875,6018.54541015625,4452.70361328125,328.3586730957031,8211.2158203125,7970.46533203125,8200.431640625,-15301.1279296875,-0.0,-0.0,8829.83984375,6443.01611328125,-4004.111083984375,0.0,11742.1630859375
-5449.3193359375,-11271.130859375,6118.57177734375,8467.392578125,14552.619140625,14395.25,13457.0595703125,12373.962890625,12802.72265625,9584.98046875,16371.826171875,0.0,12203.28125,0.0,11549.7802734375,15712.5576171875,25381.306640625,11761.734375,7710.96435546875,5549.77685546875,3176.134033203125,14394.0771484375,12767.7041015625,9206.1826171875,0.0,1936.1199951171875,6460.37255859375,4288.34912109375,-1674.4493408203125,-7639.74462890625,12700.509765625,2917.60302734375,8805.166015625,13864.90625,9625.240234375,15239.125,4942.6103515625,9530.3642578125,3356.760986328125,0.0,4320.04052734375,11673.17578125,6654.3515625,8499.3681640625,18980.6796875,6226.23583984375,-3887.51025390625,7288.3662109375,5651.138671875,25433.20703125,5736.28955078125,11702.7080078125,-7702.9189453125,-10866.3154296875,7223.955078125,4255.001953125,8779.396484375,4440.43115234375,6025.142578125,4444.31982421875,321.51385498046875,8213.2841796875,7972.25732421875,8205.5400390625,-15304.462890625,-0.0,-0.0,8826.0224609375,6453.21044921875,-4009.587646484375,0.0,11745.654296875
-5445.44677734375,-11259.0751953125,6113.0400390625,8461.412109375,14550.873046875,14391.3212890625,13456.61328125,12367.2392578125,12802.67578125,9590.0029296875,16402.142578125,0.0,12206.9873046875,0.0,11547.7490234375,15700.3330078125,25379.986328125,11761.818359375,7709.9208984375,5549.67041015625,3175.92578125,14389.888671875,12766.0732421875,9202.9052734375,0.0,1929.07568359375,6459.8916015625,4279.41552734375,-1671.04443359375,-7640.916015625,12698.712890625,2922.5107421875,8802.8095703125,13862.5341796875,9624.2216796875,15236.791015625,4941.36328125,9527.232421875,3360.939453125,0.0,4315.40869140625,11668.435546875,6654.26611328125,8494.7939453125,18979.74609375,6224.69384765625,-3873.66796875,7282.99658203125,5651.82275390625,25431.986328125,5736.02294921875,11690.03125,-7721.1171875,-10868.9248046875,7221.69921875,4269.154296875,8777.513671875,4429.14697265625,6027.52099609375,4446.2431640625,327.053955078125,8214.4853515625,7971.16650390625,8200.1845703125,-15306.291015625,-0.0,-0.0,8824.66796875,6452.9990234375,-4008.625244140625,0.0,11746.087890625
-5431.29833984375,-11266.8701171875,6101.81787109375,8454.373046875,14546.9501953125,14386.759765625,13452.6943359375,12362.966796875,12798.67578125,9588.318359375,16420.990234375,0.0,12205.2431640625,0.0,11542.306640625,15698.9208984375,25370.330078125,11758.7802734375,7704.92236328125,5547.044921875,3169.492431640625,14384.7041015625,12761.47265625,9198.005859375,0.0,1926.6558837890625,6455.34814453125,4276.0166015625,-1675.35400390625,-7640.6337890625,12691.880859375,2905.75244140625,8794.912109375,13852.353515625,9619.1689453125,15231.763671875,4936.50537109375,9523.341796875,3379.917724609375,0.0,4309.8369140625,11663.302734375,6649.85400390625,8490.8486328125,18976.3671875,6222.23193359375,-3865.837890625,7277.611328125,5647.35498046875,25429.857421875,5732.9375,11686.111328125,-7739.013671875,-10836.794921875,7212.9921875,4264.72509765625,8768.7998046875,4427.65234375,6026.19677734375,4446.1328125,321.1340637207031,8212.453125,7968.4296875,8199.6396484375,-15303.748046875,-0.0,-0.0,8820.4619140625,6451.09521484375,-4002.2431640625,0.0,11750.7451171875
-5427.00146484375,-11206.2197265625,6098.0283203125,8441.138671875,14546.0390625,14384.900390625,13453.72265625,12365.70703125,12799.1240234375,9584.982421875,16423.734375,0.0,12204.306640625,0.0,11539.5029296875,15700.1728515625,25362.716796875,11757.640625,7704.751953125,5548.8203125,3165.1298828125,14382.2255859375,12760.7177734375,9198.125,0.0,1926.836181640625,6454.47216796875,4276.07958984375,-1670.4644775390625,-7639.9619140625,12688.1611328125,2886.81201171875,8787.6484375,13843.1005859375,9618.560546875,15229.4873046875,4936.35302734375,9522.7763671875,3377.15966796875,0.0,4308.0712890625,11658.6298828125,6648.220703125,8491.6201171875,18975.873046875,6223.41015625,-3909.40380859375,7265.31689453125,5645.84423828125,25426.060546875,5732.169921875,11686.59765625,-7733.880859375,-10796.298828125,7210.302734375,4251.08251953125,8766.4560546875,4437.3955078125,6024.1767578125,4458.1015625,296.12158203125,8211.962890625,7969.00244140625,8203.73046875,-15293.40625,-0.0,-0.0,8827.158203125,6446.482421875,-4000.12255859375,0.0,11751.5849609375
-5422.1953125,-11170.341796875,6095.34912109375,8437.0634765625,14547.36328125,14388.697265625,13456.5771484375,12372.5791015625,12804.376953125,9587.6748046875,16408.048828125,0.0,12204.5322265625,0.0,11539.3623046875,15711.490234375,25364.87109375,11762.037109375,7709.33203125,5553.9609375,3165.853271484375,14385.8583984375,12765.076171875,9202.859375,0.0,1929.75927734375,6455.67822265625,4282.71337890625,-1666.407470703125,-7635.7470703125,12689.9853515625,2888.931396484375,8788.796875,13844.345703125,9620.728515625,15232.1103515625,4938.7470703125,9529.31640625,3390.255126953125,0.0,4307.95068359375,11659.9921875,6650.1630859375,8497.4619140625,18978.927734375,6229.93798828125,-3925.362548828125,7260.884765625,5644.1865234375,25431.421875,5734.36181640625,11695.455078125,-7714.62841796875,-10765.2529296875,7204.90771484375,4255.8837890625,8767.7275390625,4449.7646484375,6026.93798828125,4479.91259765625,307.0015869140625,8214.796875,7974.275390625,8208.7705078125,-15299.54296875,-0.0,-0.0,8834.759765625,6456.07568359375,-3997.61962890625,0.0,11748.71875
-5423.7607421875,-11190.5185546875,6095.1357421875,8440.9208984375,14547.232421875,14388.015625,13453.62890625,12370.494140625,12797.1875,9588.5615234375,16395.734375,0.0,12200.921875,0.0,11536.12890625,15708.7392578125,25364.857421875,11762.013671875,7707.72216796875,5549.6552734375,3165.23046875,14385.970703125,12763.8408203125,9202.533203125,0.0,1927.814697265625,6453.69287109375,4281.73779296875,-1663.9693603515625,-7644.26904296875,12691.12109375,2885.79931640625,8788.943359375,13844.083984375,9619.2734375,15231.5390625,4936.21533203125,9527.962890625,3383.92333984375,0.0,4305.65478515625,11661.359375,6648.21142578125,8496.154296875,18976.16015625,6226.77099609375,-3904.792236328125,7264.1435546875,5643.7919921875,25430.13671875,5730.01611328125,11695.76953125,-7695.2353515625,-10790.0546875,7206.6591796875,4256.30712890625,8766.861328125,4450.20166015625,6020.7666015625,4473.08544921875,312.3624267578125,8216.455078125,7970.779296875,8202.0302734375,-15300.92578125,-0.0,-0.0,8833.22265625,6441.91845703125,-3996.801513671875,0.0,11746.2734375
-5429.0712890625,-11208.46484375,6103.5947265625,8450.2607421875,14550.009765625,14391.412109375,13458.3720703125,12367.4052734375,12801.4189453125,9594.0302734375,16399.439453125,0.0,12200.62109375,0.0,11542.046875,15699.779296875,25370.337890625,11764.8330078125,7709.33642578125,5553.298828125,3168.0107421875,14389.8046875,12768.333984375,9204.228515625,0.0,1931.1829833984375,6457.650390625,4277.65283203125,-1661.138671875,-7644.009765625,12696.669921875,2894.150146484375,8792.18359375,13850.498046875,9623.2080078125,15234.2451171875,4937.74365234375,9527.6767578125,3371.0673828125,0.0,4307.8583984375,11665.87109375,6651.41064453125,8495.767578125,18979.671875,6224.6875,-3895.771728515625,7272.6162109375,5645.82373046875,25430.912109375,5733.03271484375,11689.716796875,-7691.7001953125,-10826.8837890625,7211.0546875,4259.5029296875,8772.3388671875,4448.53759765625,6023.92529296875,4461.21044921875,313.1159973144531,8222.328125,7972.1884765625,8201.369140625,-15291.4970703125,-0.0,-0.0,8831.416015625,6444.55419921875,-3995.61181640625,0.0,11754.7978515625
-5425.72705078125,-11222.419921875,6104.65771484375,8457.1787109375,14550.0400390625,14394.7412109375,13460.71484375,12368.9130859375,12807.6513671875,9603.5888671875,16397.291015625,0.0,12199.9912109375,0.0,11545.142578125,15700.1669921875,25376.421875,11767.7958984375,7711.89501953125,5562.77587890625,3172.419189453125,14392.3857421875,12770.076171875,9206.314453125,0.0,1937.942138671875,6458.86083984375,4279.6220703125,-1663.5457763671875,-7638.3486328125,12700.4267578125,2908.275390625,8796.1396484375,13856.578125,9626.359375,15237.32421875,4939.7548828125,9530.9130859375,3388.521484375,0.0,4310.35595703125,11669.7412109375,6653.2841796875,8497.7041015625,18983.08203125,6227.57470703125,-3893.20849609375,7280.08251953125,5646.11767578125,25435.580078125,5735.505859375,11689.408203125,-7699.810546875,-10834.5107421875,7208.9169921875,4263.37890625,8772.908203125,4447.27783203125,6028.43310546875,4458.54931640625,324.3370056152344,8227.8017578125,7976.97900390625,8212.474609375,-15294.1494140625,-0.0,-0.0,8832.544921875,6458.041015625,-3986.600830078125,0.0,11770.97265625
-5436.32861328125,-11232.4609375,6106.294921875,8458.380859375,14548.1328125,14387.9501953125,13456.146484375,12364.021484375,12803.4287109375,9605.5419921875,16391.431640625,0.0,12197.232421875,0.0,11541.58203125,15699.25390625,25376.505859375,11765.67578125,7707.20361328125,5563.91357421875,3172.4130859375,14390.267578125,12766.404296875,9202.3916015625,0.0,1937.7496337890625,6456.1982421875,4274.6845703125,-1671.5919189453125,-7642.130859375,12697.5947265625,2912.023193359375,8796.8408203125,13853.9541015625,9625.0283203125,15233.8232421875,4938.00146484375,9527.578125,3391.869140625,0.0,4309.35986328125,11668.5498046875,6650.2001953125,8492.4990234375,18980.8203125,6225.92919921875,-3895.649658203125,7281.81396484375,5640.361328125,25430.61328125,5731.57373046875,11682.8896484375,-7702.3212890625,-10801.84375,7192.87646484375,4258.09814453125,8769.095703125,4444.1513671875,6026.64990234375,4454.5732421875,309.96160888671875,8227.8154296875,7974.58642578125,8211.2666015625,-15298.037109375,-0.0,-0.0,8834.318359375,6458.9140625,-3982.916015625,0.0,11775.783203125
-5435.482421875,-11220.4794921875,6109.66259765625,8466.1865234375,14550.2509765625,14385.56640625,13455.255859375,12361.7939453125,12798.7412109375,9594.841796875,16384.626953125,0.0,12199.455078125,0.0,11541.2275390625,15700.591796875,25379.08203125,11765.8505859375,7704.306640625,5556.68798828125,3174.64794921875,14391.9033203125,12764.9609375,9202.033203125,0.0,1934.9615478515625,6456.3671875,4274.20166015625,-1674.9146728515625,-7640.6904296875,12698.6572265625,2913.13232421875,8799.3154296875,13857.224609375,9624.669921875,15234.2529296875,4934.84228515625,9524.19140625,3394.931396484375,0.0,4313.22802734375,11668.443359375,6648.85546875,8490.10546875,18976.154296875,6223.068359375,-3903.55078125,7288.74267578125,5638.97265625,25428.919921875,5730.39404296875,11679.83203125,-7699.32470703125,-10807.1220703125,7192.96435546875,4255.04931640625,8769.7646484375,4447.60791015625,6023.7783203125,4450.8388671875,321.76434326171875,8229.0751953125,7969.9150390625,8200.171875,-15296.1865234375,-0.0,-0.0,8831.0615234375,6454.32763671875,-3989.7724609375,0.0,11762.3173828125
-5460.77734375,-11251.52734375,6117.39794921875,8465.8623046875,14550.84375,14386.0283203125,13454.76171875,12359.435546875,12791.0830078125,9582.9111328125,16391.552734375,0.0,12204.099609375,0.0,11542.091796875,15697.0224609375,25380.326171875,11767.06640625,7701.76953125,5547.0595703125,3176.323486328125,14390.7802734375,12763.341796875,9201.95703125,0.0,1934.470703125,6457.62109375,4277.1201171875,-1671.1414794921875,-7633.1787109375,12700.5859375,2909.85546875,8802.1630859375,13859.41015625,9625.033203125,15234.6123046875,4932.796875,9520.712890625,3383.419921875,0.0,4318.12158203125,11668.2568359375,6648.33203125,8490.048828125,18972.080078125,6219.31982421875,-3880.343994140625,7289.96533203125,5643.7119140625,25430.37109375,5730.11376953125,11676.6318359375,-7713.79248046875,-10856.0439453125,7214.76513671875,4256.78515625,8771.79296875,4448.25146484375,6018.91162109375,4447.2529296875,343.8109436035156,8229.7939453125,7964.27392578125,8193.2822265625,-15299.4072265625,-0.0,-0.0,8830.759765625,6449.72314453125,-3999.0478515625,0.0,11748.8876953125
-5500.10498046875,-11237.6083984375,6118.3583984375,8463.87109375,14549.265625,14388.1103515625,13453.2763671875,12361.76171875,12792.6259765625,9584.849609375,16403.26953125,0.0,12203.078125,0.0,11541.1552734375,15699.15234375,25381.5234375,11766.564453125,7704.04736328125,5547.689453125,3175.91796875,14390.6572265625,12763.0830078125,9203.3603515625,0.0,1937.338134765625,6458.4091796875,4280.48291015625,-1668.2403564453125,-7625.7568359375,12700.4140625,2908.9306640625,8803.291015625,13860.154296875,9624.544921875,15234.4853515625,4934.27001953125,9522.248046875,3384.615478515625,0.0,4316.138671875,11669.484375,6648.72119140625,8492.86328125,18974.41796875,6220.4794921875,-3865.55517578125,7285.81591796875,5645.87890625,25436.013671875,5728.9765625,11680.7275390625,-7736.41796875,-10859.4130859375,7209.9814453125,4263.33837890625,8771.16796875,4451.08203125,6021.34814453125,4450.44580078125,335.924560546875,8230.63671875,7965.44921875,8195.421875,-15303.6220703125,-0.0,-0.0,8831.9345703125,6451.546875,-4002.119873046875,0.0,11748.6787109375
-5475.91015625,-11253.5771484375,6109.8720703125,8461.4736328125,14547.828125,14388.080078125,13454.3466796875,12364.033203125,12802.2724609375,9587.8857421875,16396.951171875,0.0,12200.5869140625,0.0,11540.720703125,15701.431640625,25378.853515625,11764.8603515625,7705.1328125,5553.84326171875,3171.887939453125,14389.208984375,12761.7353515625,9203.2626953125,0.0,1936.051513671875,6456.9873046875,4281.48876953125,-1669.60546875,-7622.56298828125,12698.1796875,2904.2880859375,8799.58203125,13858.42578125,9621.4912109375,15233.0478515625,4934.5234375,9523.0224609375,3389.58935546875,0.0,4312.2783203125,11667.841796875,6647.79736328125,8491.6787109375,18977.287109375,6220.36669921875,-3881.409912109375,7283.458984375,5645.0869140625,25436.646484375,5729.26953125,11686.1181640625,-7738.8330078125,-10862.541015625,7203.4990234375,4264.8759765625,8770.3828125,4451.26416015625,6027.20068359375,4450.44677734375,325.13037109375,8231.80078125,7967.95263671875,8205.7822265625,-15305.01953125,-0.0,-0.0,8831.1884765625,6461.54638671875,-4004.41455078125,0.0,11746.0263671875
-5447.41064453125,-11262.85546875,6106.71923828125,8459.0380859375,14547.9248046875,14387.52734375,13456.0322265625,12365.8154296875,12807.267578125,9590.798828125,16394.49609375,0.0,12201.38671875,0.0,11541.814453125,15704.9375,25374.76953125,11764.1025390625,7703.953125,5562.40087890625,3169.0224609375,14388.474609375,12762.8642578125,9202.9111328125,0.0,1933.4012451171875,6457.84326171875,4281.62890625,-1670.2403564453125,-7619.85986328125,12696.6689453125,2896.127197265625,8796.0390625,13853.701171875,9620.810546875,15233.3076171875,4936.36083984375,9524.56640625,3393.845458984375,0.0,4311.2255859375,11665.8857421875,6650.46044921875,8492.6044921875,18979.421875,6220.65625,-3896.319580078125,7281.85986328125,5644.216796875,25434.41015625,5732.7099609375,11687.8447265625,-7724.65673828125,-10864.779296875,7215.63134765625,4264.04150390625,8771.5205078125,4451.06494140625,6029.97216796875,4452.41943359375,307.3320007324219,8232.912109375,7971.7802734375,8221.498046875,-15300.41796875,-0.0,-0.0,8832.560546875,6461.0673828125,-4003.476806640625,0.0,11746.3798828125
-5434.125,-11195.212890625,6105.5009765625,8455.98828125,14550.6171875,14389.7080078125,13455.435546875,12370.28515625,12807.138671875,9595.837890625,16397.6328125,0.0,12206.8623046875,0.0,11542.3955078125,15708.990234375,25375.884765625,11764.8798828125,7706.72705078125,5565.66357421875,3171.03125,14390.521484375,12765.4013671875,9205.302734375,0.0,1936.3089599609375,6459.615234375,4284.29248046875,-1663.096923828125,-7614.9453125,12695.96875,2898.177001953125,8797.5849609375,13852.5693359375,9623.021484375,15235.8330078125,4938.7861328125,9527.857421875,3401.899169921875,0.0,4311.068359375,11667.1533203125,6653.12841796875,8497.1005859375,18980.015625,6224.93798828125,-3899.23974609375,7279.1865234375,5643.8427734375,25440.50390625,5734.16064453125,11691.5830078125,-7712.24169921875,-10823.6240234375,7218.681640625,4268.81982421875,8772.1904296875,4453.6513671875,6027.51220703125,4459.6220703125,296.9947204589844,8233.7783203125,7974.26318359375,8218.5087890625,-15288.541015625,-0.0,-0.0,8831.7666015625,6446.0234375,-3996.81982421875,0.0,11755.1376953125
-5426.81298828125,-11171.2568359375,6107.13916015625,8452.9638671875,14556.0224609375,14390.9609375,13459.02734375,12371.8876953125,12810.4765625,9598.6875,16396.33984375,0.0,12207.3056640625,0.0,11544.166015625,15709.6328125,25378.115234375,11767.28125,7709.21533203125,5567.0205078125,3173.5244140625,14391.4970703125,12767.9775390625,9206.857421875,0.0,1938.040771484375,6460.7119140625,4284.33544921875,-1664.7440185546875,-7616.8046875,12697.3046875,2908.932861328125,8800.1552734375,13854.5791015625,9625.615234375,15236.361328125,4940.8017578125,9528.7998046875,3384.973388671875,0.0,4315.14208984375,11666.2900390625,6655.99609375,8497.4951171875,18981.28125,6229.2392578125,-3902.008544921875,7275.333984375,5645.54931640625,25441.390625,5736.1630859375,11693.9736328125,-7697.255859375,-10791.935546875,7221.8896484375,4263.18896484375,8773.4833984375,4450.541015625,6029.994140625,4460.94482421875,312.0832824707031,8231.9921875,7976.068359375,8216.8388671875,-15286.412109375,-0.0,-0.0,8830.5146484375,6456.58935546875,-3991.85986328125,0.0,11761.0185546875
-5423.828125,-11165.314453125,6112.11572265625,8453.61328125,14558.9599609375,14392.697265625,13458.744140625,12370.8310546875,12803.2236328125,9590.60546875,16394.330078125,0.0,12208.8154296875,0.0,11542.77734375,15710.3427734375,25380.955078125,11768.31640625,7706.2763671875,5559.24755859375,3176.149169921875,14392.4892578125,12767.96484375,9206.5595703125,0.0,1940.943115234375,6460.61572265625,4284.00732421875,-1664.166259765625,-7614.85986328125,12700.87109375,2913.118896484375,8802.2607421875,13858.3115234375,9628.2021484375,15236.869140625,4938.74462890625,9526.9033203125,3376.35498046875,0.0,4319.73486328125,11667.283203125,6655.61279296875,8497.505859375,18977.587890625,6224.62060546875,-3900.687744140625,7275.32470703125,5651.09716796875,25439.154296875,5735.74365234375,11693.5205078125,-7700.896484375,-10809.634765625,7226.78466796875,4260.33056640625,8773.3818359375,4449.599609375,6025.2802734375,4454.8212890625,333.95404052734375,8230.91015625,7971.6396484375,8208.46875,-15287.66796875,-0.0,-0.0,8826.3818359375,6450.71337890625,-3999.34912109375,0.0,11750.1298828125
-5404.4326171875,-11194.6044921875,6120.92431640625,8458.783203125,14556.06640625,14399.58984375,13457.7314453125,12374.951171875,12795.5654296875,9587.0205078125,16399.986328125,0.0,12215.56640625,0.0,11541.5869140625,15720.1943359375,25386.408203125,11771.6328125,7708.37548828125,5551.3232421875,3182.793701171875,14397.376953125,12769.42578125,9210.0498046875,0.0,1948.116943359375,6461.86328125,4292.24267578125,-1654.4710693359375,-7610.84423828125,12704.57421875,2915.727783203125,8807.736328125,13863.2470703125,9630.9306640625,15241.619140625,4939.17041015625,9531.4033203125,3373.779052734375,0.0,4322.84033203125,11673.7841796875,6653.25537109375,8503.4404296875,18976.5078125,6224.20361328125,-3877.77978515625,7280.77099609375,5654.296875,25445.962890625,5734.52490234375,11701.357421875,-7713.33544921875,-10810.9208984375,7228.42724609375,4268.3037109375,8776.0390625,4457.740234375,6019.83837890625,4461.02978515625,347.0361633300781,8236.2294921875,7970.36962890625,8192.13671875,-15293.3935546875,-0.0,-0.0,8830.611328125,6443.43408203125,-4001.6640625,0.0,11751.5693359375
-5414.205078125,-11222.595703125,6121.7353515625,8469.466796875,14556.7177734375,14406.1416015625,13460.2724609375,12384.435546875,12798.9716796875,9594.1728515625,16398.001953125,0.0,12215.13671875,0.0,11546.8525390625,15731.8896484375,25390.48046875,11775.474609375,7714.61328125,5557.166015625,3186.190185546875,14403.607421875,12773.4208984375,9216.158203125,0.0,1952.40234375,6465.044921875,4301.0234375,-1660.0008544921875,-7619.77880859375,12709.0224609375,2922.386962890625,8810.00390625,13869.798828125,9633.4189453125,15247.9189453125,4943.291015625,9539.36328125,3362.5263671875,0.0,4321.45556640625,11680.359375,6655.8955078125,8510.5146484375,18979.748046875,6232.36572265625,-3886.42236328125,7291.01708984375,5653.72119140625,25452.2578125,5736.8701171875,11712.7216796875,-7703.13232421875,-10795.9365234375,7220.50634765625,4270.58740234375,8782.0791015625,4462.92724609375,6024.2802734375,4475.0859375,356.4500732421875,8241.0302734375,7976.71533203125,8202.01171875,-15300.2412109375,-0.0,-0.0,8842.841796875,6456.12353515625,-3990.09033203125,0.0,11767.7470703125
-5442.08642578125,-11268.8564453125,6119.47802734375,8474.8369140625,14557.6591796875,14405.84375,13459.5751953125,12381.7080078125,12795.607421875,9585.517578125,16382.025390625,0.0,12215.439453125,0.0,11548.892578125,15727.9462890625,25395.45703125,11776.357421875,7713.8779296875,5553.28466796875,3187.04541015625,14406.298828125,12771.6279296875,9215.5791015625,0.0,1950.075439453125,6465.00537109375,4297.69384765625,-1662.63134765625,-7623.44970703125,12710.9091796875,2927.777099609375,8812.0322265625,13873.8154296875,9634.333984375,15248.70703125,4942.46533203125,9537.09765625,3400.640869140625,-0.0,4320.34521484375,11683.8759765625,6655.58203125,8510.216796875,18978.4921875,6226.998046875,-3895.66552734375,7296.1923828125,5652.7392578125,25448.978515625,5737.03271484375,11708.173828125,-7697.396484375,-10798.7548828125,7223.6748046875,4272.40283203125,8783.1220703125,4463.15869140625,6023.62109375,4461.6357421875,365.4238586425781,8240.8251953125,7974.576171875,8200.7666015625,-15300.7841796875,-0.0,-0.0,8837.521484375,6451.20947265625,-3998.753662109375,0.0,11756.7412109375
-5435.31005859375,-11238.9267578125,6116.5654296875,8466.2880859375,14552.4501953125,14398.0009765625,13454.3173828125,12370.65234375,12784.947265625,9571.537109375,16390.625,0.0,12207.859375,0.0,11540.7001953125,15716.3662109375,25394.353515625,11771.205078125,7706.90966796875,5540.2607421875,3185.14697265625,14400.9716796875,12767.1328125,9209.103515625,0.0,1943.8375244140625,6459.03564453125,4290.08642578125,-1656.930908203125,-7631.8115234375,12707.26953125,2929.0537109375,8812.3330078125,13870.1494140625,9630.8974609375,15244.53125,4936.1142578125,9527.7529296875,3413.211181640625,-0.0,4319.0556640625,11678.755859375,6651.12890625,8504.572265625,18970.9453125,6216.03369140625,-3886.665771484375,7286.8701171875,5650.22607421875,25441.517578125,5729.3203125,11695.873046875,-7702.755859375,-10790.2607421875,7229.87109375,4267.447265625,8773.3701171875,4460.29345703125,6016.16796875,4438.34423828125,355.5211486816406,8233.732421875,7965.4658203125,8180.9248046875,-15302.447265625,-0.0,-0.0,8825.51171875,6437.52490234375,-4006.62939453125,0.0,11743.849609375
-5409.8095703125,-11174.3759765625,6116.85009765625,8449.66015625,14554.642578125,14394.21875,13454.1904296875,12366.0234375,12785.783203125,9574.3330078125,16413.154296875,0.0,12200.4873046875,0.0,11539.2734375,15708.193359375,25385.498046875,11769.3623046875,7706.283203125,5539.69140625,3181.558837890625,14395.34375,12767.7861328125,9208.126953125,0.0,1938.762451171875,6458.60693359375,4287.34912109375,-1652.404296875,-7636.14453125,12704.6435546875,2917.394287109375,8807.6181640625,13862.462890625,9630.7333984375,15241.677734375,4936.0703125,9525.6572265625,3400.4677734375,0.0,4319.0263671875,11670.66015625,6651.8310546875,8500.873046875,18970.66796875,6214.294921875,-3874.940185546875,7271.02734375,5650.50146484375,25440.783203125,5729.6064453125,11688.6943359375,-7697.0322265625,-10801.83984375,7226.7216796875,4267.650390625,8770.5498046875,4456.9697265625,6016.533203125,4436.37548828125,325.8277587890625,8229.08984375,7964.90087890625,8189.01318359375,-15290.0869140625,-0.0,-0.0,8823.19921875,6441.14404296875,-4002.322021484375,0.0,11741.6865234375
-5405.173828125,-11177.3388671875,6119.66650390625,8453.09765625,14559.8203125,14397.240234375,13458.7802734375,12366.876953125,12793.0751953125,9576.349609375,16417.080078125,0.0,12198.740234375,0.0,11543.38671875,15702.32421875,25387.33203125,11772.0830078125,7710.224609375,5544.83544921875,3185.221923828125,14398.076171875,12771.2939453125,9210.2470703125,0.0,1940.1259765625,6462.51904296875,4286.5283203125,-1650.4400634765625,-7621.826171875,12707.974609375,2915.287841796875,8809.9248046875,13865.7919921875,9633.9345703125,15242.7392578125,4940.88916015625,9527.3818359375,3418.43359375,0.0,4324.736328125,11673.841796875,6655.7392578125,8500.68359375,18975.564453125,6214.99951171875,-3877.908203125,7276.77880859375,5655.75,25441.337890625,5733.14404296875,11685.6884765625,-7684.533203125,-10830.4580078125,7222.94287109375,4272.396484375,8775.3876953125,4458.17041015625,6022.3486328125,4437.89306640625,316.0030212402344,8228.8193359375,7968.19189453125,8197.4921875,-15281.51953125,-0.0,-0.0,8822.7978515625,6450.61572265625,-4003.861083984375,0.0,11737.17578125
-5420.0048828125,-11191.1650390625,6121.162109375,8455.9970703125,14555.74609375,14393.802734375,13454.541015625,12360.197265625,12786.107421875,9567.166015625,16415.87890625,0.0,12191.919921875,0.0,11538.33203125,15696.4345703125,25385.328125,11767.9599609375,7704.73974609375,5536.80908203125,3184.7119140625,14393.9677734375,12768.998046875,9205.3525390625,0.0,1937.91455078125,6457.5751953125,4280.24267578125,-1657.7218017578125,-7619.00830078125,12705.01953125,2919.313232421875,8811.71484375,13865.310546875,9629.7890625,15239.369140625,4936.91357421875,9522.5517578125,3404.809814453125,-0.0,4322.953125,11673.8056640625,6652.0712890625,8496.0302734375,18969.505859375,6208.509765625,-3876.766357421875,7280.2265625,5652.923828125,25438.16796875,5727.03515625,11680.3896484375,-7706.2177734375,-10850.9013671875,7215.625,4271.48779296875,8771.5302734375,4453.95458984375,6015.2490234375,4435.7138671875,312.2557678222656,8221.16015625,7961.251953125,8182.646484375,-15291.912109375,-0.0,-0.0,8817.8125,6438.9599609375,-4013.453125,0.0,11732.220703125
-5424.52099609375,-11195.4775390625,6118.173828125,8449.107421875,14552.0234375,14391.556640625,13452.3037109375,12361.228515625,12783.2119140625,9570.08984375,16411.4140625,0.0,12193.8466796875,0.0,11536.9228515625,15701.564453125,25378.158203125,11763.8994140625,7703.373046875,5533.3994140625,3181.2587890625,14389.318359375,12765.484375,9201.8115234375,0.0,1934.473876953125,6453.6591796875,4279.7939453125,-1663.654296875,-7624.57861328125,12701.240234375,2909.21875,8805.6015625,13859.47265625,9625.7802734375,15234.8212890625,4934.3232421875,9522.9619140625,3395.492431640625,-0.0,4317.87646484375,11670.13671875,6648.53955078125,8495.1044921875,18966.587890625,6209.93896484375,-3866.788330078125,7274.30078125,5648.12744140625,25438.908203125,5725.94189453125,11683.2841796875,-7715.1689453125,-10836.4365234375,7217.49853515625,4271.86767578125,8769.48046875,4452.17578125,6011.50146484375,4445.4326171875,310.07440185546875,8216.005859375,7960.6474609375,8182.22216796875,-15286.59765625,-0.0,-0.0,8824.7578125,6434.56005859375,-4008.4296875,0.0,11743.5830078125
-5436.07421875,-11200.341796875,6100.984375,8449.228515625,14546.828125,14385.9345703125,13451.443359375,12361.6845703125,12790.546875,9576.0791015625,16390.048828125,0.0,12191.7138671875,0.0,11540.119140625,15701.830078125,25371.744140625,11755.650390625,7700.97265625,5541.06494140625,3171.881103515625,14382.48828125,12760.16015625,9195.6630859375,0.0,1928.3265380859375,6451.341796875,4275.080078125,-1675.8179931640625,-7633.005859375,12692.8291015625,2898.210693359375,8795.1591796875,13854.34765625,9618.9345703125,15226.4931640625,4932.853515625,9520.5087890625,3385.240234375,-0.0,4305.7216796875,11665.0830078125,6644.01904296875,8491.9716796875,18967.279296875,6213.869140625,-3901.51025390625,7274.64794921875,5641.59228515625,25430.181640625,5726.14599609375,11683.8173828125,-7715.54052734375,-10812.8408203125,7213.89697265625,4250.82763671875,8768.13671875,4448.1240234375,6017.8984375,4444.81298828125,322.9964294433594,8210.5234375,7960.703125,8193.0908203125,-15288.8125,-0.0,-0.0,8825.330078125,6450.56787109375,-4005.7041015625,0.0,11754.0185546875
-5441.90869140625,-11220.482421875,6093.84716796875,8446.2763671875,14540.2109375,14379.3544921875,13446.119140625,12354.3076171875,12789.4775390625,9570.5126953125,16381.09765625,0.0,12189.6455078125,0.0,11537.5283203125,15696.771484375,25366.861328125,11748.4208984375,7694.865234375,5538.44091796875,3166.08837890625,14378.0556640625,12753.267578125,9189.8359375,0.0,1926.70556640625,6447.28173828125,4270.5947265625,-1676.980712890625,-7636.0419921875,12687.1708984375,2897.761474609375,8790.3603515625,13851.443359375,9612.45703125,15221.498046875,4928.03125,9513.9951171875,3353.91748046875,0.0,4298.94287109375,11661.5107421875,6638.85498046875,8485.6455078125,18964.42578125,6207.2919921875,-3909.7578125,7268.4931640625,5637.087890625,25424.8828125,5722.3291015625,11677.751953125,-7728.58642578125,-10828.5380859375,7209.17333984375,4243.572265625,8765.5126953125,4445.46484375,6015.8828125,4434.43310546875,317.26318359375,8202.8046875,7954.82080078125,8188.2373046875,-15294.404296875,-0.0,-0.0,8816.8154296875,6451.640625,-4014.392822265625,0.0,11742.96484375
-5417.07568359375,-11220.474609375,6096.826171875,8442.75,14541.81640625,14382.236328125,13446.5322265625,12355.279296875,12791.064453125,9568.97265625,16398.435546875,0.0,12194.8134765625,0.0,11541.7607421875,15698.0068359375,25367.0234375,11749.4306640625,7695.92041015625,5538.78369140625,3167.310791015625,14381.5048828125,12754.5,9191.017578125,0.0,1930.7242431640625,6450.2822265625,4276.77392578125,-1667.4385986328125,-7621.11767578125,12687.7734375,2894.30419921875,8790.1474609375,13850.5791015625,9613.6318359375,15224.1279296875,4928.7177734375,9516.74609375,3344.89111328125,-0.0,4303.38330078125,11662.248046875,6640.1162109375,8487.69921875,18965.798828125,6206.265625,-3898.205322265625,7263.62353515625,5640.43505859375,25433.318359375,5725.47607421875,11679.26171875,-7715.11767578125,-10850.3583984375,7215.90380859375,4267.35791015625,8766.7275390625,4450.6435546875,6017.97119140625,4434.31103515625,335.2713623046875,8202.6298828125,7957.484375,8188.04296875,-15284.1650390625,-0.0,-0.0,8812.12109375,6458.392578125,-4019.14208984375,0.0,11736.439453125
-5453.30224609375,-11211.9033203125,6104.55224609375,8448.5029296875,14547.6669921875,14384.232421875,13449.83203125,12357.5068359375,12794.8046875,9568.03515625,16410.296875,0.0,12201.62109375,0.0,11547.798828125,15699.6142578125,25369.794921875,11750.865234375,7697.328125,5539.8974609375,3171.868896484375,14382.7041015625,12758.6591796875,9192.1064453125,0.0,1929.3275146484375,6455.5400390625,4278.185546875,-1662.9178466796875,-7608.1953125,12689.5009765625,2894.291015625,8794.7783203125,13852.0400390625,9617.09375,15226.3017578125,4931.2177734375,9517.982421875,3365.18994140625,-0.0,4310.02880859375,11664.2666015625,6643.7919921875,8490.048828125,18968.845703125,6207.1328125,-3893.4267578125,7270.16748046875,5643.7841796875,25433.46875,5729.41650390625,11680.2158203125,-7703.10205078125,-10835.6484375,7219.38671875,4270.78515625,8772.7236328125,4451.64013671875,6022.4677734375,4430.56201171875,345.2095031738281,8203.4150390625,7959.98046875,8190.234375,-15277.8974609375,-0.0,-0.0,8804.4453125,6465.78173828125,-4025.40576171875,0.0,11733.9814453125
-5503.783203125,-11254.52734375,6114.87939453125,8454.7041015625,14549.595703125,14383.240234375,13449.798828125,12355.88671875,12794.060546875,9563.908203125,16405.0703125,0.0,12203.4345703125,0.0,11548.7861328125,15700.4501953125,25376.013671875,11750.712890625,7697.76953125,5536.8486328125,3178.277099609375,14384.673828125,12757.6552734375,9192.533203125,0.0,1925.8717041015625,6455.23291015625,4275.4375,-1662.63427734375,-7613.771484375,12691.5,2905.554443359375,8802.810546875,13858.9326171875,9618.5361328125,15225.794921875,4930.72216796875,9515.3486328125,3397.34375,-0.0,4317.12890625,11665.6611328125,6644.494140625,8487.15625,18969.95703125,6204.1484375,-3891.729736328125,7276.55810546875,5643.4853515625,25428.078125,5729.69482421875,11681.673828125,-7716.421875,-10835.037109375,7216.73095703125,4257.828125,8775.86328125,4446.37255859375,6021.31640625,4425.3671875,342.0188293457031,8201.443359375,7957.4677734375,8184.06884765625,-15285.396484375,-0.0,-0.0,8804.564453125,6463.7373046875,-4026.022705078125,0.0,11730.6162109375
-5479.1015625,-11225.76953125,6121.478515625,8459.24609375,14550.6943359375,14383.3896484375,13452.19921875,12356.5126953125,12799.869140625,9568.2275390625,16401.267578125,0.0,12203.5166015625,0.0,11551.3759765625,15703.16796875,25378.380859375,11751.537109375,7698.2373046875,5542.07763671875,3178.834228515625,14384.4462890625,12757.53125,9192.6396484375,0.0,1922.371337890625,6456.96142578125,4274.58349609375,-1662.4107666015625,-7623.57861328125,12692.0810546875,2905.66162109375,8806.728515625,13859.5419921875,9619.078125,15225.09375,4932.76416015625,9515.98828125,3407.6240234375,0.0,4319.8623046875,11665.263671875,6645.83349609375,8486.92578125,18973.607421875,6207.38427734375,-3886.89404296875,7280.45654296875,5645.318359375,25424.962890625,5733.013671875,11684.9013671875,-7720.87646484375,-10863.556640625,7217.92333984375,4251.591796875,8774.67578125,4442.876953125,6026.62890625,4426.83642578125,347.7872314453125,8202.6904296875,7960.97314453125,8190.09912109375,-15297.69140625,-0.0,-0.0,8808.0537109375,6475.330078125,-4022.515869140625,0.0,11736.015625
-5433.63134765625,-11193.0087890625,6118.39404296875,8468.1376953125,14547.8486328125,14383.15625,13451.017578125,12356.8759765625,12792.6318359375,9567.837890625,16394.119140625,0.0,12205.283203125,0.0,11545.5146484375,15704.0595703125,25378.46875,11751.6279296875,7695.9755859375,5537.3642578125,3175.882568359375,14384.8623046875,12757.1015625,9192.359375,0.0,1925.85595703125,6454.4716796875,4274.8056640625,-1659.7783203125,-7631.64794921875,12693.390625,2905.824951171875,8803.294921875,13861.8447265625,9618.451171875,15225.4970703125,4930.29541015625,9513.6865234375,3383.93310546875,-0.0,4316.94580078125,11669.623046875,6643.53515625,8488.1025390625,18970.439453125,6207.16748046875,-3900.55615234375,7288.1884765625,5643.5615234375,25424.05859375,5729.17236328125,11684.7861328125,-7720.9521484375,-10877.91015625,7220.30615234375,4250.5341796875,8771.212890625,4441.75830078125,6020.73779296875,4431.16552734375,338.60272216796875,8202.9921875,7957.41845703125,8186.09375,-15297.96484375,-0.0,-0.0,8810.181640625,6459.13623046875,-4018.315185546875,0.0,11737.2451171875
-5424.5634765625,-11234.888671875,6129.12158203125,8483.4990234375,14556.0830078125,14397.119140625,13454.9248046875,12367.16796875,12787.27734375,9576.5087890625,16397.322265625,0.0,12208.80859375,0.0,11546.8037109375,15710.998046875,25392.5234375,11764.5703125,7705.46630859375,5541.59521484375,3187.001708984375,14399.6171875,12765.43359375,9204.703125,0.0,1941.17724609375,6458.66748046875,4287.232421875,-1647.0421142578125,-7614.35693359375,12706.490234375,2921.997314453125,8815.9912109375,13879.298828125,9629.7314453125,15238.9287109375,4938.12158203125,9523.2919921875,3408.250732421875,-0.0,4326.7705078125,11685.07421875,6650.16650390625,8499.041015625,18974.181640625,6216.01318359375,-3918.0732421875,7303.53662109375,5651.564453125,25439.85546875,5733.3603515625,11693.33203125,-7689.4970703125,-10853.9140625,7231.04638671875,4279.3505859375,8776.044921875,4454.654296875,6018.87548828125,4450.79736328125,346.8197937011719,8215.736328125,7962.4765625,8187.94580078125,-15285.5048828125,-0.0,-0.0,8824.7861328125,6429.7119140625,-4001.414306640625,0.0,11748.1923828125
-5419.23876953125,-11207.482421875,6128.01708984375,8477.4990234375,14558.6171875,14401.271484375,13459.96484375,12371.82421875,12787.7119140625,9575.7099609375,16400.380859375,0.0,12207.04296875,0.0,11556.6123046875,15713.17578125,25395.46484375,11770.4462890625,7710.34619140625,5543.40234375,3187.566650390625,14402.9990234375,12770.5146484375,9208.7978515625,0.0,1945.6065673828125,6464.732421875,4294.0302734375,-1647.433349609375,-7606.3173828125,12711.5205078125,2931.049072265625,8817.7783203125,13879.9287109375,9633.4423828125,15244.9326171875,4942.40234375,9528.05859375,3417.274658203125,-0.0,4326.63330078125,11687.509765625,6655.33984375,8505.26171875,18976.943359375,6219.7666015625,-3882.19677734375,7298.62646484375,5655.32861328125,25449.0703125,5739.16796875,11698.2783203125,-7687.53173828125,-10833.31640625,7235.94384765625,4289.73876953125,8780.931640625,4463.21875,6026.208984375,4457.52783203125,358.8659362792969,8221.4052734375,7966.9423828125,8191.42919921875,-15286.5439453125,-0.0,-0.0,8829.8212890625,6428.43359375,-4000.83642578125,0.0,11752.005859375
-5404.10498046875,-11182.4306640625,6116.521484375,8457.423828125,14554.1484375,14391.8056640625,13456.3232421875,12367.078125,12779.6484375,9566.5,16402.0078125,0.0,12199.48828125,0.0,11556.0693359375,15710.4208984375,25385.447265625,11765.388671875,7704.4267578125,5534.85107421875,3179.062744140625,14394.7900390625,12765.5966796875,9202.681640625,0.0,1937.785888671875,6462.4443359375,4284.9423828125,-1658.300537109375,-7626.880859375,12703.10546875,2921.79443359375,8807.099609375,13868.52734375,9627.9052734375,15237.1630859375,4936.4736328125,9522.68359375,3397.222412109375,0.0,4320.52294921875,11676.103515625,6649.099609375,8498.2412109375,18970.212890625,6215.73681640625,-3872.212158203125,7278.93505859375,5653.06982421875,25440.427734375,5736.5263671875,11697.4833984375,-7715.02099609375,-10818.6142578125,7226.6484375,4269.72314453125,8776.611328125,4452.224609375,6015.85888671875,4456.84375,347.5821228027344,8219.7646484375,7961.13427734375,8182.15869140625,-15284.80078125,-0.0,-0.0,8830.2744140625,6420.39111328125,-4003.969482421875,0.0,11745.3203125
-5408.291015625,-11191.490234375,6119.68603515625,8439.65625,14554.2998046875,14387.6337890625,13454.9599609375,12365.0458984375,12782.1083984375,9571.6455078125,16406.19140625,0.0,12197.291015625,0.0,11554.9326171875,15713.580078125,25380.25390625,11763.7373046875,7700.57666015625,5537.47998046875,3178.018798828125,14388.9892578125,12763.1123046875,9201.0029296875,0.0,1926.4578857421875,6461.59228515625,4281.49853515625,-1662.800048828125,-7631.755859375,12698.05078125,2914.21875,8805.3017578125,13860.5712890625,9625.5126953125,15231.98046875,4933.7470703125,9521.240234375,3392.7236328125,0.0,4321.7802734375,11662.86328125,6646.43701171875,8493.505859375,18968.04296875,6215.59521484375,-3881.908447265625,7261.80126953125,5654.373046875,25434.689453125,5736.6103515625,11698.474609375,-7701.76513671875,-10818.9677734375,7221.583984375,4258.57470703125,8775.9150390625,4447.40966796875,6010.15185546875,4450.2421875,348.9539489746094,8220.6162109375,7960.44970703125,8187.74755859375,-15285.4892578125,-0.0,-0.0,8828.451171875,6429.28271484375,-4002.5673828125,0.0,11749.08984375
-5432.1201171875,-11210.23828125,6106.30322265625,8430.140625,14543.84375,14382.048828125,13450.8056640625,12362.7685546875,12791.498046875,9574.259765625,16399.095703125,0.0,12193.2900390625,0.0,11548.0927734375,15718.1025390625,25370.771484375,11756.6142578125,7696.87451171875,5542.21044921875,3167.067138671875,14382.744140625,12757.2646484375,9195.384765625,0.0,1921.19677734375,6456.2939453125,4282.748046875,-1668.0010986328125,-7642.1318359375,12689.189453125,2908.470458984375,8794.19140625,13849.8232421875,9615.755859375,15224.4970703125,4928.0078125,9516.8408203125,3387.295166015625,-0.0,4308.0673828125,11655.6123046875,6640.5029296875,8489.4619140625,18967.4921875,6212.06103515625,-3881.39501953125,7252.80078125,5644.94482421875,25430.044921875,5733.26806640625,11699.6015625,-7713.9990234375,-10862.5576171875,7213.94140625,4246.27001953125,8773.521484375,4451.1552734375,6014.49853515625,4440.50634765625,354.7530517578125,8215.630859375,7958.72705078125,8193.203125,-15297.208984375,-0.0,-0.0,8828.1943359375,6458.2158203125,-4006.862548828125,0.0,11751.52734375
-5440.1630859375,-11237.21484375,6099.1123046875,8436.7236328125,14540.5390625,14381.48828125,13447.67578125,12361.6064453125,12798.876953125,9582.6845703125,16397.578125,0.0,12192.2958984375,0.0,11542.9521484375,15711.091796875,25369.7109375,11755.521484375,7696.7109375,5547.6083984375,3163.8896484375,14382.1103515625,12755.3916015625,9193.8525390625,0.0,1923.13818359375,6454.54541015625,4280.66015625,-1671.7578125,-7645.4736328125,12687.52734375,2908.679931640625,8792.0087890625,13850.41796875,9612.1005859375,15222.3681640625,4927.74365234375,9516.263671875,3381.047119140625,-0.0,4301.7685546875,11657.2685546875,6637.73974609375,8488.423828125,18969.466796875,6214.89208984375,-3891.538818359375,7258.4697265625,5641.9912109375,25429.12890625,5728.75830078125,11693.7021484375,-7729.7919921875,-10863.947265625,7211.9248046875,4256.3525390625,8770.775390625,4449.87060546875,6015.36865234375,4441.52880859375,309.1171875,8216.5537109375,7961.05810546875,8196.3955078125,-15295.8310546875,-0.0,-0.0,8831.595703125,6468.27294921875,-4003.951416015625,0.0,11752.3955078125
-5443.91943359375,-11221.9345703125,6107.14208984375,8444.1953125,14544.373046875,14384.2431640625,13447.08984375,12360.427734375,12795.490234375,9584.447265625,16397.375,0.0,12195.53515625,0.0,11535.08984375,15701.6181640625,25378.0859375,11759.6953125,7697.77490234375,5547.51953125,3171.19873046875,14386.595703125,12757.3291015625,9196.7080078125,0.0,1925.5501708984375,6452.095703125,4278.70166015625,-1663.9732666015625,-7628.75390625,12692.5283203125,2916.8408203125,8800.7705078125,13858.224609375,9615.6435546875,15225.65625,4929.28173828125,9518.134765625,3386.162109375,-0.0,4307.59326171875,11663.12890625,6638.72509765625,8489.0029296875,18969.041015625,6215.1865234375,-3889.305419921875,7265.8623046875,5644.41162109375,25431.017578125,5723.50048828125,11687.3896484375,-7715.158203125,-10825.427734375,7216.8291015625,4269.54345703125,8768.9873046875,4449.50146484375,6016.36279296875,4442.396484375,310.2465515136719,8221.833984375,7962.2333984375,8195.8798828125,-15286.0029296875,-0.0,-0.0,8830.5009765625,6450.14013671875,-4002.73974609375,0.0,11753.44921875
-5462.77587890625,-11199.48046875,6104.33251953125,8441.802734375,14542.29296875,14381.0048828125,13445.4326171875,12359.1220703125,12792.736328125,9579.63671875,16401.0,0.0,12194.3466796875,0.0,11533.3076171875,15701.6650390625,25375.623046875,11757.1650390625,7697.72509765625,5546.67138671875,3169.8544921875,14383.728515625,12753.9892578125,9195.1845703125,0.0,1921.711181640625,6450.5302734375,4273.7880859375,-1659.506591796875,-7633.7099609375,12690.0888671875,2909.888427734375,8797.9248046875,13856.0166015625,9613.6904296875,15222.9130859375,4929.3330078125,9516.021484375,3392.44873046875,-0.0,4305.6201171875,11660.958984375,6638.77734375,8486.2158203125,18969.2265625,6213.431640625,-3886.462646484375,7263.94091796875,5642.501953125,25423.830078125,5723.10986328125,11687.267578125,-7709.90673828125,-10815.748046875,7208.7802734375,4258.1181640625,8767.5830078125,4444.7255859375,6019.27587890625,4444.708984375,345.0229797363281,8221.734375,7962.24072265625,8193.2841796875,-15285.7802734375,-0.0,-0.0,8829.96484375,6442.90869140625,-4007.4833984375,0.0,11747.943359375
-5440.59033203125,-11162.060546875,6102.876953125,8437.9453125,14542.78515625,14380.173828125,13447.611328125,12359.59765625,12795.28125,9581.533203125,16403.388671875,0.0,12193.2099609375,0.0,11539.8779296875,15705.2685546875,25374.38671875,11756.759765625,7697.61962890625,5551.4599609375,3168.50048828125,14380.4140625,12753.26171875,9195.2841796875,0.0,1918.808837890625,6453.3779296875,4271.95849609375,-1670.38134765625,-7641.57666015625,12688.75,2904.4765625,8794.416015625,13853.248046875,9613.3759765625,15222.0703125,4931.5791015625,9516.22265625,3379.6142578125,-0.0,4304.83203125,11657.462890625,6639.216796875,8485.7568359375,18971.287109375,6215.2509765625,-3878.986572265625,7261.3203125,5642.11328125,25422.8828125,5726.21630859375,11689.9140625,-7717.7490234375,-10799.8388671875,7210.4833984375,4241.77734375,8769.2099609375,4437.58056640625,6020.7900390625,4444.4462890625,324.6999206542969,8222.033203125,7963.6767578125,8199.2666015625,-15292.2919921875,-0.0,-0.0,8832.326171875,6454.09521484375,-4005.627197265625,0.0,11750.6845703125
-5426.6953125,-11184.4912109375,6108.8291015625,8431.23046875,14547.2001953125,14383.4033203125,13450.412109375,12362.3427734375,12798.185546875,9585.18359375,16395.1796875,0.0,12197.6875,0.0,11542.6474609375,15707.0537109375,25377.1171875,11760.263671875,7700.513671875,5555.16259765625,3172.58837890625,14383.06640625,12757.9248046875,9199.4140625,0.0,1922.224365234375,6457.03662109375,4274.61669921875,-1668.0909423828125,-7634.46533203125,12691.322265625,2904.83935546875,8796.4541015625,13854.796875,9617.767578125,15224.736328125,4935.494140625,9520.037109375,3356.98779296875,-0.0,4310.18408203125,11658.6181640625,6643.36669921875,8488.8212890625,18973.341796875,6217.42578125,-3900.9912109375,7253.0263671875,5647.53076171875,25427.689453125,5730.07666015625,11690.5224609375,-7702.330078125,-10793.96875,7216.81884765625,4243.771484375,8774.291015625,4435.09765625,6022.8291015625,4444.78271484375,323.4246826171875,8228.8935546875,7966.6396484375,8202.0341796875,-15288.8857421875,-0.0,-0.0,8827.9619140625,6460.6015625,-4005.55029296875,0.0,11752.9921875
-5438.859375,-11257.9970703125,6105.83544921875,8438.423828125,14549.4033203125,14387.1904296875,13452.2265625,12363.072265625,12800.6826171875,9589.0908203125,16392.587890625,0.0,12201.7001953125,0.0,11544.701171875,15702.8994140625,25381.16015625,11764.3720703125,7703.73583984375,5558.591796875,3174.35009765625,14388.2421875,12761.3623046875,9201.8291015625,0.0,1925.9808349609375,6459.99072265625,4275.82568359375,-1661.0267333984375,-7631.1435546875,12694.982421875,2911.870361328125,8797.2607421875,13861.0556640625,9621.0361328125,15229.2021484375,4938.57666015625,9522.818359375,3367.720458984375,-0.0,4310.51513671875,11665.6064453125,6647.0322265625,8491.17578125,18976.53125,6218.82666015625,-3914.2109375,7260.64453125,5650.7587890625,25432.26953125,5732.77587890625,11685.11328125,-7688.8427734375,-10831.6064453125,7222.2314453125,4257.19091796875,8777.177734375,4437.10986328125,6024.18603515625,4449.19775390625,338.9414978027344,8233.2568359375,7968.71728515625,8203.76171875,-15289.70703125,-0.0,-0.0,8823.7490234375,6460.55078125,-4007.065185546875,0.0,11750.9208984375
-5398.18505859375,-11256.0615234375,6106.23779296875,8449.076171875,14553.9716796875,14392.193359375,13457.44921875,12369.701171875,12806.890625,9595.283203125,16403.208984375,0.0,12202.0400390625,0.0,11545.7958984375,15706.41015625,25384.908203125,11768.8115234375,7709.54833984375,5567.06298828125,3176.94482421875,14393.859375,12768.23046875,9208.255859375,0.0,1933.90380859375,6463.6484375,4284.27587890625,-1659.05859375,-7624.001953125,12700.7353515625,2916.15576171875,8800.06640625,13866.56640625,9625.3203125,15236.8994140625,4943.85205078125,9529.203125,3381.428955078125,-0.0,4310.68359375,11674.501953125,6651.470703125,8497.5390625,18983.12109375,6225.42724609375,-3883.20751953125,7273.248046875,5653.298828125,25440.60546875,5735.7958984375,11689.5244140625,-7702.2734375,-10854.4013671875,7227.34375,4271.89990234375,8775.529296875,4451.4501953125,6029.95556640625,4457.2314453125,316.9027404785156,8238.6806640625,7974.521484375,8209.0830078125,-15300.212890625,-0.0,-0.0,8833.7431640625,6465.37890625,-3997.802734375,0.0,11758.583984375
-5390.1875,-11239.5810546875,6091.0009765625,8423.716796875,14544.05078125,14379.7802734375,13451.328125,12360.2763671875,12804.521484375,9585.138671875,16393.451171875,0.0,12190.12109375,0.0,11544.7001953125,15694.03125,25368.955078125,11755.85546875,7702.04931640625,5559.10595703125,3163.2509765625,14379.8076171875,12759.205078125,9199.3525390625,0.0,1918.6009521484375,6456.7685546875,4272.91943359375,-1671.550537109375,-7633.59912109375,12687.15625,2902.56591796875,8784.5322265625,13850.1220703125,9614.2939453125,15224.79296875,4935.8037109375,9520.7421875,3298.99560546875,-0.0,4298.37548828125,11657.84375,6643.95849609375,8486.4619140625,18976.611328125,6218.4921875,-3887.636962890625,7247.083984375,5641.294921875,25426.59375,5731.013671875,11680.140625,-7726.34423828125,-10849.80859375,7203.2353515625,4257.70703125,8772.36328125,4443.56103515625,6029.55126953125,4447.55859375,322.5018615722656,8227.8701171875,7968.33984375,8202.4384765625,-15303.9521484375,-0.0,-0.0,8820.6396484375,6475.99755859375,-4009.357177734375,0.0,11748.5224609375
-5435.10205078125,-11209.68359375,6092.47265625,8413.86328125,14536.6923828125,14373.48828125,13441.9365234375,12353.4189453125,12788.6591796875,9567.9560546875,16384.853515625,0.0,12186.7021484375,0.0,11534.0009765625,15696.4228515625,25363.396484375,11749.609375,7692.47998046875,5544.08056640625,3158.642822265625,14374.0263671875,12750.2626953125,9192.15625,0.0,1909.8505859375,6445.7470703125,4268.9873046875,-1674.885009765625,-7638.55810546875,12680.01171875,2892.33740234375,8783.4443359375,13842.1533203125,9607.3505859375,15218.30859375,4925.91796875,9511.53515625,3348.402587890625,-0.0,4296.85693359375,11651.1103515625,6634.63232421875,8480.6396484375,18965.91796875,6207.71728515625,-3894.104248046875,7236.7099609375,5632.3935546875,25419.13671875,5721.4482421875,11679.55078125,-7734.10498046875,-10864.033203125,7190.7724609375,4241.103515625,8762.8564453125,4440.65380859375,6014.376953125,4432.91455078125,343.18408203125,8218.458984375,7955.76513671875,8185.76220703125,-15300.494140625,-0.0,-0.0,8807.0625,6448.43408203125,-4024.484619140625,0.0,11734.392578125
-5484.3359375,-11179.9853515625,6106.40966796875,8415.759765625,14540.1884765625,14381.6904296875,13443.177734375,12360.806640625,12787.4990234375,9568.7158203125,16389.138671875,0.0,12191.5498046875,0.0,11532.62109375,15712.447265625,25367.138671875,11755.697265625,7696.16552734375,5544.2998046875,3166.6611328125,14378.4873046875,12755.2783203125,9198.3857421875,0.0,1920.8638916015625,6446.4521484375,4280.0703125,-1675.2344970703125,-7637.80908203125,12685.9833984375,2889.434814453125,8791.630859375,13845.322265625,9612.572265625,15224.7392578125,4928.78271484375,9517.59765625,3417.179931640625,-0.0,4303.07080078125,11656.0498046875,6636.59716796875,8490.294921875,18966.55859375,6210.31982421875,-3882.8515625,7238.12158203125,5632.640625,25427.755859375,5723.32177734375,11693.267578125,-7730.736328125,-10842.1142578125,7201.08935546875,4246.17626953125,8761.201171875,4447.841796875,6013.23486328125,4430.50634765625,330.70745849609375,8221.2890625,7958.173828125,8181.43115234375,-15300.943359375,-0.0,-0.0,8809.3759765625,6441.46044921875,-4024.18017578125,0.0,11734.265625
-5473.1904296875,-11191.607421875,6104.49755859375,8420.28125,14545.2470703125,14390.7099609375,13449.416015625,12369.4560546875,12797.0517578125,9580.224609375,16380.4716796875,0.0,12191.1767578125,0.0,11540.318359375,15717.1669921875,25373.322265625,11760.77734375,7704.3427734375,5552.08349609375,3172.448486328125,14384.6787109375,12762.3193359375,9205.0458984375,0.0,1930.05078125,6452.8505859375,4288.5087890625,-1673.9290771484375,-7641.564453125,12691.4833984375,2898.099609375,8795.6259765625,13853.203125,9618.9306640625,15231.5849609375,4935.2021484375,9526.1201171875,3422.966796875,-0.0,4303.41357421875,11663.1748046875,6643.48046875,8499.1748046875,18972.611328125,6218.67333984375,-3889.70068359375,7244.716796875,5637.2802734375,25438.01171875,5729.8212890625,11700.19921875,-7729.64501953125,-10812.1103515625,7212.66796875,4254.771484375,8769.638671875,4451.0390625,6022.009765625,4438.15869140625,306.2326354980469,8225.3154296875,7965.96630859375,8189.8466796875,-15290.1748046875,-0.0,-0.0,8815.970703125,6453.4541015625,-4012.703857421875,0.0,11742.513671875
-5431.9541015625,-11172.5849609375,6103.376953125,8427.9453125,14549.33984375,14391.9267578125,13451.451171875,12367.3798828125,12798.25390625,9582.70703125,16368.9912109375,0.0,12195.927734375,0.0,11539.5380859375,15703.193359375,25375.8125,11763.1162109375,7706.27978515625,5555.19140625,3175.56640625,14388.916015625,12764.82421875,9205.6572265625,0.0,1929.151123046875,6455.30859375,4282.7431640625,-1663.33984375,-7638.29345703125,12695.1103515625,2896.5263671875,8796.0615234375,13856.62890625,9621.9423828125,15233.8056640625,4936.73974609375,9526.57421875,3425.71728515625,-0.0,4306.521484375,11666.3759765625,6646.21533203125,8497.099609375,18975.724609375,6221.76904296875,-3897.77734375,7251.154296875,5639.68359375,25437.60546875,5731.32958984375,11693.1708984375,-7724.53466796875,-10828.673828125,7225.35009765625,4259.52197265625,8770.80859375,4445.31005859375,6021.755859375,4452.751953125,307.4542541503906,8227.0322265625,7969.208984375,8198.0751953125,-15288.5869140625,-0.0,-0.0,8817.177734375,6443.26123046875,-4008.585693359375,0.0,11750.0732421875
-5438.9560546875,-11151.5888671875,6094.1298828125,8422.6279296875,14546.7392578125,14386.3017578125,13449.6650390625,12362.7099609375,12798.3583984375,9573.9228515625,16372.580078125,0.0,12186.978515625,0.0,11537.359375,15693.4375,25368.958984375,11759.3828125,7702.1689453125,5553.18994140625,3170.600341796875,14383.408203125,12760.609375,9201.794921875,0.0,1922.9578857421875,6452.841796875,4273.47900390625,-1666.6773681640625,-7644.42724609375,12689.818359375,2889.3818359375,8787.9443359375,13850.427734375,9617.814453125,15229.3037109375,4933.36279296875,9523.1943359375,3375.45751953125,-0.0,4300.72607421875,11659.5546875,6643.25439453125,8491.3154296875,18974.21484375,6220.53662109375,-3910.696533203125,7245.865234375,5636.51123046875,25429.2109375,5729.4111328125,11686.7744140625,-7729.2392578125,-10831.6513671875,7217.732421875,4258.79248046875,8765.9755859375,4436.46484375,6022.1904296875,4469.9140625,335.0384216308594,8222.53515625,7968.36328125,8202.0361328125,-15305.5361328125,-0.0,-0.0,8814.6484375,6442.28955078125,-4010.571044921875,0.0,11749.00390625
-5457.4931640625,-11167.2158203125,6102.88720703125,8421.796875,14546.0126953125,14388.8203125,13450.4755859375,12368.1962890625,12798.8466796875,9577.4853515625,16392.37109375,0.0,12178.37109375,0.0,11538.1416015625,15701.685546875,25372.513671875,11760.5546875,7704.16845703125,5553.81005859375,3172.749755859375,14383.8486328125,12761.669921875,9204.1298828125,0.0,1922.9046630859375,6454.77734375,4279.529296875,-1669.3931884765625,-7645.2421875,12692.4677734375,2895.45361328125,8791.3720703125,13853.8447265625,9618.7548828125,15230.2763671875,4935.39892578125,9524.568359375,3372.074951171875,-0.0,4303.5048828125,11660.576171875,6645.0888671875,8495.2119140625,18974.181640625,6222.08544921875,-3887.9296875,7246.0859375,5642.89013671875,25430.765625,5729.47900390625,11693.1611328125,-7732.61328125,-10849.787109375,7210.18408203125,4253.916015625,8765.5927734375,4444.97998046875,6026.5283203125,4476.45068359375,349.5288391113281,8222.880859375,7970.353515625,8202.2548828125,-15303.703125,-0.0,-0.0,8815.79296875,6444.97021484375,-4007.8955078125,0.0,11743.591796875
-5467.97607421875,-11178.90625,6109.4404296875,8419.5556640625,14542.7666015625,14385.8720703125,13448.2236328125,12364.181640625,12794.7333984375,9577.751953125,16394.154296875,0.0,12179.1572265625,0.0,11536.822265625,15696.4638671875,25374.673828125,11759.3212890625,7703.41162109375,5551.91259765625,3173.08642578125,14383.4990234375,12758.609375,9200.8525390625,0.0,1919.0030517578125,6452.689453125,4276.69921875,-1674.1982421875,-7643.45458984375,12692.51953125,2900.174560546875,8793.734375,13854.15625,9617.11328125,15228.6689453125,4934.27392578125,9521.595703125,3389.216796875,-0.0,4307.291015625,11658.529296875,6641.12939453125,8492.9306640625,18971.7890625,6218.0166015625,-3891.856201171875,7242.08837890625,5643.51611328125,25428.314453125,5729.06689453125,11689.7333984375,-7720.79541015625,-10873.09765625,7210.93603515625,4242.927734375,8764.390625,4443.60498046875,6023.728515625,4455.466796875,326.9571533203125,8220.236328125,7967.84814453125,8200.7587890625,-15297.9287109375,-0.0,-0.0,8814.2080078125,6447.2421875,-4012.542724609375,0.0,11739.548828125
-5447.390625,-11203.8173828125,6120.01513671875,8426.41796875,14548.4765625,14392.564453125,13451.9189453125,12368.494140625,12794.11328125,9584.732421875,16394.474609375,0.0,12188.4697265625,0.0,11538.5224609375,15703.8662109375,25383.494140625,11764.0517578125,7707.43505859375,5555.07861328125,3180.490966796875,14389.49609375,12763.09375,9206.5888671875,0.0,1928.3056640625,6454.7041015625,4282.9169921875,-1671.7952880859375,-7630.03173828125,12698.259765625,2910.143310546875,8805.2158203125,13861.20703125,9622.416015625,15234.6259765625,4937.103515625,9526.5400390625,3408.8935546875,0.0,4315.23583984375,11666.23046875,6644.544921875,8498.865234375,18974.423828125,6220.97216796875,-3891.90478515625,7249.79638671875,5651.3564453125,25436.00390625,5730.61328125,11695.41015625,-7722.4677734375,-10864.080078125,7218.427734375,4252.15966796875,8765.7890625,4448.12890625,6019.48681640625,4446.00537109375,307.42279052734375,8220.767578125,7972.09716796875,8197.1376953125,-15286.9111328125,-0.0,-0.0,8827.849609375,6440.08740234375,-4005.389404296875,0.0,11745.1318359375
-5434.890625,-11261.130859375,6117.2939453125,8436.107421875,14547.0869140625,14393.8779296875,13450.9375,12366.953125,12795.5390625,9596.6953125,16399.314453125,0.0,12190.8115234375,0.0,11538.6376953125,15700.6962890625,25384.384765625,11761.0439453125,7707.4130859375,5556.94873046875,3178.15234375,14390.28125,12763.1806640625,9206.08203125,0.0,1931.422119140625,6454.68408203125,4281.86865234375,-1673.5966796875,-7628.18603515625,12697.9912109375,2913.97900390625,8804.9609375,13866.1318359375,9619.98828125,15233.3896484375,4935.87890625,9526.158203125,3404.3427734375,0.0,4312.595703125,11670.7197265625,6643.95654296875,8497.4267578125,18973.9921875,6221.93701171875,-3879.774658203125,7258.685546875,5649.4794921875,25435.6953125,5729.4052734375,11690.099609375,-7732.1025390625,-10855.82421875,7219.27880859375,4262.3046875,8767.57421875,4449.2861328125,6016.765625,4444.7109375,320.75140380859375,8211.8876953125,7972.626953125,8193.7802734375,-15287.525390625,-0.0,-0.0,8830.5615234375,6447.06787109375,-3997.283935546875,0.0,11753.3701171875
-5428.0791015625,-11265.4619140625,6094.72119140625,8428.5927734375,14537.7216796875,14381.537109375,13446.642578125,12355.736328125,12797.92578125,9589.3837890625,16390.033203125,0.0,12187.9619140625,0.0,11539.5546875,15686.640625,25370.82421875,11748.7060546875,7699.5234375,5551.1650390625,3162.882080078125,14379.2744140625,12754.2490234375,9194.560546875,0.0,1915.491943359375,6450.38037109375,4267.98486328125,-1680.826416015625,-7648.62744140625,12686.005859375,2902.716796875,8789.0595703125,13855.94921875,9609.775390625,15221.44921875,4929.1611328125,9518.2294921875,3381.236328125,-0.0,4296.7607421875,11659.1728515625,6635.4755859375,8484.28515625,18969.62890625,6215.0537109375,-3904.82470703125,7249.63525390625,5636.74853515625,25422.33984375,5727.599609375,11675.080078125,-7728.4931640625,-10833.521484375,7208.884765625,4248.42578125,8767.650390625,4435.1943359375,6016.05859375,4436.06494140625,331.5850524902344,8196.8779296875,7965.52392578125,8191.93212890625,-15302.158203125,-0.0,-0.0,8816.2685546875,6461.52490234375,-4008.4453125,0.0,11751.62109375
-5466.314453125,-11253.8935546875,6094.919921875,8418.5732421875,14537.5927734375,14380.8876953125,13447.8134765625,12354.16796875,12798.4580078125,9581.9248046875,16392.62109375,0.0,12198.1728515625,0.0,11541.9921875,15688.7802734375,25368.689453125,11747.041015625,7698.7998046875,5546.0517578125,3160.303466796875,14374.1630859375,12754.9619140625,9192.9345703125,0.0,1910.31494140625,6450.50927734375,4266.33154296875,-1676.2366943359375,-7648.15625,12684.4892578125,2892.33447265625,8787.4716796875,13851.3271484375,9608.890625,15220.4921875,4930.15869140625,9516.853515625,3373.2685546875,-0.0,4297.7470703125,11655.400390625,6635.7587890625,8482.0380859375,18968.740234375,6215.6455078125,-3899.886474609375,7239.6611328125,5634.84228515625,25419.232421875,5728.33837890625,11675.15625,-7732.939453125,-10823.50390625,7210.2978515625,4236.58740234375,8770.091796875,4429.05029296875,6018.5478515625,4445.0517578125,333.686767578125,8194.5830078125,7964.3876953125,8183.9423828125,-15299.7373046875,-0.0,-0.0,8816.134765625,6456.373046875,-4012.58837890625,0.0,11745.6396484375
-5563.63623046875,-11238.0546875,6117.14892578125,8422.533203125,14546.4306640625,14388.2841796875,13451.0703125,12361.4462890625,12795.3291015625,9582.169921875,16404.720703125,0.0,12202.7841796875,0.0,11541.4609375,15697.5849609375,25379.08984375,11753.6162109375,7703.68505859375,5545.35791015625,3171.3603515625,14381.3623046875,12761.2900390625,9197.8642578125,0.0,1917.31884765625,6453.45263671875,4274.23974609375,-1668.3094482421875,-7639.228515625,12692.8212890625,2897.810791015625,8801.82421875,13859.7001953125,9617.0498046875,15227.2421875,4934.77685546875,9521.7685546875,3415.049560546875,-0.0,4312.59130859375,11662.78125,6640.69189453125,8490.4873046875,18969.806640625,6220.24365234375,-3875.81787109375,7242.84326171875,5641.9033203125,25426.79296875,5729.1259765625,11682.9912109375,-7730.91357421875,-10847.5126953125,7217.98974609375,4239.4169921875,8771.60546875,4436.17041015625,6017.611328125,4454.90234375,337.0778503417969,8199.3876953125,7966.576171875,8180.09130859375,-15294.4716796875,-0.0,-0.0,8819.13671875,6441.00830078125,-4007.85546875,0.0,11744.291015625
-5530.51708984375,-11244.650390625,6118.0166015625,8418.978515625,14546.7734375,14389.484375,13451.181640625,12363.4287109375,12793.669921875,9583.2900390625,16392.521484375,0.0,12196.7685546875,0.0,11536.9853515625,15703.193359375,25380.580078125,11754.3974609375,7705.11474609375,5546.37841796875,3173.485107421875,14381.4609375,12761.826171875,9198.181640625,0.0,1916.9461669921875,6452.3232421875,4277.56396484375,-1668.918701171875,-7641.193359375,12693.9169921875,2895.714599609375,8802.6240234375,13859.4873046875,9618.14453125,15227.255859375,4934.12890625,9524.7333984375,3419.313720703125,-0.0,4312.88720703125,11662.060546875,6640.55517578125,8492.509765625,18970.5390625,6220.501953125,-3900.488037109375,7240.90869140625,5641.10546875,25427.33984375,5725.111328125,11687.2470703125,-7713.77978515625,-10874.8857421875,7214.048828125,4238.865234375,8768.9560546875,4442.11767578125,6013.4853515625,4451.73681640625,327.9410400390625,8201.1728515625,7968.5009765625,8182.82666015625,-15297.5029296875,-0.0,-0.0,8822.8916015625,6429.38720703125,-4007.971435546875,0.0,11745.1572265625
-5431.07763671875,-11233.400390625,6089.4228515625,8412.2802734375,14531.7880859375,14379.5361328125,13441.3173828125,12353.4794921875,12788.525390625,9574.76953125,16373.5322265625,0.0,12187.45703125,0.0,11527.669921875,15694.3876953125,25365.736328125,11742.4599609375,7694.65625,5539.21240234375,3157.98779296875,14369.8623046875,12751.3720703125,9188.7373046875,0.0,1907.9564208984375,6440.6181640625,4268.02587890625,-1680.353271484375,-7642.6787109375,12679.41796875,2883.989013671875,8784.1171875,13845.4267578125,9602.9609375,15215.8994140625,4923.84033203125,9513.607421875,3385.9912109375,-0.0,4292.7177734375,11651.3447265625,6629.4990234375,8481.4619140625,18963.2421875,6210.93505859375,-3931.628662109375,7235.384765625,5626.09326171875,25416.5390625,5715.85009765625,11679.1767578125,-7714.423828125,-10915.0361328125,7203.41015625,4231.37939453125,8759.814453125,4439.3876953125,6006.3837890625,4438.64306640625,303.1458740234375,8191.7578125,7960.88671875,8176.96923828125,-15306.3310546875,-0.0,-0.0,8815.890625,6434.14794921875,-4018.121337890625,0.0,11738.9072265625
-5428.73583984375,-11207.0576171875,6082.58447265625,8422.5283203125,14527.1005859375,14376.154296875,13434.9814453125,12350.681640625,12782.7392578125,9566.5654296875,16369.4677734375,0.0,12176.4033203125,0.0,11524.7255859375,15690.42578125,25363.28515625,11740.369140625,7689.23193359375,5531.740234375,3154.669921875,14369.9462890625,12745.9638671875,9186.166015625,0.0,1906.34619140625,6435.30615234375,4264.3173828125,-1687.203857421875,-7642.54052734375,12676.2841796875,2889.6513671875,8778.9052734375,13846.712890625,9598.69140625,15212.8427734375,4919.34033203125,9509.658203125,3370.860595703125,-0.0,4287.029296875,11652.4775390625,6623.34814453125,8479.3427734375,18958.552734375,6204.29541015625,-3933.885498046875,7243.580078125,5621.884765625,25414.599609375,5711.45654296875,11675.0478515625,-7722.01806640625,-10915.7431640625,7197.43212890625,4225.34130859375,8753.0068359375,4437.6552734375,6003.658203125,4434.8505859375,320.2923889160156,8188.19482421875,7955.08251953125,8169.3779296875,-15308.1494140625,-0.0,-0.0,8807.5556640625,6441.55615234375,-4026.907958984375,0.0,11730.7275390625
-5430.97509765625,-11263.634765625,6085.802734375,8429.5869140625,14526.2080078125,14377.0771484375,13432.6708984375,12351.466796875,12778.619140625,9558.607421875,16373.5693359375,0.0,12169.3837890625,0.0,11523.00390625,15693.3701171875,25366.955078125,11743.166015625,7687.8583984375,5523.517578125,3156.888916015625,14372.0283203125,12745.494140625,9187.162109375,0.0,1908.8978271484375,6434.19140625,4265.87841796875,-1694.288330078125,-7650.48583984375,12678.6669921875,2894.8017578125,8780.6005859375,13852.08984375,9600.0732421875,15215.0546875,4918.166015625,9511.0048828125,3369.048828125,-0.0,4287.14306640625,11654.197265625,6621.32470703125,8481.013671875,18954.818359375,6200.81689453125,-3922.528564453125,7249.28662109375,5621.20263671875,25417.1484375,5709.2919921875,11677.6044921875,-7723.1259765625,-10874.0966796875,7190.1259765625,4226.32958984375,8748.3916015625,4434.865234375,6001.7294921875,4433.02978515625,351.7343444824219,8189.6884765625,7951.197265625,8159.5908203125,-15312.03515625,-0.0,-0.0,8804.5322265625,6439.740234375,-4036.0986328125,0.0,11720.19140625
-5426.5595703125,-11206.91796875,6092.56201171875,8431.7998046875,14530.3740234375,14383.6083984375,13435.6103515625,12357.1337890625,12776.494140625,9560.814453125,16391.658203125,0.0,12176.59765625,0.0,11522.9853515625,15698.615234375,25367.83984375,11747.42578125,7691.4677734375,5522.640625,3160.60595703125,14376.1318359375,12750.1689453125,9191.791015625,0.0,1917.673828125,6436.4697265625,4272.083984375,-1683.6822509765625,-7648.43408203125,12682.27734375,2893.213134765625,8784.51953125,13853.328125,9604.826171875,15220.6376953125,4923.09912109375,9514.3916015625,3369.86376953125,-0.0,4293.58349609375,11657.953125,6625.5439453125,8485.5947265625,18954.759765625,6203.4638671875,-3886.0419921875,7252.17333984375,5626.53955078125,25426.376953125,5712.6923828125,11683.9716796875,-7719.57666015625,-10857.408203125,7199.919921875,4247.158203125,8750.578125,4438.3583984375,6002.9130859375,4432.0087890625,345.871826171875,8194.701171875,7953.76416015625,8155.40380859375,-15296.076171875,-0.0,-0.0,8806.474609375,6431.48291015625,-4032.0595703125,0.0,11717.03125
-5444.83740234375,-11195.65625,6112.90380859375,8436.3583984375,14543.978515625,14395.595703125,13441.3681640625,12365.1669921875,12774.9765625,9568.5068359375,16400.17578125,0.0,12184.52734375,0.0,11524.357421875,15705.33984375,25381.982421875,11760.5419921875,7700.64794921875,5528.818359375,3175.50927734375,14389.470703125,12761.3134765625,9202.3662109375,0.0,1930.7532958984375,6443.51806640625,4284.498046875,-1667.077880859375,-7626.8681640625,12696.5126953125,2902.774169921875,8801.544921875,13866.6552734375,9619.0126953125,15233.2353515625,4932.03857421875,9524.4248046875,3388.886962890625,-0.0,4310.40234375,11668.611328125,6636.19921875,8497.158203125,18960.458984375,6212.50341796875,-3869.541015625,7257.0556640625,5638.55224609375,25439.326171875,5716.17431640625,11692.525390625,-7718.82177734375,-10839.533203125,7212.4765625,4266.7685546875,8755.3564453125,4449.2109375,6000.37451171875,4438.19091796875,337.4717102050781,8207.275390625,7960.083984375,8157.14697265625,-15283.25390625,-0.0,-0.0,8823.3564453125,6405.41455078125,-4015.712646484375,0.0,11725.955078125
-5428.455078125,-11194.0341796875,6115.1513671875,8428.5693359375,14544.0830078125,14392.08984375,13438.98828125,12359.29296875,12773.701171875,9567.8505859375,16389.326171875,0.0,12185.2333984375,0.0,11522.1083984375,15698.5576171875,25384.306640625,11760.4052734375,7698.5947265625,5527.5576171875,3175.462890625,14386.9072265625,12759.6572265625,9198.8486328125,0.0,1924.33740234375,6441.94580078125,4280.69677734375,-1669.0596923828125,-7627.63916015625,12696.873046875,2904.633056640625,8805.16796875,13865.26171875,9619.0224609375,15229.4873046875,4929.119140625,9521.4130859375,3385.769775390625,-0.0,4309.265625,11664.2685546875,6634.72802734375,8492.2568359375,18959.73046875,6210.470703125,-3877.86767578125,7250.24951171875,5637.08251953125,25432.1328125,5712.07373046875,11685.10546875,-7721.2939453125,-10837.279296875,7211.42333984375,4262.705078125,8754.5185546875,4444.12841796875,5995.39404296875,4440.2841796875,322.6016540527344,8207.484375,7956.12646484375,8158.27880859375,-15304.26953125,-0.0,-0.0,8822.32421875,6397.3349609375,-4015.841552734375,0.0,11728.859375
-5411.1318359375,-11171.0498046875,6105.912109375,8418.3134765625,14540.3125,14387.9228515625,13437.3134765625,12355.353515625,12778.04296875,9570.5791015625,16383.8974609375,0.0,12183.794921875,0.0,11522.505859375,15696.7978515625,25379.125,11757.0830078125,7696.2080078125,5530.84326171875,3169.44189453125,14380.626953125,12756.8310546875,9195.39453125,0.0,1917.507080078125,6441.32177734375,4276.54541015625,-1674.2208251953125,-7633.947265625,12691.6611328125,2900.73486328125,8797.5361328125,13858.41015625,9613.57421875,15224.35546875,4927.9453125,9516.935546875,3389.113037109375,-0.0,4303.57568359375,11659.45703125,6632.86474609375,8487.33984375,18960.525390625,6209.65478515625,-3894.883056640625,7241.59716796875,5634.8798828125,25426.2109375,5713.37060546875,11680.3544921875,-7723.451171875,-10833.833984375,7209.96044921875,4257.7998046875,8754.541015625,4441.3564453125,6000.7431640625,4440.53369140625,315.00689697265625,8206.7197265625,7954.62060546875,8164.623046875,-15311.12109375,-0.0,-0.0,8812.47265625,6414.17138671875,-4017.014404296875,0.0,11735.1669921875
-5466.38818359375,-11204.755859375,6115.3896484375,8418.8173828125,14541.111328125,14386.2216796875,13438.646484375,12353.05078125,12780.7509765625,9567.2509765625,16380.90234375,0.0,12185.15625,0.0,11525.966796875,15694.912109375,25378.44921875,11760.1484375,7697.38330078125,5533.1044921875,3171.15087890625,14380.5869140625,12757.70703125,9194.947265625,0.0,1917.9010009765625,6443.619140625,4272.7001953125,-1679.9532470703125,-7633.81640625,12690.71875,2894.514404296875,8797.29296875,13857.8994140625,9614.6611328125,15224.7666015625,4929.1005859375,9515.8955078125,3405.077880859375,-0.0,4306.666015625,11659.8271484375,6634.3203125,8486.703125,18961.408203125,6208.31103515625,-3878.209716796875,7241.9365234375,5636.5087890625,25426.1171875,5716.70263671875,11678.8623046875,-7758.57275390625,-10823.3701171875,7198.1953125,4252.10888671875,8755.26953125,4442.01953125,6004.248046875,4435.78125,331.33917236328125,8211.478515625,7954.55908203125,8165.236328125,-15313.8974609375,-0.0,-0.0,8804.4501953125,6427.15869140625,-4023.62646484375,0.0,11734.7880859375
-5484.12548828125,-11177.5244140625,6123.3330078125,8426.8037109375,14544.30859375,14387.8486328125,13442.720703125,12354.2529296875,12784.1884765625,9567.0732421875,16387.275390625,0.0,12188.8330078125,0.0,11529.9619140625,15692.55859375,25384.208984375,11763.9345703125,7701.37255859375,5536.46240234375,3176.521240234375,14384.462890625,12759.314453125,9198.5703125,0.0,1923.519287109375,6446.58056640625,4271.4033203125,-1676.932373046875,-7640.50439453125,12694.78125,2902.356201171875,8802.880859375,13860.3447265625,9618.8994140625,15228.0654296875,4930.99560546875,9517.134765625,3399.33154296875,-0.0,4312.5146484375,11664.796875,6635.90966796875,8488.26171875,18963.869140625,6208.38037109375,-3883.614013671875,7249.0263671875,5639.85205078125,25426.85546875,5719.8408203125,11679.1748046875,-7757.64892578125,-10810.849609375,7198.07421875,4256.34033203125,8757.330078125,4438.67138671875,6006.9775390625,4437.0380859375,335.2632141113281,8219.3388671875,7959.47412109375,8169.6796875,-15314.28125,-0.0,-0.0,8798.2197265625,6437.45458984375,-4026.890380859375,0.0,11735.3251953125
-5477.7470703125,-11163.169921875,6112.0302734375,8406.51171875,14539.630859375,14381.1669921875,13440.5869140625,12353.0146484375,12788.6748046875,9567.8232421875,16393.7734375,0.0,12182.4951171875,0.0,11530.919921875,15689.00390625,25375.8359375,11759.291015625,7698.6181640625,5539.5908203125,3170.30810546875,14377.77734375,12757.302734375,9194.9169921875,0.0,1911.9329833984375,6445.07861328125,4267.4296875,-1677.9686279296875,-7647.984375,12689.248046875,2899.85986328125,8796.4189453125,13850.7646484375,9613.560546875,15222.5498046875,4930.0830078125,9515.7578125,3382.634033203125,-0.0,4305.44873046875,11653.849609375,6633.638671875,8483.3525390625,18964.142578125,6206.3798828125,-3899.487548828125,7229.794921875,5637.0908203125,25420.318359375,5719.9443359375,11676.6220703125,-7728.92919921875,-10796.330078125,7199.43115234375,4253.35986328125,8758.2763671875,4434.89501953125,6010.90771484375,4438.4248046875,316.55975341796875,8218.6376953125,7960.9833984375,8170.404296875,-15308.689453125,-0.0,-0.0,8798.2001953125,6452.94384765625,-4025.21533203125,0.0,11733.69921875
-5463.24365234375,-11168.041015625,6103.86669921875,8409.642578125,14533.37890625,14376.64453125,13436.833984375,12349.560546875,12784.6015625,9566.193359375,16383.4296875,0.0,12175.5869140625,0.0,11525.013671875,15684.388671875,25371.16796875,11755.4375,7695.36328125,5536.03466796875,3163.6142578125,14375.3095703125,12753.234375,9191.5185546875,0.0,1905.0589599609375,6440.7802734375,4263.68994140625,-1681.377197265625,-7646.43603515625,12685.7958984375,2899.561767578125,8791.0830078125,13849.611328125,9607.396484375,15218.5126953125,4926.11669921875,9512.91015625,3364.02978515625,-0.0,4298.3515625,11650.298828125,6630.03515625,8478.990234375,18960.263671875,6204.31298828125,-3881.2939453125,7233.52587890625,5631.93994140625,25415.65625,5715.74560546875,11672.6181640625,-7730.43505859375,-10841.978515625,7196.61767578125,4242.14697265625,8754.87890625,4433.28125,6005.70703125,4434.92626953125,337.0899963378906,8218.04296875,7957.74462890625,8167.14208984375,-15313.8525390625,-0.0,-0.0,8796.7548828125,6441.796875,-4028.724609375,0.0,11727.9736328125
-5454.91015625,-11162.826171875,6113.880859375,8432.6650390625,14540.6826171875,14388.2158203125,13438.8681640625,12356.8583984375,12779.7587890625,9570.5048828125,16380.2490234375,0.0,12179.380859375,0.0,11521.884765625,15692.796875,25392.001953125,11765.3544921875,7699.73095703125,5537.27001953125,3176.209228515625,14388.48828125,12758.029296875,9201.619140625,0.0,1921.4190673828125,6443.16650390625,4273.58349609375,-1675.01171875,-7636.07763671875,12698.140625,2933.321533203125,8806.1875,13868.412109375,9616.8349609375,15229.35546875,4928.8798828125,9519.3857421875,3413.072265625,-0.0,4308.34228515625,11666.1103515625,6634.2001953125,8489.2529296875,18961.90625,6209.0859375,-3883.15234375,7257.98388671875,5640.4228515625,25426.50390625,5714.712890625,11679.9189453125,-7706.7900390625,-10866.7607421875,7211.998046875,4248.1025390625,8754.30859375,4441.54150390625,5998.9853515625,4439.85009765625,374.585693359375,8228.55859375,7960.34912109375,8167.80712890625,-15312.8857421875,-0.0,-0.0,8808.3583984375,6409.5400390625,-4020.476318359375,0.0,11732.3212890625
-5479.76708984375,-11188.0283203125,6104.283203125,8417.076171875,14536.15625,14386.1640625,13437.3876953125,12355.9580078125,12783.091796875,9569.82421875,16373.697265625,0.0,12176.49609375,0.0,11523.7119140625,15695.1767578125,25383.58203125,11760.8095703125,7696.22265625,5540.40625,3169.462646484375,14381.8740234375,12756.1435546875,9198.390625,0.0,1920.74072265625,6442.67236328125,4271.93408203125,-1680.3330078125,-7641.85595703125,12690.6103515625,2920.267333984375,8796.0087890625,13858.1796875,9611.244140625,15224.7490234375,4926.5986328125,9516.9912109375,3385.30859375,-0.0,4300.01611328125,11659.923828125,6631.39453125,8487.6708984375,18962.98046875,6208.50927734375,-3896.212158203125,7242.2900390625,5638.4775390625,25426.00390625,5713.90478515625,11679.4130859375,-7707.66650390625,-10843.869140625,7210.65478515625,4241.20068359375,8752.8486328125,4440.3818359375,6002.8466796875,4437.681640625,371.5124816894531,8226.7431640625,7959.8798828125,8172.62939453125,-15310.0390625,-0.0,-0.0,8810.5224609375,6421.544921875,-4021.510498046875,0.0,11731.7021484375
-5456.7822265625,-11186.400390625,6102.13720703125,8420.34765625,14538.0068359375,14391.462890625,13439.5087890625,12360.4072265625,12784.0302734375,9570.6015625,16378.7958984375,0.0,12182.7958984375,0.0,11522.962890625,15703.3134765625,25378.173828125,11761.4560546875,7699.8798828125,5542.39599609375,3169.126708984375,14383.0576171875,12758.3291015625,9202.2509765625,0.0,1928.2548828125,6445.26513671875,4276.755859375,-1674.7603759765625,-7643.0478515625,12689.017578125,2905.133544921875,8791.08203125,13855.9658203125,9613.283203125,15228.103515625,4926.61865234375,9519.955078125,3361.9404296875,-0.0,4299.91796875,11663.24609375,6633.837890625,8491.3740234375,18964.978515625,6211.24609375,-3912.55029296875,7244.3671875,5641.814453125,25432.556640625,5716.3359375,11686.0146484375,-7724.140625,-10825.9482421875,7215.38623046875,4249.6650390625,8753.9306640625,4447.8623046875,6002.015625,4439.1669921875,353.07794189453125,8231.529296875,7962.39990234375,8176.04541015625,-15289.71875,-0.0,-0.0,8819.001953125,6412.96142578125,-4020.325927734375,0.0,11735.2177734375
-5432.89501953125,-11171.92578125,6107.55859375,8411.521484375,14539.1591796875,14389.18359375,13439.4990234375,12360.70703125,12782.087890625,9565.55859375,16386.521484375,0.0,12187.0078125,0.0,11522.3662109375,15704.5830078125,25375.859375,11760.083984375,7699.3876953125,5539.56884765625,3169.301513671875,14379.8212890625,12755.783203125,9201.7353515625,0.0,1922.754150390625,6445.21484375,4277.34716796875,-1671.6483154296875,-7646.96142578125,12686.2763671875,2892.419677734375,8793.73828125,13850.6162109375,9614.1708984375,15225.302734375,4927.04296875,9521.4560546875,3412.627197265625,-0.0,4302.6904296875,11658.40234375,6633.66748046875,8490.8125,18963.958984375,6209.62451171875,-3903.633544921875,7234.6474609375,5644.09619140625,25429.82421875,5716.95703125,11685.826171875,-7724.1142578125,-10840.154296875,7221.0791015625,4258.26513671875,8755.0830078125,4448.82275390625,5999.9326171875,4440.96826171875,301.3639221191406,8230.916015625,7961.203125,8171.42138671875,-15283.7744140625,-0.0,-0.0,8821.037109375,6407.04345703125,-4019.45361328125,0.0,11731.17578125
-5419.37109375,-11201.96875,6086.60107421875,8392.4326171875,14528.265625,14375.814453125,13433.7783203125,12353.4677734375,12780.115234375,9554.275390625,16387.5546875,0.0,12180.7421875,0.0,11521.4013671875,15696.044921875,25360.25,11749.3935546875,7691.57080078125,5534.2314453125,3153.3505859375,14366.419921875,12747.38671875,9190.970703125,0.0,1901.084228515625,6438.77392578125,4268.365234375,-1677.883544921875,-7651.07958984375,12675.4462890625,2870.729736328125,8777.7119140625,13835.89453125,9603.2109375,15214.6806640625,4921.7880859375,9513.5419921875,3375.1064453125,-0.0,4286.7587890625,11643.748046875,6625.13134765625,8479.494140625,18960.560546875,6203.51953125,-3919.622802734375,7214.81298828125,5635.80419921875,25416.818359375,5713.060546875,11679.3681640625,-7719.25537109375,-10861.35546875,7211.6728515625,4247.37646484375,8753.1669921875,4435.39111328125,6001.22314453125,4438.677734375,289.30322265625,8219.509765625,7954.95068359375,8169.23828125,-15291.9521484375,-0.0,-0.0,8809.1884765625,6423.44970703125,-4028.478271484375,0.0,11721.6728515625
-5404.1416015625,-11222.8603515625,6087.63525390625,8396.8017578125,14527.8134765625,14374.5595703125,13433.625,12353.5712890625,12780.1025390625,9556.6826171875,16391.2734375,0.0,12178.9072265625,0.0,11520.55078125,15694.16015625,25361.078125,11748.9306640625,7691.82666015625,5535.3349609375,3152.131591796875,14366.501953125,12747.3447265625,9189.68359375,0.0,1895.32568359375,6437.8017578125,4267.5322265625,-1679.7421875,-7646.44921875,12676.42578125,2873.0595703125,8776.1875,13838.59375,9602.3642578125,15214.580078125,4921.39306640625,9513.2919921875,3376.816650390625,-0.0,4286.85205078125,11643.1875,6625.02294921875,8478.09765625,18960.3125,6206.08740234375,-3918.59619140625,7220.2158203125,5635.07861328125,25416.216796875,5712.32080078125,11681.68359375,-7719.59375,-10884.046875,7207.5615234375,4240.5517578125,8753.0546875,4430.44921875,6001.71533203125,4444.65283203125,318.8653564453125,8217.7470703125,7954.6982421875,8169.10791015625,-15288.93359375,-0.0,-0.0,8807.5283203125,6420.27294921875,-4027.954345703125,0.0,11722.7822265625
-5425.212890625,-11286.705078125,6097.24658203125,8411.2490234375,14528.7412109375,14375.3603515625,13435.0234375,12351.9658203125,12784.4677734375,9561.4716796875,16381.2919921875,0.0,12178.841796875,0.0,11519.8251953125,15689.3837890625,25365.453125,11750.2421875,7692.48779296875,5538.515625,3155.848876953125,14370.16796875,12747.291015625,9190.642578125,0.0,1898.42626953125,6438.59130859375,4264.34375,-1686.377685546875,-7650.6455078125,12678.6259765625,2878.674072265625,8781.80078125,13843.58203125,9602.60546875,15214.60546875,4921.34716796875,9512.9482421875,3404.00439453125,-0.0,4290.83984375,11647.169921875,6625.18994140625,8477.90625,18960.564453125,6205.71826171875,-3878.2587890625,7234.39990234375,5633.33447265625,25416.021484375,5711.98876953125,11680.0302734375,-7726.04541015625,-10904.7470703125,7202.873046875,4232.984375,8754.51953125,4425.66015625,6003.01220703125,4439.21240234375,329.669189453125,8218.9404296875,7957.02734375,8173.19677734375,-15299.9462890625,-0.0,-0.0,8799.7509765625,6422.90771484375,-4029.34326171875,0.0,11724.5224609375
-5459.173828125,-11318.431640625,6094.1533203125,8437.26171875,14528.7529296875,14378.671875,13435.0732421875,12349.412109375,12785.9287109375,9561.111328125,16373.4345703125,0.0,12182.796875,0.0,11521.2607421875,15682.0234375,25374.75,11754.26953125,7692.4931640625,5540.23828125,3160.09033203125,14377.322265625,12748.7177734375,9192.24609375,0.0,1907.53662109375,6439.88232421875,4261.96533203125,-1686.0423583984375,-7654.5029296875,12683.87109375,2897.916015625,8786.23046875,13856.2314453125,9605.494140625,15219.662109375,4921.15576171875,9510.708984375,3405.495849609375,-0.0,4290.208984375,11659.43359375,6625.50830078125,8478.8896484375,18962.013671875,6201.30224609375,-3897.545166015625,7259.6201171875,5630.8056640625,25416.078125,5712.1806640625,11672.9267578125,-7713.169921875,-10904.287109375,7199.54443359375,4235.5263671875,8756.685546875,4421.421875,6004.58984375,4425.205078125,322.6905212402344,8220.4658203125,7957.3525390625,8173.37255859375,-15305.52734375,-0.0,-0.0,8797.5859375,6424.76611328125,-4033.192626953125,0.0,11719.6669921875
-5469.89404296875,-11228.63671875,6099.115234375,8423.7568359375,14531.5283203125,14378.2724609375,13440.0732421875,12349.8623046875,12794.431640625,9571.5546875,16374.9267578125,0.0,12183.9423828125,0.0,11527.208984375,15683.0087890625,25376.5703125,11754.912109375,7696.2431640625,5550.02490234375,3163.021240234375,14377.4541015625,12753.3212890625,9193.3154296875,0.0,1905.56103515625,6444.90771484375,4262.19189453125,-1684.060546875,-7652.8173828125,12685.2578125,2907.40185546875,8789.470703125,13855.365234375,9607.73046875,15219.35546875,4925.7919921875,9513.4794921875,3402.68505859375,-0.0,4294.2421875,11656.0078125,6630.10986328125,8480.640625,18967.015625,6205.833984375,-3896.266357421875,7246.3408203125,5633.8486328125,25413.73046875,5718.0126953125,11670.888671875,-7708.6708984375,-10855.68359375,7206.55029296875,4237.841796875,8760.3525390625,4423.44775390625,6012.796875,4424.099609375,317.16680908203125,8222.1572265625,7962.658203125,8179.64697265625,-15301.681640625,-0.0,-0.0,8804.486328125,6439.89404296875,-4029.590087890625,0.0,11727.3818359375
-5462.18359375,-11163.7763671875,6097.50927734375,8389.2080078125,14530.5458984375,14375.3173828125,13437.5322265625,12349.3525390625,12789.7158203125,9572.17578125,16383.724609375,0.0,12182.134765625,0.0,11524.0205078125,15687.955078125,25363.349609375,11749.5361328125,7693.71142578125,5544.85400390625,3158.353759765625,14368.6650390625,12751.2041015625,9191.1484375,0.0,1899.0670166015625,6443.89990234375,4262.89794921875,-1681.61669921875,-7652.06787109375,12679.2900390625,2889.666015625,8784.2294921875,13838.4501953125,9604.8056640625,15215.44921875,4923.16357421875,9514.0703125,3396.772216796875,-0.0,4292.2099609375,11642.9423828125,6628.67724609375,8478.4423828125,18962.89453125,6205.8203125,-3889.126220703125,7212.86279296875,5632.904296875,25413.560546875,5716.6806640625,11672.3740234375,-7714.97119140625,-10811.623046875,7209.888671875,4243.7958984375,8758.1826171875,4429.91259765625,6008.92578125,4425.50439453125,331.09637451171875,8217.412109375,7959.89013671875,8174.58251953125,-15300.3203125,-0.0,-0.0,8809.4521484375,6432.73291015625,-4025.771728515625,0.0,11731.90625
-5482.3310546875,-11176.5654296875,6104.40478515625,8390.091796875,14532.9716796875,14379.220703125,13435.5361328125,12350.416015625,12780.0361328125,9563.5634765625,16390.970703125,0.0,12181.2978515625,0.0,11520.0859375,15692.2529296875,25365.5625,11750.080078125,7693.68408203125,5534.97802734375,3161.104248046875,14370.30078125,12752.4365234375,9192.107421875,0.0,1902.681640625,6440.98486328125,4268.71875,-1677.0452880859375,-7645.0517578125,12681.8583984375,2885.585693359375,8788.109375,13840.1103515625,9607.0244140625,15218.5859375,4921.576171875,9514.337890625,3428.681884765625,-0.0,4295.1943359375,11647.48828125,6629.4248046875,8481.90625,18959.095703125,6205.0517578125,-3874.8564453125,7212.73828125,5634.564453125,25421.765625,5714.39794921875,11676.9736328125,-7726.77294921875,-10853.3603515625,7209.2431640625,4253.748046875,8754.38671875,4431.25927734375,6001.05859375,4426.45458984375,343.0466613769531,8215.19140625,7954.998046875,8163.427734375,-15293.37890625,-0.0,-0.0,8807.9560546875,6411.60888671875,-4026.265869140625,0.0,11728.5322265625
-5495.4560546875,-11171.486328125,6106.33349609375,8391.31640625,14534.2802734375,14379.65625,13438.57421875,12354.80859375,12788.8154296875,9565.53125,16381.9990234375,0.0,12179.8818359375,0.0,11526.5048828125,15700.388671875,25363.5390625,11750.00390625,7696.599609375,5539.87255859375,3161.490234375,14370.01171875,12755.568359375,9192.599609375,0.0,1902.6458740234375,6444.03076171875,4271.662109375,-1679.0887451171875,-7645.63037109375,12681.751953125,2880.792724609375,8788.0888671875,13840.509765625,9607.8818359375,15216.8642578125,4925.12353515625,9516.3828125,3418.638671875,-0.0,4295.83447265625,11647.779296875,6630.74853515625,8484.9541015625,18963.779296875,6207.94189453125,-3875.983642578125,7213.72314453125,5636.734375,25424.974609375,5718.57373046875,11684.298828125,-7756.08154296875,-10889.30078125,7202.72998046875,4237.7724609375,8758.2646484375,4426.6962890625,6008.82470703125,4430.2294921875,345.7390441894531,8212.650390625,7958.72314453125,8169.40966796875,-15303.3544921875,-0.0,-0.0,8804.1005859375,6433.21044921875,-4029.07421875,0.0,11730.09375
-5442.669921875,-11227.4091796875,6099.9423828125,8416.36328125,14536.533203125,14384.3876953125,13441.91796875,12358.66796875,12796.0869140625,9572.8203125,16380.77734375,0.0,12182.0771484375,0.0,11530.529296875,15701.7705078125,25364.97265625,11751.927734375,7699.17529296875,5542.7783203125,3160.753173828125,14374.89453125,12758.0390625,9195.7861328125,0.0,1911.5113525390625,6447.369140625,4273.0908203125,-1679.927490234375,-7652.13037109375,12683.064453125,2882.084716796875,8786.505859375,13846.7529296875,9609.205078125,15220.583984375,4928.9931640625,9520.125,3389.13916015625,-0.0,4293.1337890625,11658.0166015625,6634.35595703125,8488.109375,18968.0625,6211.61572265625,-3890.45654296875,7239.70947265625,5636.2880859375,25426.5625,5722.54931640625,11688.4892578125,-7758.93310546875,-10868.3740234375,7194.3388671875,4231.4052734375,8762.208984375,4429.55908203125,6014.0,4435.896484375,326.66552734375,8210.697265625,7963.236328125,8174.13427734375,-15317.3916015625,-0.0,-0.0,8808.0771484375,6449.93310546875,-4025.40478515625,0.0,11734.4814453125
-5434.53515625,-11267.1572265625,6107.0966796875,8450.365234375,14539.7314453125,14389.8720703125,13444.568359375,12359.3154296875,12795.048828125,9573.9296875,16383.125,0.0,12183.7236328125,0.0,11530.1376953125,15694.521484375,25383.515625,11758.7041015625,7702.62646484375,5542.83740234375,3167.876220703125,14387.15234375,12761.9521484375,9199.6123046875,0.0,1919.83056640625,6448.2412109375,4274.2138671875,-1682.6158447265625,-7654.01513671875,12691.541015625,2915.020263671875,8797.73046875,13866.8896484375,9615.525390625,15226.88671875,4932.9609375,9522.8203125,3383.173828125,-0.0,4301.1591796875,11673.5390625,6638.5166015625,8490.1923828125,18970.29296875,6212.57470703125,-3883.734619140625,7272.1181640625,5637.58251953125,25427.484375,5723.603515625,11684.8603515625,-7747.42138671875,-10869.5869140625,7193.3955078125,4237.9052734375,8761.423828125,4435.8740234375,6012.54541015625,4434.31884765625,318.77630615234375,8212.41796875,7964.83935546875,8173.41845703125,-15319.4921875,-0.0,-0.0,8806.8564453125,6441.21630859375,-4026.513916015625,0.0,11731.091796875
-5440.05029296875,-11256.013671875,6109.71044921875,8439.478515625,14541.630859375,14388.4912109375,13443.6845703125,12358.7041015625,12790.1357421875,9572.1982421875,16384.716796875,0.0,12182.333984375,0.0,11526.4814453125,15693.9462890625,25385.74609375,11760.349609375,7701.31103515625,5540.3330078125,3169.3603515625,14387.3095703125,12760.341796875,9200.283203125,0.0,1914.5927734375,6447.884765625,4272.92529296875,-1683.3404541015625,-7652.955078125,12693.1474609375,2926.630859375,8800.21875,13870.8046875,9616.931640625,15226.0888671875,4934.48779296875,9521.5078125,3353.256103515625,-0.0,4305.53125,11670.98828125,6638.3427734375,8491.3984375,18969.39453125,6210.91552734375,-3885.81005859375,7262.17041015625,5638.9091796875,25425.01171875,5722.75732421875,11680.4873046875,-7748.12939453125,-10851.66015625,7199.869140625,4240.8486328125,8759.6669921875,4443.88671875,6008.15478515625,4438.89990234375,346.538818359375,8212.19921875,7964.017578125,8166.947265625,-15315.5654296875,-0.0,-0.0,8808.5859375,6424.5869140625,-4023.45458984375,0.0,11728.857421875
-5447.3125,-11265.4296875,6106.89892578125,8417.6337890625,14539.4677734375,14389.4375,13442.576171875,12360.2392578125,12786.4326171875,9569.400390625,16391.8203125,0.0,12181.6337890625,0.0,11524.556640625,15698.2451171875,25373.52734375,11757.0537109375,7700.22412109375,5537.33154296875,3163.2529296875,14381.4482421875,12759.693359375,9199.6474609375,0.0,1914.133056640625,6447.1669921875,4276.6357421875,-1681.2119140625,-7646.29931640625,12688.400390625,2900.390380859375,8792.6142578125,13858.2236328125,9613.26953125,15224.9169921875,4934.0322265625,9522.0791015625,3363.45361328125,-0.0,4301.12646484375,11663.837890625,6637.26220703125,8492.7548828125,18966.033203125,6213.4794921875,-3902.106201171875,7242.64501953125,5637.93505859375,25427.345703125,5719.77685546875,11684.9716796875,-7751.86279296875,-10820.638671875,7201.791015625,4242.0703125,8758.533203125,4450.74951171875,6004.77001953125,4451.62841796875,374.21832275390625,8211.9462890625,7963.65478515625,8162.86181640625,-15302.44921875,-0.0,-0.0,8808.353515625,6414.72802734375,-4022.8125,0.0,11731.2685546875
-5453.31982421875,-11158.4755859375,6098.34716796875,8388.4130859375,14534.8505859375,14384.291015625,13438.962890625,12360.0146484375,12783.3427734375,9565.880859375,16382.755859375,0.0,12182.3349609375,0.0,11523.03125,15699.1123046875,25363.40234375,11749.62890625,7698.185546875,5532.2138671875,3156.40185546875,14371.599609375,12754.7021484375,9196.3310546875,0.0,1909.7174072265625,6442.6171875,4275.92041015625,-1683.0142822265625,-7641.5966796875,12680.619140625,2884.44677734375,8783.6953125,13842.14453125,9606.423828125,15217.5869140625,4929.40869140625,9519.90234375,3377.0,-0.0,4295.716796875,11650.4248046875,6630.88037109375,8488.6005859375,18961.2578125,6212.69970703125,-3914.234619140625,7212.04443359375,5631.64306640625,25429.44921875,5714.68896484375,11687.947265625,-7742.61376953125,-10817.2451171875,7202.98779296875,4238.708984375,8754.828125,4444.85595703125,6001.29833984375,4453.87646484375,355.5411376953125,8205.583984375,7959.99169921875,8157.71435546875,-15295.4326171875,-0.0,-0.0,8808.3349609375,6411.0859375,-4025.41357421875,0.0,11724.703125
-5450.42138671875,-11117.517578125,6097.3232421875,8386.8984375,14538.337890625,14387.837890625,13442.818359375,12364.7353515625,12790.3935546875,9573.380859375,16380.3916015625,0.0,12188.9326171875,0.0,11527.3701171875,15704.4716796875,25363.583984375,11751.916015625,7702.34326171875,5537.89697265625,3158.219970703125,14372.8994140625,12757.2060546875,9199.0244140625,0.0,1912.1864013671875,6445.458984375,4279.1572265625,-1677.173828125,-7629.52685546875,12680.91015625,2883.726806640625,8785.7587890625,13842.201171875,9608.181640625,15219.3564453125,4931.31982421875,9522.9814453125,3385.107666015625,-0.0,4295.88671875,11653.201171875,6633.91796875,8493.9609375,18966.853515625,6215.31201171875,-3914.133544921875,7209.88134765625,5633.92138671875,25435.158203125,5719.10302734375,11694.046875,-7744.171875,-10822.044921875,7209.5537109375,4251.6044921875,8758.0419921875,4444.5458984375,6007.05419921875,4450.34033203125,318.9586486816406,8206.9677734375,7964.951171875,8159.8955078125,-15291.0185546875,-0.0,-0.0,8816.9697265625,6424.9951171875,-4018.021728515625,0.0,11731.1357421875
-5427.0712890625,-11102.7607421875,6094.83642578125,8399.0625,14537.142578125,14390.5361328125,13444.0400390625,12366.8203125,12796.3662109375,9576.302734375,16385.7109375,0.0,12186.9384765625,0.0,11530.9658203125,15710.19140625,25363.8046875,11753.341796875,7703.35302734375,5542.57275390625,3156.924072265625,14375.5302734375,12758.388671875,9198.3759765625,0.0,1921.554931640625,6447.78076171875,4281.5615234375,-1674.90625,-7624.48193359375,12681.150390625,2882.56201171875,8785.3115234375,13842.494140625,9608.052734375,15222.296875,4932.5205078125,9524.0390625,3395.66015625,-0.0,4293.31494140625,11657.9833984375,6635.3955078125,8495.244140625,18969.873046875,6218.07763671875,-3916.693359375,7221.8857421875,5634.66552734375,25437.927734375,5720.18701171875,11696.6884765625,-7739.49658203125,-10830.7861328125,7204.50927734375,4263.00048828125,8759.18359375,4448.13671875,6011.77587890625,4440.6787109375,324.5230712890625,8207.455078125,7967.39404296875,8166.0673828125,-15291.6572265625,-0.0,-0.0,8820.5458984375,6439.55224609375,-4018.203369140625,0.0,11733.5615234375
-5403.8388671875,-11092.2548828125,6097.39453125,8405.0966796875,14537.357421875,14390.7568359375,13442.1259765625,12366.142578125,12796.1708984375,9581.5849609375,16395.005859375,0.0,12185.9248046875,0.0,11528.033203125,15713.453125,25368.337890625,11753.462890625,7703.935546875,5543.3427734375,3159.306396484375,14377.71875,12758.0234375,9199.3525390625,0.0,1924.706787109375,6445.7685546875,4282.47705078125,-1673.653564453125,-7630.36669921875,12683.5302734375,2895.324951171875,8788.962890625,13846.869140625,9608.154296875,15223.994140625,4932.94482421875,9525.9462890625,3382.287109375,-0.0,4295.9306640625,11659.884765625,6635.06298828125,8495.1689453125,18968.3125,6219.78076171875,-3904.730224609375,7226.34765625,5635.80712890625,25438.951171875,5717.5029296875,11697.69140625,-7703.4833984375,-10827.9296875,7203.51806640625,4272.326171875,8751.3193359375,4451.376953125,6009.07373046875,4440.9814453125,337.8836975097656,8206.705078125,7966.697265625,8167.32275390625,-15290.8251953125,-0.0,-0.0,8828.0361328125,6436.66162109375,-4011.908447265625,0.0,11735.765625
-5456.95751953125,-11197.9658203125,6107.2177734375,8418.45703125,14537.140625,14390.4892578125,13440.7998046875,12361.4853515625,12795.630859375,9579.1650390625,16394.8046875,0.0,12184.0771484375,0.0,11528.15625,15704.701171875,25374.03515625,11752.5126953125,7700.5927734375,5541.54443359375,3162.884033203125,14379.421875,12755.822265625,9197.548828125,0.0,1922.78662109375,6445.23779296875,4281.58740234375,-1675.2030029296875,-7637.05810546875,12685.5947265625,2903.916748046875,8796.486328125,13856.9853515625,9608.525390625,15223.9580078125,4929.96630859375,9523.3076171875,3400.0546875,-0.0,4298.7919921875,11663.4169921875,6632.41162109375,8493.14453125,18965.865234375,6216.26611328125,-3898.26953125,7239.4140625,5634.72509765625,25436.703125,5718.12158203125,11691.056640625,-7712.037109375,-10855.5546875,7204.34521484375,4266.84765625,8751.1875,4450.83251953125,6008.21484375,4437.69921875,354.8472595214844,8205.15234375,7964.4033203125,8164.03515625,-15293.8125,-0.0,-0.0,8823.3564453125,6438.03662109375,-4012.177734375,0.0,11734.3662109375
-5485.2021484375,-11227.5322265625,6107.0625,8413.537109375,14536.0009765625,14382.8759765625,13440.2607421875,12353.611328125,12792.501953125,9569.20703125,16391.05078125,0.0,12185.111328125,0.0,11532.4072265625,15689.5947265625,25371.1328125,11749.1572265625,7695.28125,5536.337890625,3161.77587890625,14375.22265625,12752.5791015625,9190.6533203125,0.0,1915.635986328125,6447.07080078125,4270.20263671875,-1671.779296875,-7644.0126953125,12683.1298828125,2900.584716796875,8793.927734375,13855.2958984375,9605.583984375,15218.8544921875,4927.1689453125,9515.544921875,3419.72265625,-0.0,4297.40478515625,11656.876953125,6630.3720703125,8484.685546875,18963.375,6208.99560546875,-3888.368896484375,7234.7578125,5637.5048828125,25428.06640625,5719.71435546875,11675.93359375,-7719.486328125,-10864.328125,7209.904296875,4240.98681640625,8760.0751953125,4440.357421875,6004.3154296875,4437.56982421875,376.7532653808594,8201.5400390625,7959.2958984375,8159.294921875,-15292.333984375,-0.0,-0.0,8814.015625,6433.12109375,-4020.12939453125,0.0,11725.619140625
-5459.2041015625,-11225.59375,6105.1494140625,8404.0625,14536.7470703125,14383.2158203125,13441.7763671875,12355.39453125,12790.515625,9573.0361328125,16391.162109375,0.0,12189.4521484375,0.0,11533.7041015625,15692.06640625,25368.0625,11750.705078125,7696.78076171875,5538.2353515625,3161.6376953125,14374.009765625,12754.59765625,9191.8603515625,0.0,1914.0020751953125,6449.34912109375,4270.78662109375,-1663.0072021484375,-7636.46728515625,12681.6240234375,2893.9111328125,8790.283203125,13850.0927734375,9605.4248046875,15219.0673828125,4930.21337890625,9517.4658203125,3406.50537109375,-0.0,4297.29736328125,11652.666015625,6631.9697265625,8485.806640625,18965.615234375,6211.31982421875,-3892.507568359375,7224.91015625,5639.357421875,25426.826171875,5721.61474609375,11677.8818359375,-7710.64453125,-10822.01171875,7211.810546875,4234.26416015625,8764.0830078125,4440.798828125,6004.6083984375,4446.30322265625,340.17913818359375,8204.5693359375,7961.55712890625,8160.1298828125,-15286.076171875,-0.0,-0.0,8818.6689453125,6425.513671875,-4017.2734375,0.0,11728.7587890625
-5460.8232421875,-11181.1162109375,6103.90185546875,8398.93359375,14536.6484375,14380.3466796875,13441.80078125,12355.306640625,12795.7451171875,9573.8623046875,16378.13671875,0.0,12191.22265625,0.0,11532.0595703125,15692.4033203125,25366.30078125,11750.36328125,7696.6796875,5541.4970703125,3160.453369140625,14372.638671875,12753.3388671875,9191.31640625,0.0,1912.147705078125,6448.54345703125,4269.591796875,-1671.09716796875,-7634.9375,12679.6025390625,2893.93701171875,8787.8583984375,13847.447265625,9603.6396484375,15217.123046875,4930.5146484375,9516.9111328125,3346.72998046875,-0.0,4296.59033203125,11649.640625,6631.390625,8483.2587890625,18968.662109375,6211.0869140625,-3911.5576171875,7220.48388671875,5637.294921875,25424.29296875,5721.8017578125,11678.736328125,-7724.9765625,-10812.904296875,7211.29150390625,4241.408203125,8767.4013671875,4441.06982421875,6012.92724609375,4439.28955078125,314.26519775390625,8206.4716796875,7964.1982421875,8164.86865234375,-15289.611328125,-0.0,-0.0,8815.734375,6442.12890625,-4019.792724609375,0.0,11730.3427734375
-5508.33984375,-11148.1044921875,6111.458984375,8400.982421875,14539.9072265625,14380.705078125,13443.654296875,12356.8779296875,12798.5546875,9570.0048828125,16382.0458984375,0.0,12196.955078125,0.0,11534.1357421875,15695.7353515625,25370.7265625,11754.6767578125,7697.921875,5543.10009765625,3164.96875,14374.453125,12755.6640625,9192.61328125,0.0,1911.4627685546875,6451.5263671875,4269.81787109375,-1675.9832763671875,-7632.81201171875,12681.82421875,2903.775390625,8794.560546875,13850.6845703125,9605.517578125,15219.7431640625,4933.16064453125,9516.4580078125,3367.37451171875,-0.0,4300.375,11652.287109375,6635.25927734375,8484.8544921875,18969.5546875,6209.4111328125,-3897.60595703125,7222.26123046875,5640.93212890625,25424.36328125,5724.55419921875,11680.509765625,-7732.9482421875,-10838.9013671875,7214.4189453125,4245.6640625,8769.1396484375,4443.37646484375,6016.39404296875,4433.65625,314.8708190917969,8212.833984375,7965.33740234375,8165.59326171875,-15293.572265625,-0.0,-0.0,8810.0546875,6455.76171875,-4024.506591796875,0.0,11726.544921875
