-5413.0673828125,-11042.4091796875,6151.27783203125,8256.22265625,14560.4658203125,14318.29296875,13579.8037109375,12357.0537109375,12870.2578125,9590.4462890625,16546.068359375,0.0,12317.4765625,0.0,11570.6845703125,15676.595703125,25514.595703125,11836.611328125,7700.6484375,5576.248046875,3223.716552734375,14370.7744140625,12770.2314453125,9181.68359375,0.0,1774.5958251953125,6498.216796875,4235.322265625,-1667.9310302734375,-7862.39453125,12650.078125,2711.102294921875,8815.333984375,13872.2880859375,9642.23046875,15153.6103515625,4958.6279296875,9489.9921875,3432.484130859375,0.0,4346.59033203125,11613.8154296875,6650.84130859375,8477.248046875,18967.28515625,6216.11572265625,-3835.55126953125,7062.96142578125,5596.35205078125,25372.9765625,5806.59326171875,11683.6591796875,-7642.3876953125,-10986.6494140625,7308.04248046875,4098.15087890625,8782.66796875,4366.5009765625,6033.8720703125,4470.16650390625,-299.80316162109375,8231.095703125,7969.431640625,8185.9658203125,-15167.771484375,-0.0,-0.0,8820.044921875,6546.09814453125,-3944.552978515625,0.0,11826.6064453125
-5450.0615234375,-11115.5390625,6185.34521484375,8296.92578125,14583.484375,14344.2939453125,13599.5,12382.8388671875,12890.7451171875,9618.4208984375,16576.0390625,0.0,12333.4541015625,0.0,11585.5341796875,15714.978515625,25541.287109375,11860.7529296875,7723.0400390625,5598.2412109375,3248.862060546875,14400.0,12793.26953125,9205.4638671875,0.0,1804.621826171875,6516.61376953125,4263.11279296875,-1647.2633056640625,-7847.34619140625,12675.037109375,2735.19580078125,8840.677734375,13902.0390625,9666.2509765625,15179.669921875,4979.61083984375,9513.58984375,3457.1025390625,-0.0,4374.12158203125,11644.337890625,6670.1162109375,8503.1767578125,18988.4765625,6243.76904296875,-3819.910888671875,7104.19287109375,5617.9287109375,25395.947265625,5823.8935546875,11712.75,-7638.48681640625,-11013.41015625,7323.87890625,4126.875,8796.333984375,4397.908203125,6056.13330078125,4502.35888671875,-265.4767761230469,8256.5068359375,7992.94287109375,8210.2080078125,-15156.9052734375,-0.0,-0.0,8886.224609375,6565.6767578125,-3895.398193359375,0.0,11863.236328125
-5394.880859375,-11186.1708984375,6225.609375,8336.0869140625,14614.99609375,14376.3125,13623.03125,12414.685546875,12903.4423828125,9640.62109375,16614.333984375,0.0,12361.419921875,0.0,11601.5810546875,15754.0419921875,25581.771484375,11893.35546875,7749.166015625,5615.216796875,3284.513427734375,14435.4697265625,12821.7421875,9236.1005859375,0.0,1838.1363525390625,6539.326171875,4297.57568359375,-1610.104736328125,-7812.73486328125,12710.9501953125,2781.06005859375,8881.7978515625,13942.6396484375,9698.267578125,15212.9326171875,5004.81396484375,9542.5498046875,3504.76611328125,-0.0,4410.85009765625,11681.86328125,6695.56396484375,8535.859375,19008.84765625,6269.392578125,-3785.721923828125,7142.39501953125,5646.029296875,25427.919921875,5844.33251953125,11746.443359375,-7609.73779296875,-10949.359375,7362.3369140625,4171.24951171875,8817.541015625,4435.93310546875,6074.44482421875,4538.8623046875,-228.88623046875,8290.46484375,8015.25537109375,8223.6748046875,-15113.4560546875,-0.0,0.0,8936.97265625,6573.4921875,-3857.5654296875,0.0,11891.091796875
-5374.380859375,-11135.5751953125,6196.6455078125,8304.6875,14587.712890625,14342.3828125,13591.2080078125,12373.55078125,12855.931640625,9583.8330078125,16583.517578125,0.0,12339.9716796875,0.0,11575.7099609375,15698.97265625,25554.955078125,11864.7744140625,7713.88671875,5565.478515625,3257.99609375,14406.35546875,12792.00390625,9203.220703125,0.0,1805.2525634765625,6511.6904296875,4255.21533203125,-1627.4005126953125,-7835.3193359375,12682.5888671875,2756.873291015625,8855.515625,13912.734375,9670.7294921875,15180.50390625,4973.19287109375,9504.7919921875,3478.204345703125,-0.0,4384.8994140625,11649.84375,6666.29638671875,8499.3798828125,18969.951171875,6223.30029296875,-3821.29541015625,7110.708984375,5619.3388671875,25391.822265625,5814.7802734375,11699.779296875,-7616.93701171875,-10943.4814453125,7340.80517578125,4134.880859375,8795.6181640625,4390.2314453125,6034.76171875,4486.35009765625,-250.2147674560547,8261.7412109375,7972.7861328125,8166.19580078125,-15135.6083984375,-0.0,0.0,8842.0498046875,6534.5517578125,-3948.694580078125,0.0,11815.634765625
-5392.4765625,-11097.1240234375,6135.86328125,8230.921875,14532.90625,14278.0673828125,13540.7041015625,12307.28515625,12804.2568359375,9516.0390625,16524.244140625,0.0,12292.5078125,0.0,11539.716796875,15617.2138671875,25490.962890625,11805.7294921875,7656.5625,5507.73046875,3198.398681640625,14344.568359375,12736.466796875,9140.716796875,0.0,1743.5167236328125,6465.1962890625,4185.93017578125,-1677.114013671875,-7903.11572265625,12621.8310546875,2690.79150390625,8794.0263671875,13845.98828125,9612.599609375,15119.2568359375,4917.0732421875,9442.6826171875,3415.850341796875,-0.0,4328.6103515625,11582.9521484375,6614.71484375,8434.5400390625,18916.087890625,6156.5546875,-3885.574951171875,7037.02392578125,5567.17041015625,25326.87109375,5769.86669921875,11628.205078125,-7645.72900390625,-10999.5185546875,7288.80810546875,4058.45361328125,8757.923828125,4315.15576171875,5992.08984375,4404.20654296875,-332.0300598144531,8201.298828125,7914.4091796875,8102.71484375,-15199.98828125,-0.0,0.0,8725.98046875,6504.2314453125,-4054.091796875,0.0,11728.2099609375
-5469.94384765625,-11096.7646484375,6089.22998046875,8156.4169921875,14486.80859375,14220.498046875,13496.9326171875,12251.1376953125,12765.37109375,9464.46875,16475.587890625,0.0,12259.404296875,0.0,11509.455078125,15557.630859375,25434.390625,11751.8154296875,7605.78369140625,5460.90234375,3146.41552734375,14287.146484375,12687.3173828125,9086.76953125,0.0,1681.417724609375,6426.1591796875,4127.0302734375,-1709.150390625,-7961.142578125,12566.3203125,2631.3740234375,8742.337890625,13785.076171875,9561.4375,15062.595703125,4868.26220703125,9389.9150390625,3351.320068359375,-0.0,4279.73779296875,11522.197265625,6570.07763671875,8377.1689453125,18870.341796875,6103.53662109375,-3954.275390625,6963.07470703125,5524.2900390625,25267.9765625,5730.556640625,11570.7724609375,-7706.82373046875,-11013.6650390625,7241.10595703125,4004.128173828125,8728.0751953125,4254.08837890625,5954.55615234375,4343.59912109375,-413.61907958984375,8148.2958984375,7865.4921875,8058.11328125,-15247.8662109375,-0.0,-0.0,8661.8759765625,6471.822265625,-4116.96630859375,0.0,11669.9287109375
-5575.58642578125,-11093.806640625,6050.869140625,8106.5205078125,14449.7216796875,14181.369140625,13461.12890625,12219.869140625,12738.3671875,9441.8818359375,16441.404296875,0.0,12232.8720703125,0.0,11478.287109375,15534.853515625,25391.990234375,11712.123046875,7570.6826171875,5436.28515625,3106.16552734375,14247.37890625,12651.443359375,9050.2421875,0.0,1637.8974609375,6394.29833984375,4091.936279296875,-1730.008056640625,-8005.02783203125,12524.91015625,2587.255615234375,8702.0556640625,13740.3984375,9523.3388671875,15021.7646484375,4834.46435546875,9354.994140625,3300.551025390625,-0.0,4241.01220703125,11478.955078125,6535.55517578125,8340.439453125,18838.34375,6076.591796875,-3970.929443359375,6912.90966796875,5490.744140625,25227.755859375,5696.9365234375,11541.990234375,-7778.3095703125,-11053.8056640625,7202.76220703125,3962.287109375,8698.89453125,4221.42822265625,5920.39453125,4325.49609375,-467.0466003417969,8110.7158203125,7833.03125,8037.802734375,-15287.984375,-0.0,-0.0,8665.2744140625,6437.5166015625,-4112.56103515625,0.0,11658.3603515625
-5553.5927734375,-11136.841796875,6082.33935546875,8156.36474609375,14485.6484375,14233.2470703125,13504.19921875,12290.6328125,12802.953125,9535.677734375,16484.66015625,0.0,12256.2314453125,0.0,11508.9697265625,15633.7548828125,25430.9453125,11755.244140625,7622.18212890625,5515.11474609375,3143.09716796875,14291.9892578125,12694.490234375,9101.5869140625,0.0,1684.7706298828125,6428.3837890625,4162.24609375,-1708.77490234375,-7969.58984375,12565.494140625,2622.546630859375,8738.513671875,13782.21484375,9564.2744140625,15068.95703125,4883.298828125,9414.1103515625,3364.002685546875,-0.0,4274.0029296875,11525.263671875,6574.0517578125,8397.9853515625,18892.19140625,6151.96044921875,-3904.763916015625,6962.4921875,5524.42919921875,25282.0234375,5737.0087890625,11624.119140625,-7748.111328125,-11051.9462890625,7233.982421875,4003.477783203125,8723.40625,4299.63134765625,5966.71337890625,4428.4150390625,-431.0626525878906,8157.3828125,7895.59521484375,8128.94873046875,-15256.3203125,-0.0,-0.0,8840.6220703125,6492.43994140625,-3931.271728515625,0.0,11788.2119140625
-5426.2568359375,-11116.4853515625,6176.90771484375,8266.71484375,14577.505859375,14340.15625,13596.380859375,12400.646484375,12905.357421875,9650.8935546875,16572.244140625,0.0,12323.869140625,0.0,11587.775390625,15754.8095703125,25531.267578125,11855.998046875,7724.7275390625,5621.98681640625,3241.2001953125,14396.619140625,12790.6142578125,9206.013671875,0.0,1789.3909912109375,6512.5615234375,4272.58349609375,-1646.9833984375,-7867.669921875,12665.861328125,2723.14111328125,8835.1787109375,13886.3974609375,9661.90625,15174.6240234375,4980.30029296875,9518.740234375,3445.316650390625,-0.0,4365.0712890625,11631.0859375,6664.12158203125,8503.513671875,18991.744140625,6263.51708984375,-3801.272216796875,7074.5751953125,5607.3173828125,25388.8203125,5824.3447265625,11739.083984375,-7668.91357421875,-10962.2783203125,7302.6572265625,4111.390625,8794.08203125,4410.923828125,6056.95947265625,4543.677734375,-318.8385925292969,8259.0126953125,7999.68115234375,8246.6376953125,-15163.3583984375,-0.0,-0.0,8946.9423828125,6586.82080078125,-3794.070556640625,0.0,11926.6181640625
-5367.22216796875,-11013.890625,6247.73193359375,8334.103515625,14636.0341796875,14397.1787109375,13646.4736328125,12438.2041015625,12934.8818359375,9663.3994140625,16618.87890625,0.0,12367.2470703125,0.0,11634.7841796875,15768.9658203125,25598.880859375,11916.0556640625,7774.83544921875,5643.26220703125,3305.79296875,14460.3642578125,12845.412109375,9259.482421875,0.0,1855.296142578125,6563.44287109375,4315.65380859375,-1603.154296875,-7786.58203125,12730.8095703125,2798.739501953125,8902.6005859375,13953.3486328125,9723.6162109375,15233.6845703125,5030.7294921875,9563.8115234375,3495.028564453125,-0.0,4431.6796875,11695.466796875,6718.6845703125,8554.7685546875,19035.8359375,6292.9482421875,-3722.72998046875,7141.22021484375,5661.5810546875,25446.31640625,5872.04052734375,11768.994140625,-7620.54052734375,-10889.1962890625,7362.16455078125,4183.99755859375,8841.88671875,4445.79296875,6096.06201171875,4550.58837890625,-226.25718688964844,8314.6337890625,8036.76806640625,8260.1796875,-15093.1298828125,-0.0,0.0,8875.708984375,6619.10107421875,-3860.312744140625,0.0,11915.87890625
-5428.0595703125,-10987.3173828125,6235.5263671875,8311.1396484375,14616.6416015625,14364.6953125,13620.8076171875,12391.623046875,12888.072265625,9596.376953125,16583.83984375,0.0,12360.8017578125,0.0,11621.2119140625,15702.8271484375,25578.728515625,11892.439453125,7739.9873046875,5585.80712890625,3286.0732421875,14434.4404296875,12819.0380859375,9226.7705078125,0.0,1827.1322021484375,6545.0595703125,4274.3759765625,-1614.07177734375,-7803.65185546875,12708.2978515625,2781.0888671875,8884.009765625,13929.689453125,9702.111328125,15205.5185546875,5001.22900390625,9525.705078125,3488.09375,-0.0,4418.41064453125,11669.234375,6697.51904296875,8519.46875,18999.763671875,6239.58203125,-3805.2392578125,7117.59912109375,5647.64306640625,25414.787109375,5850.30322265625,11715.5205078125,-7620.95166015625,-10924.71875,7363.09033203125,4157.8388671875,8835.0390625,4398.966796875,6062.3896484375,4478.19482421875,-255.50389099121094,8286.173828125,7993.7392578125,8196.240234375,-15110.9599609375,-0.0,0.0,8777.9453125,6581.39306640625,-3996.532958984375,0.0,11810.3505859375
-5506.357421875,-11073.8994140625,6184.35791015625,8257.3388671875,14568.72265625,14311.7978515625,13570.533203125,12336.80859375,12830.32421875,9536.2119140625,16540.296875,0.0,12336.7001953125,0.0,11578.482421875,15641.767578125,25529.998046875,11841.1669921875,7685.994140625,5526.9951171875,3236.88623046875,14386.2880859375,12769.1025390625,9173.2158203125,0.0,1775.572998046875,6500.2490234375,4218.328125,-1638.754638671875,-7857.8505859375,12657.9658203125,2734.880126953125,8834.9306640625,13880.2822265625,9652.4287109375,15152.3671875,4948.29248046875,9471.4541015625,3447.082763671875,-0.0,4369.5986328125,11617.078125,6649.8671875,8465.3115234375,18945.486328125,6183.6103515625,-3867.149658203125,7063.9853515625,5599.42041015625,25363.193359375,5803.54541015625,11657.3056640625,-7661.3486328125,-10965.7431640625,7314.193359375,4107.64892578125,8800.3193359375,4340.779296875,6010.83251953125,4420.82666015625,-338.0078125,8235.140625,7939.0712890625,8130.8408203125,-15164.6884765625,-0.0,0.0,8719.677734375,6529.892578125,-4061.15966796875,0.0,11744.6943359375
-5546.427734375,-11134.4404296875,6161.97216796875,8238.48046875,14543.7744140625,14290.9853515625,13545.2041015625,12320.05859375,12808.060546875,9519.9423828125,16518.40234375,0.0,12304.4892578125,0.0,11543.6181640625,15630.1259765625,25508.736328125,11816.2216796875,7663.9140625,5508.1796875,3212.542236328125,14364.94140625,12745.873046875,9152.2890625,0.0,1758.5523681640625,6471.61767578125,4201.15478515625,-1668.757080078125,-7877.70263671875,12636.1142578125,2711.865234375,8813.4072265625,13860.5400390625,9628.140625,15128.9091796875,4925.48291015625,9451.2216796875,3425.4013671875,-0.0,4343.45068359375,11597.5419921875,6624.421875,8446.9462890625,18922.09765625,6164.9091796875,-3839.281005859375,7043.62548828125,5568.84423828125,25343.974609375,5774.90380859375,11641.4453125,-7696.58984375,-10973.4375,7280.06103515625,4092.072998046875,8765.3349609375,4327.89453125,5991.63037109375,4411.6904296875,-358.2564392089844,8212.603515625,7917.7822265625,8109.173828125,-15189.45703125,-0.0,0.0,8742.74609375,6512.56396484375,-4045.66015625,0.0,11738.1728515625
-5509.037109375,-11121.0849609375,6137.98779296875,8224.1455078125,14528.015625,14281.728515625,13532.876953125,12321.03125,12805.8447265625,9523.76953125,16511.345703125,0.0,12270.4375,0.0,11517.4638671875,15653.0498046875,25487.330078125,11801.33984375,7655.01611328125,5506.94873046875,3194.743896484375,14350.46875,12732.88671875,9143.1171875,0.0,1744.2694091796875,6452.7666015625,4205.88134765625,-1696.984619140625,-7894.7197265625,12619.875,2687.614013671875,8790.6650390625,13841.7890625,9611.4052734375,15117.4423828125,4915.11767578125,9446.005859375,3385.7255859375,-0.0,4323.22265625,11582.75390625,6608.4384765625,8442.068359375,18914.158203125,6166.388671875,-3849.345947265625,7030.33642578125,5555.46484375,25337.8515625,5756.12890625,11651.482421875,-7712.92529296875,-10990.0341796875,7260.88330078125,4071.339599609375,8734.0654296875,4341.44189453125,5987.453125,4418.021484375,-352.8099060058594,8198.1435546875,7912.8583984375,8114.82666015625,-15197.0498046875,-0.0,0.0,8790.2177734375,6509.9990234375,-3999.524658203125,0.0,11758.330078125
-5479.18408203125,-11121.1494140625,6105.234375,8200.451171875,14509.6708984375,14264.623046875,13517.5107421875,12307.638671875,12790.8095703125,9511.65625,16511.904296875,0.0,12247.3408203125,0.0,11499.30859375,15646.068359375,25461.486328125,11781.712890625,7637.96142578125,5492.59814453125,3172.327880859375,14331.08984375,12715.2236328125,9126.31640625,0.0,1722.639404296875,6436.46875,4193.751953125,-1718.3931884765625,-7918.103515625,12597.9619140625,2656.080078125,8764.33203125,13817.8974609375,9591.7626953125,15098.7568359375,4898.4697265625,9431.501953125,3377.623291015625,-0.0,4297.9658203125,11561.8173828125,6590.4638671875,8425.474609375,18898.103515625,6155.083984375,-3873.560791015625,7007.52783203125,5542.46142578125,25320.443359375,5740.06982421875,11644.2646484375,-7727.4189453125,-11013.1220703125,7252.509765625,4050.3720703125,8713.5380859375,4330.5634765625,5973.17578125,4409.04541015625,-370.48077392578125,8178.09912109375,7897.47216796875,8095.705078125,-15209.8740234375,-0.0,0.0,8777.625,6498.2822265625,-3992.538330078125,0.0,11751.8955078125
-5487.525390625,-11130.97265625,6077.58056640625,8160.20751953125,14481.6611328125,14227.4189453125,13491.9560546875,12265.2841796875,12764.2568359375,9470.658203125,16494.90234375,0.0,12226.1474609375,0.0,11483.1669921875,15585.599609375,25430.11328125,11750.6142578125,7606.953125,5458.0927734375,3140.368408203125,14296.9638671875,12686.302734375,9090.0,0.0,1684.1314697265625,6415.26513671875,4146.56884765625,-1736.956787109375,-7950.8349609375,12565.7236328125,2619.49951171875,8733.216796875,13785.5576171875,9561.6953125,15064.6181640625,4869.0908203125,9395.068359375,3358.83740234375,-0.0,4268.5478515625,11526.4658203125,6563.67822265625,8387.11328125,18869.615234375,6115.724609375,-3905.84375,6967.19091796875,5520.5908203125,25279.4765625,5718.673828125,11595.810546875,-7753.01318359375,-11056.2958984375,7235.03515625,4015.91552734375,8698.6669921875,4276.81591796875,5948.95751953125,4364.11865234375,-415.1725158691406,8145.9443359375,7863.9697265625,8058.27978515625,-15236.720703125,-0.0,-0.0,8700.650390625,6480.33935546875,-4067.959716796875,0.0,11695.20703125
-5489.3994140625,-11145.7744140625,6048.8134765625,8130.2216796875,14458.4814453125,14196.970703125,13471.8828125,12234.2734375,12744.626953125,9447.546875,16468.224609375,0.0,12217.453125,0.0,11470.6103515625,15543.6435546875,25403.6015625,11725.494140625,7582.32763671875,5436.3974609375,3114.077880859375,14269.53125,12662.5693359375,9062.0126953125,0.0,1653.25830078125,6397.59521484375,4108.96826171875,-1743.83154296875,-7981.7177734375,12539.6748046875,2593.7255859375,8706.3740234375,13757.1455078125,9536.7451171875,15036.52734375,4845.9814453125,9367.1240234375,3336.2412109375,-0.0,4242.1201171875,11496.66796875,6543.3818359375,8355.162109375,18848.3203125,6089.34814453125,-3944.19677734375,6937.28271484375,5501.95947265625,25246.939453125,5701.4609375,11556.005859375,-7766.58544921875,-11081.8359375,7214.58154296875,3983.776611328125,8689.6982421875,4236.412109375,5928.76123046875,4336.87451171875,-449.6102294921875,8119.951171875,7840.70703125,8044.72998046875,-15264.1083984375,-0.0,-0.0,8662.755859375,6463.095703125,-4113.4453125,0.0,11662.5703125
-5482.00390625,-11119.72265625,6085.13671875,8176.60791015625,14495.91796875,14243.0625,13509.8896484375,12283.8291015625,12788.8720703125,9508.169921875,16494.27734375,0.0,12255.3115234375,0.0,11504.09375,15596.7841796875,25444.759765625,11767.8759765625,7625.43115234375,5490.9443359375,3155.694091796875,14313.1552734375,12703.3916015625,9107.4990234375,0.0,1698.0948486328125,6432.5869140625,4156.140625,-1713.937744140625,-7939.64208984375,12580.58984375,2633.98974609375,8747.21484375,13799.2998046875,9576.689453125,15080.2626953125,4888.4853515625,9413.865234375,3384.72607421875,-0.0,4277.82861328125,11539.9794921875,6581.859375,8400.048828125,18890.482421875,6141.25634765625,-3915.97802734375,6981.6943359375,5533.36865234375,25292.72265625,5739.99560546875,11605.4892578125,-7714.443359375,-11039.5634765625,7247.466796875,4028.419921875,8721.1357421875,4283.93212890625,5965.990234375,4400.32861328125,-412.39862060546875,8165.39306640625,7887.82080078125,8112.48828125,-15233.765625,-0.0,-0.0,8751.6884765625,6503.3525390625,-4031.429443359375,0.0,11732.6435546875
-5462.1708984375,-11074.931640625,6154.5400390625,8246.1142578125,14557.6484375,14313.9541015625,13571.31640625,12360.0634765625,12863.4169921875,9591.119140625,16545.533203125,0.0,12303.787109375,0.0,11555.2353515625,15682.3544921875,25510.705078125,11835.2412109375,7696.3017578125,5572.740234375,3221.4560546875,14382.6640625,12768.724609375,9178.2802734375,0.0,1768.4232177734375,6488.52880859375,4232.8798828125,-1665.7637939453125,-7865.7529296875,12648.8828125,2699.440185546875,8812.93359375,13866.3837890625,9641.7216796875,15148.5498046875,4955.80810546875,9485.533203125,3423.1162109375,-0.0,4342.9208984375,11609.6845703125,6643.67578125,8473.7421875,18958.529296875,6219.14306640625,-3850.350830078125,7050.7490234375,5586.46923828125,25366.841796875,5797.89599609375,11684.5400390625,-7658.46728515625,-10992.16796875,7295.8681640625,4095.88720703125,8767.7578125,4364.10107421875,6033.35205078125,4485.04150390625,-353.4791564941406,8234.677734375,7961.24267578125,8204.0390625,-15186.396484375,-0.0,0.0,8849.0556640625,6576.62451171875,-3922.0087890625,0.0,11835.6103515625
-5435.767578125,-11051.13671875,6197.90966796875,8292.076171875,14596.0107421875,14354.08203125,13607.6162109375,12400.7412109375,12897.5615234375,9618.865234375,16574.759765625,0.0,12328.5908203125,0.0,11584.74609375,15730.3271484375,25551.818359375,11875.681640625,7732.84521484375,5606.4580078125,3261.184326171875,14423.5419921875,12806.03125,9218.404296875,0.0,1811.567138671875,6522.19580078125,4278.2314453125,-1639.7503662109375,-7816.32421875,12690.18359375,2744.948486328125,8854.0029296875,13908.53515625,9680.8740234375,15188.197265625,4991.5615234375,9523.1484375,3439.402099609375,-0.0,4383.46142578125,11652.73828125,6680.04736328125,8513.123046875,18992.78515625,6255.236328125,-3817.7138671875,7098.33203125,5622.05029296875,25409.37109375,5829.8779296875,11728.3525390625,-7632.0625,-10960.568359375,7321.5712890625,4140.33349609375,8794.5009765625,4411.5712890625,6068.30859375,4513.64453125,-306.9232482910156,8272.19140625,7996.11865234375,8236.52734375,-15151.599609375,-0.0,0.0,8876.7001953125,6615.48388671875,-3895.187744140625,0.0,11868.7265625
-5442.1181640625,-11041.7783203125,6213.97119140625,8309.3095703125,14609.171875,14376.130859375,13618.74609375,12429.6953125,12908.9892578125,9635.421875,16587.681640625,0.0,12333.048828125,0.0,11596.6181640625,15780.369140625,25565.83984375,11890.76171875,7748.04736328125,5623.87158203125,3274.892822265625,14440.1201171875,12819.123046875,9237.0048828125,0.0,1831.1068115234375,6531.90380859375,4311.513671875,-1639.48779296875,-7794.86279296875,12702.5517578125,2759.217529296875,8868.3427734375,13922.880859375,9696.140625,15205.2421875,5005.10888671875,9543.7275390625,3461.8349609375,-0.0,4398.01171875,11670.70703125,6690.66259765625,8537.9482421875,19005.24609375,6280.47314453125,-3800.514404296875,7116.81884765625,5631.40185546875,25433.79296875,5841.52099609375,11770.7783203125,-7610.09228515625,-10928.861328125,7322.2255859375,4161.17578125,8801.248046875,4449.68212890625,6074.25439453125,4551.041015625,-280.9441223144531,8286.939453125,8013.173828125,8253.6494140625,-15129.751953125,-0.0,0.0,8950.775390625,6623.94677734375,-3836.959228515625,0.0,11899.74609375
-5500.78759765625,-11078.5380859375,6184.81689453125,8274.8916015625,14580.9189453125,14344.48828125,13587.8798828125,12401.0078125,12877.7265625,9610.6767578125,16563.34375,0.0,12309.9453125,0.0,11573.8388671875,15750.537109375,25534.99609375,11858.078125,7717.08544921875,5593.83642578125,3243.662841796875,14409.1123046875,12788.517578125,9205.318359375,0.0,1797.473388671875,6504.416015625,4281.06884765625,-1665.1177978515625,-7835.5439453125,12669.421875,2726.43798828125,8837.974609375,13890.09765625,9665.7666015625,15173.16796875,4974.48095703125,9512.77734375,3455.978271484375,-0.0,4370.3125,11637.259765625,6661.51220703125,8507.7685546875,18974.93359375,6252.74853515625,-3829.35888671875,7082.3251953125,5601.279296875,25400.93359375,5815.39111328125,11743.6005859375,-7640.408203125,-10951.5419921875,7300.26513671875,4126.5107421875,8778.353515625,4417.19970703125,6041.703125,4529.20458984375,-314.9570007324219,8254.6162109375,7983.89794921875,8220.552734375,-15155.7685546875,-0.0,0.0,8909.3134765625,6604.12646484375,-3848.5400390625,0.0,11876.85546875
-5510.05908203125,-11128.1494140625,6143.12841796875,8226.3466796875,14539.5810546875,14290.654296875,13546.615234375,12338.1748046875,12824.9658203125,9543.916015625,16525.822265625,0.0,12280.5458984375,0.0,11538.7001953125,15660.8369140625,25492.9140625,11811.77734375,7666.97998046875,5532.00537109375,3202.07275390625,14361.6552734375,12743.1376953125,9152.3056640625,0.0,1747.4857177734375,6467.54833984375,4214.29736328125,-1691.112548828125,-7888.5302734375,12624.3857421875,2686.740478515625,8796.4833984375,13847.4345703125,9621.732421875,15124.37890625,4927.287109375,9456.830078125,3424.519775390625,-0.0,4329.9970703125,11585.595703125,6620.087890625,8449.265625,18926.779296875,6187.38037109375,-3863.7392578125,7033.8876953125,5564.3564453125,25344.080078125,5777.0615234375,11668.5751953125,-7689.75927734375,-10993.9365234375,7276.78857421875,4076.223876953125,8748.57421875,4344.138671875,6003.48046875,4447.3720703125,-384.16802978515625,8204.1572265625,7929.4814453125,8151.5517578125,-15189.521484375,-0.0,0.0,8770.2099609375,6570.5361328125,-3971.976806640625,0.0,11788.49609375
-5476.4326171875,-11138.1884765625,6124.51953125,8213.421875,14529.455078125,14273.6962890625,13535.3447265625,12315.162109375,12805.61328125,9524.0859375,16512.38671875,0.0,12275.197265625,0.0,11528.0498046875,15626.4345703125,25480.36328125,11799.3583984375,7652.88623046875,5510.93994140625,3190.7099609375,14350.2900390625,12729.546875,9136.8740234375,0.0,1734.9906005859375,6457.81689453125,4189.818359375,-1695.5140380859375,-7902.125,12613.7412109375,2675.6318359375,8782.5712890625,13834.8330078125,9610.5830078125,15111.6611328125,4915.14990234375,9440.732421875,3391.596923828125,-0.0,4317.2060546875,11574.6357421875,6609.5498046875,8432.37890625,18913.291015625,6165.1552734375,-3875.53857421875,7020.42578125,5555.5712890625,25328.248046875,5765.9033203125,11638.59765625,-7712.46435546875,-11009.7138671875,7277.330078125,4060.300537109375,8742.8857421875,4320.66943359375,5992.6611328125,4410.12451171875,-387.02764892578125,8189.25732421875,7913.31396484375,8123.54296875,-15192.658203125,-0.0,0.0,8754.30859375,6553.45361328125,-4014.240966796875,0.0,11751.015625
-5498.44287109375,-11160.3583984375,6084.70068359375,8179.36474609375,14501.2158203125,14246.2158203125,13509.9189453125,12294.2109375,12786.2255859375,9526.638671875,16484.51953125,0.0,12257.349609375,0.0,11509.7001953125,15614.8525390625,25444.921875,11769.7236328125,7628.8984375,5497.873046875,3156.533447265625,14319.046875,12702.8818359375,9110.6240234375,0.0,1705.1385498046875,6435.61767578125,4170.0,-1713.0899658203125,-7935.44482421875,12580.1826171875,2633.603271484375,8747.33203125,13800.1015625,9580.8720703125,15082.0693359375,4892.13330078125,9419.3291015625,3354.769287109375,-0.0,4285.2939453125,11544.9580078125,6584.697265625,8406.9697265625,18890.544921875,6149.96630859375,-3923.60791015625,6986.6474609375,5532.32861328125,25302.177734375,5742.8515625,11617.837890625,-7754.24169921875,-11052.916015625,7254.56494140625,4027.20361328125,8728.123046875,4303.34228515625,5962.84130859375,4403.2734375,-400.9389953613281,8163.330078125,7895.041015625,8112.84033203125,-15227.0166015625,-0.0,0.0,8799.1953125,6535.5546875,-3965.16455078125,0.0,11766.068359375
-5529.19970703125,-11207.279296875,6042.39306640625,8141.14697265625,14464.25,14211.7998046875,13476.357421875,12268.759765625,12763.310546875,9518.390625,16445.880859375,0.0,12220.921875,0.0,11481.8564453125,15605.7373046875,25401.31640625,11732.9599609375,7597.46240234375,5482.65869140625,3116.534912109375,14279.7548828125,12667.47265625,9076.216796875,0.0,1670.6480712890625,6402.060546875,4144.92724609375,-1742.5870361328125,-7975.01318359375,12540.2177734375,2586.53515625,8704.310546875,13756.8896484375,9542.314453125,15045.4541015625,4858.6025390625,9389.658203125,3322.33447265625,-0.0,4244.4013671875,11506.2099609375,6549.26611328125,8376.4638671875,18860.90234375,6131.29736328125,-3957.993408203125,6947.5126953125,5497.13720703125,25271.177734375,5709.79736328125,11596.8623046875,-7790.3701171875,-11095.9599609375,7212.31494140625,3992.321533203125,8694.564453125,4283.03271484375,5925.4599609375,4409.46240234375,-451.2308044433594,8127.8251953125,7869.92333984375,8102.998046875,-15271.6328125,-0.0,-0.0,8833.7109375,6512.37353515625,-3915.343994140625,0.0,11781.4736328125
-5542.96728515625,-11213.9736328125,6056.4501953125,8149.57275390625,14470.458984375,14213.953125,13476.8740234375,12261.884765625,12757.1474609375,9493.1328125,16453.140625,0.0,12218.068359375,0.0,11476.970703125,15589.44921875,25408.921875,11739.3662109375,7596.88232421875,5470.3310546875,3123.835205078125,14285.6591796875,12670.3994140625,9076.322265625,0.0,1676.95556640625,6400.75,4136.568359375,-1740.4599609375,-7968.17333984375,12546.7626953125,2595.360595703125,8712.537109375,13762.1630859375,9546.615234375,15049.705078125,4859.39892578125,9385.970703125,3319.254638671875,-0.0,4251.79296875,11513.224609375,6551.27587890625,8375.3330078125,18859.744140625,6123.5556640625,-3932.803955078125,6957.05908203125,5498.22119140625,25270.361328125,5707.759765625,11587.9326171875,-7780.17138671875,-11097.57421875,7207.97802734375,3997.1708984375,8686.8916015625,4268.02685546875,5924.12890625,4392.142578125,-438.7587585449219,8134.0849609375,7863.50390625,8086.00732421875,-15261.107421875,-0.0,-0.0,8759.0771484375,6507.076171875,-3980.75341796875,0.0,11744.4697265625
-5568.7822265625,-11196.984375,6094.89599609375,8175.30615234375,14492.5810546875,14234.7841796875,13491.8212890625,12274.251953125,12761.791015625,9475.7001953125,16483.75390625,0.0,12243.58984375,0.0,11483.3212890625,15595.8759765625,25436.2578125,11761.8154296875,7611.47705078125,5464.68310546875,3149.9189453125,14308.693359375,12689.4970703125,9094.6162109375,0.0,1699.0440673828125,6417.056640625,4151.7861328125,-1714.2467041015625,-7940.31298828125,12569.7744140625,2623.371826171875,8742.7900390625,13788.1630859375,9569.9931640625,15071.1630859375,4876.927734375,9399.02734375,3359.2744140625,-0.0,4282.90087890625,11535.634765625,6568.55712890625,8392.3642578125,18871.287109375,6124.951171875,-3903.658935546875,6982.64453125,5516.294921875,25288.369140625,5721.2666015625,11599.3994140625,-7735.34765625,-11082.9169921875,7230.8017578125,4023.392333984375,8702.8125,4277.4482421875,5946.86572265625,4376.76123046875,-411.1395263671875,8157.9658203125,7869.9150390625,8070.837890625,-15228.24609375,-0.0,-0.0,8723.5546875,6521.02880859375,-4047.252685546875,0.0,11703.630859375
-5591.80517578125,-11204.40234375,6088.40380859375,8166.77685546875,14482.380859375,14220.1015625,13479.2939453125,12256.9345703125,12735.1142578125,9447.3173828125,16476.533203125,0.0,12232.603515625,0.0,11472.4677734375,15584.552734375,25427.44140625,11749.5751953125,7594.17236328125,5435.53466796875,3140.5537109375,14297.515625,12675.7294921875,9079.642578125,0.0,1683.43212890625,6408.77392578125,4139.58251953125,-1704.483642578125,-7952.7646484375,12561.1455078125,2618.53466796875,8734.787109375,13781.0751953125,9558.341796875,15057.720703125,4861.021484375,9381.91796875,3364.55126953125,-0.0,4275.6962890625,11522.2041015625,6557.61181640625,8377.916015625,18852.763671875,6100.0849609375,-3914.609130859375,6972.72412109375,5511.36572265625,25272.240234375,5709.01611328125,11585.962890625,-7725.0244140625,-11097.90234375,7240.5908203125,4010.80908203125,8701.9169921875,4265.4296875,5934.7236328125,4334.447265625,-423.9656066894531,8141.7373046875,7848.146484375,8033.8193359375,-15221.4609375,-0.0,-0.0,8699.390625,6494.75732421875,-4078.685302734375,0.0,11671.3681640625
-5590.88671875,-11223.0830078125,6059.4833984375,8134.67041015625,14457.978515625,14182.6220703125,13454.513671875,12216.7001953125,12695.8759765625,9397.44921875,16444.498046875,0.0,12213.341796875,0.0,11457.130859375,15527.7587890625,25400.134765625,11721.7607421875,7561.07666015625,5391.36083984375,3112.958984375,14266.7041015625,12647.234375,9044.4326171875,0.0,1649.8291015625,6389.90966796875,4098.69140625,-1716.6142578125,-7985.50244140625,12532.333984375,2592.71826171875,8707.931640625,13752.4833984375,9529.328125,15024.662109375,4829.85888671875,9345.6826171875,3329.801025390625,-0.0,4249.73486328125,11488.931640625,6533.9443359375,8339.470703125,18820.078125,6056.21240234375,-3940.100830078125,6942.70654296875,5493.10986328125,25233.447265625,5687.7724609375,11541.111328125,-7757.15087890625,-11117.9482421875,7222.7236328125,3974.729248046875,8695.072265625,4219.92822265625,5905.576171875,4266.55126953125,-461.37744140625,8109.431640625,7810.23828125,7981.3740234375,-15245.9306640625,-0.0,-0.0,8599.330078125,6451.638671875,-4169.544921875,0.0,11605.6962890625
-5600.14697265625,-11227.8681640625,6033.888671875,8112.3486328125,14438.583984375,14162.8642578125,13439.447265625,12203.99609375,12689.126953125,9403.220703125,16420.248046875,0.0,12205.6572265625,0.0,11445.8642578125,15517.34375,25376.62109375,11699.2197265625,7546.9267578125,5388.76123046875,3091.070068359375,14244.4306640625,12629.740234375,9025.6640625,0.0,1631.6513671875,6376.39892578125,4084.845947265625,-1737.447509765625,-8010.99755859375,12508.7080078125,2569.025634765625,8683.974609375,13728.013671875,9510.4873046875,15004.3642578125,4813.95947265625,9331.2236328125,3292.320068359375,-0.0,4227.0263671875,11468.3525390625,6516.12353515625,8323.3466796875,18806.734375,6050.17822265625,-3964.50830078125,6920.7080078125,5476.14453125,25215.595703125,5675.3193359375,11524.5146484375,-7799.05419921875,-11126.986328125,7194.8486328125,3951.479736328125,8686.09375,4213.3154296875,5882.02392578125,4279.599609375,-486.94708251953125,8088.53271484375,7801.21435546875,7987.30078125,-15273.578125,-0.0,-0.0,8649.048828125,6441.40283203125,-4138.59326171875,0.0,11614.0400390625
-5604.478515625,-11245.0126953125,6026.28125,8113.4287109375,14437.5400390625,14169.29296875,13443.5341796875,12216.7919921875,12713.4736328125,9438.48046875,16415.400390625,0.0,12197.5615234375,0.0,11445.76171875,15535.6796875,25373.556640625,11700.0654296875,7555.58837890625,5416.19140625,3091.245361328125,14246.228515625,12634.0810546875,9031.6533203125,0.0,1633.186767578125,6374.708984375,4095.55859375,-1751.9007568359375,-8012.94970703125,12508.3056640625,2564.434326171875,8679.4375,13726.7763671875,9512.408203125,15007.5009765625,4820.10888671875,9342.1865234375,3282.335693359375,-0.0,4221.3193359375,11470.720703125,6518.25732421875,8331.955078125,18817.83984375,6072.79638671875,-3959.84521484375,6920.716796875,5474.69287109375,25219.1640625,5676.8671875,11539.626953125,-7821.6904296875,-11123.9345703125,7188.0849609375,3951.115966796875,8672.8701171875,4223.9189453125,5877.34375,4323.0185546875,-489.7482604980469,8090.5107421875,7817.98828125,8027.89794921875,-15282.16015625,-0.0,-0.0,8691.302734375,6464.44287109375,-4071.173828125,0.0,11668.5546875
-5534.71630859375,-11236.5,6064.15087890625,8151.07763671875,14476.58203125,14210.6787109375,13480.41015625,12254.361328125,12762.7626953125,9470.4375,16457.384765625,0.0,12225.0751953125,0.0,11468.7978515625,15557.9833984375,25415.212890625,11743.771484375,7596.8935546875,5457.93505859375,3132.10302734375,14288.8125,12675.1455078125,9072.1982421875,0.0,1672.6136474609375,6403.91162109375,4127.88623046875,-1735.439697265625,-7968.83251953125,12550.6962890625,2604.884765625,8719.3955078125,13768.0048828125,9552.3017578125,15048.84375,4859.5517578125,9382.5654296875,3325.375244140625,-0.0,4259.64990234375,11511.189453125,6555.60498046875,8370.4365234375,18860.18359375,6110.517578125,-3931.60888671875,6958.4453125,5505.375,25259.86328125,5708.16943359375,11572.3642578125,-7791.2236328125,-11078.0546875,7215.91748046875,3995.732421875,8689.423828125,4243.9990234375,5925.0927734375,4356.34033203125,-463.10247802734375,8131.57275390625,7859.884765625,8070.05517578125,-15256.0263671875,-0.0,-0.0,8670.470703125,6518.58642578125,-4082.701171875,0.0,11691.6337890625
-5495.615234375,-11161.666015625,6109.3837890625,8195.4716796875,14519.3173828125,14257.7373046875,13523.359375,12301.6943359375,12814.634765625,9516.02734375,16499.814453125,0.0,12259.0732421875,0.0,11498.689453125,15605.3134765625,25461.14453125,11791.8134765625,7644.40625,5507.19091796875,3176.104736328125,14336.7490234375,12720.20703125,9120.1943359375,0.0,1719.286376953125,6439.72314453125,4172.1962890625,-1705.913330078125,-7914.05517578125,12598.6953125,2649.982421875,8766.482421875,13815.478515625,9598.703125,15096.8388671875,4907.43212890625,9430.2333984375,3359.5712890625,-0.0,4304.2255859375,11558.744140625,6596.4716796875,8417.2666015625,18908.806640625,6157.27001953125,-3908.05810546875,7003.94677734375,5541.5830078125,25305.833984375,5746.49560546875,11618.8271484375,-7744.17431640625,-11029.345703125,7250.24658203125,4046.53369140625,8722.2421875,4288.37255859375,5981.48681640625,4402.6123046875,-420.4545593261719,8178.63818359375,7909.478515625,8120.31494140625,-15223.283203125,-0.0,0.0,8733.5673828125,6576.9501953125,-4040.32470703125,0.0,11732.85546875
-5533.125,-11146.9599609375,6096.75927734375,8182.01806640625,14508.9375,14250.79296875,13517.6171875,12303.76953125,12816.603515625,9526.6123046875,16472.40234375,0.0,12244.4326171875,0.0,11496.556640625,15616.830078125,25448.40625,11783.9189453125,7636.84814453125,5513.634765625,3165.88427734375,14328.22265625,12711.779296875,9116.703125,0.0,1709.5147705078125,6433.0908203125,4173.60400390625,-1718.8135986328125,-7914.29541015625,12587.9482421875,2635.9873046875,8753.77734375,13804.5888671875,9589.6865234375,15089.6640625,4902.01220703125,9429.830078125,3327.170166015625,-0.0,4293.03662109375,11548.4453125,6589.2265625,8412.1171875,18907.4765625,6160.8662109375,-3919.593994140625,6990.76318359375,5532.49609375,25299.603515625,5740.9287109375,11625.99609375,-7745.85400390625,-11039.0087890625,7237.32568359375,4042.258544921875,8720.2958984375,4296.740234375,5983.203125,4411.6484375,-413.2602233886719,8171.08349609375,7909.2802734375,8126.822265625,-15243.5673828125,-0.0,0.0,8773.0673828125,6581.361328125,-3993.0458984375,0.0,11758.7802734375
-5541.35009765625,-11157.701171875,6074.05908203125,8159.955078125,14488.8486328125,14230.0361328125,13499.2880859375,12286.037109375,12798.9404296875,9514.9169921875,16452.865234375,0.0,12223.265625,0.0,11486.1513671875,15600.38671875,25427.4765625,11763.69140625,7616.17529296875,5499.90966796875,3146.75244140625,14307.296875,12691.283203125,9097.89453125,0.0,1691.547119140625,6418.11083984375,4155.185546875,-1740.8172607421875,-7937.51904296875,12566.771484375,2618.524169921875,8733.8134765625,13783.2724609375,9567.4765625,15068.9482421875,4882.7431640625,9411.6298828125,3309.4609375,-0.0,4271.3623046875,11526.4970703125,6571.4375,8392.744140625,18890.5,6146.3466796875,-3945.881103515625,6968.26953125,5514.3076171875,25282.169921875,5725.36962890625,11605.1435546875,-7757.611328125,-11054.1513671875,7213.14111328125,4025.650634765625,8710.4521484375,4286.2705078125,5966.4169921875,4406.31689453125,-420.7925109863281,8150.82421875,7891.673828125,8115.4248046875,-15266.9150390625,-0.0,0.0,8764.748046875,6558.35302734375,-3988.951416015625,0.0,11757.6376953125
-5554.14208984375,-11157.3134765625,6074.2763671875,8165.5859375,14488.0576171875,14226.5068359375,13496.2666015625,12279.126953125,12790.1572265625,9504.0244140625,16463.79296875,0.0,12225.451171875,0.0,11485.1162109375,15592.5810546875,25429.66015625,11762.2578125,7614.9951171875,5492.1337890625,3146.9052734375,14306.228515625,12688.93359375,9092.5458984375,0.0,1696.05029296875,6416.70068359375,4150.423828125,-1735.849609375,-7941.0185546875,12566.8408203125,2622.5595703125,8735.4501953125,13783.74609375,9566.00390625,15067.86328125,4879.60986328125,9404.4326171875,3346.77880859375,-0.0,4271.31591796875,11527.4423828125,6568.9375,8389.92578125,18884.978515625,6136.6884765625,-3933.546142578125,6974.5859375,5516.3740234375,25278.765625,5724.1259765625,11596.365234375,-7751.30810546875,-11054.9765625,7215.2529296875,4028.6201171875,8709.3408203125,4285.8916015625,5955.92529296875,4397.8076171875,-425.1705017089844,8151.20263671875,7883.708984375,8110.64990234375,-15270.833984375,-0.0,0.0,8748.5546875,6545.09814453125,-4005.012451171875,0.0,11746.1005859375
-5581.69873046875,-11202.6796875,6063.99462890625,8151.95849609375,14474.529296875,14209.322265625,13478.734375,12260.767578125,12765.892578125,9466.744140625,16467.833984375,0.0,12217.5439453125,0.0,11470.6787109375,15575.294921875,25414.845703125,11745.4658203125,7598.2216796875,5463.1689453125,3132.073486328125,14290.51171875,12672.5625,9074.1796875,0.0,1680.3070068359375,6404.337890625,4133.6982421875,-1737.464599609375,-7957.6884765625,12549.9287109375,2603.654052734375,8721.3544921875,13768.9111328125,9551.0947265625,15051.44140625,4861.04638671875,9384.912109375,3339.5849609375,-0.0,4260.41162109375,11511.9775390625,6554.0478515625,8372.75390625,18863.4453125,6112.76708984375,-3918.781982421875,6959.6533203125,5505.2021484375,25261.58203125,5708.37890625,11579.7119140625,-7754.80078125,-11089.541015625,7202.29541015625,4012.6982421875,8695.55859375,4268.857421875,5935.9609375,4375.28857421875,-446.232666015625,8133.7431640625,7861.44580078125,8077.1484375,-15282.5302734375,-0.0,0.0,8715.6201171875,6522.44970703125,-4051.604736328125,0.0,11707.8076171875
-5559.78125,-11220.3974609375,6086.0302734375,8175.18701171875,14495.419921875,14233.5244140625,13498.52734375,12282.9873046875,12786.9931640625,9487.5986328125,16497.310546875,0.0,12233.9716796875,0.0,11490.921875,15601.279296875,25436.40234375,11768.822265625,7620.49658203125,5483.10888671875,3153.22412109375,14312.720703125,12694.259765625,9097.3837890625,0.0,1700.091796875,6420.65576171875,4156.9638671875,-1722.6251220703125,-7935.48291015625,12571.0830078125,2622.208984375,8744.0771484375,13793.458984375,9572.560546875,15073.45703125,4883.01123046875,9406.6044921875,3359.2626953125,-0.0,4280.4130859375,11534.13671875,6574.36474609375,8396.94921875,18883.576171875,6137.27685546875,-3893.349853515625,6981.74560546875,5519.1787109375,25285.919921875,5727.39404296875,11607.30859375,-7732.18408203125,-11083.4814453125,7209.56201171875,4032.55224609375,8710.90234375,4285.90185546875,5956.9296875,4393.75341796875,-426.8267822265625,8155.70556640625,7884.53125,8097.2724609375,-15255.9384765625,-0.0,0.0,8741.0234375,6546.333984375,-4030.3388671875,0.0,11726.9091796875
-5525.03173828125,-11205.1943359375,6104.23388671875,8199.7685546875,14514.8447265625,14255.751953125,13519.107421875,12306.4853515625,12811.7607421875,9521.4287109375,16504.08984375,0.0,12256.2939453125,0.0,11516.3369140625,15627.0078125,25454.537109375,11790.943359375,7644.22802734375,5514.14111328125,3169.766357421875,14332.4619140625,12714.2236328125,9119.099609375,0.0,1718.426025390625,6440.64697265625,4178.86962890625,-1710.8680419921875,-7915.671875,12592.3564453125,2639.908447265625,8762.8603515625,13814.3154296875,9591.8125,15094.8955078125,4904.1376953125,9429.19140625,3387.6171875,-0.0,4298.2216796875,11555.587890625,6593.642578125,8418.8740234375,18905.103515625,6162.28662109375,-3880.8916015625,7007.6337890625,5535.0380859375,25308.013671875,5748.60693359375,11634.7373046875,-7731.36572265625,-11063.115234375,7233.92138671875,4044.048583984375,8733.9677734375,4305.0517578125,5978.9423828125,4408.4970703125,-411.0797424316406,8174.5859375,7909.06396484375,8136.0546875,-15230.7158203125,-0.0,0.0,8773.470703125,6571.798828125,-3986.44482421875,0.0,11767.634765625
-5532.896484375,-11210.9609375,6074.0986328125,8172.8623046875,14489.9248046875,14227.287109375,13496.4853515625,12280.2197265625,12790.69921875,9500.0283203125,16458.77734375,0.0,12238.50390625,0.0,11497.845703125,15597.939453125,25425.0625,11763.509765625,7618.19921875,5492.64794921875,3142.618408203125,14306.267578125,12687.98828125,9093.7587890625,0.0,1693.1629638671875,6420.80078125,4150.52001953125,-1740.6015625,-7945.8291015625,12565.40234375,2611.81103515625,8733.498046875,13785.4453125,9566.0927734375,15067.57421875,4880.1005859375,9403.7890625,3322.0224609375,-0.0,4271.08984375,11528.296875,6569.244140625,8391.6708984375,18882.275390625,6137.46875,-3928.582763671875,6980.2060546875,5511.244140625,25279.533203125,5728.6416015625,11604.875,-7772.70166015625,-11089.37890625,7217.49951171875,4008.864013671875,8718.9599609375,4278.51708984375,5956.73974609375,4382.67333984375,-433.9126281738281,8146.56982421875,7885.9140625,8113.85009765625,-15252.5263671875,-0.0,0.0,8749.51171875,6555.25732421875,-4015.1240234375,0.0,11741.0478515625
-5544.955078125,-11194.490234375,6059.3740234375,8162.04296875,14480.34375,14217.5615234375,13489.501953125,12265.875,12784.703125,9496.1005859375,16441.818359375,0.0,12225.572265625,0.0,11484.8095703125,15577.810546875,25415.59375,11753.5947265625,7607.30859375,5485.17431640625,3132.499755859375,14296.67578125,12679.0205078125,9083.4755859375,0.0,1685.555908203125,6410.23974609375,4134.8583984375,-1757.2193603515625,-7955.79248046875,12556.177734375,2603.082763671875,8721.9384765625,13775.1552734375,9557.9521484375,15057.01171875,4871.58984375,9393.5693359375,3304.083984375,-0.0,4260.01708984375,11519.80859375,6560.77490234375,8379.78125,18874.0703125,6127.80126953125,-3949.63330078125,6968.7216796875,5502.06396484375,25266.0703125,5718.8662109375,11583.8955078125,-7802.82666015625,-11089.3408203125,7192.658203125,4005.482421875,8708.6171875,4259.8232421875,5950.70947265625,4368.20263671875,-443.7096252441406,8137.15625,7876.17724609375,8108.8662109375,-15257.455078125,-0.0,0.0,8732.666015625,6552.99755859375,-4033.791259765625,0.0,11726.4140625
-5515.46484375,-11112.1474609375,6105.9765625,8208.9296875,14524.560546875,14268.572265625,13528.9853515625,12317.5849609375,12829.9296875,9549.4873046875,16492.75390625,0.0,12256.404296875,0.0,11514.8955078125,15637.2578125,25464.552734375,11800.80078125,7655.6015625,5534.90380859375,3177.647705078125,14344.3603515625,12725.7255859375,9130.1484375,0.0,1738.473388671875,6449.63330078125,4187.865234375,-1716.2415771484375,-7900.8173828125,12604.0712890625,2654.06005859375,8771.2607421875,13821.9609375,9603.017578125,15105.3544921875,4915.453125,9442.5830078125,3383.441162109375,-0.0,4304.65380859375,11570.123046875,6603.48095703125,8429.71484375,18918.35546875,6176.67822265625,-3888.315673828125,7015.28271484375,5544.587890625,25319.392578125,5757.8994140625,11637.2109375,-7764.26611328125,-11021.708984375,7243.4140625,4066.221923828125,8737.2578125,4312.37451171875,5992.50830078125,4421.19384765625,-403.60308837890625,8185.830078125,7922.5078125,8166.7744140625,-15211.455078125,-0.0,0.0,8793.4736328125,6591.44482421875,-3964.747802734375,0.0,11795.6064453125
-5519.79345703125,-11066.9013671875,6131.78271484375,8234.2578125,14548.1689453125,14296.1796875,13549.9482421875,12346.5419921875,12846.640625,9571.345703125,16521.197265625,0.0,12270.1015625,0.0,11527.787109375,15672.203125,25492.5546875,11826.607421875,7680.30810546875,5552.2900390625,3204.71142578125,14373.4560546875,12750.6669921875,9157.2744140625,0.0,1769.6744384765625,6467.125,4222.16455078125,-1694.55078125,-7863.36328125,12632.5634765625,2682.996337890625,8798.2998046875,13850.494140625,9628.6875,15132.5068359375,4938.1533203125,9468.826171875,3416.464599609375,-0.0,4328.90283203125,11597.3291015625,6624.29638671875,8458.9521484375,18939.001953125,6201.291015625,-3874.1279296875,7040.41064453125,5567.3779296875,25352.017578125,5776.18798828125,11668.6572265625,-7712.74609375,-10985.89453125,7273.45458984375,4105.828125,8750.91015625,4347.2265625,6005.2939453125,4454.6884765625,-373.93060302734375,8216.5947265625,7945.83447265625,8179.4296875,-15202.666015625,-0.0,0.0,8829.642578125,6595.27978515625,-3930.2626953125,0.0,11821.4365234375
-5551.689453125,-11087.271484375,6109.85693359375,8211.3203125,14525.9912109375,14273.3916015625,13531.580078125,12323.314453125,12824.767578125,9548.990234375,16497.7578125,0.0,12257.6220703125,0.0,11512.5732421875,15645.6376953125,25471.3984375,11806.021484375,7658.41015625,5528.0205078125,3184.357421875,14352.587890625,12729.47265625,9136.42578125,0.0,1744.127197265625,6449.162109375,4199.15966796875,-1712.517333984375,-7884.46630859375,12610.67578125,2659.015869140625,8775.1025390625,13828.7109375,9608.396484375,15110.58984375,4919.02001953125,9447.921875,3398.893310546875,-0.0,4305.591796875,11574.75,6603.84423828125,8436.849609375,18918.513671875,6180.68896484375,-3891.322021484375,7018.1005859375,5546.1669921875,25329.955078125,5756.0478515625,11646.1396484375,-7731.51708984375,-11010.966796875,7248.16845703125,4082.5791015625,8735.66015625,4326.0224609375,5984.40625,4438.16162109375,-392.9964904785156,8195.5791015625,7924.0322265625,8150.1474609375,-15238.0693359375,-0.0,0.0,8821.0888671875,6576.20166015625,-3946.049072265625,0.0,11794.453125
-5539.74609375,-11109.9619140625,6098.8857421875,8202.251953125,14516.08984375,14265.76953125,13521.6103515625,12317.419921875,12814.763671875,9545.216796875,16484.02734375,0.0,12263.1083984375,0.0,11508.1474609375,15647.275390625,25460.140625,11798.3154296875,7649.6435546875,5519.79345703125,3173.794677734375,14343.62890625,12721.3271484375,9127.09765625,0.0,1734.303955078125,6441.95849609375,4192.63037109375,-1714.13623046875,-7894.63134765625,12599.4208984375,2649.572021484375,8764.509765625,13819.4423828125,9598.2666015625,15100.642578125,4911.31884765625,9439.8828125,3383.79345703125,-0.0,4294.125,11565.9541015625,6594.95703125,8429.208984375,18910.18359375,6175.2880859375,-3888.5888671875,7010.55419921875,5536.9697265625,25323.359375,5748.12353515625,11643.34765625,-7743.8720703125,-11023.4599609375,7252.33837890625,4064.369873046875,8730.2490234375,4323.62109375,5975.29736328125,4439.6640625,-408.904541015625,8186.2060546875,7916.4580078125,8140.48095703125,-15243.3798828125,-0.0,0.0,8859.66796875,6567.19482421875,-3913.5166015625,0.0,11799.1689453125
-5568.7021484375,-11150.810546875,6064.5830078125,8168.796875,14484.40625,14231.4658203125,13490.033203125,12279.6591796875,12778.7998046875,9502.0693359375,16451.873046875,0.0,12239.021484375,0.0,11479.830078125,15602.1142578125,25427.79296875,11765.9794921875,7615.0009765625,5480.3740234375,3141.4013671875,14311.4013671875,12687.8818359375,9093.7431640625,0.0,1701.2030029296875,6412.05810546875,4153.931640625,-1736.1787109375,-7930.02197265625,12568.4560546875,2618.25927734375,8729.8125,13787.7373046875,9566.6953125,15067.314453125,4878.18701171875,9402.380859375,3323.191162109375,-0.0,4263.90478515625,11531.8369140625,6564.2509765625,8393.751953125,18876.537109375,6133.97509765625,-3937.65283203125,6977.99267578125,5508.3134765625,25285.28515625,5717.6826171875,11601.1015625,-7763.33154296875,-11054.52734375,7226.27783203125,4029.540283203125,8706.01171875,4283.65478515625,5945.15966796875,4391.94970703125,-441.1688537597656,8152.54833984375,7880.53125,8097.154296875,-15267.740234375,-0.0,0.0,8782.462890625,6534.08447265625,-3973.2177734375,0.0,11751.41796875
-5612.763671875,-11214.26953125,6010.72314453125,8102.1728515625,14429.953125,14164.275390625,13433.423828125,12209.7353515625,12718.2119140625,9424.87890625,16400.373046875,0.0,12185.701171875,0.0,11433.3515625,15519.7900390625,25368.853515625,11703.767578125,7551.68408203125,5411.89501953125,3083.2880859375,14247.958984375,12627.9794921875,9029.0654296875,0.0,1633.2886962890625,6362.603515625,4080.59814453125,-1777.502685546875,-7998.18994140625,12507.9130859375,2559.15673828125,8672.6748046875,13725.1220703125,9508.2998046875,15002.421875,4815.83984375,9335.5302734375,3258.070556640625,-0.0,4211.22607421875,11466.349609375,6508.857421875,8324.2763671875,18815.5078125,6061.4921875,-3983.968505859375,6911.12451171875,5459.2509765625,25215.01171875,5666.18896484375,11525.9951171875,-7830.23681640625,-11113.345703125,7169.09326171875,3962.163818359375,8661.57421875,4208.5166015625,5892.46533203125,4309.73828125,-495.0779724121094,8089.23388671875,7813.8671875,8023.86474609375,-15313.978515625,-0.0,0.0,8670.26953125,6488.8271484375,-4084.31982421875,0.0,11657.3203125
-5603.49853515625,-11235.8857421875,5998.16259765625,8087.23095703125,14419.248046875,14150.2001953125,13418.0224609375,12196.833984375,12700.17578125,9408.94921875,16390.9140625,0.0,12172.8046875,0.0,11421.8525390625,15512.0224609375,25353.76953125,11688.6064453125,7536.00341796875,5394.322265625,3070.150146484375,14232.365234375,12614.5546875,9013.5341796875,0.0,1618.650146484375,6348.68017578125,4068.503662109375,-1780.372314453125,-8016.8740234375,12492.8212890625,2545.92626953125,8661.658203125,13711.498046875,9494.033203125,14987.8017578125,4800.23388671875,9320.962890625,3263.763427734375,-0.0,4199.63037109375,11452.6962890625,6495.44482421875,8309.1455078125,18797.57421875,6048.08154296875,-3989.99365234375,6895.60498046875,5449.38232421875,25204.453125,5651.4677734375,11514.2568359375,-7841.53662109375,-11120.2333984375,7156.1259765625,3954.09619140625,8650.19140625,4199.9013671875,5875.50732421875,4299.9638671875,-505.8818054199219,8072.0361328125,7796.81005859375,8003.33056640625,-15324.77734375,-0.0,0.0,8676.5302734375,6464.58203125,-4083.0234375,0.0,11642.5458984375
-5601.72021484375,-11225.6474609375,6021.599609375,8114.19091796875,14438.7255859375,14168.7470703125,13435.8388671875,12210.4765625,12713.9326171875,9419.3271484375,16408.857421875,0.0,12195.5576171875,0.0,11438.59375,15518.7001953125,25373.349609375,11707.2763671875,7551.32275390625,5405.0478515625,3092.32666015625,14253.7314453125,12632.6533203125,9032.9580078125,0.0,1640.23828125,6365.84130859375,4084.44189453125,-1759.9208984375,-7997.12353515625,12514.0283203125,2562.99267578125,8682.3056640625,13733.5849609375,9514.0361328125,15008.4404296875,4816.35693359375,9337.126953125,3285.44970703125,-0.0,4221.56884765625,11475.6650390625,6514.0927734375,8326.6259765625,18812.2265625,6060.98876953125,-3961.992919921875,6922.1669921875,5467.63671875,25223.55078125,5666.978515625,11526.2265625,-7798.66455078125,-11100.2490234375,7186.779296875,3981.81884765625,8668.5849609375,4213.9267578125,5888.75048828125,4304.515625,-480.5370178222656,8088.931640625,7810.43359375,8015.43701171875,-15316.2314453125,-0.0,0.0,8650.79296875,6473.91650390625,-4098.765625,0.0,11648.7060546875
-5617.7880859375,-11238.6435546875,6026.521484375,8121.32470703125,14441.7314453125,14168.1298828125,13437.548828125,12208.8056640625,12709.7041015625,9411.2763671875,16402.0234375,0.0,12201.4384765625,0.0,11443.1494140625,15511.4736328125,25375.83984375,11707.95703125,7552.1396484375,5400.224609375,3095.33154296875,14256.8564453125,12632.572265625,9032.3193359375,0.0,1643.3590087890625,6368.22802734375,4082.80078125,-1766.8778076171875,-7991.5830078125,12516.2197265625,2563.05908203125,8684.875,13735.6328125,9514.9306640625,15009.7685546875,4814.6103515625,9335.98046875,3294.72265625,-0.0,4225.677734375,11479.490234375,6515.0224609375,8325.6455078125,18809.1953125,6056.86669921875,-3950.7998046875,6928.96533203125,5469.06640625,25222.515625,5667.98779296875,11523.6796875,-7806.2119140625,-11106.4921875,7192.83544921875,3979.675537109375,8671.75,4209.5947265625,5886.705078125,4293.9775390625,-473.1051940917969,8088.2421875,7808.15234375,8010.09521484375,-15313.8349609375,-0.0,0.0,8645.7451171875,6478.35595703125,-4124.626953125,0.0,11632.7255859375
-5632.73876953125,-11281.89453125,6008.65478515625,8118.4990234375,14428.087890625,14161.4296875,13424.03515625,12204.0556640625,12697.216796875,9409.5888671875,16388.349609375,0.0,12186.8583984375,0.0,11431.90625,15520.8828125,25365.89453125,11697.60546875,7542.107421875,5392.72314453125,3080.280517578125,14247.115234375,12620.1865234375,9022.9267578125,0.0,1637.38671875,6354.68701171875,4079.329833984375,-1792.5672607421875,-8007.9111328125,12502.615234375,2548.523193359375,8672.4267578125,13725.74609375,9502.6005859375,15000.6650390625,4803.90087890625,9328.2294921875,3287.259521484375,-0.0,4212.72607421875,11472.255859375,6502.1806640625,8319.8125,18797.48046875,6053.2353515625,-3978.908935546875,6925.2412109375,5455.25244140625,25215.283203125,5655.68212890625,11525.0009765625,-7846.94287109375,-11132.216796875,7168.3271484375,3967.10595703125,8657.4326171875,4206.53515625,5871.73388671875,4300.138671875,-497.7934265136719,8078.107421875,7797.96142578125,8005.34423828125,-15330.7705078125,-0.0,0.0,8683.0751953125,6464.20947265625,-4093.231201171875,0.0,11640.9638671875
-5633.8037109375,-11294.3798828125,6006.0859375,8119.5498046875,14425.9892578125,14158.6328125,13420.7607421875,12199.6435546875,12695.9462890625,9404.3115234375,16394.341796875,0.0,12179.2314453125,0.0,11429.5126953125,15513.16796875,25363.515625,11696.5791015625,7537.8779296875,5389.61083984375,3076.812744140625,14245.041015625,12617.9111328125,9020.8515625,0.0,1635.6632080078125,6353.392578125,4075.326416015625,-1795.464599609375,-8008.66650390625,12501.9580078125,2544.62646484375,8669.9658203125,13725.2919921875,9502.052734375,14998.1513671875,4799.37353515625,9325.2724609375,3276.678466796875,-0.0,4211.10888671875,11470.216796875,6500.322265625,8317.197265625,18795.61328125,6051.25732421875,-3996.230224609375,6926.69189453125,5452.7109375,25211.787109375,5654.763671875,11519.8828125,-7853.60205078125,-11141.880859375,7157.81201171875,3963.964111328125,8658.244140625,4195.24462890625,5870.10107421875,4293.26025390625,-518.8229370117188,8075.95361328125,7794.546875,8007.9306640625,-15330.19921875,-0.0,0.0,8649.6201171875,6466.20947265625,-4116.5361328125,0.0,11634.3515625
-5615.951171875,-11251.6943359375,6024.01123046875,8137.3564453125,14446.8857421875,14184.71484375,13444.4365234375,12232.796875,12727.2216796875,9440.1416015625,16413.455078125,0.0,12192.083984375,0.0,11454.7392578125,15545.58984375,25385.990234375,11720.908203125,7567.09033203125,5424.154296875,3099.515869140625,14270.166015625,12642.5712890625,9048.39453125,0.0,1660.6434326171875,6375.61572265625,4106.78759765625,-1777.14501953125,-7977.494140625,12527.16796875,2572.78369140625,8689.884765625,13746.7568359375,9525.7685546875,15024.388671875,4825.45166015625,9355.111328125,3296.245849609375,-0.0,4228.6064453125,11492.7314453125,6523.54638671875,8347.0400390625,18822.419921875,6082.6572265625,-3968.7001953125,6945.568359375,5469.7900390625,25241.5390625,5678.63671875,11553.3623046875,-7835.21875,-11113.2919921875,7171.70751953125,3992.301025390625,8681.5810546875,4226.51611328125,5894.84912109375,4326.68310546875,-488.8023376464844,8100.84228515625,7825.763671875,8047.615234375,-15306.7236328125,-0.0,0.0,8693.23828125,6495.2041015625,-4075.839599609375,0.0,11674.931640625
-5592.61669921875,-11190.4140625,6053.90283203125,8174.14013671875,14478.8349609375,14227.3388671875,13478.7294921875,12280.13671875,12768.091796875,9488.4365234375,16439.744140625,0.0,12205.0224609375,0.0,11480.0478515625,15603.783203125,25424.283203125,11757.3115234375,7606.455078125,5468.7431640625,3133.552734375,14308.1904296875,12679.423828125,9091.30859375,0.0,1698.5478515625,6402.92138671875,4155.39990234375,-1766.1319580078125,-7939.6328125,12563.611328125,2614.4404296875,8724.3349609375,13785.3642578125,9561.416015625,15062.8671875,4865.0283203125,9398.1962890625,3324.22900390625,-0.0,4257.64501953125,11531.2451171875,6554.67578125,8391.7802734375,18860.66015625,6128.33447265625,-3938.050048828125,6981.26708984375,5493.60400390625,25286.45703125,5708.49365234375,11605.4755859375,-7795.83837890625,-11073.966796875,7190.21142578125,4037.359375,8699.5048828125,4280.169921875,5927.96240234375,4375.8681640625,-444.43634033203125,8139.7705078125,7867.7451171875,8095.865234375,-15291.9384765625,-0.0,0.0,8765.056640625,6526.6630859375,-4001.476806640625,0.0,11733.35546875
-5610.0205078125,-11161.568359375,6044.49462890625,8164.56298828125,14470.7783203125,14226.29296875,13471.59765625,12282.2578125,12767.60546875,9481.990234375,16428.0703125,0.0,12195.2490234375,0.0,11467.123046875,15613.181640625,25415.755859375,11753.45703125,7603.07373046875,5467.2138671875,3125.175048828125,14301.625,12672.890625,9088.22265625,0.0,1696.3316650390625,6392.6015625,4159.39208984375,-1772.45751953125,-7938.99853515625,12557.33984375,2604.33837890625,8715.61328125,13776.546875,9555.0009765625,15058.6767578125,4861.13720703125,9397.5546875,3315.479248046875,-0.0,4246.486328125,11524.5771484375,6547.001953125,8390.5390625,18858.646484375,6128.41650390625,-3957.087646484375,6971.96484375,5482.478515625,25286.083984375,5700.734375,11611.8271484375,-7796.0322265625,-11068.1201171875,7179.7431640625,4037.202880859375,8690.4482421875,4286.49267578125,5930.90673828125,4378.2705078125,-456.7575988769531,8135.0234375,7866.45361328125,8093.171875,-15302.3505859375,-0.0,0.0,8765.470703125,6525.56103515625,-4003.186767578125,0.0,11732.658203125
-5622.86962890625,-11168.365234375,6026.55078125,8130.59716796875,14449.8759765625,14206.666015625,13451.6552734375,12270.130859375,12748.849609375,9468.3466796875,16400.5390625,0.0,12187.19921875,0.0,11450.3505859375,15613.7158203125,25387.330078125,11731.9580078125,7585.814453125,5451.59326171875,3101.7041015625,14277.041015625,12652.5458984375,9069.001953125,0.0,1672.525634765625,6376.2900390625,4149.20458984375,-1784.60595703125,-7966.54443359375,12533.1103515625,2571.575439453125,8690.52734375,13746.3369140625,9532.0419921875,15036.2060546875,4843.189453125,9381.1884765625,3284.27587890625,-0.0,4226.0458984375,11498.646484375,6528.7080078125,8372.8310546875,18842.36328125,6115.6298828125,-3964.6318359375,6939.765625,5465.31103515625,25264.525390625,5683.65087890625,11608.2744140625,-7824.71826171875,-11083.6015625,7171.01806640625,4012.228515625,8679.478515625,4280.1044921875,5916.10302734375,4374.83740234375,-488.16595458984375,8114.759765625,7852.29150390625,8074.6083984375,-15317.93359375,-0.0,0.0,8787.419921875,6507.69580078125,-3983.759765625,0.0,11726.4755859375
-5616.0205078125,-11183.7373046875,6020.5400390625,8123.85693359375,14445.451171875,14198.5703125,13449.3466796875,12264.685546875,12738.9541015625,9459.140625,16397.974609375,0.0,12185.3291015625,0.0,11444.240234375,15605.072265625,25380.220703125,11724.7001953125,7579.84228515625,5444.93017578125,3096.0068359375,14269.068359375,12646.8232421875,9062.5087890625,0.0,1663.794189453125,6372.6455078125,4141.83251953125,-1790.484375,-7975.00927734375,12525.923828125,2564.59619140625,8685.326171875,13738.748046875,9527.2294921875,15028.353515625,4838.4384765625,9374.982421875,3281.69775390625,-0.0,4220.955078125,11491.888671875,6523.87548828125,8366.07421875,18838.564453125,6111.6259765625,-3970.46044921875,6931.1484375,5461.50830078125,25255.61328125,5680.84814453125,11605.6884765625,-7827.693359375,-11088.4365234375,7168.7841796875,4000.291748046875,8676.2255859375,4271.56787109375,5916.0419921875,4368.60888671875,-488.5168151855469,8109.02734375,7847.3037109375,8066.82666015625,-15321.5556640625,-0.0,0.0,8761.08984375,6496.24609375,-3993.567138671875,0.0,11716.943359375
-5597.88134765625,-11174.8466796875,6016.33984375,8121.6533203125,14442.8837890625,14189.50390625,13443.3681640625,12245.828125,12722.5576171875,9429.365234375,16405.853515625,0.0,12187.5439453125,0.0,11436.43359375,15565.40625,25378.783203125,11719.783203125,7568.82568359375,5422.67578125,3092.352783203125,14264.095703125,12641.302734375,9050.8916015625,0.0,1660.6881103515625,6369.50830078125,4120.3662109375,-1786.0645751953125,-7980.09716796875,12523.349609375,2563.53564453125,8685.3515625,13736.8076171875,9523.4833984375,15022.453125,4832.7890625,9362.87109375,3297.95361328125,-0.0,4219.22607421875,11487.171875,6520.64697265625,8352.78125,18829.30859375,6092.14111328125,-3971.520263671875,6929.25927734375,5460.484375,25244.86328125,5675.59033203125,11580.0390625,-7832.767578125,-11086.880859375,7168.73974609375,3989.874755859375,8676.1494140625,4247.7021484375,5909.5322265625,4336.99169921875,-477.3580017089844,8102.16455078125,7831.56982421875,8033.201171875,-15320.314453125,-0.0,0.0,8697.0400390625,6484.740234375,-4069.196044921875,0.0,11657.029296875
-5567.63134765625,-11144.94921875,6034.38671875,8139.79736328125,14461.7041015625,14205.0712890625,13461.2705078125,12255.779296875,12741.7958984375,9451.8388671875,16408.541015625,0.0,12206.5771484375,0.0,11455.140625,15559.3642578125,25399.263671875,11737.3837890625,7585.7841796875,5443.47021484375,3111.09326171875,14282.9853515625,12659.8671875,9066.697265625,0.0,1679.20263671875,6387.818359375,4127.5537109375,-1771.933349609375,-7963.33251953125,12542.802734375,2583.898681640625,8701.6748046875,13756.5126953125,9541.984375,15039.3056640625,4851.90625,9377.0322265625,3304.7314453125,-0.0,4239.4375,11507.2451171875,6540.13525390625,8365.359375,18848.142578125,6104.43896484375,-3951.74658203125,6947.24658203125,5477.99658203125,25259.041015625,5692.74560546875,11579.81640625,-7814.51171875,-11062.7958984375,7187.5048828125,4009.56591796875,8694.96875,4256.0888671875,5919.158203125,4347.71337890625,-450.6208190917969,8119.345703125,7848.828125,8055.8115234375,-15306.0341796875,-0.0,0.0,8708.474609375,6506.62158203125,-4066.1845703125,0.0,11672.5234375
-5539.20751953125,-11121.5830078125,6061.44775390625,8180.30078125,14492.4375,14238.9833984375,13496.2158203125,12289.6142578125,12787.498046875,9506.8388671875,16433.29296875,0.0,12231.140625,0.0,11488.6953125,15586.8203125,25433.119140625,11771.68359375,7623.658203125,5493.14404296875,3144.79052734375,14319.01171875,12693.3662109375,9101.5791015625,0.0,1715.54736328125,6418.3876953125,4157.0361328125,-1750.2333984375,-7923.04150390625,12577.5634765625,2622.37060546875,8733.498046875,13793.009765625,9574.9775390625,15073.9111328125,4885.8359375,9412.044921875,3326.576416015625,-0.0,4269.0283203125,11544.57421875,6572.18212890625,8399.1376953125,18884.908203125,6142.64453125,-3936.10205078125,6986.791015625,5506.0107421875,25293.146484375,5725.6796875,11605.4755859375,-7777.970703125,-11032.5322265625,7211.8017578125,4051.1279296875,8723.466796875,4289.18212890625,5953.63232421875,4389.806640625,-410.55792236328125,8155.69873046875,7889.95068359375,8120.3916015625,-15279.904296875,-0.0,0.0,8746.6982421875,6547.96728515625,-4013.09375,0.0,11745.3779296875
-5495.34619140625,-11080.82421875,6111.6220703125,8234.47265625,14541.8828125,14293.1494140625,13544.66796875,12345.92578125,12848.0703125,9579.2353515625,16485.66796875,0.0,12267.5390625,0.0,11526.298828125,15657.7060546875,25482.837890625,11823.5322265625,7677.994140625,5554.86474609375,3192.969970703125,14370.56640625,12745.2734375,9156.0673828125,0.0,1770.7130126953125,6464.20458984375,4215.7470703125,-1710.6920166015625,-7863.86328125,12630.0966796875,2666.541259765625,8783.48828125,13844.5986328125,9624.326171875,15125.97265625,4938.23388671875,9467.814453125,3382.41943359375,-0.0,4316.7529296875,11595.4921875,6620.109375,8452.388671875,18938.9375,6203.60107421875,-3902.68212890625,7043.13720703125,5553.0322265625,25348.337890625,5773.39794921875,11663.6962890625,-7734.3447265625,-10984.9794921875,7252.7392578125,4107.03173828125,8761.859375,4350.2177734375,6006.763671875,4456.791015625,-388.8252258300781,8210.1279296875,7946.8115234375,8193.42578125,-15236.3857421875,-0.0,0.0,8842.09765625,6599.6826171875,-3913.694091796875,0.0,11835.955078125
-5485.6318359375,-11096.904296875,6124.16796875,8247.05859375,14553.0517578125,14309.2744140625,13554.951171875,12365.337890625,12862.4453125,9601.88671875,16498.4765625,0.0,12269.689453125,0.0,11527.513671875,15693.06640625,25492.041015625,11835.5986328125,7691.73974609375,5572.6826171875,3203.93798828125,14382.1396484375,12756.919921875,9170.6796875,0.0,1785.45849609375,6470.8544921875,4239.54736328125,-1702.0408935546875,-7845.4462890625,12644.974609375,2669.406005859375,8792.9951171875,13853.318359375,9637.34765625,15139.091796875,4951.21337890625,9483.8779296875,3388.0595703125,-0.0,4325.38720703125,11608.740234375,6630.44873046875,8468.25,18952.31640625,6222.12451171875,-3887.948486328125,7056.23681640625,5562.16357421875,25367.537109375,5781.51904296875,11689.255859375,-7722.97216796875,-10983.2041015625,7260.57177734375,4122.59228515625,8762.8515625,4376.07763671875,6015.3427734375,4479.3662109375,-393.5819396972656,8223.7080078125,7961.505859375,8213.7939453125,-15232.203125,-0.0,0.0,8903.5341796875,6606.7197265625,-3857.74365234375,0.0,11872.716796875
-5512.48486328125,-11143.4345703125,6107.44140625,8224.56640625,14530.1748046875,14280.4052734375,13529.9111328125,12330.865234375,12827.8916015625,9549.1044921875,16489.126953125,0.0,12247.1943359375,0.0,11505.2841796875,15652.310546875,25467.21875,11810.6240234375,7662.515625,5529.2685546875,3183.52490234375,14356.4013671875,12731.4111328125,9142.6259765625,0.0,1759.4788818359375,6446.81298828125,4206.9140625,-1714.3016357421875,-7871.06982421875,12625.7470703125,2646.54931640625,8772.4375,13830.1513671875,9615.1796875,15113.208984375,4923.30078125,9452.3798828125,3355.324951171875,-0.0,4305.71533203125,11584.0576171875,6607.5,8439.154296875,18921.830078125,6182.55810546875,-3890.005126953125,7032.85693359375,5538.48388671875,25338.728515625,5755.8916015625,11652.1123046875,-7741.0947265625,-11018.9189453125,7241.8701171875,4096.1171875,8741.2451171875,4339.60498046875,5988.2470703125,4427.7333984375,-411.9588928222656,8195.15625,7926.95947265625,8160.07421875,-15259.3974609375,-0.0,0.0,8828.693359375,6580.81591796875,-3936.7158203125,0.0,11800.9716796875
-5554.56005859375,-11140.29296875,6087.6220703125,8198.93359375,14507.75,14251.7998046875,13506.578125,12298.09765625,12800.69140625,9501.005859375,16467.015625,0.0,12232.55078125,0.0,11492.25,15609.810546875,25444.521484375,11785.1181640625,7633.55615234375,5490.9814453125,3161.9150390625,14330.7421875,12707.03515625,9114.455078125,0.0,1732.9285888671875,6428.693359375,4173.82666015625,-1734.47216796875,-7898.8466796875,12604.8046875,2622.95361328125,8750.095703125,13807.09375,9591.6142578125,15085.2607421875,4898.6875,9422.0205078125,3344.321044921875,-0.0,4284.9453125,11557.939453125,6585.255859375,8409.0927734375,18897.255859375,6145.0322265625,-3908.797607421875,7006.4833984375,5517.36376953125,25307.50390625,5736.89501953125,11615.841796875,-7776.5,-11030.59375,7222.30810546875,4066.281494140625,8728.7421875,4300.45849609375,5969.69921875,4374.24560546875,-436.9940185546875,8169.11279296875,7895.1455078125,8113.32763671875,-15279.9580078125,-0.0,0.0,8745.669921875,6571.87353515625,-4026.989501953125,0.0,11729.984375
-5602.685546875,-11169.865234375,6047.0478515625,8153.97802734375,14468.2177734375,14206.7412109375,13464.615234375,12252.1337890625,12755.1796875,9449.7568359375,16423.623046875,0.0,12204.8408203125,0.0,11459.9990234375,15561.44140625,25401.9375,11741.5,7589.4169921875,5442.828125,3119.7138671875,14286.8779296875,12664.9111328125,9069.2001953125,0.0,1686.2740478515625,6393.615234375,4127.08544921875,-1772.543212890625,-7946.556640625,12563.513671875,2579.49169921875,8707.9677734375,13762.6884765625,9548.791015625,15041.140625,4856.2080078125,9377.1767578125,3310.9423828125,-0.0,4245.94384765625,11513.9892578125,6547.09521484375,8365.1767578125,18855.3046875,6097.21533203125,-3942.802001953125,6960.21533203125,5482.25,25261.6015625,5697.97119140625,11568.564453125,-7834.3544921875,-11063.103515625,7181.69921875,4020.52197265625,8703.39453125,4254.85205078125,5926.4775390625,4327.078125,-473.04193115234375,8125.52490234375,7850.10107421875,8059.09912109375,-15315.7333984375,-0.0,0.0,8709.1220703125,6529.1875,-4080.47119140625,0.0,11672.2548828125
-5650.89013671875,-11236.916015625,5993.93505859375,8094.853515625,14416.185546875,14148.654296875,13416.125,12196.615234375,12701.4716796875,9404.482421875,16378.2744140625,0.0,12175.2353515625,0.0,11421.0703125,15506.5498046875,25346.798828125,11687.390625,7534.958984375,5390.83837890625,3065.515625,14231.72265625,12610.9609375,9014.3681640625,0.0,1625.4124755859375,6350.43603515625,4070.404052734375,-1807.170654296875,-8009.318359375,12507.8046875,2522.521728515625,8652.677734375,13705.498046875,9495.9912109375,14986.7216796875,4803.64599609375,9322.3740234375,3263.792724609375,-0.0,4195.95166015625,11454.98046875,6496.84521484375,8309.140625,18801.318359375,6047.73828125,-3990.52392578125,6903.310546875,5438.87890625,25203.126953125,5650.81396484375,11512.00390625,-7878.57177734375,-11110.6748046875,7138.984375,3961.090576171875,8679.6865234375,4196.8583984375,5876.7978515625,4290.75048828125,-536.4150390625,8071.6552734375,7797.7177734375,8006.95361328125,-15360.865234375,-0.0,0.0,8671.4453125,6470.34033203125,-4106.5810546875,0.0,11635.94140625
-5671.66552734375,-11230.8056640625,5992.275390625,8086.63671875,14414.78125,14143.8388671875,13417.921875,12193.720703125,12699.69921875,9412.0654296875,16371.1083984375,0.0,12182.8779296875,0.0,11428.7041015625,15503.6455078125,25343.564453125,11684.3623046875,7532.333984375,5392.91943359375,3063.155029296875,14227.396484375,12610.1005859375,9010.7958984375,0.0,1618.19140625,6353.92626953125,4064.561767578125,-1800.990966796875,-8020.08984375,12503.2705078125,2518.136474609375,8650.1474609375,13700.0576171875,9494.5888671875,14983.0947265625,4801.759765625,9319.9560546875,3275.214599609375,-0.0,4192.2578125,11448.896484375,6496.5791015625,8305.0673828125,18799.900390625,6050.99951171875,-3994.50439453125,6896.61328125,5442.1484375,25197.53125,5657.04931640625,11509.421875,-7857.73974609375,-11106.8916015625,7136.40576171875,3954.305419921875,8689.884765625,4189.77099609375,5884.1240234375,4304.80078125,-543.164794921875,8070.3095703125,7798.38232421875,8012.6103515625,-15354.6904296875,-0.0,0.0,8681.0087890625,6465.78857421875,-4078.7919921875,0.0,11657.1611328125
-5632.265625,-11211.8642578125,6018.30859375,8114.00634765625,14439.4677734375,14167.9443359375,13438.6884765625,12213.634765625,12713.69921875,9425.064453125,16385.38671875,0.0,12194.44140625,0.0,11441.681640625,15519.2724609375,25370.1015625,11708.869140625,7553.8193359375,5408.837890625,3088.890625,14251.8974609375,12634.189453125,9034.6611328125,0.0,1644.7313232421875,6371.93115234375,4084.141845703125,-1780.1417236328125,-7991.267578125,12530.4453125,2547.556640625,8678.3408203125,13725.7978515625,9519.5712890625,15008.388671875,4824.0205078125,9341.314453125,3290.526123046875,-0.0,4218.2880859375,11475.0234375,6518.7587890625,8326.271484375,18818.87109375,6068.63232421875,-3982.798583984375,6922.609375,5463.13720703125,25221.109375,5676.7265625,11527.1875,-7829.03955078125,-11086.5263671875,7161.13134765625,3978.125732421875,8696.4169921875,4205.13623046875,5902.9345703125,4318.9130859375,-504.4727478027344,8094.16748046875,7816.822265625,8027.42236328125,-15327.990234375,-0.0,0.0,8690.5146484375,6475.22021484375,-4074.7216796875,0.0,11665.9931640625
-5629.22265625,-11225.8251953125,6004.541015625,8107.09228515625,14425.3359375,14159.6318359375,13424.259765625,12201.08984375,12698.833984375,9406.11328125,16378.724609375,0.0,12171.3505859375,0.0,11427.068359375,15503.6396484375,25360.6875,11700.0966796875,7541.3193359375,5393.18505859375,3077.86962890625,14242.3134765625,12619.759765625,9023.1748046875,0.0,1638.88818359375,6356.8251953125,4074.349609375,-1798.1055908203125,-7998.439453125,12521.7978515625,2541.2294921875,8667.5029296875,13716.5654296875,9508.28515625,14998.6123046875,4811.36328125,9328.890625,3263.96435546875,-0.0,4205.17626953125,11466.7734375,6503.50439453125,8316.15625,18803.59375,6052.2314453125,-4008.06396484375,6913.9833984375,5444.8544921875,25211.119140625,5662.52783203125,11513.9892578125,-7848.75537109375,-11105.19140625,7155.232421875,3966.523681640625,8672.078125,4189.56787109375,5885.228515625,4294.25146484375,-498.50811767578125,8082.88427734375,7802.43505859375,8013.779296875,-15345.048828125,-0.0,0.0,8652.869140625,6470.98291015625,-4114.83203125,0.0,11637.3134765625
-5645.57958984375,-11212.1982421875,6001.22021484375,8105.80126953125,14423.068359375,14160.576171875,13421.94921875,12206.16015625,12705.72265625,9414.9267578125,16381.140625,0.0,12170.1171875,0.0,11431.1123046875,15517.3515625,25357.763671875,11700.28515625,7543.52880859375,5400.82763671875,3075.024658203125,14240.296875,12618.94140625,9022.966796875,0.0,1638.738037109375,6356.68310546875,4078.69970703125,-1804.5172119140625,-7998.9794921875,12519.595703125,2540.86474609375,8664.5205078125,13715.0185546875,9505.18359375,14996.9423828125,4810.1123046875,9332.677734375,3262.224365234375,-0.0,4201.2373046875,11466.2578125,6502.6474609375,8319.361328125,18804.939453125,6058.08642578125,-4007.533203125,6910.7998046875,5441.9208984375,25212.146484375,5664.92236328125,11521.9052734375,-7856.57861328125,-11107.67578125,7150.6533203125,3966.145263671875,8670.80078125,4200.31689453125,5880.6884765625,4305.158203125,-499.31561279296875,8080.5439453125,7805.98681640625,8024.892578125,-15347.4501953125,-0.0,0.0,8674.513671875,6482.34521484375,-4089.6142578125,0.0,11651.3154296875
-5572.84033203125,-11146.1416015625,6052.1748046875,8164.77001953125,14477.9951171875,14222.1748046875,13475.5126953125,12275.4111328125,12772.5859375,9487.69921875,16438.8828125,0.0,12218.3720703125,0.0,11477.7783203125,15594.0263671875,25413.869140625,11757.6279296875,7605.15771484375,5471.3076171875,3129.30029296875,14299.5322265625,12677.7802734375,9084.8779296875,0.0,1698.782958984375,6407.33740234375,4148.21728515625,-1765.5081787109375,-7934.94677734375,12577.705078125,2599.627197265625,8719.3388671875,13773.2060546875,9560.65625,15056.3125,4869.2783203125,9396.0625,3318.6640625,-0.0,4254.806640625,11524.59765625,6556.40380859375,8383.705078125,18864.68359375,6127.28125,-3949.687255859375,6971.5986328125,5491.4375,25275.6328125,5715.4189453125,11596.2119140625,-7808.525390625,-11042.767578125,7194.70166015625,4034.203125,8714.5029296875,4279.37451171875,5929.5185546875,4378.5830078125,-453.3263244628906,8138.73095703125,7869.95166015625,8100.99462890625,-15292.3212890625,-0.0,0.0,8759.5439453125,6542.08447265625,-4003.800048828125,0.0,11733.31640625
-5554.4326171875,-11111.0908203125,6078.88671875,8200.748046875,14505.5224609375,14257.7587890625,13502.390625,12309.6162109375,12805.224609375,9522.564453125,16468.57421875,0.0,12234.5673828125,0.0,11494.6982421875,15626.05078125,25447.2734375,11790.00390625,7636.73388671875,5504.8212890625,3157.937255859375,14334.2783203125,12706.9345703125,9117.55078125,0.0,1734.4884033203125,6429.86474609375,4184.853515625,-1745.53662109375,-7901.34375,12607.9990234375,2633.75341796875,8748.75,13807.5634765625,9589.4052734375,15090.814453125,4900.4970703125,9428.69140625,3346.892578125,-0.0,4281.728515625,11559.890625,6580.875,8420.6005859375,18893.216796875,6162.05078125,-3913.62841796875,7007.98193359375,5516.314453125,25312.353515625,5735.34326171875,11632.15234375,-7773.341796875,-11006.7431640625,7215.02734375,4077.947265625,8735.0654296875,4320.66357421875,5955.68896484375,4416.69189453125,-433.6820068359375,8169.1015625,7902.6806640625,8137.58935546875,-15270.0771484375,-0.0,0.0,8790.248046875,6573.5634765625,-3971.78955078125,0.0,11769.583984375
-5585.2060546875,-11123.5576171875,6069.1171875,8189.224609375,14493.1220703125,14244.7724609375,13485.9482421875,12295.232421875,12787.8232421875,9505.908203125,16441.75,0.0,12218.6103515625,0.0,11477.2021484375,15609.01171875,25436.201171875,11775.2138671875,7621.81689453125,5486.208984375,3146.64990234375,14320.91015625,12691.291015625,9102.79296875,0.0,1721.3553466796875,6412.2939453125,4169.1259765625,-1751.86962890625,-7912.6005859375,12594.9248046875,2624.17724609375,8738.8369140625,13797.1259765625,9575.69921875,15077.3525390625,4887.89111328125,9413.4130859375,3334.9521484375,-0.0,4271.88330078125,11548.3525390625,6566.751953125,8405.037109375,18877.486328125,6147.578125,-3940.851806640625,6996.81005859375,5502.54541015625,25300.03125,5717.29833984375,11615.775390625,-7772.92333984375,-11017.6279296875,7198.7802734375,4067.447998046875,8724.5576171875,4308.451171875,5947.1630859375,4405.40087890625,-457.3265686035156,8154.3642578125,7885.4140625,8117.13916015625,-15293.4443359375,-0.0,0.0,8775.6298828125,6555.1025390625,-3988.701416015625,0.0,11750.47265625
-5563.70263671875,-11138.6337890625,6060.27880859375,8178.0712890625,14482.54296875,14233.66796875,13472.876953125,12287.5810546875,12772.1943359375,9496.0595703125,16419.833984375,0.0,12201.9853515625,0.0,11465.443359375,15605.146484375,25424.0,11762.740234375,7611.421875,5474.0380859375,3134.8994140625,14308.9130859375,12680.416015625,9091.9560546875,0.0,1710.9071044921875,6399.302734375,4159.927734375,-1767.0850830078125,-7918.43310546875,12583.638671875,2613.779052734375,8727.654296875,13785.703125,9564.818359375,15066.0654296875,4875.7724609375,9402.8408203125,3326.212890625,-0.0,4262.9267578125,11537.4111328125,6554.97314453125,8393.94921875,18866.177734375,6137.44775390625,-3958.9228515625,6986.01513671875,5487.7275390625,25289.1015625,5704.31884765625,11609.2255859375,-7795.82861328125,-11042.4990234375,7175.259765625,4056.69482421875,8711.6240234375,4297.986328125,5936.14794921875,4398.43408203125,-471.3426513671875,8142.3681640625,7874.099609375,8103.17431640625,-15309.501953125,-0.0,0.0,8787.181640625,6537.42724609375,-3984.04296875,0.0,11742.1025390625
-5594.67919921875,-11199.3515625,6014.7255859375,8129.6220703125,14434.6689453125,14181.515625,13425.27734375,12234.373046875,12720.05859375,9441.7001953125,16374.9814453125,0.0,12156.8818359375,0.0,11423.59765625,15552.9814453125,25373.701171875,11714.55859375,7560.796875,5420.84765625,3087.024169921875,14259.5361328125,12631.0654296875,9041.5654296875,0.0,1659.4930419921875,6355.353515625,4107.02734375,-1817.0330810546875,-7969.26416015625,12534.41796875,2559.427734375,8679.2314453125,13734.6337890625,9515.9052734375,15015.349609375,4825.2548828125,9352.673828125,3280.942626953125,-0.0,4215.7880859375,11486.4306640625,6507.06640625,8342.4990234375,18814.70703125,6082.8505859375,-4001.45263671875,6937.47509765625,5444.46826171875,25236.98046875,5659.0859375,11556.0234375,-7858.7626953125,-11105.341796875,7136.54541015625,4002.4052734375,8672.1689453125,4238.72900390625,5888.015625,4341.0107421875,-505.9718933105469,8093.083984375,7823.56591796875,8044.56787109375,-15350.677734375,-0.0,0.0,8730.5712890625,6488.2880859375,-4039.243408203125,0.0,11682.0419921875
-5657.12109375,-11244.947265625,5969.6640625,8079.46826171875,14389.5400390625,14130.9208984375,13381.2646484375,12183.662109375,12669.611328125,9390.9306640625,16335.548828125,0.0,12128.787109375,0.0,11389.1669921875,15503.353515625,25325.201171875,11666.5400390625,7512.302734375,5369.662109375,3040.627685546875,14209.1416015625,12583.5283203125,8991.5517578125,0.0,1610.7601318359375,6316.05322265625,4056.158447265625,-1853.735107421875,-8020.74365234375,12486.552734375,2511.46875,8632.1884765625,13685.244140625,9469.9990234375,14965.8427734375,4778.55322265625,9303.099609375,3220.881591796875,-0.0,4166.9287109375,11436.572265625,6464.60205078125,8290.9326171875,18767.162109375,6031.50390625,-4031.292236328125,6886.4365234375,5403.35546875,25186.5078125,5618.58544921875,11504.8349609375,-7905.12109375,-11149.955078125,7109.02490234375,3945.858154296875,8641.7568359375,4188.3818359375,5843.88134765625,4289.970703125,-540.0297241210938,8046.9921875,7773.9453125,7988.9326171875,-15389.7626953125,-0.0,-0.0,8684.2314453125,6447.10791015625,-4086.045654296875,0.0,11626.04296875
-5716.16796875,-11273.595703125,5942.05126953125,8048.18212890625,14364.322265625,14101.390625,13358.9345703125,12154.5703125,12644.04296875,9363.0625,16314.4248046875,0.0,12126.3740234375,0.0,11373.80078125,15468.58984375,25298.98046875,11639.2041015625,7484.46826171875,5344.9033203125,3013.42138671875,14181.7060546875,12559.29296875,8961.94921875,0.0,1583.6435546875,6296.4130859375,4025.975341796875,-1866.0179443359375,-8053.962890625,12458.2724609375,2485.9228515625,8604.4345703125,13658.689453125,9443.9404296875,14937.4326171875,4750.83251953125,9275.666015625,3196.624267578125,-0.0,4139.51123046875,11408.9541015625,6441.5556640625,8262.02734375,18744.056640625,6003.7265625,-4044.660400390625,6855.59423828125,5380.22314453125,25157.888671875,5598.93798828125,11473.9423828125,-7926.8515625,-11173.591796875,7089.01953125,3920.166748046875,8630.9072265625,4154.76123046875,5817.89111328125,4258.8759765625,-566.2067260742188,8020.6923828125,7748.189453125,7963.822265625,-15406.40234375,-0.0,-0.0,8644.671875,6434.1962890625,-4120.716796875,0.0,11592.7939453125
-5715.890625,-11248.1669921875,5963.35888671875,8070.5302734375,14385.7548828125,14124.5498046875,13380.9814453125,12177.4501953125,12672.8203125,9385.19140625,16336.2509765625,0.0,12155.623046875,0.0,11397.6767578125,15486.6513671875,25321.69140625,11660.818359375,7507.740234375,5373.6142578125,3036.39501953125,14206.083984375,12581.90234375,8985.626953125,0.0,1608.06396484375,6318.4990234375,4050.03173828125,-1834.6761474609375,-8031.228515625,12481.8623046875,2510.633056640625,8627.87890625,13682.0068359375,9464.697265625,14960.716796875,4772.19580078125,9298.720703125,3238.188720703125,-0.0,4162.9453125,11433.201171875,6463.0771484375,8285.736328125,18769.044921875,6027.92724609375,-4042.20361328125,6877.2529296875,5402.68115234375,25183.646484375,5622.947265625,11496.072265625,-7898.703125,-11135.83203125,7120.3349609375,3950.40966796875,8654.19921875,4170.7548828125,5838.65966796875,4278.4736328125,-541.2981567382812,8042.42041015625,7772.58544921875,7998.1337890625,-15382.5693359375,-0.0,-0.0,8647.8837890625,6479.51904296875,-4116.3837890625,0.0,11619.884765625
-5601.482421875,-11153.4248046875,6044.4921875,8156.28955078125,14467.8671875,14216.884765625,13464.5576171875,12275.6396484375,12760.0302734375,9481.91796875,16408.544921875,0.0,12212.6298828125,0.0,11471.2568359375,15596.650390625,25405.6953125,11747.6796875,7598.47900390625,5467.6328125,3121.1279296875,14292.3544921875,12667.955078125,9077.45703125,0.0,1699.332275390625,6396.0283203125,4148.34521484375,-1764.6185302734375,-7929.740234375,12568.134765625,2597.600830078125,8712.984375,13767.875,9548.669921875,15049.57421875,4860.54443359375,9391.3828125,3311.11865234375,-0.0,4245.341796875,11521.6142578125,6544.65869140625,8380.4140625,18856.666015625,6125.2109375,-3981.255859375,6962.40576171875,5481.57177734375,25275.89453125,5701.453125,11599.955078125,-7816.6015625,-11036.197265625,7198.9833984375,4035.064453125,8716.794921875,4273.390625,5914.8076171875,4381.79345703125,-471.7352294921875,8128.21923828125,7864.91015625,8100.09326171875,-15312.6025390625,-0.0,0.0,8761.203125,6562.42333984375,-4004.262451171875,0.0,11734.1884765625
-5517.98388671875,-11115.5205078125,6087.06689453125,8208.251953125,14516.3271484375,14270.6220703125,13514.8203125,12333.982421875,12815.5693359375,9540.609375,16453.875,0.0,12236.2451171875,0.0,11510.8818359375,15663.388671875,25453.087890625,11797.8349609375,7652.9228515625,5525.27783203125,3168.312255859375,14343.1337890625,12720.3798828125,9131.1640625,0.0,1749.651123046875,6439.57421875,4207.86865234375,-1736.9671630859375,-7874.78515625,12617.1171875,2643.69287109375,8759.3056640625,13816.025390625,9599.0009765625,15101.59765625,4913.3876953125,9447.8994140625,3340.32421875,-0.0,4293.15380859375,11572.8974609375,6595.70458984375,8436.9619140625,18911.4140625,6183.16015625,-3919.897705078125,7015.0283203125,5527.12841796875,25329.64453125,5749.5546875,11662.6474609375,-7781.86669921875,-10988.1875,7225.28271484375,4080.894287109375,8748.01171875,4340.6513671875,5971.41845703125,4431.00927734375,-431.8269348144531,8180.119140625,7922.146484375,8161.63037109375,-15275.1083984375,-0.0,0.0,8812.41796875,6625.80517578125,-3947.0595703125,0.0,11789.7666015625
-5519.666015625,-11144.46875,6071.97802734375,8206.0126953125,14503.9951171875,14261.29296875,13501.7451171875,12319.53125,12804.7666015625,9519.1826171875,16446.884765625,0.0,12219.064453125,0.0,11495.8271484375,15639.8193359375,25442.236328125,11786.4892578125,7642.078125,5507.39208984375,3157.506103515625,14333.3681640625,12708.9013671875,9119.8271484375,0.0,1743.6710205078125,6426.0986328125,4196.9912109375,-1761.7203369140625,-7886.75048828125,12607.138671875,2632.86962890625,8745.31640625,13805.8623046875,9586.689453125,15092.4365234375,4900.03369140625,9435.63671875,3336.9765625,-0.0,4278.00927734375,11566.2490234375,6584.85693359375,8426.23828125,18900.2265625,6164.70068359375,-3917.183837890625,7014.18798828125,5512.41845703125,25324.142578125,5737.2587890625,11646.2392578125,-7798.50439453125,-11009.10546875,7209.38916015625,4077.089599609375,8734.046875,4331.97705078125,5965.6748046875,4396.04296875,-427.3802795410156,8167.34130859375,7909.12548828125,8138.3623046875,-15286.337890625,-0.0,0.0,8774.513671875,6633.3818359375,-3991.97265625,0.0,11753.6572265625
-5573.27734375,-11165.86328125,6043.63330078125,8175.4951171875,14474.8701171875,14232.10546875,13474.970703125,12289.35546875,12780.056640625,9494.6435546875,16412.763671875,0.0,12188.8994140625,0.0,11467.294921875,15604.818359375,25412.716796875,11757.373046875,7614.51611328125,5478.27490234375,3129.4189453125,14304.197265625,12681.318359375,9090.99609375,0.0,1714.234375,6399.24072265625,4165.41357421875,-1792.946533203125,-7922.83544921875,12579.3515625,2603.5380859375,8715.8037109375,13778.3974609375,9558.1630859375,15063.1064453125,4873.3994140625,9407.20703125,3311.68896484375,-0.0,4244.4208984375,11538.8173828125,6557.0361328125,8397.09765625,18873.966796875,6135.96484375,-3948.450927734375,6984.78466796875,5484.322265625,25293.765625,5710.41748046875,11612.8828125,-7825.70263671875,-11049.8515625,7180.994140625,4052.267822265625,8709.416015625,4302.65478515625,5941.28466796875,4373.763671875,-456.3968811035156,8138.31005859375,7882.95068359375,8103.17236328125,-15317.3984375,-0.0,0.0,8762.9892578125,6612.87744140625,-4012.1669921875,0.0,11730.021484375
-5646.33740234375,-11192.9970703125,6001.44140625,8121.12841796875,14431.9873046875,14181.158203125,13432.0625,12238.4912109375,12739.1279296875,9447.294921875,16365.0498046875,0.0,12155.60546875,0.0,11422.107421875,15542.412109375,25365.158203125,11709.83984375,7567.140625,5432.71484375,3082.6787109375,14255.869140625,12635.2470703125,9040.712890625,0.0,1661.4473876953125,6357.86181640625,4109.6904296875,-1824.159912109375,-7981.27978515625,12530.5556640625,2554.772705078125,8669.267578125,13729.3466796875,9512.4990234375,15013.3876953125,4828.4365234375,9357.232421875,3272.083984375,-0.0,4202.673828125,11487.0517578125,6513.94775390625,8344.837890625,18830.24609375,6087.74755859375,-3987.624267578125,6930.65478515625,5443.1650390625,25239.767578125,5667.3701171875,11555.9033203125,-7866.36767578125,-11091.9921875,7125.15478515625,4002.47900390625,8671.681640625,4240.24658203125,5903.197265625,4329.8701171875,-509.66009521484375,8090.9951171875,7835.63427734375,8053.12109375,-15357.4482421875,-0.0,0.0,8707.9150390625,6588.392578125,-4063.971435546875,0.0,11680.74609375
-5662.08203125,-11206.8662109375,5977.27685546875,8085.26123046875,14408.70703125,14151.771484375,13407.462890625,12213.5185546875,12712.0224609375,9419.7373046875,16344.2998046875,0.0,12145.5478515625,0.0,11405.26171875,15522.92578125,25338.93359375,11684.60546875,7541.0537109375,5406.341796875,3058.7236328125,14228.3251953125,12608.658203125,9013.68359375,0.0,1632.4725341796875,6337.43603515625,4082.25,-1839.1077880859375,-8009.9609375,12502.953125,2528.587890625,8644.2822265625,13700.6689453125,9488.2978515625,14985.4541015625,4802.927734375,9331.74609375,3256.049072265625,-0.0,4181.3955078125,11454.1796875,6490.875,8316.791015625,18804.439453125,6064.564453125,-4026.056640625,6894.8994140625,5421.2890625,25210.89453125,5644.73583984375,11532.244140625,-7880.7919921875,-11113.705078125,7106.3095703125,3976.747802734375,8658.5234375,4208.3681640625,5874.2001953125,4321.6376953125,-532.754638671875,8065.6318359375,7808.3740234375,8026.2275390625,-15376.6728515625,-0.0,0.0,8706.58203125,6562.37451171875,-4073.385498046875,0.0,11660.4189453125
-5611.4013671875,-11198.6669921875,5994.30517578125,8098.75048828125,14426.556640625,14167.06640625,13424.0537109375,12233.5478515625,12725.701171875,9441.3525390625,16355.3017578125,0.0,12164.3203125,0.0,11430.341796875,15553.5517578125,25353.8828125,11703.0966796875,7559.29248046875,5423.0537109375,3075.458984375,14244.4580078125,12625.75390625,9032.353515625,0.0,1646.75146484375,6356.9716796875,4100.18408203125,-1817.331787109375,-7992.3486328125,12518.326171875,2541.575927734375,8661.01171875,13714.568359375,9506.2333984375,15002.3193359375,4820.3623046875,9350.1875,3261.86181640625,-0.0,4199.66357421875,11468.1591796875,6507.65576171875,8335.423828125,18820.486328125,6085.3857421875,-4021.348876953125,6906.06640625,5442.599609375,25223.65234375,5663.51513671875,11557.642578125,-7858.72900390625,-11103.7841796875,7136.74560546875,3990.447509765625,8681.0205078125,4228.3740234375,5886.35107421875,4353.1494140625,-525.6298828125,8085.091796875,7825.6123046875,8047.32470703125,-15364.048828125,-0.0,0.0,8736.72265625,6575.0947265625,-4036.5029296875,0.0,11685.6904296875
-5569.83984375,-11208.421875,6011.6982421875,8122.92578125,14443.1279296875,14182.0244140625,13439.072265625,12243.62109375,12735.2841796875,9444.322265625,16369.7548828125,0.0,12178.9443359375,0.0,11444.443359375,15552.330078125,25371.35546875,11720.4423828125,7572.99755859375,5432.24853515625,3092.63037109375,14261.9267578125,12642.109375,9047.140625,0.0,1664.424560546875,6372.06396484375,4109.87890625,-1799.798828125,-7970.18212890625,12535.408203125,2556.921875,8678.822265625,13732.3134765625,9521.8642578125,15019.125,4836.37451171875,9362.8203125,3267.858642578125,-0.0,4215.7265625,11486.1494140625,6523.72900390625,8347.9921875,18833.775390625,6092.619140625,-3994.869140625,6930.9169921875,5458.08935546875,25236.19140625,5676.44384765625,11563.9814453125,-7844.7900390625,-11082.783203125,7158.3701171875,4005.478759765625,8694.203125,4234.6337890625,5904.0068359375,4343.84912109375,-511.9037780761719,8102.935546875,7836.9306640625,8056.6796875,-15344.046875,-0.0,0.0,8701.630859375,6595.41845703125,-4057.305419921875,0.0,11684.376953125
-5592.29638671875,-11232.7470703125,6009.21923828125,8127.01220703125,14440.7353515625,14182.7919921875,13435.263671875,12243.2314453125,12734.5849609375,9438.4443359375,16375.6064453125,0.0,12172.6025390625,0.0,11436.849609375,15550.6171875,25371.689453125,11718.498046875,7571.06982421875,5432.59521484375,3090.94189453125,14261.9892578125,12639.0625,9046.8203125,0.0,1664.10107421875,6367.6396484375,4110.59912109375,-1812.25830078125,-7963.22900390625,12536.259765625,2559.34765625,8678.8076171875,13733.708984375,9518.7412109375,15019.236328125,4835.00439453125,9362.2236328125,3260.981689453125,-0.0,4210.3447265625,11489.103515625,6521.21630859375,8348.375,18832.974609375,6092.087890625,-3986.561767578125,6933.47509765625,5452.79345703125,25238.888671875,5673.15380859375,11563.14453125,-7861.45849609375,-11080.2392578125,7154.70263671875,4006.864501953125,8690.6630859375,4238.369140625,5908.435546875,4342.71826171875,-495.97210693359375,8103.85107421875,7836.5478515625,8057.3212890625,-15356.2705078125,-0.0,0.0,8707.0107421875,6594.4345703125,-4057.5009765625,0.0,11684.119140625
-5655.681640625,-11248.2724609375,5991.3798828125,8104.13427734375,14419.8310546875,14161.11328125,13412.5029296875,12219.35546875,12709.041015625,9416.7626953125,16368.166015625,0.0,12162.0693359375,0.0,11419.3798828125,15522.8837890625,25350.818359375,11695.9736328125,7547.94775390625,5405.42138671875,3069.66357421875,14238.6240234375,12616.3173828125,9023.9560546875,0.0,1641.603515625,6350.44384765625,4086.6611328125,-1830.5250244140625,-7987.07177734375,12514.6318359375,2538.992919921875,8658.78125,13712.9912109375,9495.65625,14997.080078125,4811.3505859375,9336.8056640625,3249.28173828125,-0.0,4190.33349609375,11467.78515625,6500.10107421875,8326.1181640625,18810.388671875,6066.70947265625,-4006.11474609375,6910.935546875,5434.556640625,25218.810546875,5656.02880859375,11538.2744140625,-7887.23388671875,-11104.416015625,7134.92724609375,3985.434326171875,8677.8935546875,4215.77783203125,5885.0732421875,4313.974609375,-518.1317749023438,8078.8544921875,7812.96728515625,8028.556640625,-15376.345703125,-0.0,0.0,8678.3994140625,6567.34912109375,-4083.712158203125,0.0,11657.2861328125
-5685.31787109375,-11213.509765625,5987.86669921875,8095.119140625,14416.2802734375,14153.2509765625,13411.1689453125,12210.80859375,12702.4580078125,9413.724609375,16367.3271484375,0.0,12161.2822265625,0.0,11419.52734375,15515.2958984375,25345.5,11690.052734375,7542.2822265625,5398.70703125,3065.052001953125,14231.2119140625,12611.7177734375,9016.0166015625,0.0,1633.3145751953125,6348.873046875,4079.15478515625,-1832.2579345703125,-8002.07421875,12509.0302734375,2533.3349609375,8653.5986328125,13706.18359375,9492.158203125,14989.7275390625,4807.8876953125,9329.875,3246.707763671875,-0.0,4186.931640625,11460.6845703125,6497.5107421875,8317.1728515625,18804.869140625,6057.65380859375,-4016.723388671875,6902.50390625,5432.4326171875,25211.275390625,5654.5302734375,11529.5029296875,-7889.73388671875,-11105.3740234375,7125.14599609375,3978.0390625,8673.3095703125,4207.87646484375,5877.2265625,4299.17041015625,-535.2634887695312,8070.58642578125,7806.41748046875,8021.4423828125,-15379.8173828125,-0.0,0.0,8673.57421875,6566.56591796875,-4087.753662109375,0.0,11654.123046875
-5702.36279296875,-11201.93359375,5966.7548828125,8070.5126953125,14397.30078125,14131.7490234375,13392.75390625,12188.5,12685.6728515625,9396.9853515625,16345.1826171875,0.0,12137.744140625,0.0,11399.73046875,15496.20703125,25323.708984375,11669.658203125,7522.68603515625,5382.70166015625,3043.43212890625,14210.3759765625,12591.1474609375,8994.767578125,0.0,1610.9388427734375,6329.12451171875,4057.419921875,-1854.2701416015625,-8027.94091796875,12487.72265625,2515.37255859375,8631.2822265625,13684.193359375,9473.3583984375,14967.9892578125,4787.64794921875,9309.3837890625,3206.91015625,-0.0,4167.95263671875,11438.095703125,6478.69287109375,8295.8056640625,18784.876953125,6038.38232421875,-4042.85302734375,6876.3310546875,5413.56982421875,25189.267578125,5635.29296875,11507.671875,-7905.8828125,-11117.5859375,7097.7607421875,3953.662353515625,8650.818359375,4188.49267578125,5860.22021484375,4280.01123046875,-551.2909545898438,8048.34619140625,7788.1044921875,8005.04541015625,-15407.7255859375,-0.0,-0.0,8662.8935546875,6549.1201171875,-4107.4296875,0.0,11634.380859375
-5713.94189453125,-11216.96484375,5934.79150390625,8038.5078125,14367.5341796875,14099.2724609375,13362.416015625,12154.126953125,12658.66015625,9371.2451171875,16319.4892578125,0.0,12114.1494140625,0.0,11372.9072265625,15461.931640625,25295.232421875,11638.755859375,7490.8369140625,5353.2958984375,3014.527587890625,14178.974609375,12562.220703125,8963.7724609375,0.0,1581.250732421875,6302.279296875,4023.621337890625,-1877.5726318359375,-8062.15869140625,12456.7685546875,2487.3203125,8601.5888671875,13654.6513671875,9443.2822265625,14938.2001953125,4757.02783203125,9278.2998046875,3180.220458984375,-0.0,4139.3271484375,11407.208984375,6449.8662109375,8263.708984375,18756.1796875,6007.4970703125,-4060.17431640625,6844.71533203125,5385.93701171875,25156.1953125,5606.439453125,11470.884765625,-7939.8212890625,-11151.3134765625,7072.60107421875,3920.858154296875,8629.1103515625,4153.53466796875,5837.6318359375,4247.470703125,-580.9017333984375,8019.07177734375,7757.3779296875,7976.2822265625,-15439.564453125,-0.0,-0.0,8633.8974609375,6526.6572265625,-4144.474609375,0.0,11600.8046875
-5650.7314453125,-11174.9873046875,5993.46142578125,8101.95947265625,14419.6259765625,14158.1884765625,13414.064453125,12211.7900390625,12717.484375,9432.6484375,16363.728515625,0.0,12152.6796875,0.0,11411.9833984375,15520.6630859375,25354.6640625,11696.7578125,7546.5791015625,5416.84765625,3071.638427734375,14238.751953125,12617.5244140625,9021.654296875,0.0,1640.9053955078125,6346.38037109375,4081.722412109375,-1836.646484375,-8001.54833984375,12515.306640625,2542.339599609375,8659.361328125,13713.326171875,9499.1943359375,14995.9951171875,4811.55859375,9336.3623046875,3257.598388671875,-0.0,4193.9140625,11467.2333984375,6499.25634765625,8321.6767578125,18811.8671875,6067.10009765625,-3998.933837890625,6908.78515625,5432.28466796875,25214.0625,5654.0595703125,11528.67578125,-7891.97265625,-11099.96875,7124.48486328125,3981.24609375,8665.208984375,4210.3115234375,5888.5419921875,4308.24072265625,-533.3720092773438,8078.375,7815.16259765625,8046.37548828125,-15394.0625,-0.0,0.0,8695.9248046875,6586.18212890625,-4077.59423828125,0.0,11667.982421875
-5609.083984375,-11155.603515625,6037.0576171875,8151.7490234375,14459.8720703125,14204.3212890625,13453.1171875,12258.7197265625,12757.326171875,9473.275390625,16394.734375,0.0,12180.8232421875,0.0,11441.568359375,15567.15234375,25401.052734375,11742.4130859375,7589.05322265625,5460.60498046875,3114.241943359375,14285.4970703125,12659.166015625,9067.2646484375,0.0,1687.1719970703125,6379.4306640625,4127.2060546875,-1804.841552734375,-7953.38037109375,12561.599609375,2593.252685546875,8704.57421875,13762.078125,9543.2333984375,15041.0185546875,4853.62939453125,9381.068359375,3307.095947265625,-0.0,4236.7275390625,11514.7470703125,6538.2353515625,8366.4345703125,18851.251953125,6111.310546875,-3962.8603515625,6957.50830078125,5470.11083984375,25259.291015625,5687.810546875,11575.3974609375,-7855.55517578125,-11047.99609375,7164.080078125,4027.392333984375,8693.05078125,4253.71142578125,5919.8603515625,4355.02392578125,-478.22760009765625,8125.58642578125,7857.248046875,8095.64990234375,-15344.12109375,-0.0,0.0,8730.5078125,6618.9130859375,-4037.051513671875,0.0,11711.3505859375
-5599.96044921875,-11164.365234375,6045.4033203125,8162.23583984375,14471.2080078125,14217.1337890625,13463.5576171875,12275.96875,12767.3583984375,9487.5224609375,16402.431640625,0.0,12189.5693359375,0.0,11454.7451171875,15591.443359375,25412.208984375,11755.4892578125,7601.6953125,5473.00927734375,3125.151611328125,14296.88671875,12671.38671875,9080.4912109375,0.0,1697.6746826171875,6391.88427734375,4145.85595703125,-1795.2291259765625,-7938.46142578125,12573.939453125,2605.68701171875,8716.48828125,13773.8759765625,9554.61328125,15054.6923828125,4865.76416015625,9395.8291015625,3319.828125,-0.0,4246.9990234375,11525.826171875,6550.7470703125,8381.1162109375,18863.380859375,6126.82861328125,-3955.788330078125,6966.95849609375,5481.15966796875,25273.62890625,5699.3046875,11595.8583984375,-7837.74072265625,-11038.80859375,7177.25927734375,4039.843505859375,8707.2099609375,4274.48583984375,5930.0419921875,4375.361328125,-459.1924743652344,8141.5390625,7869.84326171875,8106.919921875,-15323.392578125,-0.0,0.0,8757.41796875,6625.40625,-4011.03173828125,0.0,11730.2275390625
-5615.20068359375,-11186.5244140625,6021.98583984375,8136.0537109375,14449.482421875,14195.1015625,13441.7705078125,12253.404296875,12743.87109375,9465.27734375,16380.2265625,0.0,12173.8369140625,0.0,11442.142578125,15565.5947265625,25386.451171875,11734.5576171875,7581.49755859375,5447.69482421875,3103.70654296875,14273.8359375,12648.9658203125,9057.388671875,0.0,1674.4625244140625,6374.09814453125,4122.7392578125,-1815.5899658203125,-7959.03076171875,12550.0751953125,2580.010009765625,8692.3359375,13749.099609375,9532.9248046875,15031.7685546875,4843.41943359375,9372.9052734375,3285.03271484375,-0.0,4221.98583984375,11500.1591796875,6530.337890625,8358.2421875,18841.353515625,6103.68994140625,-3985.064208984375,6941.34423828125,5460.47021484375,25252.294921875,5681.74755859375,11573.080078125,-7847.001953125,-11066.05859375,7158.75390625,4026.587646484375,8693.24609375,4254.81103515625,5908.18896484375,4351.36328125,-490.2672424316406,8119.4072265625,7848.546875,8077.29833984375,-15343.9638671875,-0.0,0.0,8737.4873046875,6604.40185546875,-4030.152587890625,0.0,11710.587890625
-5638.041015625,-11220.630859375,5982.701171875,8103.51513671875,14412.279296875,14156.73828125,13405.732421875,12209.7587890625,12707.7265625,9421.3251953125,16338.3916015625,0.0,12144.2568359375,0.0,11412.9228515625,15513.23046875,25348.1328125,11695.5498046875,7542.06884765625,5403.3974609375,3065.643798828125,14235.201171875,12610.4345703125,9017.435546875,0.0,1638.9085693359375,6341.6357421875,4079.0517578125,-1844.536376953125,-7994.115234375,12513.0751953125,2546.414306640625,8653.017578125,13711.4521484375,9495.6982421875,14994.34375,4805.802734375,9332.69140625,3223.788330078125,-0.0,4182.6396484375,11464.609375,6494.7568359375,8316.951171875,18803.05859375,6059.5,-4035.15673828125,6909.09814453125,5423.32275390625,25213.3671875,5646.2822265625,11525.78125,-7879.47802734375,-11099.044921875,7120.22314453125,3997.257080078125,8665.427734375,4207.90576171875,5872.91845703125,4308.0986328125,-528.1029663085938,8080.61376953125,7807.8115234375,8031.35986328125,-15380.6171875,-0.0,0.0,8683.6591796875,6577.095703125,-4082.023681640625,0.0,11663.3818359375
-5648.30419921875,-11231.775390625,5958.63232421875,8074.2734375,14388.8447265625,14130.3525390625,13383.0986328125,12183.4296875,12688.6806640625,9400.541015625,16315.275390625,0.0,12129.8935546875,0.0,11395.373046875,15491.474609375,25320.69921875,11669.208984375,7517.81103515625,5383.04052734375,3041.08642578125,14208.126953125,12587.37109375,8993.6591796875,0.0,1609.9305419921875,6322.3974609375,4054.70751953125,-1851.539794921875,-8015.7314453125,12486.2705078125,2515.553955078125,8626.904296875,13682.6611328125,9470.611328125,14967.65625,4782.173828125,9308.841796875,3214.15380859375,-0.0,4158.916015625,11437.10546875,6473.25732421875,8292.1259765625,18781.779296875,6037.869140625,-4055.13037109375,6881.8798828125,5399.25048828125,25185.109375,5625.84619140625,11500.4443359375,-7894.49755859375,-11128.88671875,7098.33984375,3965.944091796875,8650.8193359375,4183.81201171875,5854.302734375,4292.59619140625,-559.1958618164062,8054.31689453125,7785.6669921875,8012.77734375,-15398.8662109375,-0.0,-0.0,8672.669921875,6559.52001953125,-4097.62255859375,0.0,11644.0244140625
-5618.1357421875,-11186.5029296875,5990.4130859375,8103.97509765625,14418.0771484375,14161.7548828125,13408.8994140625,12214.9375,12714.73828125,9428.26171875,16349.9208984375,0.0,12163.123046875,0.0,11418.1396484375,15525.0185546875,25350.482421875,11699.494140625,7547.37255859375,5409.8740234375,3074.178466796875,14238.3994140625,12616.521484375,9025.0595703125,0.0,1641.9588623046875,6348.46240234375,4087.447265625,-1818.523681640625,-7985.775390625,12516.66015625,2541.89111328125,8658.08203125,13712.9169921875,9500.8359375,14996.796875,4810.451171875,9339.3134765625,3253.10107421875,-0.0,4193.90478515625,11467.65625,6502.34228515625,8323.375,18809.529296875,6069.8818359375,-4019.0234375,6913.1669921875,5427.85107421875,25217.73828125,5651.39306640625,11532.9228515625,-7865.88818359375,-11102.3857421875,7132.70361328125,3991.916259765625,8676.275390625,4220.45068359375,5877.1826171875,4323.88818359375,-535.5902709960938,8081.6865234375,7813.71533203125,8037.720703125,-15372.5341796875,-0.0,-0.0,8706.939453125,6572.0615234375,-4068.78173828125,0.0,11671.5322265625
-5615.6767578125,-11158.5751953125,6027.3896484375,8147.8505859375,14452.5625,14200.193359375,13440.611328125,12252.7900390625,12742.20703125,9460.310546875,16373.6943359375,0.0,12188.9013671875,0.0,11442.0078125,15566.97265625,25387.365234375,11734.51953125,7581.55029296875,5441.22021484375,3106.954833984375,14274.8701171875,12650.2734375,9059.638671875,0.0,1682.8182373046875,6376.13720703125,4128.05224609375,-1795.8740234375,-7953.3466796875,12553.806640625,2579.635009765625,8694.1630859375,13751.8046875,9536.4326171875,15032.626953125,4844.1982421875,9375.150390625,3288.139404296875,-0.0,4229.82177734375,11507.8291015625,6533.7998046875,8360.9619140625,18840.0703125,6104.37109375,-3989.994873046875,6955.6328125,5459.35546875,25258.609375,5680.39697265625,11573.193359375,-7843.22802734375,-11072.1943359375,7167.9052734375,4027.3232421875,8701.826171875,4258.271484375,5903.72900390625,4355.2119140625,-504.5317687988281,8114.556640625,7845.708984375,8065.3251953125,-15338.548828125,-0.0,-0.0,8739.9169921875,6590.4697265625,-4031.764404296875,0.0,11703.5361328125
-5635.04052734375,-11170.998046875,6021.16748046875,8144.35888671875,14449.8935546875,14196.494140625,13438.9697265625,12251.5068359375,12739.8037109375,9456.8857421875,16363.8017578125,0.0,12179.984375,0.0,11437.4951171875,15565.826171875,25383.470703125,11732.009765625,7581.34228515625,5439.740234375,3102.540283203125,14271.8095703125,12650.1083984375,9058.2412109375,0.0,1680.4783935546875,6373.14501953125,4125.04248046875,-1805.8553466796875,-7958.75390625,12549.60546875,2573.130615234375,8688.6787109375,13748.5673828125,9534.1767578125,15030.041015625,4843.2626953125,9373.138671875,3285.511962890625,-0.0,4224.54736328125,11505.236328125,6531.15673828125,8359.927734375,18836.65625,6103.31884765625,-3994.5751953125,6951.02783203125,5457.02294921875,25253.91796875,5678.55419921875,11572.60546875,-7857.572265625,-11076.87109375,7154.6181640625,4018.343505859375,8697.509765625,4253.01611328125,5903.3818359375,4347.50439453125,-501.2322692871094,8112.12060546875,7844.28125,8062.88525390625,-15334.041015625,-0.0,0.0,8734.2626953125,6591.5380859375,-4042.21240234375,0.0,11694.8251953125
-5637.814453125,-11189.6787109375,6007.82666015625,8131.908203125,14437.234375,14185.09765625,13426.916015625,12238.486328125,12728.3662109375,9440.5361328125,16365.5654296875,0.0,12162.5205078125,0.0,11422.0390625,15545.7548828125,25372.87890625,11721.677734375,7569.44580078125,5425.7900390625,3092.125244140625,14261.3427734375,12639.1962890625,9047.0849609375,0.0,1673.3345947265625,6360.29296875,4111.154296875,-1825.80517578125,-7964.31103515625,12539.83984375,2566.571533203125,8677.3955078125,13740.302734375,9523.318359375,15021.833984375,4832.10302734375,9361.3212890625,3257.552490234375,-0.0,4211.65283203125,11495.5625,6519.04248046875,8349.2138671875,18825.126953125,6089.60009765625,-4001.3720703125,6940.64697265625,5446.51416015625,25244.68359375,5667.5419921875,11557.0673828125,-7875.7626953125,-11077.6875,7129.4609375,4011.276123046875,8682.3310546875,4240.787109375,5894.85302734375,4333.27197265625,-502.9827575683594,8101.775390625,7831.498046875,8044.8173828125,-15356.4638671875,-0.0,0.0,8714.228515625,6583.55224609375,-4064.781494140625,0.0,11674.2021484375
-5669.5634765625,-11215.009765625,5976.01416015625,8094.7529296875,14405.193359375,14149.7392578125,13393.8759765625,12202.6572265625,12695.6513671875,9404.6953125,16347.9375,0.0,12135.44921875,0.0,11394.1845703125,15511.2568359375,25341.0703125,11686.8212890625,7534.27294921875,5390.6865234375,3058.515869140625,14225.8056640625,12603.58203125,9012.1318359375,0.0,1638.319580078125,6331.45458984375,4074.817138671875,-1854.1903076171875,-8003.23681640625,12504.396484375,2537.05078125,8646.37109375,13705.2548828125,9489.9814453125,14986.4990234375,4798.79931640625,9326.1259765625,3227.9453125,-0.0,4179.35498046875,11459.828125,6486.30712890625,8311.9375,18792.96484375,6052.73828125,-4020.87109375,6903.62158203125,5417.982421875,25209.3203125,5637.31787109375,11521.7861328125,-7909.7197265625,-11100.1142578125,7104.48486328125,3979.91064453125,8653.46484375,4204.03369140625,5863.6640625,4303.2470703125,-537.2821044921875,8067.78125,7797.5478515625,8004.70068359375,-15396.6474609375,-0.0,0.0,8684.47265625,6559.32861328125,-4089.7373046875,0.0,11640.3212890625
-5678.2685546875,-11220.9677734375,5958.95654296875,8075.34814453125,14391.70703125,14131.3076171875,13381.21484375,12187.33203125,12683.224609375,9389.9052734375,16331.7119140625,0.0,12133.0751953125,0.0,11386.3232421875,15498.9306640625,25325.4296875,11670.626953125,7520.017578125,5375.65966796875,3043.51220703125,14209.2646484375,12588.884765625,8997.1865234375,0.0,1617.7554931640625,6321.72216796875,4057.886962890625,-1862.2353515625,-8022.89794921875,12487.2470703125,2521.55517578125,8630.3330078125,13686.4130859375,9474.7578125,14970.216796875,4785.9150390625,9310.4248046875,3227.474853515625,-0.0,4166.201171875,11441.572265625,6473.92578125,8295.2216796875,18780.154296875,6037.88427734375,-4036.536376953125,6883.1572265625,5406.14892578125,25190.3359375,5626.10546875,11508.68359375,-7918.14453125,-11106.8203125,7102.67041015625,3959.892333984375,8646.474609375,4185.51416015625,5849.58349609375,4288.52685546875,-548.20703125,8052.12841796875,7784.232421875,7991.103515625,-15410.0732421875,-0.0,0.0,8670.0869140625,6550.90234375,-4102.1337890625,0.0,11628.486328125
-5695.59130859375,-11224.240234375,5953.82958984375,8067.97119140625,14384.3115234375,14124.34765625,13373.228515625,12179.51953125,12670.828125,9375.072265625,16313.595703125,0.0,12133.2236328125,0.0,11380.28125,15494.591796875,25316.673828125,11663.1474609375,7510.091796875,5362.146484375,3035.020263671875,14201.4453125,12580.2001953125,8988.8310546875,0.0,1609.5079345703125,6314.236328125,4051.216796875,-1863.2060546875,-8028.53515625,12481.5947265625,2515.902587890625,8624.80078125,13679.2470703125,9466.3935546875,14962.232421875,4776.79052734375,9302.4287109375,3221.85546875,-0.0,4160.505859375,11435.126953125,6467.7451171875,8288.828125,18771.423828125,6027.0224609375,-4044.138916015625,6875.45556640625,5401.42724609375,25182.802734375,5618.083984375,11501.2919921875,-7921.13037109375,-11115.9375,7104.78759765625,3953.0537109375,8643.744140625,4177.77099609375,5839.13232421875,4274.63623046875,-562.30224609375,8045.8876953125,7774.88037109375,7975.486328125,-15417.97265625,-0.0,-0.0,8662.56640625,6535.73779296875,-4110.4404296875,0.0,11617.166015625
-5688.46728515625,-11228.54296875,5962.2119140625,8078.34765625,14392.7314453125,14135.740234375,13381.3046875,12194.8515625,12679.62890625,9380.736328125,16315.125,0.0,12134.8173828125,0.0,11387.59765625,15525.17578125,25324.62109375,11671.994140625,7520.2626953125,5370.1171875,3041.49609375,14211.0244140625,12588.5,9000.072265625,0.0,1618.1580810546875,6321.98046875,4068.82177734375,-1860.7423095703125,-8020.44091796875,12490.80078125,2523.0849609375,8633.462890625,13687.677734375,9474.994140625,14971.1044921875,4784.19580078125,9314.083984375,3218.536376953125,-0.0,4167.78125,11444.083984375,6474.95458984375,8300.56640625,18780.76171875,6041.04541015625,-4036.093994140625,6885.09326171875,5409.93603515625,25193.84765625,5626.68701171875,11524.853515625,-7926.74072265625,-11114.1875,7108.79248046875,3963.80712890625,8651.05078125,4195.14501953125,5849.984375,4295.6171875,-568.5401611328125,8055.95166015625,7786.23779296875,7984.203125,-15412.3564453125,-0.0,-0.0,8702.076171875,6538.751953125,-4079.812744140625,0.0,11631.8818359375
-5670.474609375,-11263.861328125,5959.2890625,8082.193359375,14395.2783203125,14137.7353515625,13387.908203125,12197.556640625,12689.8662109375,9388.5283203125,16322.353515625,0.0,12128.26953125,0.0,11396.142578125,15520.4443359375,25326.60546875,11674.9404296875,7524.93359375,5377.86279296875,3043.37158203125,14212.833984375,12593.0703125,9001.669921875,0.0,1619.8123779296875,6326.66162109375,4071.119140625,-1864.106689453125,-8020.11865234375,12491.572265625,2523.2958984375,8632.9287109375,13690.14453125,9477.21875,14973.8857421875,4788.84912109375,9317.662109375,3206.284912109375,-0.0,4168.0634765625,11444.9453125,6478.5341796875,8303.3984375,18788.2734375,6044.85205078125,-4050.63623046875,6888.9736328125,5410.40380859375,25194.5234375,5635.63232421875,11528.4189453125,-7930.17529296875,-11116.3076171875,7092.1591796875,3965.68603515625,8653.6748046875,4196.837890625,5866.970703125,4294.61083984375,-570.8781127929688,8058.15380859375,7792.642578125,8001.02001953125,-15409.9619140625,-0.0,-0.0,8671.8427734375,6553.7998046875,-4096.35546875,0.0,11637.568359375
-5674.658203125,-11280.9765625,5955.70751953125,8078.42236328125,14388.80078125,14130.9462890625,13382.728515625,12187.4013671875,12684.9306640625,9389.3603515625,16329.4189453125,0.0,12126.6962890625,0.0,11398.1591796875,15504.2373046875,25320.828125,11669.041015625,7518.6396484375,5374.39208984375,3037.49658203125,14206.1650390625,12586.5439453125,8993.6494140625,0.0,1615.1478271484375,6323.197265625,4061.840087890625,-1860.1624755859375,-8033.337890625,12484.3369140625,2514.03076171875,8627.34765625,13685.232421875,9471.21484375,14966.658203125,4783.083984375,9310.1748046875,3199.9453125,-0.0,4161.951171875,11439.7841796875,6473.3955078125,8293.4658203125,18782.517578125,6036.7734375,-4052.45556640625,6886.3759765625,5401.2861328125,25186.84765625,5633.556640625,11516.1337890625,-7934.28173828125,-11127.0224609375,7075.20849609375,3959.903564453125,8650.294921875,4192.85693359375,5866.001953125,4280.9580078125,-569.4566650390625,8050.2470703125,7785.31787109375,7999.49365234375,-15419.0380859375,-0.0,0.0,8666.025390625,6556.59619140625,-4104.9208984375,0.0,11635.0947265625
-5652.60791015625,-11232.2880859375,5990.96875,8104.97900390625,14418.7119140625,14158.560546875,13408.6259765625,12215.4248046875,12710.5361328125,9430.74609375,16362.169921875,0.0,12153.7109375,0.0,11424.1025390625,15530.3681640625,25353.07421875,11697.06640625,7547.83984375,5407.15478515625,3067.792724609375,14235.6796875,12615.119140625,9022.3447265625,0.0,1646.120849609375,6348.46923828125,4090.830322265625,-1835.268798828125,-7998.22802734375,12513.994140625,2545.067626953125,8659.8564453125,13715.3369140625,9500.9912109375,14995.583984375,4812.06005859375,9337.5302734375,3233.714599609375,-0.0,4194.25,11469.8603515625,6500.66796875,8321.1552734375,18809.216796875,6068.7333984375,-4027.269775390625,6912.5146484375,5427.17431640625,25218.2265625,5659.513671875,11540.8359375,-7897.333984375,-11098.7685546875,7109.931640625,3992.66845703125,8679.841796875,4229.99658203125,5885.26220703125,4317.7900390625,-533.6281127929688,8077.32421875,7813.96484375,8033.07373046875,-15399.79296875,-0.0,0.0,8730.2890625,6574.462890625,-4045.94287109375,0.0,11679.9189453125
-5635.33935546875,-11183.8876953125,6022.18408203125,8130.6005859375,14447.4638671875,14183.7353515625,13435.0107421875,12238.62890625,12737.560546875,9455.0205078125,16376.69140625,0.0,12181.3447265625,0.0,11448.390625,15540.4521484375,25382.330078125,11724.21484375,7573.8349609375,5433.1494140625,3097.794189453125,14262.41015625,12642.775390625,9047.359375,0.0,1670.09814453125,6375.376953125,4112.47216796875,-1806.157958984375,-7964.240234375,12542.552734375,2575.53515625,8690.9580078125,13743.451171875,9528.546875,15021.5703125,4838.908203125,9362.14453125,3274.916259765625,-0.0,4226.04638671875,11495.056640625,6529.0908203125,8347.052734375,18835.142578125,6090.3623046875,-4012.843017578125,6937.0107421875,5456.19677734375,25243.3984375,5686.48974609375,11556.35546875,-7860.603515625,-11074.3642578125,7152.26318359375,4015.718505859375,8708.232421875,4248.158203125,5903.99853515625,4328.908203125,-494.6117858886719,8103.51708984375,7839.7451171875,8059.3505859375,-15370.3251953125,-0.0,0.0,8727.9560546875,6599.2392578125,-4046.228759765625,0.0,11696.1416015625
-5679.9140625,-11192.2646484375,6006.21630859375,8121.4599609375,14428.748046875,14165.662109375,13418.3583984375,12222.3251953125,12723.8701171875,9433.833984375,16344.2470703125,0.0,12173.53515625,0.0,11430.482421875,15528.861328125,25362.46484375,11708.619140625,7556.65380859375,5416.0712890625,3079.968017578125,14246.88671875,12626.75390625,9030.7646484375,0.0,1654.3638916015625,6359.75,4092.818603515625,-1818.9283447265625,-7978.2587890625,12527.15234375,2554.552001953125,8672.9609375,13726.4873046875,9510.4443359375,15005.5185546875,4822.77099609375,9345.4228515625,3266.508056640625,-0.0,4205.84130859375,11480.5087890625,6512.39794921875,8329.8134765625,18818.447265625,6074.078125,-4002.1572265625,6929.42529296875,5437.46142578125,25223.60546875,5669.21826171875,11538.154296875,-7885.70458984375,-11103.203125,7140.48095703125,3994.891845703125,8700.0361328125,4222.6630859375,5880.2216796875,4312.45703125,-512.3544921875,8089.46142578125,7821.35107421875,8041.25537109375,-15390.099609375,-0.0,0.0,8706.8095703125,6584.20263671875,-4066.450927734375,0.0,11678.767578125
