-5196.5712890625,-11028.2333984375,6193.1298828125,8564.9462890625,14631.8310546875,14518.919921875,13584.2744140625,12520.634765625,13119.404296875,9732.244140625,16524.345703125,0.0,12408.4873046875,0.0,11667.2333984375,15814.53125,25674.533203125,11919.5869140625,7763.212890625,5739.44482421875,3272.093994140625,14477.91796875,12844.5322265625,9292.4130859375,0.0,2029.771728515625,6545.19677734375,4353.60107421875,-1692.6187744140625,-7806.220703125,12777.806640625,2996.276611328125,8881.072265625,14021.0693359375,9701.6298828125,15295.15625,5021.35009765625,9614.20703125,3551.10595703125,0.0,4444.67431640625,11842.43359375,6660.27734375,8649.9599609375,19075.66015625,6358.54443359375,-3564.710693359375,7366.2236328125,5674.4951171875,25556.12109375,5866.28857421875,11858.21875,-7585.49658203125,-10532.7919921875,7312.92431640625,4501.94580078125,8845.25390625,4532.220703125,6136.72802734375,4668.33984375,1254.802734375,8355.767578125,8142.10546875,8301.4609375,-15304.47265625,-0.0,0.0,8963.1083984375,6570.39990234375,-3820.263671875,0.0,11940.587890625
-5194.47265625,-11031.4296875,6203.2275390625,8551.994140625,14636.4287109375,14522.1748046875,13587.6240234375,12521.8623046875,13114.544921875,9731.60546875,16529.216796875,0.0,12409.56640625,0.0,11672.5791015625,15816.7578125,25677.611328125,11922.390625,7764.244140625,5736.57958984375,3277.646728515625,14479.1171875,12849.130859375,9297.5771484375,0.0,2031.7073974609375,6551.6552734375,4356.58544921875,-1692.427734375,-7798.19189453125,12782.2216796875,2997.90234375,8886.9140625,14020.81640625,9707.03125,15298.2880859375,5024.28662109375,9616.244140625,3566.7841796875,-0.0,4452.0478515625,11839.4482421875,6663.89990234375,8653.3798828125,19076.20703125,6358.41650390625,-3554.693115234375,7354.53466796875,5678.80810546875,25559.57421875,5870.31103515625,11859.7880859375,-7588.22705078125,-10495.8515625,7310.177734375,4509.33154296875,8847.40625,4535.0048828125,6142.9912109375,4661.77197265625,1239.6663818359375,8362.7509765625,8142.15283203125,8296.24609375,-15293.0439453125,-0.0,0.0,8971.3115234375,6563.10107421875,-3817.175048828125,0.0,11940.6865234375
-5176.44677734375,-11048.140625,6205.5703125,8550.8828125,14640.8271484375,14521.9921875,13591.23828125,12521.365234375,13115.7822265625,9735.8115234375,16537.916015625,0.0,12414.470703125,0.0,11678.458984375,15810.9033203125,25679.966796875,11924.6923828125,7768.49609375,5740.3876953125,3280.720703125,14482.9755859375,12852.208984375,9298.70703125,0.0,2033.8695068359375,6556.33056640625,4354.06982421875,-1691.068115234375,-7788.966796875,12784.171875,3002.050537109375,8888.6591796875,14024.296875,9709.92578125,15301.2978515625,5028.35546875,9617.9921875,3550.623291015625,0.0,4457.1943359375,11840.857421875,6666.4580078125,8653.94921875,19079.037109375,6360.25439453125,-3549.804931640625,7353.56103515625,5682.87548828125,25562.5234375,5875.04150390625,11856.4677734375,-7587.646484375,-10511.8828125,7316.14208984375,4511.873046875,8851.3369140625,4537.91015625,6143.66552734375,4666.2275390625,1277.5487060546875,8366.0673828125,8145.5390625,8302.921875,-15282.5654296875,-0.0,0.0,8971.822265625,6564.86572265625,-3815.384765625,0.0,11944.1708984375
-5114.35302734375,-11085.97265625,6201.8115234375,8553.9248046875,14640.283203125,14521.7607421875,13591.3203125,12522.8935546875,13118.427734375,9739.203125,16545.890625,0.0,12413.890625,0.0,11675.6123046875,15813.9931640625,25679.30078125,11923.0751953125,7768.76220703125,5744.3583984375,3279.249755859375,14482.287109375,12852.0302734375,9298.3994140625,0.0,2035.590576171875,6555.04248046875,4353.72119140625,-1690.3165283203125,-7785.447265625,12782.890625,3002.074951171875,8887.6162109375,14025.6044921875,9710.21875,15301.685546875,5028.98974609375,9618.13671875,3531.611328125,0.0,4455.35888671875,11844.4306640625,6667.3955078125,8654.53515625,19080.30859375,6363.2275390625,-3539.715576171875,7356.37841796875,5684.46044921875,25559.5,5876.05615234375,11855.8095703125,-7595.77587890625,-10569.4248046875,7315.53564453125,4503.22998046875,8845.7060546875,4540.68505859375,6136.73974609375,4676.62353515625,1294.103515625,8363.6376953125,8144.57421875,8308.2236328125,-15280.7978515625,-0.0,0.0,8973.322265625,6565.37060546875,-3808.050537109375,0.0,11950.8271484375
-5089.451171875,-11099.951171875,6197.10498046875,8568.044921875,14636.140625,14521.201171875,13590.5771484375,12523.4306640625,13125.5810546875,9739.896484375,16543.240234375,0.0,12410.3515625,0.0,11672.0390625,15812.599609375,25679.4609375,11920.17578125,7767.89501953125,5746.9990234375,3278.350341796875,14482.7373046875,12850.7529296875,9297.2451171875,0.0,2036.0142822265625,6551.45166015625,4351.7353515625,-1692.33984375,-7791.984375,12782.6015625,2998.473876953125,8886.728515625,14028.974609375,9708.990234375,15301.8134765625,5028.85107421875,9618.6728515625,3528.291259765625,0.0,4452.462890625,11847.958984375,6665.14208984375,8652.3486328125,19082.197265625,6363.99365234375,-3561.504638671875,7368.92529296875,5678.8505859375,25555.095703125,5875.85107421875,11856.2490234375,-7596.64306640625,-10601.3408203125,7309.09521484375,4498.6708984375,8841.10546875,4534.736328125,6134.55029296875,4676.5107421875,1274.818603515625,8358.7607421875,8147.6259765625,8317.1513671875,-15285.3466796875,-0.0,0.0,8955.6494140625,6577.7060546875,-3812.840087890625,0.0,11953.5400390625
-5138.67578125,-11100.21484375,6194.01025390625,8565.4765625,14632.2958984375,14516.37109375,13587.826171875,12521.7060546875,13134.58984375,9741.8251953125,16536.67578125,0.0,12402.1748046875,0.0,11667.2216796875,15814.8125,25677.76171875,11916.1357421875,7766.443359375,5751.30322265625,3274.305419921875,14479.16796875,12847.1083984375,9292.2744140625,0.0,2027.7027587890625,6545.5185546875,4349.90478515625,-1697.086669921875,-7806.830078125,12779.6103515625,2997.25390625,8884.5556640625,14026.7373046875,9705.6044921875,15296.958984375,5026.24072265625,9616.974609375,3544.4345703125,0.0,4447.91943359375,11843.8291015625,6660.43994140625,8649.76953125,19081.146484375,6362.3017578125,-3604.0224609375,7365.23828125,5669.67138671875,25551.591796875,5870.03466796875,11860.001953125,-7583.1103515625,-10588.6796875,7304.39404296875,4496.12109375,8836.9697265625,4527.03662109375,6134.484375,4670.1318359375,1244.8397216796875,8351.7275390625,8149.91162109375,8320.951171875,-15291.4990234375,-0.0,0.0,8940.1298828125,6591.3671875,-3822.337158203125,0.0,11952.2744140625
-5138.060546875,-11105.7265625,6194.25537109375,8562.880859375,14630.705078125,14516.515625,13586.720703125,12522.2646484375,13132.2529296875,9736.5966796875,16539.119140625,0.0,12396.291015625,0.0,11659.7578125,15822.3486328125,25676.24609375,11914.7841796875,7765.107421875,5751.1494140625,3272.575439453125,14477.5009765625,12845.9404296875,9291.330078125,0.0,2025.1851806640625,6541.32470703125,4351.9990234375,-1693.137939453125,-7805.63330078125,12777.822265625,2992.9306640625,8884.7578125,14024.08984375,9704.5888671875,15295.2958984375,5024.39501953125,9616.4765625,3559.64892578125,0.0,4446.41796875,11840.7158203125,6659.041015625,8649.3583984375,19080.462890625,6359.91064453125,-3579.926513671875,7361.26708984375,5667.09130859375,25552.1015625,5861.89306640625,11864.2041015625,-7574.77880859375,-10560.0361328125,7299.54833984375,4500.1494140625,8834.228515625,4525.46826171875,6142.2080078125,4663.72705078125,1262.8885498046875,8347.9521484375,8147.8896484375,8318.841796875,-15291.310546875,-0.0,0.0,8944.4296875,6579.18701171875,-3826.634521484375,0.0,11949.419921875
-5137.66943359375,-11096.3642578125,6213.92333984375,8578.1396484375,14639.3330078125,14525.44921875,13590.7021484375,12527.775390625,13126.505859375,9731.607421875,16555.251953125,0.0,12403.2490234375,0.0,11663.1650390625,15831.4541015625,25688.544921875,11924.50390625,7768.91064453125,5746.0390625,3283.3076171875,14488.9169921875,12852.9716796875,9298.5634765625,0.0,2037.19970703125,6547.880859375,4360.9638671875,-1681.6070556640625,-7786.72900390625,12788.67578125,3003.835693359375,8898.9599609375,14035.556640625,9714.0283203125,15303.9619140625,5030.08984375,9622.0625,3579.5244140625,0.0,4458.74072265625,11852.6396484375,6664.65869140625,8657.1923828125,19083.517578125,6361.126953125,-3527.36865234375,7377.7138671875,5674.71875,25562.04296875,5864.99072265625,11871.8408203125,-7560.78515625,-10549.4423828125,7304.1279296875,4517.64453125,8840.16015625,4532.67626953125,6146.10498046875,4661.81494140625,1287.629150390625,8353.4052734375,8149.4638671875,8314.7783203125,-15281.9638671875,-0.0,0.0,8956.8935546875,6567.42822265625,-3825.66455078125,0.0,11947.63671875
-5158.73193359375,-11108.8212890625,6227.02880859375,8589.7138671875,14643.9091796875,14529.58203125,13588.0810546875,12527.50390625,13111.59375,9727.1826171875,16562.830078125,0.0,12414.7333984375,0.0,11666.748046875,15831.134765625,25696.990234375,11928.3408203125,7768.7138671875,5734.43505859375,3290.046142578125,14495.0009765625,12853.802734375,9301.8359375,0.0,2042.8099365234375,6550.45556640625,4365.15576171875,-1677.9473876953125,-7779.16357421875,12793.318359375,3013.80126953125,8909.0439453125,14043.3583984375,9718.6044921875,15307.91015625,5029.0615234375,9621.93359375,3585.83642578125,0.0,4466.73583984375,11860.748046875,6665.86376953125,8660.34765625,19077.7421875,6358.4580078125,-3514.139404296875,7390.0078125,5676.34423828125,25566.919921875,5864.24853515625,11872.46875,-7556.91845703125,-10582.7880859375,7307.82763671875,4521.0703125,8842.4189453125,4538.6279296875,6132.443359375,4666.88232421875,1285.711669921875,8355.73046875,8144.6513671875,8296.0205078125,-15278.0947265625,-0.0,0.0,8964.271484375,6552.41259765625,-3822.491943359375,0.0,11945.291015625
-5133.1162109375,-11105.5859375,6222.04833984375,8583.4462890625,14642.818359375,14526.1923828125,13586.25,12524.115234375,13109.873046875,9731.2021484375,16554.0703125,0.0,12418.9541015625,0.0,11667.509765625,15821.7861328125,25692.59765625,11925.2060546875,7767.8115234375,5735.31201171875,3286.782958984375,14492.1650390625,12852.115234375,9298.98828125,0.0,2035.33349609375,6548.78515625,4357.64697265625,-1679.60546875,-7785.54931640625,12790.171875,3011.191162109375,8905.396484375,14040.9501953125,9715.08203125,15306.1181640625,5028.62890625,9618.8505859375,3549.31689453125,0.0,4465.8330078125,11855.869140625,6664.49755859375,8656.9267578125,19075.572265625,6359.67236328125,-3532.239501953125,7381.9736328125,5677.5986328125,25560.603515625,5863.783203125,11864.4404296875,-7551.45703125,-10580.6044921875,7314.16455078125,4506.1572265625,8842.38671875,4531.21044921875,6128.7236328125,4674.35546875,1281.418212890625,8352.6435546875,8144.04443359375,8302.359375,-15280.01171875,-0.0,0.0,8960.662109375,6550.4501953125,-3821.10791015625,0.0,11952.3876953125
-5157.14404296875,-11107.603515625,6211.38525390625,8569.4541015625,14642.0498046875,14521.5810546875,13589.1328125,12524.5634765625,13119.9755859375,9739.927734375,16540.759765625,0.0,12417.8896484375,0.0,11668.517578125,15815.1484375,25687.3984375,11921.400390625,7767.974609375,5741.27197265625,3280.056884765625,14488.0556640625,12852.294921875,9297.5302734375,0.0,2032.4674072265625,6549.5546875,4352.75048828125,-1683.313232421875,-7789.54931640625,12786.4130859375,3007.145751953125,8898.34375,14035.9013671875,9712.189453125,15302.4111328125,5030.99951171875,9619.525390625,3549.81591796875,0.0,4458.84521484375,11849.734375,6664.2763671875,8655.1015625,19079.09375,6363.54345703125,-3534.340087890625,7369.6591796875,5676.82763671875,25556.8046875,5867.6044921875,11861.287109375,-7568.18212890625,-10562.4814453125,7319.359375,4497.79296875,8843.7373046875,4524.14404296875,6135.09912109375,4679.0166015625,1278.18798828125,8348.4169921875,8147.11572265625,8313.3935546875,-15287.1171875,-0.0,0.0,8955.6708984375,6570.8603515625,-3811.5966796875,0.0,11965.1123046875
-5184.77734375,-11107.748046875,6205.4970703125,8568.1884765625,14637.5703125,14519.5810546875,13587.6240234375,12522.9970703125,13121.921875,9734.8173828125,16539.806640625,0.0,12412.3720703125,0.0,11663.712890625,15813.380859375,25681.400390625,11917.2412109375,7766.42919921875,5736.5517578125,3274.359619140625,14484.005859375,12849.77734375,9295.78125,0.0,2033.82177734375,6547.01953125,4351.078125,-1689.03076171875,-7793.42236328125,12782.9765625,2994.784912109375,8890.0849609375,14030.8544921875,9706.9033203125,15297.2060546875,5027.60986328125,9617.009765625,3536.22119140625,0.0,4452.74658203125,11846.9404296875,6661.61669921875,8651.3212890625,19078.763671875,6361.4921875,-3535.153076171875,7367.78076171875,5672.48681640625,25558.75390625,5865.94921875,11857.1865234375,-7604.66552734375,-10564.6611328125,7317.81884765625,4496.6806640625,8840.919921875,4521.34912109375,6135.83251953125,4675.8857421875,1269.3455810546875,8341.3291015625,8145.5576171875,8303.1884765625,-15289.0810546875,-0.0,0.0,8951.068359375,6576.5625,-3816.902587890625,0.0,11957.818359375
-5201.04638671875,-11079.5068359375,6211.560546875,8568.404296875,14640.712890625,14526.513671875,13593.224609375,12530.451171875,13131.158203125,9734.412109375,16548.509765625,0.0,12413.033203125,0.0,11669.8935546875,15825.716796875,25684.0,11920.4755859375,7772.4853515625,5741.869140625,3277.37158203125,14488.341796875,12854.5732421875,9299.587890625,0.0,2039.2364501953125,6550.32470703125,4360.2841796875,-1688.79345703125,-7794.8037109375,12785.7490234375,2992.07861328125,8892.322265625,14031.943359375,9708.7158203125,15302.0556640625,5031.94873046875,9622.583984375,3536.669189453125,0.0,4458.97412109375,11850.63671875,6666.10302734375,8657.384765625,19086.0546875,6365.98779296875,-3541.805419921875,7366.8515625,5677.265625,25568.30078125,5870.4072265625,11865.2255859375,-7621.99951171875,-10553.71875,7319.47021484375,4506.7646484375,8843.2998046875,4530.54736328125,6144.921875,4675.68603515625,1323.029541015625,8340.6494140625,8151.08251953125,8310.814453125,-15289.6904296875,-0.0,0.0,8955.5966796875,6582.916015625,-3822.0390625,0.0,11951.9287109375
-5221.83642578125,-11083.0732421875,6208.41650390625,8559.365234375,14635.259765625,14523.529296875,13589.1689453125,12529.0478515625,13123.2529296875,9718.8955078125,16549.546875,0.0,12411.0009765625,0.0,11668.0439453125,15829.365234375,25680.71484375,11915.478515625,7767.703125,5732.45458984375,3273.1904296875,14483.275390625,12850.140625,9294.8173828125,0.0,2036.2431640625,6546.01025390625,4362.8515625,-1693.1036376953125,-7797.1494140625,12780.5029296875,2989.462890625,8890.5361328125,14028.2958984375,9703.896484375,15298.9423828125,5026.93994140625,9619.0966796875,3556.515380859375,0.0,4454.3349609375,11847.0068359375,6662.6640625,8654.45703125,19081.51171875,6359.3173828125,-3527.175537109375,7358.7646484375,5671.27587890625,25566.044921875,5867.28662109375,11868.9208984375,-7632.537109375,-10573.935546875,7309.27001953125,4509.3291015625,8839.4931640625,4534.81640625,6140.6005859375,4670.6357421875,1341.5987548828125,8332.1220703125,8143.78564453125,8303.34375,-15295.2333984375,-0.0,0.0,8952.7939453125,6575.1865234375,-3831.126953125,0.0,11940.6328125
-5137.1904296875,-11040.115234375,6201.50634765625,8567.330078125,14631.728515625,14522.927734375,13585.61328125,12532.896484375,13117.470703125,9717.125,16551.880859375,0.0,12407.0498046875,0.0,11666.3056640625,15836.578125,25675.279296875,11914.716796875,7767.52294921875,5727.716796875,3271.660400390625,14482.279296875,12849.4189453125,9295.7490234375,0.0,2033.1395263671875,6543.56689453125,4364.75634765625,-1693.6865234375,-7799.09326171875,12780.451171875,2988.390869140625,8887.025390625,14027.5185546875,9700.71484375,15297.98046875,5025.0888671875,9618.8837890625,3533.791259765625,0.0,4450.45654296875,11847.2294921875,6660.001953125,8655.1787109375,19078.732421875,6362.115234375,-3548.248779296875,7366.13720703125,5669.56494140625,25562.599609375,5866.193359375,11877.3896484375,-7619.29345703125,-10598.2734375,7306.234375,4508.22412109375,8836.9716796875,4536.17724609375,6135.44189453125,4680.5244140625,1288.486083984375,8330.9638671875,8142.24853515625,8294.8837890625,-15289.03515625,-0.0,0.0,8950.5361328125,6570.8203125,-3832.820068359375,0.0,11932.98046875
-5088.2314453125,-11015.2685546875,6193.95751953125,8567.1669921875,14633.642578125,14526.7890625,13592.556640625,12540.328125,13131.2412109375,9741.1083984375,16540.154296875,0.0,12407.322265625,0.0,11673.6123046875,15840.185546875,25674.8828125,11917.3134765625,7774.919921875,5745.18408203125,3272.078369140625,14484.6025390625,12855.2646484375,9299.6328125,0.0,2031.580322265625,6548.2861328125,4369.29833984375,-1689.3385009765625,-7797.86669921875,12781.9091796875,2990.38037109375,8885.6591796875,14027.37890625,9703.615234375,15300.861328125,5032.20703125,9626.677734375,3541.991943359375,0.0,4448.5517578125,11845.921875,6663.7431640625,8660.7333984375,19085.921875,6374.02587890625,-3576.01708984375,7365.603515625,5673.31787109375,25566.55859375,5870.9443359375,11886.3408203125,-7585.5625,-10564.38671875,7306.9365234375,4509.34130859375,8842.310546875,4538.23681640625,6146.931640625,4687.93798828125,1272.37841796875,8335.2109375,8151.90283203125,8312.794921875,-15291.3203125,-0.0,0.0,8956.2744140625,6590.2333984375,-3817.3408203125,0.0,11955.5185546875
-5109.76220703125,-11030.1064453125,6185.72998046875,8551.9755859375,14626.9892578125,14517.5,13587.7197265625,12527.279296875,13129.265625,9737.716796875,16522.423828125,0.0,12399.4296875,0.0,11669.060546875,15819.5517578125,25670.578125,11910.8212890625,7766.13134765625,5743.59521484375,3264.92724609375,14476.8466796875,12848.7197265625,9290.546875,0.0,2022.4351806640625,6542.49169921875,4357.13623046875,-1694.5927734375,-7796.796875,12774.6279296875,2990.495361328125,8879.958984375,14021.97265625,9698.5595703125,15293.5478515625,5025.93115234375,9618.751953125,3547.344970703125,0.0,4440.30712890625,11836.7265625,6657.240234375,8650.0185546875,19078.9765625,6364.47998046875,-3573.44677734375,7352.81103515625,5668.8349609375,25557.275390625,5866.38671875,11868.6259765625,-7575.5185546875,-10539.736328125,7304.81787109375,4500.26123046875,8836.5263671875,4524.52783203125,6143.3017578125,4670.58251953125,1260.623779296875,8330.029296875,8144.30615234375,8308.9462890625,-15301.146484375,-0.0,0.0,8946.40234375,6587.59033203125,-3822.166748046875,0.0,11955.8798828125
-5143.42822265625,-11013.9462890625,6199.3935546875,8566.505859375,14634.9072265625,14527.1083984375,13591.0380859375,12532.6142578125,13124.861328125,9748.56640625,16539.208984375,0.0,12405.6337890625,0.0,11665.2451171875,15824.2158203125,25680.583984375,11921.326171875,7771.7060546875,5745.66015625,3276.052978515625,14488.939453125,12855.3427734375,9300.9951171875,0.0,2037.3426513671875,6546.39306640625,4364.77734375,-1687.213623046875,-7773.162109375,12784.4833984375,2997.0498046875,8889.0517578125,14031.5849609375,9706.84375,15303.3486328125,5030.35498046875,9625.166015625,3544.694580078125,0.0,4451.458984375,11850.0908203125,6662.8837890625,8658.2001953125,19082.521484375,6370.42236328125,-3546.700439453125,7368.03125,5675.02001953125,25568.005859375,5867.33544921875,11868.892578125,-7584.23876953125,-10511.2822265625,7316.60009765625,4516.19970703125,8838.400390625,4539.92724609375,6138.5224609375,4678.6787109375,1266.1322021484375,8343.0810546875,8150.31787109375,8304.97265625,-15293.552734375,-0.0,0.0,8959.525390625,6570.3955078125,-3809.9404296875,0.0,11959.3125
-5169.2509765625,-11014.50390625,6217.958984375,8579.8388671875,14642.6572265625,14539.1943359375,13593.83984375,12537.046875,13118.7802734375,9748.94921875,16557.28125,0.0,12414.8876953125,0.0,11664.94921875,15831.103515625,25692.892578125,11931.9873046875,7778.431640625,5742.5205078125,3287.71826171875,14501.2685546875,12862.6826171875,9309.1826171875,0.0,2055.4501953125,6551.53076171875,4374.3642578125,-1678.98095703125,-7759.42431640625,12794.4033203125,3005.1708984375,8901.130859375,14042.630859375,9716.6220703125,15313.806640625,5036.669921875,9631.158203125,3560.169677734375,0.0,4464.30908203125,11863.109375,6671.125,8667.6455078125,19084.9375,6372.3193359375,-3537.212646484375,7381.58837890625,5680.97705078125,25582.615234375,5869.04150390625,11872.509765625,-7576.96630859375,-10491.208984375,7322.06787109375,4536.3017578125,8841.78515625,4560.49462890625,6135.322265625,4679.61376953125,1290.250244140625,8356.0078125,8152.837890625,8291.1806640625,-15285.4072265625,-0.0,0.0,8969.1220703125,6560.8984375,-3808.51025390625,0.0,11955.640625
-5169.78564453125,-11043.0283203125,6214.2216796875,8575.61328125,14641.7431640625,14538.845703125,13593.48828125,12535.052734375,13118.775390625,9736.60546875,16551.86328125,0.0,12413.1708984375,0.0,11665.3857421875,15833.4521484375,25691.66015625,11931.7724609375,7777.9677734375,5739.302734375,3286.202392578125,14498.3916015625,12861.2548828125,9308.87890625,0.0,2054.744140625,6551.39306640625,4375.39697265625,-1683.63671875,-7768.98876953125,12793.7978515625,3004.30859375,8900.1806640625,14040.19140625,9716.806640625,15314.0107421875,5036.20263671875,9629.103515625,3568.325439453125,0.0,4463.0634765625,11861.6953125,6670.365234375,8668.3173828125,19083.923828125,6369.94970703125,-3553.520263671875,7377.900390625,5680.3603515625,25581.046875,5869.80859375,11872.7294921875,-7570.2568359375,-10539.46875,7315.21240234375,4533.650390625,8840.8720703125,4564.20849609375,6137.7890625,4679.59375,1291.9920654296875,8358.044921875,8150.8486328125,8289.802734375,-15284.998046875,-0.0,0.0,8967.51171875,6562.44970703125,-3814.278564453125,0.0,11948.8037109375
-5166.43212890625,-11063.6552734375,6207.45703125,8579.4658203125,14643.2685546875,14540.0693359375,13596.8291015625,12541.7138671875,13127.046875,9736.484375,16547.302734375,0.0,12412.68359375,0.0,11667.474609375,15845.2578125,25687.6875,11934.0771484375,7782.00537109375,5744.7255859375,3286.16259765625,14498.837890625,12863.9189453125,9314.0732421875,0.0,2052.984375,6555.96826171875,4381.60986328125,-1683.7607421875,-7769.28271484375,12794.42578125,2995.3076171875,8896.5830078125,14037.9931640625,9716.099609375,15315.4208984375,5040.47216796875,9633.1748046875,3549.389404296875,0.0,4459.859375,11862.408203125,6674.03076171875,8671.91796875,19088.37890625,6375.11376953125,-3554.044677734375,7379.36181640625,5680.98828125,25582.38671875,5874.24072265625,11884.0048828125,-7575.7109375,-10571.1015625,7314.87353515625,4530.68798828125,8846.9111328125,4568.67626953125,6144.8798828125,4682.576171875,1278.23583984375,8363.9091796875,8155.31884765625,8304.654296875,-15286.0283203125,-0.0,0.0,8968.13671875,6571.60595703125,-3815.332763671875,0.0,11947.5498046875
-5145.8759765625,-11043.5078125,6201.470703125,8571.810546875,14638.6572265625,14531.80078125,13594.974609375,12539.4130859375,13131.126953125,9738.01171875,16540.8359375,0.0,12410.291015625,0.0,11671.4443359375,15842.8251953125,25682.521484375,11930.5283203125,7779.244140625,5747.20458984375,3280.72705078125,14493.244140625,12860.2373046875,9308.8115234375,0.0,2043.686767578125,6556.56591796875,4375.29443359375,-1689.82958984375,-7782.7724609375,12788.14453125,2990.3349609375,8890.55078125,14030.9765625,9711.20703125,15311.12109375,5039.3681640625,9629.11328125,3540.43603515625,0.0,4454.5546875,11854.259765625,6671.0634765625,8665.8603515625,19087.5625,6372.87744140625,-3554.40576171875,7372.6708984375,5678.0009765625,25573.841796875,5875.19189453125,11885.833984375,-7587.7548828125,-10565.140625,7310.55322265625,4510.20654296875,8853.3125,4556.37890625,6146.1875,4676.08447265625,1273.51953125,8362.1826171875,8153.51123046875,8308.4453125,-15293.4404296875,-0.0,0.0,8961.076171875,6583.6064453125,-3818.828857421875,0.0,11947.6044921875
-5182.4892578125,-11061.6025390625,6200.0185546875,8561.431640625,14633.173828125,14519.298828125,13592.2744140625,12526.16015625,13131.537109375,9734.2578125,16536.673828125,0.0,12411.7080078125,0.0,11678.2255859375,15825.306640625,25677.03125,11923.0283203125,7771.78466796875,5744.89404296875,3275.465576171875,14483.4453125,12853.0751953125,9298.732421875,0.0,2027.5557861328125,6555.7646484375,4357.5478515625,-1696.57568359375,-7805.5830078125,12780.919921875,2985.390380859375,8887.3603515625,14023.1591796875,9705.373046875,15301.8203125,5031.833984375,9619.2958984375,3550.774169921875,0.0,4452.39697265625,11844.1123046875,6664.65234375,8653.1826171875,19083.73828125,6364.57421875,-3561.56396484375,7363.16064453125,5674.20849609375,25555.9921875,5873.8984375,11868.6455078125,-7598.98388671875,-10585.2099609375,7304.91357421875,4490.5556640625,8859.1376953125,4532.04931640625,6145.34765625,4667.09228515625,1279.8428955078125,8355.5556640625,8149.0595703125,8309.86328125,-15300.333984375,-0.0,0.0,8953.12109375,6593.6640625,-3827.62158203125,0.0,11947.5380859375
-5194.693359375,-11072.9384765625,6212.24462890625,8571.9404296875,14635.2685546875,14519.103515625,13592.708984375,12522.65625,13130.90625,9733.87109375,16541.2890625,0.0,12419.7626953125,0.0,11682.9306640625,15817.9716796875,25682.908203125,11925.26171875,7770.0126953125,5744.42919921875,3280.822998046875,14487.6484375,12853.966796875,9298.7158203125,0.0,2029.890625,6558.228515625,4351.63330078125,-1691.47021484375,-7802.86572265625,12786.1455078125,2996.69921875,8894.4677734375,14030.44140625,9707.19140625,15302.79296875,5031.01123046875,9618.75390625,3546.362060546875,0.0,4459.291015625,11849.1201171875,6667.41552734375,8650.546875,19083.65234375,6363.00830078125,-3560.578857421875,7371.3154296875,5675.06884765625,25553.74609375,5875.93017578125,11861.0537109375,-7600.43994140625,-10586.2119140625,7303.89794921875,4497.931640625,8859.974609375,4527.43896484375,6144.66015625,4668.75341796875,1300.800048828125,8360.439453125,8149.4970703125,8313.6318359375,-15300.3037109375,-0.0,0.0,8942.5791015625,6588.89404296875,-3834.58740234375,0.0,11943.7421875
-5157.4052734375,-11056.5283203125,6215.46484375,8579.8984375,14635.462890625,14524.9599609375,13591.333984375,12528.517578125,13125.5009765625,9731.2255859375,16544.150390625,0.0,12411.16015625,0.0,11675.314453125,15827.5517578125,25689.71875,11929.5810546875,7770.431640625,5743.12255859375,3283.574462890625,14493.25390625,12854.046875,9302.0458984375,0.0,2039.3631591796875,6554.89892578125,4361.0703125,-1692.1260986328125,-7789.888671875,12791.24609375,3011.676025390625,8898.212890625,14038.2744140625,9710.0771484375,15306.7431640625,5030.21728515625,9623.8740234375,3547.154296875,0.0,4462.67626953125,11855.560546875,6666.08740234375,8656.521484375,19082.939453125,6366.91650390625,-3555.467041015625,7380.75390625,5674.138671875,25561.44921875,5871.974609375,11869.8466796875,-7589.89013671875,-10548.1259765625,7294.05712890625,4512.0810546875,8846.7607421875,4542.1328125,6140.7880859375,4684.34375,1318.2052001953125,8365.5751953125,8149.32666015625,8313.109375,-15300.490234375,-0.0,0.0,8946.0888671875,6574.271484375,-3830.3505859375,0.0,11949.2861328125
-5159.10009765625,-11122.7138671875,6215.3115234375,8591.5810546875,14632.94140625,14527.9140625,13587.044921875,12529.236328125,13114.421875,9708.720703125,16544.1953125,0.0,12398.19921875,0.0,11665.6357421875,15828.890625,25694.091796875,11930.7373046875,7767.5283203125,5728.98974609375,3284.166015625,14496.4677734375,12852.0595703125,9301.5908203125,0.0,2045.30517578125,6548.48291015625,4365.9208984375,-1694.09423828125,-7783.51171875,12794.0478515625,3017.386474609375,8899.896484375,14044.73046875,9709.5234375,15307.59765625,5024.70654296875,9622.6025390625,3568.663330078125,0.0,4462.12939453125,11860.5595703125,6662.23876953125,8659.025390625,19076.38671875,6363.2109375,-3547.570556640625,7392.83154296875,5671.904296875,25566.4375,5865.9033203125,11873.861328125,-7573.73193359375,-10561.3056640625,7301.96044921875,4522.35400390625,8833.2822265625,4545.681640625,6135.298828125,4688.412109375,1303.9466552734375,8367.26171875,8140.72412109375,8290.1943359375,-15294.26171875,-0.0,0.0,8946.0576171875,6568.6494140625,-3839.99560546875,0.0,11929.7294921875
-5147.17431640625,-11151.3359375,6216.6611328125,8591.33984375,14636.6806640625,14532.3916015625,13590.939453125,12535.9013671875,13117.01171875,9707.484375,16548.333984375,0.0,12404.291015625,0.0,11669.9345703125,15834.73046875,25697.203125,11936.349609375,7772.42333984375,5733.17529296875,3288.822021484375,14499.6591796875,12857.14453125,9307.1064453125,0.0,2049.26025390625,6554.1689453125,4373.47998046875,-1684.3306884765625,-7773.78515625,12796.328125,3014.398681640625,8902.4658203125,14046.365234375,9713.0166015625,15312.5576171875,5028.9140625,9627.57421875,3587.31982421875,0.0,4463.677734375,11860.67578125,6667.5595703125,8663.0947265625,19079.7734375,6366.05810546875,-3534.1435546875,7392.3056640625,5677.8583984375,25573.587890625,5872.54248046875,11881.4560546875,-7569.1240234375,-10596.390625,7323.4482421875,4527.50634765625,8838.9189453125,4551.9560546875,6135.1064453125,4690.57275390625,1286.6524658203125,8376.81640625,8144.19970703125,8292.4580078125,-15282.7490234375,-0.0,0.0,8947.5068359375,6570.75146484375,-3835.869873046875,0.0,11925.6669921875
-5106.65673828125,-11075.26953125,6217.30810546875,8583.20703125,14645.8486328125,14538.6884765625,13600.2890625,12545.1494140625,13128.7255859375,9722.388671875,16553.263671875,0.0,12416.0234375,0.0,11689.7587890625,15852.74609375,25695.900390625,11943.869140625,7782.15087890625,5748.67138671875,3293.645751953125,14502.3271484375,12864.09765625,9316.767578125,0.0,2054.42138671875,6567.99609375,4385.36376953125,-1670.701904296875,-7769.0,12797.8818359375,3010.22705078125,8903.037109375,14044.060546875,9720.3642578125,15319.212890625,5038.6865234375,9636.8408203125,3571.004638671875,0.0,4468.19482421875,11861.9677734375,6676.80615234375,8672.0634765625,19090.193359375,6371.787109375,-3543.38916015625,7385.06640625,5690.83154296875,25583.646484375,5885.81884765625,11894.173828125,-7548.18017578125,-10569.6806640625,7336.1767578125,4533.4384765625,8853.7646484375,4563.8544921875,6139.0693359375,4677.17822265625,1296.9976806640625,8388.822265625,8154.69287109375,8310.6015625,-15275.0234375,-0.0,0.0,8963.55859375,6584.97119140625,-3826.88818359375,0.0,11937.3046875
-5112.12255859375,-11060.646484375,6213.337890625,8580.646484375,14645.814453125,14541.34375,13600.779296875,12544.9013671875,13129.4013671875,9731.3291015625,16552.251953125,0.0,12424.2138671875,0.0,11696.2138671875,15857.8212890625,25695.369140625,11944.1298828125,7783.29443359375,5749.9453125,3294.809814453125,14504.7080078125,12864.7666015625,9317.5693359375,0.0,2060.111328125,6570.30322265625,4391.98095703125,-1668.6746826171875,-7762.98388671875,12799.0400390625,3010.8017578125,8900.7294921875,14044.830078125,9721.30859375,15321.1171875,5038.67724609375,9635.9013671875,3565.725830078125,0.0,4465.71142578125,11863.875,6678.33740234375,8675.2119140625,19091.349609375,6371.1552734375,-3540.28955078125,7380.92236328125,5692.78857421875,25590.5078125,5886.56396484375,11895.212890625,-7543.7373046875,-10521.025390625,7343.14404296875,4537.08935546875,8858.4619140625,4570.28759765625,6142.91455078125,4661.4580078125,1302.4000244140625,8394.216796875,8154.98193359375,8303.431640625,-15273.5810546875,-0.0,0.0,8966.9775390625,6578.41015625,-3830.033447265625,0.0,11936.515625
-5180.04345703125,-11017.154296875,6204.97314453125,8566.9013671875,14633.5234375,14528.5986328125,13586.3603515625,12526.5908203125,13114.3046875,9726.318359375,16534.69921875,0.0,12410.150390625,0.0,11676.658203125,15832.6865234375,25686.10546875,11930.94921875,7767.798828125,5738.19677734375,3284.996337890625,14490.884765625,12852.498046875,9304.2255859375,0.0,2049.26171875,6554.6904296875,4376.51708984375,-1684.0721435546875,-7769.1640625,12786.572265625,3004.904296875,8890.9072265625,14032.865234375,9710.8896484375,15306.7470703125,5024.6708984375,9621.4052734375,3565.45263671875,0.0,4454.74267578125,11850.4287109375,6665.46875,8659.390625,19077.076171875,6356.060546875,-3537.53369140625,7367.08056640625,5677.330078125,25579.587890625,5868.63037109375,11867.3662109375,-7559.21630859375,-10517.97265625,7326.43310546875,4528.58203125,8848.8291015625,4554.92333984375,6134.13134765625,4643.150390625,1286.7508544921875,8383.4267578125,8142.220703125,8294.08203125,-15287.931640625,-0.0,0.0,8954.7021484375,6558.5400390625,-3837.78759765625,0.0,11933.2509765625
-5213.54931640625,-10984.916015625,6211.958984375,8565.7646484375,14632.748046875,14522.0146484375,13581.5546875,12520.3564453125,13111.484375,9724.9130859375,16525.494140625,0.0,12401.443359375,0.0,11663.6572265625,15818.2734375,25687.177734375,11927.951171875,7761.9423828125,5736.76513671875,3285.34130859375,14486.6640625,12850.5263671875,9298.4248046875,0.0,2044.757080078125,6548.529296875,4363.74267578125,-1690.6234130859375,-7778.16162109375,12785.564453125,3009.252197265625,8892.771484375,14031.826171875,9709.0703125,15302.0546875,5021.4111328125,9616.060546875,3553.466552734375,0.0,4456.30126953125,11847.9716796875,6662.2900390625,8653.185546875,19073.96875,6351.8046875,-3543.41845703125,7366.1953125,5674.9228515625,25571.16796875,5862.48486328125,11855.3076171875,-7559.1328125,-10516.984375,7317.58984375,4530.80078125,8840.76171875,4541.130859375,6135.044921875,4639.4208984375,1290.7158203125,8380.0009765625,8139.3232421875,8300.3330078125,-15293.3037109375,-0.0,0.0,8955.6337890625,6558.2744140625,-3834.705810546875,0.0,11940.0615234375
-5186.29833984375,-11053.8154296875,6210.966796875,8566.8759765625,14631.0224609375,14513.7763671875,13581.35546875,12517.0234375,13109.4091796875,9724.427734375,16533.462890625,0.0,12399.021484375,0.0,11655.9560546875,15805.6357421875,25689.998046875,11925.3564453125,7761.2314453125,5736.66650390625,3285.02978515625,14484.9033203125,12849.2080078125,9294.1572265625,0.0,2032.129150390625,6545.9736328125,4349.18994140625,-1688.655029296875,-7802.3076171875,12785.2236328125,3015.39404296875,8894.6337890625,14034.0166015625,9707.3310546875,15300.619140625,5019.12451171875,9613.056640625,3539.828857421875,0.0,4453.8193359375,11844.0068359375,6661.75341796875,8645.5849609375,19073.44921875,6353.84130859375,-3547.982421875,7366.26708984375,5675.017578125,25551.798828125,5862.2001953125,11850.7958984375,-7578.3154296875,-10525.55859375,7319.23779296875,4512.8154296875,8837.943359375,4523.4130859375,6141.732421875,4650.80859375,1294.860595703125,8377.6162109375,8137.984375,8301.2744140625,-15289.828125,-0.0,0.0,8956.828125,6556.18359375,-3824.40185546875,0.0,11953.7236328125
-5139.85986328125,-11068.9814453125,6208.0234375,8566.29296875,14630.197265625,14506.5244140625,13580.6279296875,12510.5419921875,13104.91796875,9722.4033203125,16548.44140625,0.0,12400.5869140625,0.0,11653.5712890625,15794.955078125,25683.341796875,11921.0380859375,7758.75537109375,5734.015625,3280.4501953125,14478.5078125,12845.7236328125,9289.6298828125,0.0,2022.016357421875,6545.947265625,4335.529296875,-1685.2681884765625,-7820.5380859375,12778.9404296875,3001.4150390625,8889.310546875,14027.646484375,9705.3779296875,15296.75,5017.31201171875,9608.4755859375,3522.47021484375,0.0,4452.33935546875,11836.4599609375,6661.59912109375,8638.435546875,19070.58203125,6351.1298828125,-3551.46923828125,7366.171875,5675.572265625,25539.314453125,5862.8564453125,11841.7548828125,-7597.111328125,-10571.025390625,7320.6494140625,4491.580078125,8842.3017578125,4508.53955078125,6136.986328125,4659.1396484375,1289.6859130859375,8373.546875,8135.3671875,8298.099609375,-15284.828125,-0.0,0.0,8954.1298828125,6564.888671875,-3821.378662109375,0.0,11951.857421875
-5098.14892578125,-11048.970703125,6214.03466796875,8571.7470703125,14636.548828125,14517.24609375,13590.787109375,12522.083984375,13121.5986328125,9738.05859375,16556.658203125,0.0,12416.34765625,0.0,11664.232421875,15813.0205078125,25683.830078125,11930.4873046875,7769.68359375,5749.787109375,3286.513671875,14485.349609375,12854.9697265625,9298.8505859375,0.0,2032.87109375,6557.36474609375,4347.38916015625,-1678.36083984375,-7813.77783203125,12784.9931640625,2993.408935546875,8892.0400390625,14029.83203125,9714.4755859375,15305.830078125,5027.8544921875,9619.3544921875,3530.713134765625,0.0,4457.01171875,11845.3359375,6670.96826171875,8650.1123046875,19082.6171875,6362.84619140625,-3548.57470703125,7372.4951171875,5685.37158203125,25550.9296875,5876.05126953125,11857.5634765625,-7583.24951171875,-10581.931640625,7325.0654296875,4504.09033203125,8847.75,4522.1484375,6143.95654296875,4668.8125,1303.3558349609375,8384.501953125,8148.27880859375,8314.5537109375,-15278.27734375,-0.0,0.0,8961.0068359375,6586.099609375,-3812.784912109375,0.0,11962.7109375
-5109.84375,-11079.2470703125,6209.66259765625,8572.1982421875,14633.5,14519.8896484375,13587.4462890625,12524.87890625,13124.79296875,9743.796875,16556.26953125,0.0,12413.837890625,0.0,11660.578125,15820.37109375,25684.849609375,11932.712890625,7771.1025390625,5753.56982421875,3284.591064453125,14487.5419921875,12856.197265625,9302.0625,0.0,2037.6600341796875,6554.8486328125,4353.78564453125,-1682.4603271484375,-7808.982421875,12785.9033203125,2995.150634765625,8892.806640625,14029.357421875,9714.357421875,15308.0166015625,5028.08154296875,9623.240234375,3559.318115234375,0.0,4454.125,11848.580078125,6668.38232421875,8653.4638671875,19084.107421875,6366.58642578125,-3548.115234375,7373.06103515625,5680.68505859375,25556.51171875,5872.11767578125,11863.3271484375,-7589.26708984375,-10557.2529296875,7315.87158203125,4510.89697265625,8837.75,4530.21484375,6142.990234375,4669.68701171875,1297.5758056640625,8386.642578125,8149.41162109375,8320.5595703125,-15285.005859375,-0.0,0.0,8966.9140625,6578.9658203125,-3811.95556640625,0.0,11968.51953125
-5169.90283203125,-11107.62890625,6197.9658203125,8557.005859375,14619.880859375,14510.6015625,13571.2958984375,12514.0615234375,13109.3037109375,9723.759765625,16543.37890625,0.0,12394.466796875,0.0,11642.798828125,15814.2861328125,25672.642578125,11917.9296875,7757.15673828125,5736.509765625,3270.994140625,14476.017578125,12842.8857421875,9290.1787109375,0.0,2031.97607421875,6537.56884765625,4345.2216796875,-1702.470703125,-7808.93505859375,12773.4912109375,2979.64111328125,8879.701171875,14016.197265625,9699.693359375,15295.48828125,5014.3017578125,9610.89453125,3565.832763671875,0.0,4441.859375,11836.564453125,6653.17236328125,8641.958984375,19068.427734375,6352.95654296875,-3546.25048828125,7358.60791015625,5662.89453125,25549.736328125,5853.6171875,11852.0595703125,-7612.32470703125,-10583.69921875,7301.49169921875,4505.35302734375,8822.43359375,4519.3935546875,6124.4716796875,4665.37744140625,1255.2786865234375,8371.833984375,8134.30712890625,8299.2060546875,-15301.1640625,-0.0,0.0,8954.28515625,6565.283203125,-3832.16796875,0.0,11941.4677734375
-5183.18994140625,-11099.4267578125,6198.494140625,8552.166015625,14618.33203125,14508.740234375,13572.0322265625,12517.5302734375,13114.2197265625,9721.4072265625,16530.640625,0.0,12388.2568359375,0.0,11645.0615234375,15816.552734375,25670.400390625,11915.328125,7756.6982421875,5737.4736328125,3269.3046875,14474.201171875,12840.7265625,9290.646484375,0.0,2028.5560302734375,6536.255859375,4345.7646484375,-1707.789306640625,-7809.21533203125,12772.35546875,2980.822265625,8879.3974609375,14015.94140625,9697.1875,15293.87890625,5013.65966796875,9610.47265625,3562.216552734375,0.0,4440.63037109375,11833.9921875,6652.607421875,8641.0712890625,19069.03515625,6353.05517578125,-3547.825927734375,7353.9599609375,5662.46533203125,25547.17578125,5853.82275390625,11855.1708984375,-7606.04443359375,-10590.7939453125,7301.18994140625,4505.68603515625,8822.2841796875,4517.22607421875,6127.92724609375,4666.53076171875,1256.8045654296875,8366.5126953125,8134.45166015625,8296.580078125,-15303.5615234375,-0.0,0.0,8957.541015625,6580.92626953125,-3829.634521484375,0.0,11937.185546875
-5165.55322265625,-11085.8154296875,6203.8779296875,8555.7880859375,14625.751953125,14510.384765625,13579.9755859375,12522.388671875,13123.4736328125,9733.353515625,16527.4765625,0.0,12396.869140625,0.0,11657.6845703125,15814.2041015625,25676.080078125,11918.1962890625,7763.4375,5748.32958984375,3273.078125,14478.1142578125,12846.501953125,9293.5537109375,0.0,2025.550048828125,6544.79248046875,4347.66650390625,-1701.298583984375,-7814.33642578125,12776.4794921875,2986.455810546875,8886.8095703125,14021.18359375,9701.98046875,15298.3720703125,5020.3525390625,9615.0341796875,3554.83740234375,0.0,4447.38330078125,11835.0185546875,6660.35595703125,8645.5478515625,19077.939453125,6359.3447265625,-3546.757568359375,7357.9814453125,5671.19970703125,25546.787109375,5861.81689453125,11859.8515625,-7600.33154296875,-10558.9345703125,7307.1923828125,4499.48291015625,8830.8095703125,4517.85009765625,6138.1416015625,4665.24560546875,1272.2525634765625,8367.283203125,8142.30078125,8311.12109375,-15297.173828125,-0.0,0.0,8968.9716796875,6586.81640625,-3817.894775390625,0.0,11954.08984375
-5161.60498046875,-11092.126953125,6201.9482421875,8563.923828125,14625.943359375,14509.1982421875,13579.8564453125,12514.5634765625,13112.337890625,9730.3037109375,16530.1953125,0.0,12402.5634765625,0.0,11660.3173828125,15799.828125,25675.044921875,11915.318359375,7760.70849609375,5742.36181640625,3272.30322265625,14476.4736328125,12844.734375,9288.9072265625,0.0,2025.1094970703125,6544.064453125,4339.47412109375,-1694.146484375,-7813.2490234375,12775.1494140625,2983.358642578125,8884.8369140625,14022.6630859375,9702.1533203125,15297.7412109375,5017.7099609375,9609.1298828125,3537.98388671875,0.0,4448.2626953125,11835.8447265625,6659.78857421875,8641.2890625,19072.271484375,6353.66064453125,-3548.700439453125,7365.43310546875,5673.19091796875,25545.171875,5861.94482421875,11846.0869140625,-7597.390625,-10561.9765625,7313.62451171875,4493.41064453125,8836.0146484375,4509.4873046875,6131.42724609375,4662.15576171875,1268.3316650390625,8361.6337890625,8137.88916015625,8305.0966796875,-15293.08203125,-0.0,0.0,8961.35546875,6556.46240234375,-3822.005859375,0.0,11950.740234375
-5170.7392578125,-11061.86328125,6198.03466796875,8568.8076171875,14625.6083984375,14509.0,13582.7041015625,12511.158203125,13107.7744140625,9729.0830078125,16534.5078125,0.0,12407.07421875,0.0,11670.0283203125,15796.1748046875,25673.173828125,11913.96875,7759.98291015625,5736.857421875,3271.9169921875,14476.021484375,12844.8212890625,9287.8427734375,0.0,2025.131591796875,6548.26416015625,4337.42626953125,-1694.2623291015625,-7808.037109375,12774.6181640625,2985.64111328125,8883.6611328125,14023.6181640625,9701.908203125,15295.650390625,5017.04150390625,9607.4951171875,3535.3251953125,0.0,4446.76611328125,11837.33203125,6661.42724609375,8640.5439453125,19073.505859375,6351.005859375,-3552.484619140625,7369.82666015625,5673.62841796875,25546.408203125,5868.61572265625,11838.4140625,-7597.14501953125,-10585.4169921875,7320.82177734375,4499.63525390625,8843.7392578125,4509.57421875,6142.5263671875,4661.1826171875,1283.5484619140625,8357.53125,8135.52197265625,8298.0146484375,-15293.056640625,-0.0,0.0,8946.2880859375,6549.39013671875,-3828.821044921875,0.0,11945.41796875
-5187.3193359375,-11038.6279296875,6194.068359375,8558.1201171875,14623.6396484375,14506.015625,13584.7685546875,12512.3154296875,13110.09765625,9728.5546875,16535.12890625,0.0,12406.4921875,0.0,11675.9716796875,15807.25390625,25668.8515625,11909.64453125,7758.9580078125,5737.076171875,3268.404296875,14472.5556640625,12845.7421875,9284.568359375,0.0,2022.3658447265625,6549.6943359375,4339.267578125,-1700.30419921875,-7815.7197265625,12770.3525390625,2981.37158203125,8880.47265625,14017.10546875,9699.9208984375,15291.67578125,5018.10302734375,9609.0712890625,3541.54931640625,0.0,4441.51025390625,11832.728515625,6660.8291015625,8640.4697265625,19075.6953125,6352.31494140625,-3555.247314453125,7358.6640625,5670.46533203125,25544.2578125,5872.5146484375,11844.7431640625,-7606.6142578125,-10596.115234375,7314.88427734375,4497.35205078125,8845.9306640625,4512.412109375,6147.6259765625,4661.76708984375,1274.9981689453125,8351.734375,8136.193359375,8301.9951171875,-15294.8359375,-0.0,0.0,8940.7275390625,6557.81640625,-3833.27001953125,0.0,11947.638671875
-5169.39306640625,-11066.779296875,6194.59375,8557.15625,14624.974609375,14509.5244140625,13588.072265625,12519.453125,13118.736328125,9732.087890625,16538.16015625,0.0,12406.6962890625,0.0,11675.310546875,15821.091796875,25669.947265625,11910.6103515625,7762.3076171875,5743.8447265625,3268.405517578125,14473.478515625,12846.9521484375,9287.0673828125,0.0,2023.654541015625,6549.98486328125,4345.7392578125,-1694.7381591796875,-7811.43212890625,12771.6806640625,2985.257568359375,8880.794921875,14017.5615234375,9701.2119140625,15293.6279296875,5022.28662109375,9614.9921875,3522.97607421875,0.0,4442.64013671875,11833.5615234375,6660.81982421875,8644.9873046875,19078.060546875,6359.55810546875,-3552.826904296875,7355.9140625,5669.05908203125,25549.14453125,5874.63916015625,11856.4208984375,-7609.90576171875,-10581.197265625,7307.46484375,4500.15771484375,8845.669921875,4519.564453125,6140.69775390625,4673.123046875,1279.77001953125,8351.2705078125,8140.92138671875,8310.8779296875,-15310.095703125,-0.0,0.0,8945.3798828125,6570.4599609375,-3830.588134765625,0.0,11948.1962890625
-5179.837890625,-11054.0048828125,6207.8857421875,8557.2197265625,14630.015625,14517.1572265625,13592.0947265625,12528.7607421875,13125.7333984375,9736.2548828125,16543.28125,0.0,12407.7890625,0.0,11674.4931640625,15831.9677734375,25674.72265625,11915.7861328125,7767.8046875,5748.42724609375,3273.72802734375,14478.783203125,12850.94921875,9293.7109375,0.0,2029.6717529296875,6551.9091796875,4357.099609375,-1692.1785888671875,-7794.603515625,12777.8759765625,2990.900634765625,8887.650390625,14024.1474609375,9705.71484375,15298.8193359375,5025.2587890625,9621.291015625,3520.071533203125,0.0,4448.97216796875,11838.3623046875,6666.5,8652.9091796875,19081.076171875,6366.21875,-3535.083740234375,7356.50732421875,5671.39306640625,25557.466796875,5877.56103515625,11869.283203125,-7613.8349609375,-10554.4404296875,7309.8076171875,4511.50927734375,8845.37109375,4534.32666015625,6137.1640625,4679.27880859375,1299.198486328125,8356.2490234375,8146.17529296875,8310.0595703125,-15308.892578125,-0.0,0.0,8957.1328125,6584.80517578125,-3821.897216796875,0.0,11945.2998046875
-5190.50439453125,-11066.853515625,6221.744140625,8567.75,14635.5302734375,14525.42578125,13593.52734375,12532.2841796875,13130.724609375,9740.1494140625,16549.71484375,0.0,12408.31640625,0.0,11668.0859375,15831.6396484375,25684.25390625,11923.5478515625,7771.779296875,5751.65625,3282.27685546875,14487.2177734375,12857.044921875,9299.6181640625,0.0,2041.4525146484375,6552.1123046875,4366.05615234375,-1693.4517822265625,-7773.671875,12786.3701171875,2995.234375,8896.5400390625,14032.8798828125,9711.5908203125,15306.8154296875,5030.369140625,9625.134765625,3550.03515625,0.0,4459.5595703125,11847.640625,6669.8349609375,8660.15625,19083.177734375,6369.03173828125,-3531.1318359375,7367.6279296875,5677.1689453125,25569.41015625,5874.30419921875,11873.970703125,-7603.5751953125,-10534.83203125,7307.98291015625,4525.8505859375,8843.732421875,4547.91259765625,6134.966796875,4679.81982421875,1302.9239501953125,8362.5068359375,8149.69921875,8308.0654296875,-15288.4580078125,-0.0,0.0,8971.31640625,6590.28857421875,-3814.69091796875,0.0,11943.0126953125
-5165.9482421875,-11084.9052734375,6222.818359375,8590.43359375,14637.3193359375,14533.103515625,13592.2470703125,12533.6279296875,13131.6337890625,9743.6796875,16548.0234375,0.0,12410.3916015625,0.0,11659.810546875,15828.6806640625,25692.56640625,11929.453125,7776.0283203125,5755.01708984375,3288.552978515625,14495.349609375,12860.8896484375,9305.5048828125,0.0,2049.6259765625,6550.52099609375,4369.466796875,-1689.7918701171875,-7760.9013671875,12794.212890625,3004.34521484375,8902.484375,14042.2939453125,9715.1796875,15312.6962890625,5033.73291015625,9628.3623046875,3567.29052734375,0.0,4463.97216796875,11859.439453125,6669.26611328125,8664.578125,19086.376953125,6372.068359375,-3541.53564453125,7390.8779296875,5678.064453125,25577.064453125,5868.99755859375,11870.220703125,-7579.1181640625,-10542.94921875,7313.25634765625,4527.576171875,8843.4130859375,4550.20166015625,6138.96630859375,4678.52294921875,1299.67578125,8366.26953125,8152.72998046875,8310.966796875,-15284.34375,-0.0,0.0,8972.080078125,6582.455078125,-3817.578125,0.0,11940.7744140625
-5190.4453125,-11104.4912109375,6210.67333984375,8589.9619140625,14631.8896484375,14527.609375,13590.3232421875,12529.6875,13131.140625,9744.1103515625,16533.197265625,0.0,12403.99609375,0.0,11662.0380859375,15826.1171875,25688.62890625,11923.70703125,7773.251953125,5754.76025390625,3283.593017578125,14490.4443359375,12858.041015625,9300.9931640625,0.0,2047.4586181640625,6548.904296875,4361.78369140625,-1697.0352783203125,-7775.15234375,12789.0654296875,3002.12158203125,8897.921875,14040.1962890625,9710.8046875,15307.875,5030.13134765625,9624.8720703125,3584.7392578125,0.0,4454.49609375,11857.359375,6667.58935546875,8657.84765625,19087.125,6368.72216796875,-3548.75439453125,7392.13232421875,5673.58447265625,25569.8046875,5868.91064453125,11861.625,-7559.3330078125,-10566.826171875,7312.546875,4511.73388671875,8844.3369140625,4541.22412109375,6148.2353515625,4680.66015625,1292.4781494140625,8360.2421875,8151.64208984375,8310.96484375,-15289.1923828125,-0.0,0.0,8970.2685546875,6588.10009765625,-3821.298095703125,0.0,11941.69140625
-5200.345703125,-11095.783203125,6201.11962890625,8575.888671875,14628.3369140625,14520.9775390625,13589.6103515625,12530.712890625,13133.0263671875,9745.1494140625,16533.55078125,0.0,12401.294921875,0.0,11667.0244140625,15830.4052734375,25682.25,11917.599609375,7771.35498046875,5753.90771484375,3276.9638671875,14483.61328125,12853.958984375,9297.09765625,0.0,2040.791748046875,6550.3623046875,4363.48681640625,-1701.201416015625,-7782.17041015625,12782.0146484375,2994.17724609375,8890.6025390625,14031.1982421875,9707.369140625,15302.2119140625,5029.41259765625,9623.0927734375,3596.622802734375,0.0,4448.86328125,11848.6123046875,6665.431640625,8655.7470703125,19087.337890625,6368.50390625,-3556.09375,7377.458984375,5673.2197265625,25565.408203125,5870.26220703125,11866.8984375,-7574.79931640625,-10564.240234375,7306.8046875,4509.14404296875,8845.2353515625,4543.0849609375,6153.22705078125,4686.0029296875,1295.884521484375,8355.353515625,8151.39501953125,8310.3134765625,-15296.6650390625,-0.0,0.0,8973.509765625,6601.40380859375,-3810.884765625,0.0,11960.962890625
-5150.2822265625,-11058.099609375,6201.39208984375,8569.19140625,14627.033203125,14523.4169921875,13585.978515625,12537.6953125,13125.373046875,9751.9287109375,16541.185546875,0.0,12404.3603515625,0.0,11660.00390625,15837.89453125,25681.01953125,11919.0234375,7771.5712890625,5753.72802734375,3276.373291015625,14484.4873046875,12854.625,9299.5810546875,0.0,2040.7147216796875,6548.04541015625,4370.73388671875,-1690.8450927734375,-7773.34765625,12782.2314453125,2993.971923828125,8890.287109375,14030.328125,9709.9052734375,15304.353515625,5030.9521484375,9626.3291015625,3575.435302734375,0.0,4448.9169921875,11849.2802734375,6664.35595703125,8659.8623046875,19084.802734375,6374.5654296875,-3550.9140625,7371.296875,5672.9560546875,25568.291015625,5866.87744140625,11875.1083984375,-7596.66650390625,-10537.5625,7310.69384765625,4512.416015625,8840.400390625,4548.91259765625,6141.5234375,4694.81640625,1287.273193359375,8356.0615234375,8152.1123046875,8313.26953125,-15298.0810546875,-0.0,0.0,8979.5380859375,6573.3056640625,-3794.401611328125,0.0,11983.2041015625
-5118.24658203125,-11074.255859375,6198.96630859375,8569.7490234375,14625.5576171875,14524.0390625,13585.140625,12536.6044921875,13116.962890625,9753.4375,16546.3671875,0.0,12407.09765625,0.0,11655.466796875,15837.9599609375,25680.8515625,11918.9130859375,7770.15283203125,5752.91943359375,3276.96630859375,14485.4013671875,12853.416015625,9298.3896484375,0.0,2044.1763916015625,6546.3916015625,4367.8798828125,-1684.6153564453125,-7775.30908203125,12782.7138671875,3000.049560546875,8887.7880859375,14031.5439453125,9709.3837890625,15305.2744140625,5027.720703125,9625.4775390625,3551.965087890625,0.0,4447.080078125,11851.552734375,6661.81201171875,8659.5283203125,19080.45703125,6375.18896484375,-3563.68603515625,7371.76904296875,5670.927734375,25567.283203125,5864.75634765625,11875.505859375,-7584.27197265625,-10529.138671875,7309.43505859375,4516.7578125,8837.9619140625,4544.10107421875,6131.43115234375,4697.31982421875,1276.32568359375,8356.1865234375,8150.14990234375,8313.0341796875,-15291.044921875,-0.0,0.0,8973.33203125,6549.8388671875,-3795.42724609375,0.0,11987.328125
-5113.77197265625,-11069.7392578125,6202.08203125,8589.2001953125,14628.306640625,14527.4453125,13586.3232421875,12536.8037109375,13112.5234375,9745.7294921875,16557.220703125,0.0,12412.5498046875,0.0,11658.84765625,15841.685546875,25686.11328125,11922.1689453125,7770.02783203125,5746.32275390625,3280.3486328125,14491.43359375,12854.30859375,9301.7041015625,0.0,2048.736083984375,6548.3935546875,4370.2890625,-1680.342529296875,-7776.27978515625,12788.4765625,3006.368408203125,8890.9609375,14038.9853515625,9712.06640625,15308.84375,5027.2626953125,9625.0107421875,3542.921875,0.0,4449.4296875,11858.7998046875,6661.21435546875,8663.134765625,19079.34375,6372.28466796875,-3571.69775390625,7390.06787109375,5674.64453125,25569.876953125,5866.20947265625,11880.275390625,-7573.1484375,-10551.7919921875,7312.041015625,4529.16259765625,8841.3505859375,4545.36962890625,6131.693359375,4687.40478515625,1273.440673828125,8358.7509765625,8147.146484375,8306.5166015625,-15277.0859375,-0.0,0.0,8968.232421875,6547.1962890625,-3806.9404296875,0.0,11973.6201171875
-5113.4326171875,-11048.3251953125,6206.66015625,8595.0830078125,14633.6416015625,14533.6689453125,13591.5087890625,12543.1611328125,13116.1826171875,9748.072265625,16554.140625,0.0,12414.1806640625,0.0,11666.7265625,15854.0927734375,25692.23828125,11927.80078125,7774.7880859375,5748.22021484375,3284.63720703125,14497.0751953125,12859.744140625,9307.072265625,0.0,2053.3369140625,6552.5654296875,4379.146484375,-1680.2679443359375,-7776.94921875,12793.2373046875,3008.13623046875,8897.4248046875,14045.3828125,9717.8623046875,15314.8857421875,5032.935546875,9629.931640625,3539.089111328125,0.0,4455.76806640625,11865.55078125,6667.04833984375,8669.744140625,19084.658203125,6375.90869140625,-3581.201904296875,7395.3974609375,5679.8896484375,25577.54296875,5871.486328125,11887.1982421875,-7559.31884765625,-10586.6455078125,7315.66943359375,4532.43798828125,8847.3779296875,4554.17578125,6142.9755859375,4687.89990234375,1301.0428466796875,8362.771484375,8150.0205078125,8308.8095703125,-15276.28125,-0.0,0.0,8980.1298828125,6564.03955078125,-3805.697265625,0.0,11967.9951171875
-5158.865234375,-11023.50390625,6207.61474609375,8584.1884765625,14631.2978515625,14529.9912109375,13589.5419921875,12539.6650390625,13114.142578125,9743.322265625,16542.43359375,0.0,12408.7763671875,0.0,11666.40234375,15851.578125,25686.572265625,11925.4306640625,7772.615234375,5748.25634765625,3282.1494140625,14491.2451171875,12855.28515625,9303.65234375,0.0,2050.25390625,6550.4365234375,4376.5869140625,-1685.3797607421875,-7789.0947265625,12788.845703125,3000.099609375,8892.9150390625,14037.986328125,9713.806640625,15309.4560546875,5029.58837890625,9627.1220703125,3538.12158203125,0.0,4454.33447265625,11859.7958984375,6664.494140625,8666.63671875,19081.91015625,6372.26318359375,-3583.98193359375,7383.51513671875,5676.6142578125,25575.875,5870.35546875,11883.322265625,-7565.4775390625,-10581.515625,7311.1162109375,4526.45068359375,8846.1962890625,4552.72705078125,6144.58447265625,4681.6025390625,1303.528564453125,8361.7548828125,8147.98095703125,8312.634765625,-15290.03125,-0.0,0.0,8976.4658203125,6572.12451171875,-3812.544189453125,0.0,11959.23828125
-5201.81494140625,-11013.130859375,6206.3115234375,8570.87109375,14625.1123046875,14518.8447265625,13581.732421875,12531.2841796875,13107.64453125,9739.6630859375,16535.705078125,0.0,12401.5625,0.0,11661.8232421875,15834.1904296875,25677.529296875,11917.7607421875,7765.23486328125,5744.27294921875,3275.97705078125,14480.6943359375,12847.2958984375,9295.6904296875,0.0,2036.7003173828125,6545.2509765625,4363.88525390625,-1690.10400390625,-7801.46728515625,12779.783203125,2985.358154296875,8887.6025390625,14026.1748046875,9706.732421875,15299.9599609375,5021.87353515625,9618.5341796875,3560.31494140625,0.0,4450.3115234375,11846.29296875,6658.951171875,8656.955078125,19075.984375,6365.56787109375,-3558.245361328125,7370.58203125,5671.18505859375,25561.7734375,5865.64892578125,11870.6923828125,-7597.75146484375,-10562.5703125,7298.86474609375,4512.27294921875,8841.2626953125,4541.4951171875,6133.990234375,4683.25439453125,1290.95263671875,8355.2314453125,8143.0498046875,8304.447265625,-15297.9345703125,-0.0,0.0,8967.0732421875,6571.1845703125,-3819.06201171875,0.0,11954.1923828125
-5191.40087890625,-11036.537109375,6214.22998046875,8558.6181640625,14627.68359375,14519.0087890625,13580.75390625,12532.3076171875,13109.2734375,9735.0126953125,16546.529296875,0.0,12404.125,0.0,11659.8671875,15832.5244140625,25680.025390625,11918.4130859375,7765.9423828125,5744.21923828125,3278.539794921875,14480.08984375,12849.14453125,9297.9052734375,0.0,2037.4925537109375,6545.39794921875,4364.17333984375,-1691.288330078125,-7795.5283203125,12780.3505859375,2990.97998046875,8891.7724609375,14026.025390625,9708.6796875,15301.5166015625,5022.1396484375,9619.263671875,3573.604736328125,0.0,4455.39013671875,11844.23828125,6661.07421875,8656.759765625,19077.0703125,6366.83154296875,-3515.86962890625,7357.9404296875,5673.451171875,25561.697265625,5865.4267578125,11871.0498046875,-7619.3349609375,-10550.4609375,7298.15185546875,4502.5185546875,8838.1953125,4543.92822265625,6132.86083984375,4692.9482421875,1303.5394287109375,8356.546875,8142.4462890625,8300.314453125,-15292.552734375,-0.0,0.0,8969.1962890625,6566.0400390625,-3816.28466796875,0.0,11960.8486328125
-5187.41259765625,-11098.0029296875,6219.7177734375,8563.6552734375,14627.671875,14519.6103515625,13581.689453125,12528.2197265625,13114.7822265625,9723.4443359375,16542.63671875,0.0,12409.3662109375,0.0,11660.05859375,15826.755859375,25679.130859375,11917.9013671875,7763.490234375,5741.62060546875,3279.66552734375,14480.5595703125,12848.474609375,9297.1005859375,0.0,2041.314697265625,6545.5107421875,4361.537109375,-1696.4725341796875,-7798.84033203125,12781.1728515625,2995.35693359375,8891.6416015625,14026.681640625,9707.681640625,15300.3232421875,5021.7607421875,9617.37109375,3542.3955078125,0.0,4456.841796875,11846.5322265625,6658.80810546875,8653.0703125,19076.857421875,6361.48291015625,-3505.722900390625,7362.81640625,5671.32275390625,25560.96484375,5865.00634765625,11867.7939453125,-7633.626953125,-10558.0107421875,7302.04248046875,4505.13818359375,8838.58203125,4539.05029296875,6137.0361328125,4683.216796875,1278.3470458984375,8356.9677734375,8140.091796875,8308.0,-15297.4443359375,-0.0,0.0,8961.4443359375,6568.01025390625,-3826.184814453125,0.0,11951.6357421875
-5167.7080078125,-11140.9658203125,6215.21240234375,8572.1015625,14626.3154296875,14516.7900390625,13585.09375,12525.3701171875,13124.955078125,9727.6123046875,16526.7109375,0.0,12409.619140625,0.0,11668.640625,15822.4736328125,25677.93359375,11914.48828125,7762.7021484375,5747.59228515625,3278.167236328125,14479.728515625,12846.6142578125,9294.513671875,0.0,2037.6744384765625,6549.6796875,4354.20068359375,-1698.1146240234375,-7811.48583984375,12779.224609375,2996.06787109375,8889.9521484375,14027.5703125,9706.1064453125,15299.07421875,5022.33984375,9616.19921875,3532.76953125,0.0,4452.484375,11846.3203125,6659.388671875,8648.6787109375,19080.3359375,6359.59375,-3527.424072265625,7372.01025390625,5671.1318359375,25554.951171875,5869.01171875,11865.07421875,-7610.43896484375,-10569.3740234375,7307.5146484375,4506.62158203125,8845.8115234375,4527.15771484375,6144.634765625,4673.4697265625,1273.72119140625,8354.2109375,8142.37646484375,8314.583984375,-15310.62890625,-0.0,0.0,8952.8828125,6590.8193359375,-3829.71923828125,0.0,11951.9208984375
-5171.0244140625,-11116.9130859375,6207.50634765625,8573.5185546875,14623.896484375,14515.2900390625,13583.8876953125,12525.728515625,13124.0380859375,9725.435546875,16524.716796875,0.0,12404.7216796875,0.0,11674.9873046875,15827.6201171875,25678.23046875,11911.7568359375,7761.892578125,5744.77001953125,3275.580810546875,14478.5302734375,12845.2607421875,9292.4560546875,0.0,2031.4461669921875,6551.36083984375,4353.84228515625,-1698.4072265625,-7817.044921875,12778.4990234375,3000.484130859375,8888.765625,14029.8828125,9704.7705078125,15296.7626953125,5023.2265625,9615.21875,3544.00146484375,0.0,4448.70654296875,11844.083984375,6660.275390625,8648.0341796875,19078.482421875,6356.375,-3563.622802734375,7373.25390625,5672.32470703125,25552.619140625,5870.77880859375,11868.2939453125,-7596.09521484375,-10575.3271484375,7306.67138671875,4504.751953125,8847.896484375,4519.392578125,6143.03173828125,4658.2802734375,1286.6832275390625,8352.8564453125,8139.6650390625,8305.908203125,-15309.6611328125,-0.0,0.0,8949.0439453125,6593.58740234375,-3830.4814453125,0.0,11953.7822265625
-5161.26513671875,-11065.1865234375,6205.953125,8574.3671875,14625.76171875,14518.9921875,13585.6181640625,12530.8466796875,13114.6123046875,9713.0107421875,16537.615234375,0.0,12403.1201171875,0.0,11678.0615234375,15838.05859375,25681.427734375,11914.37890625,7763.9599609375,5735.2685546875,3277.168212890625,14481.2548828125,12847.65625,9295.2998046875,0.0,2034.504638671875,6552.79052734375,4363.54248046875,-1693.823974609375,-7804.54736328125,12782.654296875,3001.9833984375,8889.6337890625,14032.4609375,9706.552734375,15300.60546875,5024.0693359375,9617.962890625,3557.1083984375,0.0,4450.17138671875,11847.3125,6662.45068359375,8653.5849609375,19076.16796875,6357.01123046875,-3572.0458984375,7374.83251953125,5674.79833984375,25561.23828125,5871.41455078125,11874.498046875,-7598.7177734375,-10566.57421875,7304.41455078125,4515.083984375,8848.9873046875,4526.859375,6135.29931640625,4656.6875,1267.3253173828125,8355.9619140625,8135.81787109375,8289.2265625,-15297.876953125,-0.0,0.0,8953.5712890625,6583.23876953125,-3833.11962890625,0.0,11939.041015625
-5145.51416015625,-11038.8115234375,6207.14599609375,8573.1015625,14627.4462890625,14528.1923828125,13585.615234375,12542.232421875,13109.0712890625,9714.2939453125,16550.9296875,0.0,12407.4033203125,0.0,11669.791015625,15855.9326171875,25683.046875,11919.9345703125,7769.56201171875,5735.57275390625,3280.27685546875,14487.29296875,12850.109375,9304.767578125,0.0,2043.422119140625,6552.24755859375,4379.4287109375,-1684.87109375,-7787.7119140625,12787.4326171875,2996.613037109375,8891.193359375,14033.24609375,9710.3232421875,15308.548828125,5027.02294921875,9626.1416015625,3571.36474609375,0.0,4450.52490234375,11852.9736328125,6664.06396484375,8666.0595703125,19077.93359375,6366.70166015625,-3554.695556640625,7373.4765625,5675.80224609375,25574.81640625,5868.1142578125,11891.2802734375,-7585.03955078125,-10535.3251953125,7315.4091796875,4520.9189453125,8845.458984375,4549.5625,6134.62744140625,4679.39501953125,1276.67333984375,8363.23046875,8141.22607421875,8284.1689453125,-15282.25390625,-0.0,0.0,8960.3798828125,6571.986328125,-3832.76123046875,0.0,11930.2509765625
-5159.32275390625,-11047.9873046875,6206.4306640625,8573.751953125,14625.0654296875,14529.8984375,13583.2900390625,12540.85546875,13103.70703125,9717.7314453125,16556.908203125,0.0,12411.794921875,0.0,11659.1279296875,15850.33203125,25681.875,11921.857421875,7769.4169921875,5731.8779296875,3278.92724609375,14489.291015625,12850.2314453125,9306.06640625,0.0,2046.1121826171875,6547.08349609375,4382.17236328125,-1683.060302734375,-7774.50390625,12787.365234375,2990.986328125,8890.1484375,14034.8623046875,9710.6162109375,15309.0888671875,5025.90966796875,9625.669921875,3571.615966796875,0.0,4447.63134765625,11852.580078125,6661.20068359375,8666.30859375,19076.5703125,6364.49609375,-3547.7890625,7373.74365234375,5674.04833984375,25576.748046875,5861.34130859375,11889.0263671875,-7578.52001953125,-10513.927734375,7318.8525390625,4516.91552734375,8841.072265625,4560.45556640625,6132.47021484375,4682.4521484375,1300.2471923828125,8367.5322265625,8141.2724609375,8276.5849609375,-15274.8828125,-0.0,0.0,8963.9248046875,6561.58154296875,-3832.430908203125,0.0,11929.9306640625
-5147.24755859375,-11039.435546875,6212.62158203125,8579.8349609375,14629.9345703125,14530.607421875,13585.041015625,12534.2646484375,13101.79296875,9717.828125,16556.95703125,0.0,12413.3193359375,0.0,11667.3212890625,15833.552734375,25686.046875,11925.44140625,7769.03759765625,5729.22607421875,3280.67724609375,14491.9091796875,12853.3798828125,9305.572265625,0.0,2053.18408203125,6550.501953125,4377.7607421875,-1683.1517333984375,-7761.6328125,12790.962890625,2996.4111328125,8892.5615234375,14039.826171875,9714.078125,15311.8583984375,5026.318359375,9623.3984375,3546.253662109375,0.0,4453.9091796875,11856.1435546875,6663.57763671875,8663.2021484375,19076.583984375,6357.68798828125,-3530.817626953125,7380.35400390625,5678.22314453125,25579.21875,5864.2060546875,11877.1064453125,-7583.8798828125,-10520.4326171875,7323.0078125,4530.3486328125,8846.796875,4562.9931640625,6129.91650390625,4669.17431640625,1306.063720703125,8371.529296875,8138.53466796875,8278.7119140625,-15281.6806640625,-0.0,0.0,8972.423828125,6557.890625,-3830.150634765625,0.0,11927.8759765625
-5153.60400390625,-11048.140625,6214.8515625,8576.26171875,14626.8916015625,14522.421875,13581.8369140625,12521.970703125,13101.9990234375,9732.1181640625,16547.150390625,0.0,12406.9921875,0.0,11668.4794921875,15811.93359375,25682.064453125,11919.611328125,7763.23046875,5734.3564453125,3279.26611328125,14487.484375,12849.8349609375,9298.28125,0.0,2047.6358642578125,6550.13232421875,4361.0068359375,-1688.1246337890625,-7773.783203125,12785.763671875,2996.6484375,8890.109375,14034.3056640625,9710.751953125,15304.3212890625,5024.53076171875,9617.3330078125,3517.478271484375,0.0,4454.18115234375,11850.822265625,6661.85693359375,8653.16796875,19073.005859375,6355.4638671875,-3539.611572265625,7376.7705078125,5677.06494140625,25566.8984375,5864.83154296875,11854.46875,-7597.99755859375,-10573.814453125,7324.294921875,4531.287109375,8846.833984375,4551.8759765625,6132.16015625,4662.76171875,1306.4647216796875,8368.4716796875,8138.41357421875,8290.8134765625,-15288.7822265625,-0.0,0.0,8972.2509765625,6555.90234375,-3822.17333984375,0.0,11940.5908203125
-5173.51904296875,-11067.748046875,6208.93994140625,8576.576171875,14619.8232421875,14513.150390625,13574.322265625,12513.4638671875,13097.361328125,9737.1650390625,16540.76171875,0.0,12394.9072265625,0.0,11654.09765625,15804.416015625,25682.025390625,11911.6865234375,7757.31396484375,5733.60595703125,3274.5908203125,14480.44140625,12842.140625,9289.486328125,0.0,2035.697509765625,6541.48291015625,4349.216796875,-1693.4031982421875,-7789.69677734375,12779.908203125,3008.041748046875,8887.6279296875,14032.923828125,9705.8779296875,15296.41015625,5017.138671875,9610.3310546875,3516.724365234375,0.0,4447.59619140625,11844.12109375,6654.8623046875,8642.8837890625,19067.0703125,6351.68212890625,-3550.19677734375,7375.26171875,5671.79150390625,25554.99609375,5856.64892578125,11840.59375,-7607.96826171875,-10586.2099609375,7312.142578125,4518.67919921875,8836.0,4537.60400390625,6128.10302734375,4658.4072265625,1279.8218994140625,8360.2978515625,8133.8984375,8284.7080078125,-15290.4248046875,-0.0,0.0,8973.0224609375,6551.619140625,-3817.88623046875,0.0,11953.44921875
-5169.21728515625,-11036.1884765625,6210.4873046875,8579.0361328125,14624.1494140625,14514.9580078125,13576.015625,12518.0517578125,13101.34375,9733.8203125,16549.818359375,0.0,12392.9765625,0.0,11653.0703125,15812.732421875,25685.24609375,11913.6123046875,7760.224609375,5734.28076171875,3277.1083984375,14482.8818359375,12844.673828125,9291.96875,0.0,2037.2890625,6542.25341796875,4353.65869140625,-1692.120849609375,-7786.7763671875,12782.8486328125,3011.19091796875,8891.44140625,14034.9921875,9708.595703125,15299.8662109375,5017.7900390625,9612.7060546875,3555.537353515625,0.0,4452.5029296875,11847.126953125,6657.103515625,8647.115234375,19069.888671875,6355.125,-3554.0048828125,7379.1416015625,5674.55322265625,25558.9140625,5858.29638671875,11848.6953125,-7602.28173828125,-10554.8857421875,7308.14111328125,4521.56640625,8827.1005859375,4537.75146484375,6128.41796875,4666.76171875,1271.46728515625,8359.71875,8134.599609375,8288.1943359375,-15285.396484375,-0.0,0.0,8977.2177734375,6558.751953125,-3821.595947265625,0.0,11946.8837890625
-5176.8046875,-11030.7177734375,6215.46240234375,8569.1142578125,14627.2392578125,14517.31640625,13579.4443359375,12524.255859375,13107.5185546875,9733.3173828125,16556.21875,0.0,12399.3076171875,0.0,11655.1611328125,15819.3837890625,25682.310546875,11913.4267578125,7762.3564453125,5737.10986328125,3276.76123046875,14483.341796875,12847.8671875,9295.9140625,0.0,2042.1573486328125,6544.2177734375,4361.41943359375,-1689.8087158203125,-7775.52880859375,12781.421875,2996.362548828125,8894.0810546875,14030.552734375,9709.6123046875,15301.091796875,5021.703125,9616.02734375,3587.015380859375,0.0,4453.513671875,11847.3857421875,6658.67578125,8653.287109375,19073.314453125,6361.50439453125,-3551.42529296875,7371.2685546875,5675.45263671875,25567.3671875,5860.611328125,11856.5703125,-7586.83984375,-10537.7197265625,7315.26611328125,4528.80615234375,8830.8212890625,4551.7822265625,6135.53076171875,4682.62255859375,1293.34033203125,8357.884765625,8137.93017578125,8293.939453125,-15279.9580078125,-0.0,0.0,8984.5009765625,6560.46728515625,-3818.696044921875,0.0,11943.5068359375
-5182.03076171875,-11028.4013671875,6213.876953125,8563.486328125,14625.8662109375,14519.0703125,13578.27734375,12527.37890625,13104.595703125,9730.0576171875,16543.318359375,0.0,12408.4208984375,0.0,11655.802734375,15828.94140625,25681.29296875,11911.736328125,7762.0654296875,5734.71484375,3274.46875,14479.4521484375,12845.248046875,9296.583984375,0.0,2040.974853515625,6545.59228515625,4368.3330078125,-1688.7958984375,-7765.2080078125,12779.9775390625,2991.24462890625,8892.4912109375,14027.484375,9705.9052734375,15300.71875,5020.92333984375,9615.853515625,3581.80712890625,0.0,4452.23828125,11845.23828125,6656.939453125,8655.263671875,19071.77734375,6359.01708984375,-3559.912353515625,7364.72314453125,5673.03271484375,25571.578125,5858.8037109375,11863.349609375,-7582.92822265625,-10516.6435546875,7315.11328125,4532.60009765625,8836.1259765625,4559.5224609375,6130.5849609375,4682.59716796875,1288.6080322265625,8353.095703125,8136.796875,8291.697265625,-15279.56640625,-0.0,0.0,8985.517578125,6558.40576171875,-3820.18017578125,0.0,11945.8095703125
-5165.123046875,-11040.390625,6210.69580078125,8573.8564453125,14626.494140625,14521.01171875,13581.2705078125,12528.962890625,13103.5966796875,9725.6640625,16534.126953125,0.0,12415.00390625,0.0,11669.517578125,15828.0263671875,25684.765625,11913.6923828125,7762.22705078125,5732.2666015625,3277.732177734375,14482.6005859375,12848.384765625,9297.78125,0.0,2043.0123291015625,6551.17529296875,4366.61376953125,-1688.858642578125,-7773.474609375,12783.849609375,2994.185546875,8892.6982421875,14033.7265625,9705.1953125,15302.9560546875,5022.70166015625,9616.958984375,3594.152587890625,0.0,4451.8564453125,11849.40625,6658.6416015625,8656.6279296875,19071.818359375,6357.84033203125,-3576.102783203125,7374.69384765625,5674.31591796875,25569.0546875,5864.60107421875,11865.498046875,-7569.8310546875,-10545.2744140625,7311.8984375,4529.98779296875,8847.5869140625,4554.181640625,6127.90087890625,4680.97119140625,1304.50439453125,8354.2529296875,8134.85107421875,8282.693359375,-15281.9375,-0.0,0.0,8972.1025390625,6562.47119140625,-3825.706298828125,0.0,11939.8212890625
-5172.20556640625,-11091.6982421875,6211.08447265625,8585.46875,14628.4833984375,14525.1943359375,13585.3369140625,12536.1904296875,13107.431640625,9734.576171875,16533.552734375,0.0,12412.82421875,0.0,11674.552734375,15837.466796875,25689.4921875,11918.1044921875,7766.30224609375,5738.0068359375,3281.847900390625,14488.10546875,12852.3984375,9301.421875,0.0,2044.355712890625,6553.60400390625,4370.35498046875,-1685.6373291015625,-7781.00341796875,12788.541015625,3003.852783203125,8896.361328125,14041.55859375,9709.41015625,15307.3046875,5027.02197265625,9622.5888671875,3588.51904296875,0.0,4450.9326171875,11854.78515625,6661.41796875,8660.48046875,19076.294921875,6366.79541015625,-3553.965087890625,7385.787109375,5676.48388671875,25570.015625,5868.44140625,11874.5302734375,-7570.16015625,-10590.0498046875,7315.80517578125,4522.6162109375,8857.05078125,4555.26220703125,6135.39013671875,4694.2177734375,1326.921630859375,8359.302734375,8141.357421875,8283.46875,-15284.1533203125,-0.0,0.0,8981.2451171875,6562.3759765625,-3807.978515625,0.0,11943.220703125
-5159.7626953125,-11087.541015625,6212.12255859375,8588.7373046875,14631.2099609375,14527.07421875,13588.857421875,12539.1611328125,13117.3251953125,9736.3759765625,16526.8359375,0.0,12411.640625,0.0,11673.55078125,15845.7216796875,25690.595703125,11920.201171875,7770.35107421875,5745.388671875,3283.461181640625,14489.095703125,12853.7587890625,9302.982421875,0.0,2043.7010498046875,6557.388671875,4373.97607421875,-1687.9515380859375,-7780.4384765625,12790.107421875,3006.789794921875,8895.7666015625,14042.4248046875,9711.0966796875,15309.7705078125,5029.99755859375,9624.9951171875,3565.989990234375,0.0,4453.37060546875,11856.02734375,6665.234375,8661.248046875,19082.873046875,6369.775390625,-3558.29443359375,7388.4111328125,5680.16455078125,25569.9765625,5875.267578125,11878.26953125,-7587.79931640625,-10594.6875,7320.63916015625,4521.8701171875,8858.955078125,4555.64208984375,6147.82275390625,4690.12060546875,1323.2459716796875,8361.2568359375,8146.31787109375,8296.7333984375,-15294.298828125,-0.0,0.0,8989.5869140625,6589.6357421875,-3804.9365234375,0.0,11940.0830078125
-5165.5888671875,-11098.802734375,6206.619140625,8584.5595703125,14627.91796875,14523.2841796875,13584.2626953125,12531.654296875,13110.74609375,9725.4990234375,16541.61328125,0.0,12404.6259765625,0.0,11662.7060546875,15837.787109375,25683.005859375,11916.1142578125,7766.62255859375,5736.888671875,3278.241455078125,14484.947265625,12849.896484375,9298.4541015625,0.0,2043.3785400390625,6550.5322265625,4368.28564453125,-1690.9532470703125,-7786.08642578125,12784.2578125,2992.701904296875,8890.23046875,14036.50390625,9706.8916015625,15306.46875,5024.9814453125,9620.2265625,3555.568359375,0.0,4450.0126953125,11853.009765625,6660.2861328125,8656.9775390625,19077.9375,6361.6728515625,-3564.39306640625,7384.611328125,5676.4404296875,25569.306640625,5869.291015625,11872.5849609375,-7604.64306640625,-10590.689453125,7321.75830078125,4523.1708984375,8847.99609375,4549.33544921875,6142.73291015625,4670.47900390625,1291.193603515625,8357.685546875,8139.6044921875,8289.3115234375,-15297.013671875,-0.0,0.0,8982.7353515625,6583.5283203125,-3822.794677734375,0.0,11932.373046875
-5140.26708984375,-11057.734375,6203.08642578125,8572.3349609375,14624.986328125,14516.0009765625,13580.685546875,12523.4775390625,13105.6171875,9725.4013671875,16552.283203125,0.0,12401.931640625,0.0,11656.9912109375,15825.23828125,25673.994140625,11909.841796875,7761.6123046875,5734.951171875,3271.489990234375,14477.4052734375,12844.1708984375,9293.1455078125,0.0,2036.440673828125,6545.0322265625,4357.32568359375,-1689.966064453125,-7789.65869140625,12776.5947265625,2985.31103515625,8883.7822265625,14026.9736328125,9702.681640625,15299.4931640625,5020.85107421875,9614.7158203125,3530.239501953125,0.0,4444.7646484375,11844.666015625,6656.7158203125,8649.818359375,19074.4140625,6355.8232421875,-3555.112060546875,7371.74853515625,5673.0263671875,25561.767578125,5863.78369140625,11860.3974609375,-7611.23388671875,-10561.8486328125,7317.68310546875,4516.82177734375,8837.3740234375,4535.646484375,6134.47900390625,4660.11328125,1278.1832275390625,8351.4755859375,8136.88720703125,8296.04296875,-15286.8115234375,-0.0,0.0,8969.6015625,6560.58544921875,-3830.30126953125,0.0,11943.712890625
-5146.33984375,-11042.732421875,6196.19287109375,8561.2255859375,14619.2568359375,14509.2646484375,13577.00390625,12517.259765625,13108.0634765625,9720.96875,16539.4375,0.0,12399.7685546875,0.0,11659.78515625,15817.560546875,25668.037109375,11900.994140625,7756.880859375,5735.720703125,3265.006591796875,14468.74609375,12838.9306640625,9286.9560546875,0.0,2030.2957763671875,6544.51708984375,4351.77294921875,-1699.374267578125,-7791.9052734375,12768.4169921875,2983.24169921875,8876.64453125,14018.0986328125,9695.0126953125,15291.4443359375,5018.5654296875,9608.4599609375,3528.688232421875,0.0,4436.27001953125,11837.7529296875,6653.15283203125,8644.3505859375,19072.35546875,6350.2431640625,-3559.456787109375,7362.64990234375,5666.408203125,25554.888671875,5864.08154296875,11851.7451171875,-7609.15625,-10581.0849609375,7301.1025390625,4511.3876953125,8836.568359375,4529.7412109375,6133.44921875,4652.6201171875,1280.2469482421875,8341.7490234375,8135.189453125,8302.4375,-15294.8779296875,-0.0,0.0,8953.375,6572.04052734375,-3844.837646484375,0.0,11947.40625
-5165.5400390625,-11082.236328125,6195.9267578125,8563.0712890625,14614.7802734375,14505.9462890625,13572.837890625,12514.1943359375,13098.3583984375,9715.294921875,16532.9296875,0.0,12398.3330078125,0.0,11649.9111328125,15809.96484375,25669.21875,11898.359375,7752.90380859375,5727.21533203125,3264.466064453125,14465.83203125,12834.734375,9282.2373046875,0.0,2026.0047607421875,6536.96484375,4344.09033203125,-1696.942626953125,-7811.083984375,12767.6337890625,2986.386962890625,8877.498046875,14019.0712890625,9692.4384765625,15289.033203125,5015.20751953125,9605.1044921875,3540.91796875,0.0,4434.56201171875,11836.5791015625,6647.9794921875,8640.9267578125,19065.16015625,6346.49755859375,-3568.8916015625,7364.1181640625,5661.36328125,25548.90234375,5856.7578125,11849.48046875,-7588.447265625,-10578.9814453125,7298.84228515625,4504.4951171875,8826.392578125,4515.79248046875,6124.689453125,4654.2470703125,1276.178466796875,8338.8408203125,8131.74267578125,8292.6826171875,-15292.7958984375,-0.0,0.0,8931.94921875,6553.529296875,-3850.381591796875,0.0,11944.2734375
-5142.5703125,-11058.1826171875,6211.58251953125,8580.2783203125,14625.41015625,14516.7919921875,13581.5791015625,12526.5224609375,13103.0009765625,9727.787109375,16529.455078125,0.0,12406.1640625,0.0,11654.1181640625,15823.0048828125,25680.787109375,11909.3076171875,7762.3271484375,5734.21484375,3277.568603515625,14480.5927734375,12843.8662109375,9293.251953125,0.0,2038.496826171875,6542.0048828125,4354.48779296875,-1686.826171875,-7801.36767578125,12779.748046875,3001.48193359375,8890.0947265625,14030.8642578125,9704.361328125,15300.6650390625,5023.79931640625,9615.4326171875,3561.5166015625,0.0,4445.89892578125,11849.41015625,6655.6171875,8651.4365234375,19072.3984375,6359.43115234375,-3552.73876953125,7379.8720703125,5670.9970703125,25558.3125,5862.716796875,11863.095703125,-7561.72998046875,-10533.4970703125,7314.05712890625,4512.939453125,8830.498046875,4524.31689453125,6131.4306640625,4670.9755859375,1301.0135498046875,8347.8408203125,8142.0849609375,8294.474609375,-15277.5517578125,-0.0,0.0,8943.845703125,6546.2578125,-3830.484619140625,0.0,11947.4521484375
-5172.24609375,-11080.4453125,6205.81103515625,8566.84375,14621.330078125,14512.734375,13581.337890625,12522.8017578125,13108.1435546875,9725.044921875,16532.3046875,0.0,12399.0556640625,0.0,11665.978515625,15820.48046875,25675.521484375,11901.814453125,7759.28271484375,5733.48388671875,3272.808349609375,14475.7919921875,12841.36328125,9288.22265625,0.0,2034.9649658203125,6545.564453125,4357.04052734375,-1697.6722412109375,-7786.8837890625,12773.7607421875,2995.415771484375,8884.9375,14024.6728515625,9699.529296875,15295.51171875,5021.4140625,9612.58984375,3565.56689453125,0.0,4440.0771484375,11843.8154296875,6653.99072265625,8648.203125,19073.41796875,6356.63671875,-3550.7587890625,7368.35009765625,5668.826171875,25559.205078125,5866.8447265625,11859.60546875,-7568.81005859375,-10531.4833984375,7308.6103515625,4513.8994140625,8839.8193359375,4535.22998046875,6139.89501953125,4662.94677734375,1295.659423828125,8340.99609375,8140.62646484375,8284.03125,-15293.955078125,-0.0,0.0,8954.197265625,6583.08642578125,-3832.436767578125,0.0,11931.595703125
-5172.1826171875,-11098.677734375,6195.18408203125,8556.6796875,14614.974609375,14505.728515625,13576.0322265625,12512.2880859375,13098.859375,9707.3583984375,16541.705078125,0.0,12394.6591796875,0.0,11669.7919921875,15809.5732421875,25667.38671875,11892.1875,7751.3193359375,5721.24658203125,3264.017578125,14466.8623046875,12834.9931640625,9280.6484375,0.0,2030.6822509765625,6542.5322265625,4349.29541015625,-1703.05029296875,-7795.94189453125,12764.87890625,2985.00634765625,8876.154296875,14017.0224609375,9692.4619140625,15288.2314453125,5014.9990234375,9604.15234375,3545.742919921875,0.0,4434.18994140625,11835.9814453125,6648.55029296875,8639.9013671875,19065.8984375,6344.88818359375,-3560.3720703125,7357.67431640625,5663.34228515625,25554.595703125,5863.2724609375,11846.0947265625,-7587.638671875,-10535.69140625,7304.3388671875,4511.38818359375,8841.0302734375,4531.275390625,6130.5341796875,4653.20947265625,1275.63037109375,8330.296875,8130.845703125,8272.6044921875,-15302.6845703125,-0.0,0.0,8950.8193359375,6584.1220703125,-3848.26904296875,0.0,11917.5029296875
-5161.6357421875,-11064.4228515625,6208.2119140625,8579.0068359375,14627.447265625,14527.1318359375,13582.1982421875,12531.6953125,13095.0966796875,9716.2646484375,16558.765625,0.0,12407.08984375,0.0,11669.32421875,15841.0498046875,25680.822265625,11907.7978515625,7762.91796875,5721.296875,3276.308349609375,14485.052734375,12846.4599609375,9299.7587890625,0.0,2056.9580078125,6547.84912109375,4378.0517578125,-1691.075927734375,-7762.57421875,12779.578125,3000.507080078125,8888.9306640625,14033.4228515625,9705.3447265625,15306.453125,5023.9345703125,9619.2958984375,3550.47412109375,0.0,4447.3037109375,11857.0419921875,6657.31103515625,8661.10546875,19070.439453125,6358.18896484375,-3535.213134765625,7377.9580078125,5672.7529296875,25583.046875,5865.427734375,11871.4619140625,-7600.43994140625,-10526.6591796875,7318.375,4541.1015625,8844.484375,4568.90478515625,6124.15185546875,4672.77783203125,1279.8841552734375,8342.5908203125,8138.25537109375,8265.482421875,-15282.6396484375,-0.0,0.0,8985.4580078125,6549.42578125,-3839.27490234375,0.0,11918.4296875
-5167.97412109375,-11062.322265625,6211.3388671875,8584.3125,14632.0712890625,14536.029296875,13586.0966796875,12543.0244140625,13101.693359375,9723.3720703125,16555.34375,0.0,12410.5576171875,0.0,11668.9794921875,15852.4755859375,25684.44921875,11913.72265625,7769.296875,5727.43798828125,3278.16748046875,14489.970703125,12850.494140625,9307.0556640625,0.0,2066.749755859375,6552.31201171875,4394.8701171875,-1689.9405517578125,-7741.26611328125,12785.435546875,3002.662353515625,8891.2001953125,14038.5634765625,9710.5361328125,15312.5087890625,5029.4697265625,9627.578125,3557.6494140625,0.0,4448.70361328125,11864.12890625,6662.49072265625,8672.845703125,19075.79296875,6366.0908203125,-3541.708740234375,7384.04443359375,5675.09912109375,25596.9296875,5869.7646484375,11885.5390625,-7613.89404296875,-10523.4931640625,7316.85205078125,4555.97216796875,8846.2958984375,4592.60888671875,6133.140625,4678.791015625,1281.7117919921875,8348.2802734375,8143.4296875,8266.46875,-15283.287109375,-0.0,0.0,8996.73828125,6559.455078125,-3833.309326171875,0.0,11917.6455078125
-5162.93408203125,-11050.720703125,6213.99365234375,8590.845703125,14635.6650390625,14539.1865234375,13590.31640625,12545.431640625,13104.80859375,9725.7060546875,16543.66796875,0.0,12412.4306640625,0.0,11673.31640625,15849.7841796875,25686.552734375,11915.1728515625,7773.6650390625,5731.01904296875,3280.787353515625,14490.466796875,12853.53125,9309.7744140625,0.0,2067.518310546875,6555.8330078125,4394.38330078125,-1688.098388671875,-7746.58349609375,12789.412109375,3001.37548828125,8894.3115234375,14040.72265625,9714.8818359375,15314.849609375,5035.017578125,9629.6025390625,3560.52001953125,0.0,4452.50537109375,11867.3388671875,6666.34375,8675.521484375,19080.125,6368.8623046875,-3551.925537109375,7391.75390625,5678.59423828125,25599.802734375,5874.1796875,11886.0859375,-7602.46337890625,-10520.7607421875,7311.896484375,4558.64892578125,8847.146484375,4590.9951171875,6138.8486328125,4678.00439453125,1284.428466796875,8352.6435546875,8147.3525390625,8277.8232421875,-15287.3193359375,-0.0,0.0,8991.4599609375,6557.8349609375,-3828.968994140625,0.0,11916.3603515625
-5161.08740234375,-11056.24609375,6210.14453125,8572.75390625,14631.51953125,14524.236328125,13588.4111328125,12534.931640625,13101.5234375,9724.7763671875,16531.853515625,0.0,12408.521484375,0.0,11674.9345703125,15837.2060546875,25679.26953125,11905.7607421875,7768.73291015625,5726.71240234375,3275.4541015625,14480.7080078125,12847.310546875,9300.9541015625,0.0,2047.00537109375,6554.84814453125,4371.90576171875,-1692.8660888671875,-7778.80810546875,12779.9951171875,2999.53271484375,8889.2724609375,14031.1015625,9709.71484375,15304.2548828125,5028.9248046875,9621.09375,3544.762451171875,0.0,4449.68115234375,11853.228515625,6663.75244140625,8661.1142578125,19078.35546875,6362.56689453125,-3558.30029296875,7373.267578125,5677.38720703125,25577.4921875,5875.1552734375,11875.517578125,-7597.2294921875,-10548.4052734375,7309.5,4536.85595703125,8847.16015625,4557.94482421875,6144.2412109375,4668.2099609375,1277.57080078125,8345.2021484375,8142.587890625,8274.392578125,-15289.08203125,-0.0,0.0,8964.076171875,6555.01025390625,-3832.50146484375,0.0,11915.1298828125
-5158.73779296875,-11060.3134765625,6202.79736328125,8556.2705078125,14626.306640625,14512.126953125,13586.5849609375,12527.7626953125,13104.48828125,9725.5791015625,16516.66796875,0.0,12402.1552734375,0.0,11675.9365234375,15830.4892578125,25668.755859375,11896.015625,7763.79345703125,5727.9931640625,3268.4736328125,14471.720703125,12842.359375,9293.7119140625,0.0,2034.1268310546875,6553.80224609375,4360.29541015625,-1704.7418212890625,-7795.50439453125,12769.052734375,2993.608642578125,8881.05859375,14020.234375,9702.7294921875,15295.0810546875,5024.7509765625,9615.359375,3515.68798828125,0.0,4441.64111328125,11839.71875,6660.4345703125,8651.0654296875,19078.458984375,6360.544921875,-3561.348388671875,7356.95166015625,5671.9775390625,25561.419921875,5877.7646484375,11867.45703125,-7604.8828125,-10574.51171875,7302.6171875,4518.0341796875,8845.7958984375,4544.63037109375,6150.5283203125,4672.65234375,1256.8590087890625,8336.6572265625,8141.60791015625,8274.033203125,-15301.6826171875,-0.0,0.0,8961.0888671875,6582.26904296875,-3831.602294921875,0.0,11929.5263671875
-5155.45068359375,-11044.287109375,6203.92138671875,8566.8935546875,14629.2060546875,14519.8857421875,13585.080078125,12530.8369140625,13095.0537109375,9729.630859375,16527.603515625,0.0,12403.6015625,0.0,11666.4365234375,15827.162109375,25674.416015625,11900.2763671875,7765.67333984375,5726.57421875,3272.5927734375,14477.7919921875,12845.166015625,9298.2255859375,0.0,2042.9202880859375,6550.39794921875,4364.826171875,-1700.4569091796875,-7777.44873046875,12775.6767578125,3000.61474609375,8886.5869140625,14027.7197265625,9706.55078125,15300.5341796875,5027.02880859375,9617.9609375,3526.744873046875,0.0,4444.68408203125,11848.2470703125,6659.9189453125,8655.787109375,19076.1953125,6362.83984375,-3560.493408203125,7367.79736328125,5672.97900390625,25567.099609375,5872.04052734375,11866.4912109375,-7597.40625,-10565.50390625,7306.72314453125,4522.3818359375,8841.9248046875,4553.1943359375,6128.6943359375,4686.90087890625,1273.4859619140625,8340.837890625,8142.802734375,8278.90625,-15294.4375,-0.0,0.0,8975.0791015625,6548.03564453125,-3819.60302734375,0.0,11946.6083984375
-5170.11083984375,-11034.6845703125,6205.14306640625,8562.904296875,14631.775390625,14516.4755859375,13584.2783203125,12531.935546875,13098.3984375,9737.8369140625,16544.740234375,0.0,12407.2109375,0.0,11668.0537109375,15824.55078125,25674.953125,11901.46875,7768.99365234375,5734.82275390625,3274.545654296875,14478.0537109375,12847.939453125,9297.806640625,0.0,2034.7388916015625,6553.0458984375,4357.51806640625,-1694.8740234375,-7790.62158203125,12776.83203125,3001.87255859375,8890.0546875,14027.8505859375,9709.15625,15300.568359375,5028.4404296875,9619.6640625,3555.187255859375,0.0,4448.05126953125,11846.6240234375,6660.93701171875,8654.69140625,19078.224609375,6367.1435546875,-3556.73583984375,7364.2626953125,5675.5908203125,25558.9140625,5872.69873046875,11866.884765625,-7597.1123046875,-10565.3427734375,7310.6240234375,4510.216796875,8845.1962890625,4534.5087890625,6116.7548828125,4692.8662109375,1294.398681640625,8340.951171875,8145.85400390625,8295.5078125,-15283.279296875,-0.0,0.0,8961.3623046875,6539.33203125,-3813.518798828125,0.0,11973.814453125
-5208.9169921875,-11063.466796875,6198.6025390625,8562.08203125,14625.529296875,14507.3681640625,13580.09375,12529.9736328125,13111.4775390625,9737.8466796875,16536.96484375,0.0,12404.0048828125,0.0,11672.232421875,15825.32421875,25664.275390625,11893.7578125,7763.43701171875,5742.75830078125,3266.93701171875,14467.6943359375,12841.5263671875,9290.9140625,0.0,2023.76953125,6551.037109375,4349.556640625,-1701.09912109375,-7814.2841796875,12768.5322265625,2984.65087890625,8881.0693359375,14016.8291015625,9701.3662109375,15293.017578125,5024.50927734375,9615.9873046875,3542.593505859375,0.0,4440.25244140625,11839.1953125,6655.59521484375,8647.6181640625,19078.0078125,6365.9658203125,-3571.278564453125,7362.4013671875,5669.650390625,25547.14453125,5871.43212890625,11866.9267578125,-7619.30322265625,-10587.259765625,7300.1943359375,4492.1142578125,8845.9755859375,4518.83740234375,6123.591796875,4685.55322265625,1277.2899169921875,8334.521484375,8145.2197265625,8310.3876953125,-15296.7783203125,-0.0,0.0,8945.3818359375,6577.064453125,-3824.3251953125,0.0,11975.6943359375
-5210.7978515625,-11118.5556640625,6199.0380859375,8577.119140625,14623.55859375,14510.8798828125,13578.3935546875,12530.1708984375,13114.978515625,9737.419921875,16538.55078125,0.0,12403.3349609375,0.0,11662.314453125,15825.923828125,25667.927734375,11893.59765625,7763.11669921875,5745.7890625,3267.32421875,14470.095703125,12839.5517578125,9290.205078125,0.0,2028.0615234375,6545.33349609375,4349.43994140625,-1698.2080078125,-7821.146484375,12769.921875,2985.7568359375,8880.08984375,14020.74609375,9700.990234375,15294.693359375,5023.30224609375,9615.908203125,3535.8642578125,0.0,4440.75634765625,11844.44921875,6653.4404296875,8646.86328125,19078.208984375,6364.3173828125,-3574.7294921875,7377.10888671875,5667.72314453125,25548.904296875,5864.40771484375,11865.951171875,-7634.73388671875,-10627.18359375,7296.05224609375,4492.91259765625,8841.6015625,4517.7275390625,6135.93701171875,4673.2958984375,1262.6905517578125,8336.00390625,8144.58349609375,8311.029296875,-15304.396484375,-0.0,0.0,8928.4326171875,6590.5673828125,-3834.705810546875,0.0,11966.7216796875
-5187.69677734375,-11136.939453125,6202.30126953125,8583.8583984375,14625.3310546875,14513.337890625,13581.5986328125,12534.20703125,13115.828125,9740.1669921875,16545.57421875,0.0,12405.5458984375,0.0,11662.4990234375,15835.84765625,25671.904296875,11894.8076171875,7766.34423828125,5745.21923828125,3270.516845703125,14474.17578125,12842.98046875,9293.4697265625,0.0,2029.57568359375,6547.96875,4355.4501953125,-1693.066162109375,-7826.8173828125,12773.3310546875,2995.539306640625,8885.5107421875,14027.677734375,9704.494140625,15296.796875,5025.10400390625,9618.8955078125,3551.903076171875,0.0,4445.580078125,11848.259765625,6656.423828125,8650.56640625,19080.62890625,6367.02490234375,-3555.950927734375,7385.12255859375,5671.400390625,25551.958984375,5865.990234375,11871.2060546875,-7631.681640625,-10635.5107421875,7298.79541015625,4499.40673828125,8839.603515625,4524.78173828125,6143.89013671875,4668.67236328125,1264.9154052734375,8339.02734375,8147.9111328125,8305.685546875,-15301.0078125,-0.0,0.0,8929.6103515625,6592.673828125,-3824.008544921875,0.0,11970.7119140625
-5150.4365234375,-11107.68359375,6195.2197265625,8582.6044921875,14623.947265625,14515.3916015625,13584.78515625,12535.173828125,13120.34375,9743.13671875,16538.650390625,0.0,12402.251953125,0.0,11661.630859375,15838.8759765625,25667.123046875,11892.568359375,7765.884765625,5747.6728515625,3267.742919921875,14472.7763671875,12842.296875,9295.4423828125,0.0,2033.5123291015625,6547.44091796875,4362.83544921875,-1695.560546875,-7812.45556640625,12771.0966796875,2989.103271484375,8880.7734375,14025.40625,9703.224609375,15295.9111328125,5027.06005859375,9621.4052734375,3546.87548828125,0.0,4440.74462890625,11845.9560546875,6656.7646484375,8653.46484375,19082.91015625,6369.2109375,-3565.7197265625,7383.77099609375,5670.3359375,25557.080078125,5867.787109375,11875.7431640625,-7616.09326171875,-10637.1357421875,7301.18701171875,4511.201171875,8838.1328125,4543.0400390625,6148.14111328125,4666.34521484375,1255.586181640625,8338.3359375,8150.94921875,8310.8408203125,-15300.685546875,-0.0,0.0,8952.8837890625,6595.8330078125,-3812.67724609375,0.0,11966.783203125
-5119.54052734375,-11071.9375,6206.72900390625,8595.5615234375,14635.712890625,14532.041015625,13595.9345703125,12549.51953125,13125.296875,9759.0654296875,16545.869140625,0.0,12412.1494140625,0.0,11663.486328125,15849.314453125,25678.64453125,11907.1826171875,7780.24853515625,5758.8369140625,3278.89892578125,14487.044921875,12856.80859375,9310.6455078125,0.0,2052.6064453125,6556.41455078125,4381.8076171875,-1685.3670654296875,-7780.71533203125,12784.5986328125,2994.83984375,8891.58203125,14038.6455078125,9717.3642578125,15312.1005859375,5039.72314453125,9637.8359375,3545.814453125,0.0,4453.02783203125,11861.9189453125,6667.80615234375,8670.5263671875,19093.2734375,6386.15087890625,-3570.473388671875,7396.57373046875,5682.1796875,25579.7734375,5875.57666015625,11888.126953125,-7578.4091796875,-10590.326171875,7319.02685546875,4535.99169921875,8845.4931640625,4573.54833984375,6149.42919921875,4689.63671875,1273.8642578125,8353.3046875,8163.27685546875,8315.001953125,-15281.13671875,-0.0,0.0,9001.41796875,6581.3876953125,-3789.638916015625,0.0,11973.3583984375
-5149.54443359375,-11058.5869140625,6203.41015625,8579.349609375,14631.580078125,14522.82421875,13589.9921875,12545.025390625,13118.2666015625,9758.1650390625,16545.595703125,0.0,12407.0478515625,0.0,11663.443359375,15842.7080078125,25671.248046875,11901.0947265625,7776.0,5756.064453125,3273.3466796875,14478.2900390625,12852.5439453125,9303.634765625,0.0,2041.0008544921875,6554.076171875,4372.4580078125,-1690.275390625,-7793.3798828125,12777.7099609375,2986.39013671875,8887.216796875,14028.8408203125,9712.62109375,15304.28515625,5034.32275390625,9633.61328125,3547.01708984375,0.0,4448.09716796875,11852.3525390625,6662.93212890625,8662.6494140625,19088.765625,6384.1279296875,-3560.563720703125,7380.52783203125,5679.13818359375,25567.7734375,5872.76318359375,11881.798828125,-7581.3291015625,-10573.2451171875,7309.279296875,4522.56298828125,8844.56640625,4557.33349609375,6137.4765625,4693.283203125,1284.1654052734375,8351.103515625,8160.46240234375,8314.923828125,-15280.46484375,-0.0,0.0,9009.552734375,6564.8017578125,-3785.62353515625,0.0,11981.2958984375
-5175.30322265625,-11076.8857421875,6195.99609375,8557.8359375,14622.6220703125,14507.7314453125,13580.6318359375,12531.869140625,13112.2568359375,9749.55078125,16539.291015625,0.0,12400.240234375,0.0,11660.3740234375,15828.9052734375,25659.90234375,11888.4326171875,7764.90478515625,5749.42236328125,3263.008544921875,14463.333984375,12840.908203125,9290.42578125,0.0,2021.055908203125,6545.63623046875,4354.66015625,-1702.06494140625,-7815.65234375,12764.68359375,2976.0966796875,8877.234375,14014.5205078125,9700.6982421875,15292.0693359375,5024.634765625,9621.9697265625,3548.609375,0.0,4438.0029296875,11834.916015625,6653.6611328125,8647.7294921875,19081.63671875,6373.10595703125,-3568.806640625,7356.90234375,5667.71533203125,25548.83203125,5866.62255859375,11868.5361328125,-7600.07373046875,-10594.501953125,7283.26171875,4499.1259765625,8840.587890625,4532.6337890625,6133.314453125,4685.49658203125,1279.916748046875,8341.1552734375,8151.70556640625,8313.134765625,-15297.388671875,-0.0,0.0,9001.4541015625,6565.70458984375,-3796.4892578125,0.0,11986.55078125
-5177.22119140625,-11101.0732421875,6204.4189453125,8563.6806640625,14625.408203125,14510.841796875,13581.94140625,12533.1005859375,13112.21875,9745.95703125,16534.2890625,0.0,12404.279296875,0.0,11658.7646484375,15832.0234375,25665.42578125,11890.91015625,7766.88134765625,5747.4169921875,3267.8720703125,14467.5791015625,12842.6181640625,9293.630859375,0.0,2028.263671875,6545.32568359375,4356.34912109375,-1703.40234375,-7813.2392578125,12768.408203125,2980.91455078125,8881.7392578125,14017.3896484375,9702.53125,15295.9091796875,5025.12646484375,9623.3896484375,3555.904296875,0.0,4443.4326171875,11839.9658203125,6655.2958984375,8650.7060546875,19082.015625,6373.47998046875,-3570.962646484375,7363.96240234375,5669.02197265625,25554.7421875,5866.84326171875,11867.6162109375,-7597.74658203125,-10575.5361328125,7278.748046875,4499.20654296875,8835.6689453125,4537.88427734375,6137.15283203125,4688.64208984375,1274.603759765625,8343.9990234375,8151.0498046875,8310.8935546875,-15301.8603515625,-0.0,0.0,9002.392578125,6567.16796875,-3801.916259765625,0.0,11984.267578125
-5198.93896484375,-11076.65625,6201.0849609375,8563.1279296875,14624.177734375,14508.2802734375,13579.3955078125,12529.4072265625,13109.1337890625,9728.041015625,16527.2265625,0.0,12404.4404296875,0.0,11655.9521484375,15828.5390625,25663.43359375,11886.79296875,7763.357421875,5739.8427734375,3267.497314453125,14465.66796875,12839.638671875,9291.46875,0.0,2027.6431884765625,6542.13427734375,4353.88720703125,-1707.957763671875,-7815.9345703125,12767.376953125,2984.45458984375,8879.2109375,14016.8408203125,9701.501953125,15293.5498046875,5021.9921875,9617.87109375,3546.665283203125,0.0,4441.20556640625,11836.947265625,6653.12451171875,8648.08203125,19078.404296875,6368.31005859375,-3564.818603515625,7362.4677734375,5667.78369140625,25553.822265625,5865.7060546875,11864.9775390625,-7609.1142578125,-10591.6396484375,7285.38818359375,4499.58740234375,8829.9052734375,4533.97509765625,6137.37939453125,4682.02734375,1261.3074951171875,8342.615234375,8146.8662109375,8304.876953125,-15305.986328125,-0.0,0.0,8971.65625,6575.86669921875,-3822.46337890625,0.0,11969.4375
-5207.2529296875,-11074.794921875,6199.76318359375,8560.2978515625,14624.56640625,14505.3310546875,13577.9931640625,12524.3984375,13101.1064453125,9717.904296875,16533.291015625,0.0,12401.1328125,0.0,11656.2724609375,15819.65234375,25662.82421875,11884.2001953125,7760.1015625,5731.828125,3268.119140625,14463.6396484375,12838.6318359375,9288.5048828125,0.0,2022.700439453125,6542.94775390625,4348.14697265625,-1703.6600341796875,-7826.64794921875,12767.076171875,2986.52392578125,8880.1455078125,14017.392578125,9701.5205078125,15291.4638671875,5019.4912109375,9613.1884765625,3571.832763671875,0.0,4442.98046875,11833.900390625,6652.853515625,8645.732421875,19074.111328125,6361.728515625,-3573.801513671875,7359.6982421875,5669.16748046875,25547.92578125,5862.8681640625,11860.345703125,-7605.23681640625,-10571.7353515625,7303.056640625,4500.49951171875,8831.4521484375,4523.02392578125,6129.81982421875,4678.95849609375,1258.035888671875,8340.76953125,8142.705078125,8296.2158203125,-15299.216796875,-0.0,0.0,8951.23046875,6565.4609375,-3829.333740234375,0.0,11956.650390625
-5197.60498046875,-11050.419921875,6199.892578125,8553.9833984375,14624.0244140625,14502.18359375,13576.2841796875,12521.365234375,13098.37109375,9716.4208984375,16531.83203125,0.0,12394.283203125,0.0,11658.1845703125,15816.9267578125,25661.18359375,11882.7333984375,7757.7470703125,5730.89208984375,3266.506103515625,14461.7099609375,12837.900390625,9287.2080078125,0.0,2019.83056640625,6542.662109375,4343.41796875,-1698.7052001953125,-7836.099609375,12764.7939453125,2981.3212890625,8880.0029296875,14013.5390625,9702.0009765625,15288.4306640625,5017.03466796875,9611.158203125,3573.646240234375,0.0,4443.35595703125,11829.775390625,6651.1474609375,8642.865234375,19072.03125,6356.16943359375,-3586.938720703125,7354.5771484375,5670.27587890625,25543.140625,5859.32958984375,11857.251953125,-7611.93212890625,-10544.1630859375,7313.4814453125,4498.57080078125,8832.841796875,4511.2109375,6128.26123046875,4665.1943359375,1246.13818359375,8339.490234375,8141.3798828125,8293.595703125,-15300.1328125,-0.0,0.0,8944.6162109375,6556.89404296875,-3835.02978515625,0.0,11945.3994140625
-5181.42724609375,-11050.6630859375,6198.35791015625,8556.7421875,14622.9736328125,14502.888671875,13576.1181640625,12522.8388671875,13099.9013671875,9725.9873046875,16520.08203125,0.0,12389.83203125,0.0,11657.4541015625,15817.599609375,25660.189453125,11884.4560546875,7757.5146484375,5737.00244140625,3264.493896484375,14462.9287109375,12838.134765625,9288.267578125,0.0,2019.3284912109375,6541.44287109375,4343.7421875,-1697.369140625,-7834.22705078125,12763.564453125,2985.830810546875,8878.875,14013.533203125,9702.671875,15290.0,5016.7119140625,9612.5673828125,3535.58349609375,0.0,4440.12158203125,11830.787109375,6650.0302734375,8642.46875,19072.9375,6357.63671875,-3592.101806640625,7357.51416015625,5668.08203125,25542.419921875,5857.97265625,11856.9736328125,-7610.71826171875,-10539.7734375,7309.36279296875,4496.767578125,8830.103515625,4509.232421875,6129.529296875,4655.681640625,1242.7772216796875,8339.4296875,8144.14306640625,8299.974609375,-15312.31640625,-0.0,0.0,8948.2314453125,6548.91162109375,-3832.76416015625,0.0,11952.1982421875
-5160.8896484375,-11138.0751953125,6203.5263671875,8576.3681640625,14625.9814453125,14511.3115234375,13579.625,12526.7216796875,13101.5673828125,9744.998046875,16515.876953125,0.0,12389.5,0.0,11656.9599609375,15823.9169921875,25668.134765625,11890.943359375,7762.291015625,5746.544921875,3270.35205078125,14471.42578125,12842.1708984375,9293.02734375,0.0,2030.1995849609375,6543.6533203125,4351.4306640625,-1693.1763916015625,-7816.66845703125,12770.890625,2999.408203125,8884.6630859375,14023.568359375,9705.7080078125,15296.9208984375,5020.75634765625,9617.8115234375,3537.394287109375,0.0,4443.2158203125,11841.9140625,6652.548828125,8648.943359375,19077.2734375,6366.1142578125,-3567.388427734375,7377.2529296875,5666.9599609375,25550.30078125,5861.9150390625,11856.9287109375,-7589.4736328125,-10559.2587890625,7299.81787109375,4503.68017578125,8831.7451171875,4525.98974609375,6131.4130859375,4660.423828125,1251.794189453125,8343.837890625,8150.0244140625,8309.7255859375,-15320.71875,-0.0,0.0,8971.7001953125,6542.9921875,-3813.199951171875,0.0,11970.552734375
-5184.26513671875,-11131.9033203125,6203.60693359375,8580.4453125,14626.220703125,14513.0302734375,13582.677734375,12527.876953125,13108.751953125,9751.8369140625,16507.783203125,0.0,12394.0703125,0.0,11661.828125,15832.6904296875,25667.99609375,11890.244140625,7762.73828125,5756.9306640625,3270.544677734375,14471.689453125,12841.5146484375,9293.7578125,0.0,2031.7186279296875,6545.46240234375,4357.2236328125,-1701.9508056640625,-7808.33251953125,12771.556640625,2998.93701171875,8884.2021484375,14025.6552734375,9704.8359375,15297.8076171875,5022.830078125,9618.85546875,3545.437255859375,0.0,4441.84423828125,11843.8271484375,6654.15771484375,8651.9443359375,19081.396484375,6369.36083984375,-3544.983154296875,7380.63623046875,5665.4609375,25554.03125,5866.849609375,11860.0703125,-7599.17724609375,-10628.69140625,7293.78173828125,4506.46875,8832.634765625,4539.5751953125,6137.61572265625,4661.912109375,1235.9000244140625,8344.4755859375,8153.7646484375,8321.5859375,-15318.6533203125,-0.0,0.0,8981.6455078125,6563.8359375,-3810.0810546875,0.0,11975.1787109375
-5210.32568359375,-11088.908203125,6197.3427734375,8554.99609375,14621.7099609375,14505.8076171875,13582.78515625,12525.4677734375,13120.4658203125,9754.185546875,16507.0078125,0.0,12392.349609375,0.0,11668.7470703125,15829.7470703125,25656.990234375,11881.6171875,7760.845703125,5763.6103515625,3262.850341796875,14459.6669921875,12838.443359375,9288.4619140625,0.0,2017.4637451171875,6547.12451171875,4353.09326171875,-1718.556396484375,-7818.30517578125,12761.681640625,2984.578857421875,8874.9560546875,14011.4365234375,9699.7099609375,15290.150390625,5021.59228515625,9616.66796875,3536.9560546875,0.0,4436.45556640625,11829.6025390625,6652.97900390625,8645.7783203125,19084.693359375,6370.58984375,-3539.510986328125,7355.98974609375,5665.90576171875,25546.578125,5870.34619140625,11862.1171875,-7622.78662109375,-10621.7119140625,7293.92578125,4488.82470703125,8834.263671875,4535.1162109375,6146.09375,4667.63916015625,1229.7279052734375,8339.4111328125,8154.349609375,8328.7431640625,-15318.6220703125,-0.0,0.0,8975.5654296875,6593.953125,-3815.250244140625,0.0,11972.912109375
-5217.755859375,-11109.8740234375,6193.4697265625,8540.25390625,14620.82421875,14498.9150390625,13580.732421875,12519.6103515625,13119.0576171875,9743.2470703125,16506.2578125,0.0,12396.2666015625,0.0,11671.6630859375,15815.1513671875,25651.70703125,11876.9921875,7756.9599609375,5755.890625,3258.38671875,14452.318359375,12835.8076171875,9283.18359375,0.0,2010.11962890625,6547.71533203125,4342.3427734375,-1722.5859375,-7820.12744140625,12757.0380859375,2980.25537109375,8869.7490234375,14005.10546875,9697.7978515625,15285.2724609375,5018.10400390625,9611.2646484375,3505.390869140625,0.0,4437.1875,11820.7763671875,6652.04296875,8638.1728515625,19082.33203125,6364.01904296875,-3549.943115234375,7339.04296875,5668.7802734375,25540.263671875,5871.244140625,11853.3046875,-7666.95458984375,-10585.8662109375,7300.99267578125,4479.96484375,8840.6201171875,4522.86474609375,6147.7626953125,4665.4931640625,1255.901611328125,8337.44921875,8148.91064453125,8314.7529296875,-15317.0986328125,-0.0,0.0,8962.9345703125,6610.25439453125,-3826.872314453125,0.0,11957.3798828125
-5241.44091796875,-11053.244140625,6205.54833984375,8560.3369140625,14628.736328125,14506.3037109375,13580.6064453125,12517.30078125,13101.66015625,9723.677734375,16516.59375,0.0,12405.08984375,0.0,11666.80859375,15807.1533203125,25662.638671875,11883.3974609375,7754.48388671875,5735.27197265625,3265.82958984375,14463.9521484375,12838.193359375,9285.9677734375,0.0,2024.9473876953125,6548.1396484375,4343.8466796875,-1710.8035888671875,-7804.74560546875,12766.9970703125,2988.234375,8882.240234375,14017.4404296875,9705.0615234375,15292.1064453125,5016.9501953125,9608.57421875,3517.70166015625,0.0,4447.5810546875,11834.6845703125,6654.91552734375,8640.927734375,19074.306640625,6352.767578125,-3579.6220703125,7360.71923828125,5676.56103515625,25549.865234375,5866.18505859375,11846.1123046875,-7672.27197265625,-10566.3447265625,7308.91455078125,4500.2431640625,8838.53515625,4526.009765625,6132.27734375,4659.98486328125,1259.2996826171875,8342.9853515625,8139.92529296875,8287.2158203125,-15308.634765625,-0.0,0.0,8961.4052734375,6579.82421875,-3839.207275390625,0.0,11938.78125
-5290.5244140625,-11058.1787109375,6216.07275390625,8587.669921875,14634.6103515625,14515.1337890625,13579.9111328125,12523.2578125,13088.1689453125,9711.826171875,16531.779296875,0.0,12413.990234375,0.0,11669.09765625,15816.37890625,25675.75,11892.359375,7755.70166015625,5722.14013671875,3275.28564453125,14476.3525390625,12842.05859375,9293.4580078125,0.0,2037.446533203125,6550.01611328125,4354.3662109375,-1700.5120849609375,-7788.51513671875,12778.6875,3002.771728515625,8894.703125,14032.33203125,9713.3818359375,15301.6611328125,5018.4423828125,9612.7275390625,3573.802001953125,0.0,4454.9853515625,11851.462890625,6657.58447265625,8648.8095703125,19069.123046875,6354.95556640625,-3576.265380859375,7389.3828125,5680.501953125,25560.30078125,5863.88134765625,11851.9541015625,-7624.46484375,-10562.8486328125,7311.04345703125,4513.03759765625,8840.0556640625,4541.056640625,6116.84375,4669.95263671875,1265.8502197265625,8351.26953125,8135.908203125,8273.77734375,-15302.9033203125,-0.0,0.0,8982.3642578125,6547.0009765625,-3831.227294921875,0.0,11930.9609375
-5231.646484375,-11105.5078125,6206.712890625,8595.8291015625,14632.9453125,14516.205078125,13579.6572265625,12529.7060546875,13086.876953125,9716.6943359375,16528.71875,0.0,12414.337890625,0.0,11673.140625,15827.435546875,25678.662109375,11894.708984375,7757.79541015625,5727.158203125,3274.923095703125,14476.82421875,12841.337890625,9296.2568359375,0.0,2039.405029296875,6551.04736328125,4356.38037109375,-1699.1915283203125,-7792.5830078125,12779.62109375,3011.896484375,8893.6376953125,14036.8759765625,9712.7548828125,15304.001953125,5019.279296875,9615.4697265625,3585.312744140625,0.0,4451.6064453125,11854.28125,6657.6083984375,8651.291015625,19070.1953125,6363.73779296875,-3587.709228515625,7396.013671875,5676.8876953125,25559.697265625,5865.18505859375,11860.427734375,-7606.55810546875,-10576.373046875,7308.27783203125,4515.4228515625,8842.796875,4543.619140625,6116.7880859375,4684.94140625,1288.5390625,8354.5966796875,8137.70458984375,8278.890625,-15303.1787109375,-0.0,0.0,8987.513671875,6548.724609375,-3824.120849609375,0.0,11932.498046875
-5143.22607421875,-11120.1376953125,6204.2119140625,8592.5478515625,14631.373046875,14516.0048828125,13577.646484375,12528.58203125,13090.3515625,9718.939453125,16529.634765625,0.0,12402.572265625,0.0,11666.2880859375,15830.6728515625,25677.197265625,11892.44140625,7757.8076171875,5730.11083984375,3273.501708984375,14474.32421875,12840.224609375,9294.650390625,0.0,2042.1673583984375,6547.85595703125,4359.06591796875,-1700.2474365234375,-7799.3173828125,12777.50390625,3003.702392578125,8891.115234375,14033.1357421875,9710.740234375,15301.6845703125,5020.37841796875,9614.208984375,3602.598388671875,0.0,4451.11083984375,11851.7568359375,6655.05908203125,8650.693359375,19070.06640625,6360.58203125,-3605.8544921875,7393.12939453125,5674.11083984375,25558.44921875,5862.736328125,11862.921875,-7598.275390625,-10577.2841796875,7306.7412109375,4524.6201171875,8839.3427734375,4540.49609375,6123.86083984375,4672.9052734375,1249.99853515625,8352.0419921875,8137.80810546875,8280.5830078125,-15303.5546875,-0.0,0.0,8984.4453125,6562.91162109375,-3830.4111328125,0.0,11933.5126953125
-5146.08349609375,-11110.7431640625,6199.19775390625,8586.5126953125,14628.8525390625,14513.8291015625,13575.0,12527.64453125,13098.62109375,9724.56640625,16527.01171875,0.0,12393.76171875,0.0,11659.58203125,15832.787109375,25674.3125,11888.93359375,7758.525390625,5737.90771484375,3269.555908203125,14472.447265625,12838.6923828125,9295.373046875,0.0,2040.374267578125,6542.85693359375,4360.27294921875,-1705.9415283203125,-7795.46337890625,12773.75,3003.151123046875,8886.5185546875,14030.80859375,9707.2724609375,15300.666015625,5020.66845703125,9615.083984375,3590.87060546875,0.0,4447.4208984375,11849.115234375,6652.7490234375,8651.94921875,19072.109375,6360.27294921875,-3551.077880859375,7385.20556640625,5670.16650390625,25561.72265625,5859.39697265625,11864.3896484375,-7616.40380859375,-10584.41015625,7305.46240234375,4529.892578125,8834.5341796875,4537.4990234375,6129.9208984375,4657.34228515625,1234.494140625,8349.38671875,8140.337890625,8292.9814453125,-15294.7353515625,-0.0,0.0,8986.3095703125,6571.84228515625,-3831.720703125,0.0,11937.2744140625
-5096.4287109375,-11107.337890625,6197.6201171875,8574.412109375,14633.24609375,14515.904296875,13584.046875,12531.689453125,13116.6279296875,9745.134765625,16544.900390625,0.0,12392.5458984375,0.0,11670.4873046875,15835.9580078125,25672.0625,11890.5576171875,7768.5556640625,5757.15673828125,3270.36865234375,14470.8017578125,12845.0166015625,9300.29296875,0.0,2043.0172119140625,6550.89990234375,4361.14599609375,-1708.8255615234375,-7792.97412109375,12773.849609375,2998.35986328125,8883.923828125,14026.970703125,9711.0263671875,15304.078125,5028.56005859375,9622.3955078125,3539.36083984375,0.0,4448.158203125,11846.419921875,6659.6923828125,8655.435546875,19084.57421875,6368.166015625,-3529.14697265625,7372.9814453125,5678.15625,25563.046875,5870.1328125,11867.390625,-7622.08837890625,-10556.5224609375,7308.466796875,4516.5869140625,8840.3076171875,4542.56884765625,6146.216796875,4661.244140625,1250.9779052734375,8354.0732421875,8153.6650390625,8315.7158203125,-15282.35546875,-0.0,0.0,8980.3125,6597.98193359375,-3826.27392578125,0.0,11956.8994140625
-5095.42724609375,-11074.1455078125,6201.505859375,8569.9814453125,14637.8974609375,14516.8076171875,13591.583984375,12535.794921875,13124.5166015625,9748.9892578125,16556.154296875,0.0,12399.5205078125,0.0,11676.3798828125,15843.1064453125,25669.021484375,11892.9912109375,7773.37890625,5764.30908203125,3273.780517578125,14473.072265625,12851.4091796875,9302.3740234375,0.0,2042.0667724609375,6558.4794921875,4365.13427734375,-1702.125244140625,-7796.4990234375,12776.7666015625,2987.228271484375,8884.3544921875,14024.3671875,9714.75,15305.87890625,5035.59033203125,9627.6533203125,3556.08447265625,0.0,4452.66845703125,11846.623046875,6665.23974609375,8659.201171875,19091.392578125,6369.8359375,-3561.679443359375,7370.3212890625,5685.39599609375,25563.728515625,5878.40625,11870.0,-7574.33935546875,-10586.7978515625,7311.447265625,4508.91064453125,8847.064453125,4552.12353515625,6155.70703125,4661.34228515625,1238.4049072265625,8357.9755859375,8160.06689453125,8321.328125,-15280.126953125,-0.0,0.0,8981.1923828125,6618.7255859375,-3822.200439453125,0.0,11965.84375
-5171.73876953125,-11030.6767578125,6203.4658203125,8566.892578125,14634.1708984375,14514.10546875,13581.83984375,12530.8935546875,13096.6796875,9728.833984375,16554.734375,0.0,12407.994140625,0.0,11663.1630859375,15842.1953125,25666.607421875,11891.8681640625,7764.78369140625,5741.10693359375,3272.82177734375,14472.0283203125,12844.3310546875,9298.458984375,0.0,2037.2166748046875,6550.94140625,4363.78515625,-1694.169189453125,-7799.90673828125,12776.5224609375,2989.927001953125,8886.76171875,14025.26953125,9711.3447265625,15303.9189453125,5026.80712890625,9620.6337890625,3589.73486328125,0.0,4451.53662109375,11844.6337890625,6658.5615234375,8656.1357421875,19077.17578125,6361.81689453125,-3551.875732421875,7367.58984375,5679.81787109375,25562.09765625,5866.24853515625,11866.7978515625,-7551.9453125,-10621.9091796875,7309.71435546875,4519.53515625,8841.5283203125,4551.1259765625,6129.5751953125,4658.603515625,1252.81103515625,8354.5498046875,8146.37451171875,8291.435546875,-15277.62109375,-0.0,0.0,8979.2158203125,6559.912109375,-3831.690185546875,0.0,11942.45703125
-5141.5634765625,-11011.1689453125,6214.82373046875,8563.4189453125,14639.412109375,14522.869140625,13581.3134765625,12540.0703125,13083.00390625,9732.29296875,16573.701171875,0.0,12415.291015625,0.0,11660.2265625,15852.619140625,25675.994140625,11899.8837890625,7769.91748046875,5734.91162109375,3280.935302734375,14476.6201171875,12850.09375,9304.8505859375,0.0,2040.762939453125,6552.1845703125,4374.40625,-1686.2093505859375,-7780.7685546875,12784.853515625,3001.895263671875,8895.833984375,14029.7841796875,9718.9326171875,15310.5068359375,5029.2451171875,9626.7412109375,3583.795654296875,0.0,4458.4765625,11846.27734375,6661.17333984375,8663.6025390625,19075.15625,6368.62939453125,-3532.306884765625,7363.2548828125,5686.09033203125,25569.609375,5864.32373046875,11877.5205078125,-7558.58935546875,-10552.453125,7308.48681640625,4528.98583984375,8840.9384765625,4565.06396484375,6116.6357421875,4676.373046875,1263.8790283203125,8362.1728515625,8147.21337890625,8281.8427734375,-15261.5654296875,-0.0,0.0,8990.4111328125,6515.6591796875,-3819.246337890625,0.0,11947.9306640625
-5083.43359375,-10954.294921875,6209.328125,8547.9091796875,14639.083984375,14523.986328125,13581.5009765625,12543.8369140625,13083.0634765625,9725.4140625,16563.453125,0.0,12411.779296875,0.0,11662.2802734375,15856.4296875,25674.951171875,11899.7021484375,7770.28759765625,5733.4921875,3279.628662109375,14475.8037109375,12851.6083984375,9306.1240234375,0.0,2037.565673828125,6553.53173828125,4377.03076171875,-1684.7774658203125,-7777.037109375,12784.7451171875,3001.82373046875,8893.388671875,14023.75390625,9718.44140625,15308.791015625,5031.5185546875,9628.4853515625,3578.396484375,0.0,4458.07421875,11841.193359375,6660.8701171875,8666.171875,19076.970703125,6369.45361328125,-3551.83837890625,7348.34912109375,5688.0546875,25572.984375,5866.19091796875,11881.419921875,-7579.52490234375,-10476.8515625,7308.64404296875,4528.82958984375,8839.087890625,4566.3564453125,6114.92724609375,4675.693359375,1261.0811767578125,8364.302734375,8148.20166015625,8284.0087890625,-15265.7822265625,-0.0,0.0,9000.919921875,6521.70751953125,-3817.99755859375,0.0,11951.8564453125
-5128.45947265625,-10986.826171875,6200.06884765625,8546.353515625,14630.6923828125,14513.9931640625,13574.5009765625,12532.34765625,13071.326171875,9700.9990234375,16539.087890625,0.0,12403.0576171875,0.0,11660.5478515625,15839.662109375,25666.236328125,11889.267578125,7759.8134765625,5718.162109375,3271.893310546875,14468.654296875,12841.5322265625,9297.666015625,0.0,2032.013427734375,6546.9130859375,4364.8046875,-1689.686279296875,-7795.56494140625,12775.837890625,2992.89599609375,8884.7919921875,14017.3486328125,9709.4501953125,15301.16796875,5022.94970703125,9616.9248046875,3565.175537109375,0.0,4448.52880859375,11835.2822265625,6653.3818359375,8655.2861328125,19067.0546875,6357.29052734375,-3556.31396484375,7346.8828125,5679.96435546875,25563.68359375,5860.7158203125,11870.2177734375,-7585.76904296875,-10472.3212890625,7313.919921875,4527.5732421875,8833.208984375,4548.13720703125,6105.181640625,4667.51513671875,1245.1788330078125,8356.4248046875,8136.56005859375,8273.876953125,-15280.9482421875,-0.0,0.0,8985.4462890625,6513.77099609375,-3838.063232421875,0.0,11929.01171875
-5179.12744140625,-11020.17578125,6199.29638671875,8556.359375,14629.97265625,14513.365234375,13577.169921875,12535.9931640625,13081.9091796875,9710.904296875,16546.4296875,0.0,12399.5771484375,0.0,11660.8427734375,15843.7587890625,25665.55078125,11887.4248046875,7761.521484375,5730.4150390625,3271.8798828125,14468.884765625,12842.4765625,9298.6240234375,0.0,2032.3104248046875,6545.63623046875,4366.3828125,-1693.78857421875,-7797.80029296875,12773.9765625,2991.65478515625,8881.9072265625,14019.193359375,9708.21875,15302.5546875,5024.93505859375,9619.53515625,3555.063232421875,0.0,4444.05712890625,11837.9150390625,6653.20751953125,8656.3427734375,19072.04296875,6364.392578125,-3553.579833984375,7356.77490234375,5677.0263671875,25562.666015625,5862.42138671875,11876.19140625,-7580.2490234375,-10498.7666015625,7312.24072265625,4522.3056640625,8833.9560546875,4551.22900390625,6120.90185546875,4686.5107421875,1239.6005859375,8356.458984375,8143.04150390625,8293.8173828125,-15285.908203125,-0.0,0.0,8982.671875,6535.58740234375,-3832.664794921875,0.0,11939.8330078125
