-4871.6865234375,-10511.875,6650.2890625,9582.04296875,14855.0673828125,15219.84765625,13216.3359375,12205.44140625,13003.349609375,9078.9794921875,16626.515625,0.0,12161.7314453125,0.0,12004.375,15909.671875,26574.9296875,12343.724609375,7690.58837890625,5553.5634765625,4021.32666015625,14798.6416015625,12673.537109375,9319.7822265625,0.0,1524.2894287109375,6186.16748046875,4228.75048828125,-866.254150390625,-7068.31591796875,13270.3779296875,3625.552001953125,9256.9990234375,15277.068359375,9609.8583984375,15587.806640625,5656.8779296875,9472.3701171875,4933.67529296875,-0.0,5119.6416015625,12094.1796875,6928.44384765625,9462.8330078125,18867.650390625,6281.53466796875,-3187.656494140625,7479.19091796875,5546.4111328125,25256.474609375,5764.16650390625,11975.765625,-7333.75537109375,-9997.685546875,7297.19775390625,3933.111572265625,8246.8984375,5486.01171875,5599.65771484375,5295.27685546875,2365.906982421875,8757.9091796875,7657.2099609375,7384.6181640625,-14211.3369140625,-0.0,-0.0,9920.5966796875,6311.73486328125,-2940.495849609375,0.0,12159.34765625
-4844.66552734375,-10530.154296875,6633.599609375,9556.611328125,14837.5830078125,15196.005859375,13200.4423828125,12177.626953125,12990.6337890625,9060.7001953125,16610.623046875,0.0,12148.220703125,0.0,11989.2763671875,15875.498046875,26557.4453125,12323.8564453125,7672.31005859375,5538.46337890625,4003.0478515625,14777.18359375,12655.2578125,9298.32421875,0.0,1494.0897216796875,6171.06787109375,4199.34619140625,-882.9434814453125,-7077.8525390625,13250.509765625,3614.42578125,9241.1044921875,15258.7890625,9589.9892578125,15566.3486328125,5637.8046875,9448.5283203125,4916.98583984375,-0.0,5102.15771484375,12071.1328125,6912.54931640625,9436.607421875,18851.7578125,6258.48779296875,-3218.65087890625,7456.14404296875,5526.54248046875,25228.658203125,5749.861328125,11940.001953125,-7346.47119140625,-9999.275390625,7274.94580078125,3910.859619140625,8231.00390625,5461.375,5588.53125,5256.3349609375,2357.1650390625,8736.451171875,7640.5205078125,7367.92919921875,-14231.9990234375,-0.0,-0.0,9901.5234375,6303.787109375,-2958.774658203125,0.0,12140.2744140625
-4803.33935546875,-10499.16015625,6616.91064453125,9539.921875,14832.01953125,15191.2373046875,13201.236328125,12177.626953125,12990.6337890625,9057.521484375,16602.673828125,0.0,12149.810546875,0.0,11992.4541015625,15886.625,26543.935546875,12318.2939453125,7670.720703125,5537.6689453125,3992.71630859375,14766.056640625,12651.2841796875,9294.3505859375,0.0,1487.73193359375,6170.27294921875,4200.935546875,-891.6854858398438,-7087.3896484375,13238.5888671875,3589.7890625,9226.798828125,15241.3056640625,9582.8369140625,15559.9912109375,5636.21533203125,9447.7333984375,4920.16455078125,-0.0,5090.23681640625,12061.595703125,6909.37060546875,9434.2236328125,18850.16796875,6260.0771484375,-3253.618896484375,7441.8388671875,5520.9794921875,25227.0703125,5749.861328125,11943.9765625,-7328.1923828125,-9980.99609375,7263.8193359375,3903.706787109375,8231.00390625,5464.5537109375,5586.9423828125,5266.66650390625,2352.396728515625,8731.6826171875,7638.93115234375,7370.31298828125,-14246.3046875,-0.0,-0.0,9902.318359375,6309.3505859375,-2959.5693359375,0.0,12147.4267578125
-4816.05517578125,-10503.1328125,6618.5,9558.9951171875,14837.5830078125,15203.158203125,13208.3896484375,12190.341796875,12991.4287109375,9053.5478515625,16597.11328125,0.0,12164.91015625,0.0,12000.4013671875,15910.466796875,26546.3203125,12328.625,7677.078125,5536.87451171875,3998.279541015625,14777.9775390625,12657.642578125,9303.8876953125,0.0,1505.2159423828125,6179.0146484375,4219.2138671875,-879.7645263671875,-7090.568359375,13246.5361328125,3585.8154296875,9229.9775390625,15246.0732421875,9590.78515625,15572.70703125,5644.95703125,9458.859375,4909.83349609375,-0.0,5094.2099609375,12075.1064453125,6918.1123046875,9447.7333984375,18856.525390625,6266.43505859375,-3231.366455078125,7458.52783203125,5528.1318359375,25244.5546875,5757.80859375,11965.43359375,-7303.55615234375,-9992.9169921875,7270.17724609375,3936.290771484375,8242.1298828125,5482.0380859375,5593.2998046875,5284.150390625,2354.781005859375,8738.8349609375,7643.69970703125,7365.544921875,-14235.9736328125,-0.0,-0.0,9907.8818359375,6310.14501953125,-2960.364013671875,0.0,12136.2998046875
-4832.74462890625,-10492.8017578125,6628.83154296875,9566.943359375,14847.119140625,15214.2841796875,13217.92578125,12200.6728515625,12998.5810546875,9065.46875,16609.033203125,0.0,12167.294921875,0.0,12004.375,15923.9765625,26555.060546875,12338.9560546875,7685.02587890625,5548.00048828125,4009.405517578125,14788.3095703125,12667.1787109375,9314.2197265625,0.0,1509.1895751953125,6187.7568359375,4232.724609375,-874.2014770507812,-7070.7001953125,13256.0732421875,3599.325927734375,9237.92578125,15254.0205078125,9600.3212890625,15581.4482421875,5655.28857421875,9469.19140625,4917.7802734375,-0.0,5103.7470703125,12084.6435546875,6927.64892578125,9457.2705078125,18866.0625,6275.1767578125,-3207.524658203125,7463.29638671875,5538.46337890625,25252.5,5764.96142578125,11982.91796875,-7309.11865234375,-10006.427734375,7285.27685546875,3937.085693359375,8246.1044921875,5493.958984375,5603.63134765625,5282.56103515625,2358.75439453125,8749.9619140625,7654.03125,7379.05517578125,-14226.4365234375,-0.0,-0.0,9918.212890625,6317.29736328125,-2948.443115234375,0.0,12152.1953125
-4847.8447265625,-10483.2646484375,6633.599609375,9560.5849609375,14851.09375,15216.66796875,13223.4892578125,12202.2626953125,13009.70703125,9086.1318359375,16613.005859375,0.0,12167.294921875,0.0,12005.96484375,15916.82421875,26555.857421875,12342.1357421875,7690.58837890625,5565.484375,4012.584716796875,14789.1044921875,12671.947265625,9318.1923828125,0.0,1506.805419921875,6190.14111328125,4227.16162109375,-877.38037109375,-7078.6474609375,13258.45703125,3601.7099609375,9240.3095703125,15254.0205078125,9601.91015625,15583.0380859375,5660.05712890625,9471.576171875,4905.06494140625,-0.0,5108.51513671875,12089.412109375,6931.623046875,9458.859375,18872.419921875,6284.7138671875,-3197.193115234375,7458.52783203125,5544.8212890625,25249.322265625,5768.9345703125,11980.533203125,-7336.1396484375,-10024.70703125,7295.6083984375,3898.143798828125,8244.5146484375,5484.42236328125,5610.7841796875,5283.35546875,2349.2177734375,8759.4990234375,7662.77294921875,7402.10205078125,-14233.5888671875,-0.0,-0.0,9921.3916015625,6326.03955078125,-2933.34326171875,0.0,12168.08984375
-4919.3701171875,-10526.974609375,6634.39404296875,9553.4326171875,14849.50390625,15209.515625,13224.2841796875,12198.2890625,13025.6015625,9101.2314453125,16604.265625,0.0,12165.7060546875,0.0,12013.1181640625,15900.134765625,26555.060546875,12340.5458984375,7692.17822265625,5583.76318359375,4010.200439453125,14782.74609375,12671.1533203125,9313.423828125,0.0,1509.984375,6193.31982421875,4219.2138671875,-874.9962158203125,-7101.69482421875,13255.2783203125,3603.29931640625,9240.3095703125,15250.841796875,9601.1162109375,15579.064453125,5660.85205078125,9469.986328125,4905.859375,-0.0,5110.8994140625,12079.080078125,6929.23876953125,9453.296875,18877.982421875,6288.68701171875,-3209.90869140625,7453.759765625,5543.23193359375,25248.52734375,5774.498046875,11964.638671875,-7350.44482421875,-10005.6337890625,7286.86669921875,3904.501708984375,8246.1044921875,5466.14306640625,5617.9365234375,5287.3291015625,2349.2177734375,8765.0615234375,7670.720703125,7424.3544921875,-14234.3837890625,-0.0,-0.0,9915.8291015625,6342.72900390625,-2931.75390625,0.0,12168.884765625
-4898.70703125,-10524.5908203125,6639.16259765625,9562.96875,14853.4775390625,15199.978515625,13225.873046875,12190.341796875,13023.216796875,9090.900390625,16601.0859375,0.0,12169.6787109375,0.0,12018.6806640625,15888.2138671875,26559.03515625,12340.5458984375,7690.58837890625,5578.99462890625,4011.789794921875,14780.3623046875,12669.5634765625,9308.6552734375,0.0,1506.0106201171875,6197.2939453125,4210.47216796875,-885.32763671875,-7090.568359375,13257.6630859375,3612.836181640625,9244.283203125,15255.6103515625,9604.294921875,15574.2958984375,5660.85205078125,9465.2177734375,4932.08544921875,-0.0,5116.462890625,12070.337890625,6932.41748046875,9445.349609375,18877.1875,6282.32958984375,-3199.577392578125,7462.50146484375,5547.20556640625,25238.990234375,5776.88232421875,11951.923828125,-7346.47119140625,-10002.4541015625,7278.91943359375,3947.416748046875,8251.6669921875,5457.4013671875,5618.73095703125,5286.53466796875,2370.67529296875,8765.8564453125,7665.9521484375,7408.4599609375,-14240.7421875,-0.0,-0.0,9908.67578125,6345.11328125,-2948.443115234375,0.0,12156.1689453125
-4822.4130859375,-10509.4912109375,6642.341796875,9570.916015625,14855.861328125,15211.8994140625,13223.4892578125,12195.1103515625,13004.939453125,9076.595703125,16608.23828125,0.0,12176.8310546875,0.0,12015.501953125,15903.314453125,26565.392578125,12344.51953125,7690.58837890625,5560.71630859375,4015.763671875,14790.6943359375,12670.357421875,9314.2197265625,0.0,1516.3421630859375,6195.7041015625,4220.8037109375,-884.532958984375,-7094.5419921875,13263.2255859375,3623.96240234375,9246.6669921875,15263.5576171875,9606.6787109375,15581.4482421875,5659.26220703125,9467.6015625,4913.01220703125,-0.0,5118.8466796875,12084.6435546875,6931.623046875,9454.0908203125,18868.447265625,6278.35595703125,-3185.272216796875,7470.44873046875,5547.20556640625,25248.52734375,5770.5244140625,11960.666015625,-7329.7822265625,-10007.22265625,7288.4560546875,3944.23828125,8250.0771484375,5466.93798828125,5607.60498046875,5285.73974609375,2359.54931640625,8768.2412109375,7658.0048828125,7383.0283203125,-14226.4365234375,-0.0,-0.0,9906.2919921875,6327.62890625,-2957.18505859375,0.0,12152.9892578125
-4812.87646484375,-10501.5439453125,6632.8046875,9574.095703125,14844.7353515625,15216.66796875,13218.720703125,12203.8525390625,13008.912109375,9086.1318359375,16603.470703125,0.0,12169.6787109375,0.0,12005.169921875,15910.466796875,26559.830078125,12341.33984375,7690.58837890625,5567.86865234375,4009.405517578125,14789.1044921875,12664.794921875,9316.603515625,0.0,1526.6737060546875,6186.16748046875,4231.9296875,-878.1751098632812,-7092.95263671875,13257.6630859375,3615.22021484375,9238.7197265625,15261.1728515625,9600.3212890625,15581.4482421875,5656.08349609375,9469.986328125,4890.759765625,-0.0,5107.720703125,12090.2060546875,6923.67578125,9460.44921875,18868.447265625,6285.5087890625,-3190.04052734375,7473.62744140625,5530.51611328125,25258.859375,5763.3720703125,11970.2021484375,-7336.9345703125,-10036.6279296875,7278.91943359375,3948.211669921875,8239.74609375,5479.65380859375,5604.42578125,5295.27685546875,2350.80712890625,8761.087890625,7660.38916015625,7397.33349609375,-14220.8740234375,-0.0,-0.0,9912.650390625,6327.62890625,-2943.6748046875,0.0,12168.08984375
-4817.64453125,-10465.78125,6622.47314453125,9554.2265625,14839.171875,15202.36328125,13214.7470703125,12198.2890625,13010.501953125,9085.337890625,16598.701171875,0.0,12156.962890625,0.0,12001.197265625,15905.69921875,26551.087890625,12333.3935546875,7685.8203125,5564.689453125,4003.0478515625,14778.7734375,12659.232421875,9307.861328125,0.0,1507.6002197265625,6180.6044921875,4219.2138671875,-877.38037109375,-7073.08447265625,13247.3310546875,3605.68359375,9229.9775390625,15248.4580078125,9593.1689453125,15572.70703125,5652.10986328125,9465.2177734375,4861.35498046875,-0.0,5098.978515625,12075.1064453125,6918.9072265625,9449.322265625,18867.650390625,6283.9189453125,-3216.2666015625,7452.96484375,5529.7216796875,25241.375,5760.98779296875,11967.818359375,-7342.49755859375,-10000.0693359375,7290.84033203125,3921.985595703125,8240.5400390625,5483.62744140625,5602.04150390625,5298.45556640625,2350.80712890625,8748.3720703125,7658.0048828125,7399.7177734375,-14224.8466796875,-0.0,-0.0,9922.9814453125,6319.681640625,-2927.7802734375,0.0,12179.2158203125
-4817.64453125,-10521.412109375,6630.4208984375,9558.9951171875,14844.7353515625,15205.54296875,13218.720703125,12198.2890625,13007.3232421875,9075.005859375,16605.05859375,0.0,12159.34765625,0.0,12007.5537109375,15913.64453125,26552.677734375,12334.1875,7685.02587890625,5559.12646484375,4005.43212890625,14781.1572265625,12663.205078125,9307.0673828125,0.0,1509.1895751953125,6186.16748046875,4221.59814453125,-874.9962158203125,-7080.23681640625,13250.509765625,3602.504638671875,9235.541015625,15251.63671875,9595.5537109375,15574.2958984375,5652.904296875,9467.6015625,4916.98583984375,-0.0,5103.7470703125,12076.6953125,6921.29150390625,9450.912109375,18867.650390625,6281.53466796875,-3217.856201171875,7458.52783203125,5536.87451171875,25245.34765625,5765.75634765625,11972.5869140625,-7334.55029296875,-10004.837890625,7313.0927734375,3914.8330078125,8247.693359375,5482.0380859375,5606.015625,5293.6875,2352.396728515625,8745.98828125,7655.62060546875,7391.77099609375,-14224.8466796875,-0.0,-0.0,9915.8291015625,6322.06591796875,-2940.495849609375,0.0,12165.7060546875
-4857.38134765625,-10530.154296875,6635.18896484375,9571.7119140625,14851.09375,15215.8740234375,13219.515625,12205.44140625,13008.1171875,9078.9794921875,16611.41796875,0.0,12164.1162109375,0.0,12009.1435546875,15923.9765625,26564.59765625,12341.33984375,7690.58837890625,5558.33203125,4010.995361328125,14791.48828125,12667.1787109375,9314.2197265625,0.0,1524.2894287109375,6189.34619140625,4231.9296875,-872.6119995117188,-7073.87939453125,13259.251953125,3614.42578125,9246.6669921875,15262.7626953125,9600.3212890625,15582.244140625,5656.8779296875,9473.9599609375,4938.44384765625,-0.0,5112.4892578125,12091.0009765625,6925.2646484375,9458.859375,18870.03515625,6287.892578125,-3214.677001953125,7473.62744140625,5541.642578125,25254.091796875,5768.9345703125,11982.91796875,-7309.11865234375,-9932.517578125,7308.32421875,3926.75390625,8243.7197265625,5486.80615234375,5606.81005859375,5296.0712890625,2370.67529296875,8749.9619140625,7658.7998046875,7390.18115234375,-14216.8994140625,-0.0,-0.0,9916.623046875,6325.2451171875,-2944.469482421875,0.0,12159.34765625
-4843.87060546875,-10492.0068359375,6628.03662109375,9559.791015625,14841.556640625,15202.36328125,13211.568359375,12191.931640625,13000.96484375,9069.4423828125,16609.033203125,0.0,12155.3740234375,0.0,12005.169921875,15904.9033203125,26555.060546875,12330.21484375,7680.25732421875,5549.58984375,4000.663818359375,14777.18359375,12657.642578125,9302.298828125,0.0,1495.67919921875,6181.39892578125,4216.82958984375,-886.1223754882812,-7089.7734375,13248.9208984375,3608.06787109375,9234.74609375,15252.4306640625,9591.5791015625,15569.52734375,5648.13623046875,9461.2431640625,4909.03857421875,-0.0,5105.33642578125,12073.5166015625,6917.31787109375,9446.9384765625,18862.8828125,6275.1767578125,-3204.345703125,7460.912109375,5533.6953125,25237.40234375,5762.5771484375,11966.228515625,-7321.03955078125,-9950.796875,7292.4296875,3920.396240234375,8232.59375,5470.91162109375,5601.2470703125,5276.203125,2360.343994140625,8741.2197265625,7649.2626953125,7382.23388671875,-14225.642578125,-0.0,-0.0,9895.9609375,6325.2451171875,-2961.15869140625,0.0,12144.248046875
-4824.0029296875,-10502.3388671875,6635.18896484375,9544.6904296875,14842.3505859375,15197.5947265625,13214.7470703125,12190.341796875,13008.1171875,9081.36328125,16610.623046875,0.0,12159.34765625,0.0,12011.5283203125,15894.5712890625,26552.677734375,12329.4189453125,7682.6416015625,5558.33203125,4000.663818359375,14773.2099609375,12660.8212890625,9303.0927734375,0.0,1487.73193359375,6183.783203125,4213.6513671875,-885.32763671875,-7092.15771484375,13247.3310546875,3598.531005859375,9233.1572265625,15246.8681640625,9593.1689453125,15568.7333984375,5652.10986328125,9462.0390625,4891.55419921875,-0.0,5106.92578125,12066.3642578125,6918.9072265625,9446.9384765625,18867.650390625,6279.150390625,-3209.114013671875,7441.8388671875,5534.490234375,25236.607421875,5765.75634765625,11963.0498046875,-7325.80810546875,-9985.7646484375,7289.2509765625,3913.24365234375,8240.5400390625,5472.50146484375,5605.220703125,5283.35546875,2336.501953125,8746.783203125,7656.41552734375,7395.744140625,-14228.8203125,-0.0,-0.0,9897.5498046875,6335.57666015625,-2950.827392578125,0.0,12158.552734375
-4835.12890625,-10474.5224609375,6643.93115234375,9560.5849609375,14855.0673828125,15212.6953125,13227.462890625,12203.8525390625,13018.44921875,9093.2841796875,16611.41796875,0.0,12175.2421875,0.0,12024.2431640625,15906.4921875,26563.802734375,12342.9296875,7695.35693359375,5572.63720703125,4013.379638671875,14789.1044921875,12673.537109375,9318.98828125,0.0,1507.6002197265625,6197.2939453125,4227.9560546875,-872.6119995117188,-7071.4951171875,13260.841796875,3612.04150390625,9246.6669921875,15261.9677734375,9605.884765625,15583.0380859375,5664.03076171875,9474.75390625,4902.6806640625,-0.0,5115.66796875,12083.0537109375,6931.623046875,9458.859375,18877.982421875,6293.45556640625,-3186.06689453125,7457.7333984375,5547.20556640625,25252.5,5776.08740234375,11974.17578125,-7329.7822265625,-9992.9169921875,7300.376953125,3924.369873046875,8256.435546875,5486.80615234375,5614.75732421875,5307.19775390625,2334.117919921875,8762.6767578125,7667.54150390625,7412.43359375,-14224.052734375,-0.0,-0.0,9913.4443359375,6338.75537109375,-2933.34326171875,0.0,12176.037109375
-4851.81787109375,-10482.470703125,6639.95751953125,9568.5322265625,14855.0673828125,15217.4638671875,13225.873046875,12209.4150390625,13016.8603515625,9089.310546875,16593.93359375,0.0,12183.189453125,0.0,12022.654296875,15916.82421875,26570.955078125,12345.314453125,7697.7412109375,5573.431640625,4015.763671875,14793.078125,12675.1259765625,9322.166015625,0.0,1515.54736328125,6198.8828125,4231.9296875,-874.2014770507812,-7071.4951171875,13264.8154296875,3631.114990234375,9250.640625,15269.1201171875,9609.0634765625,15586.216796875,5665.6201171875,9477.138671875,4923.34375,-0.0,5113.28369140625,12087.822265625,6933.21240234375,9460.44921875,18877.982421875,6296.634765625,-3186.86181640625,7464.8857421875,5545.6162109375,25252.5,5777.67724609375,11982.123046875,-7321.83447265625,-10003.2490234375,7301.96630859375,3941.85400390625,8260.4091796875,5487.6005859375,5609.9892578125,5317.529296875,2342.065185546875,8762.6767578125,7666.74658203125,7404.486328125,-14239.947265625,-0.0,-0.0,9912.650390625,6330.80810546875,-2936.522216796875,0.0,12170.4736328125
-4854.9970703125,-10552.40625,6642.341796875,9558.201171875,14852.6826171875,15215.0791015625,13225.078125,12207.03125,13018.44921875,9086.1318359375,16584.396484375,0.0,12181.599609375,0.0,12023.44921875,15918.4130859375,26568.5703125,12342.9296875,7696.15185546875,5570.2529296875,4012.584716796875,14789.1044921875,12673.537109375,9318.1923828125,0.0,1501.2423095703125,6195.7041015625,4230.34033203125,-874.9962158203125,-7074.67431640625,13262.4306640625,3621.578125,9249.8466796875,15262.7626953125,9608.2685546875,15582.244140625,5662.44140625,9476.34375,4921.75439453125,-0.0,5113.28369140625,12080.6689453125,6931.623046875,9458.859375,18875.599609375,6293.45556640625,-3185.272216796875,7456.9384765625,5542.43701171875,25250.912109375,5776.08740234375,11983.7119140625,-7339.31884765625,-9973.048828125,7307.529296875,3926.75390625,8258.8193359375,5479.65380859375,5608.39990234375,5307.19775390625,2346.83349609375,8759.4990234375,7665.9521484375,7398.92333984375,-14243.919921875,-0.0,-0.0,9901.5234375,6333.98681640625,-2947.648193359375,0.0,12165.7060546875
-4874.07080078125,-10527.7705078125,6636.7783203125,9572.505859375,14850.298828125,15219.84765625,13222.6943359375,12204.6474609375,13015.2705078125,9080.5693359375,16584.396484375,0.0,12169.6787109375,0.0,12021.859375,15917.6201171875,26563.009765625,12342.1357421875,7692.17822265625,5566.27880859375,4010.200439453125,14789.8984375,12671.947265625,9319.7822265625,0.0,1517.136962890625,6194.11474609375,4230.34033203125,-876.5856323242188,-7092.15771484375,13259.251953125,3608.862548828125,9241.8984375,15261.9677734375,9605.08984375,15583.0380859375,5660.05712890625,9473.9599609375,4879.63330078125,-0.0,5110.8994140625,12089.412109375,6929.23876953125,9462.8330078125,18874.802734375,6287.09814453125,-3222.62451171875,7472.0380859375,5543.23193359375,25258.859375,5774.498046875,11982.123046875,-7360.7763671875,-9980.99609375,7302.76123046875,3928.34326171875,8254.05078125,5480.4482421875,5609.1943359375,5287.3291015625,2365.906982421875,8758.7041015625,7663.56787109375,7397.33349609375,-14232.794921875,-0.0,-0.0,9905.4970703125,6337.166015625,-2951.6220703125,0.0,12154.5791015625
-4862.14990234375,-10509.4912109375,6621.6787109375,9578.068359375,14843.146484375,15213.4892578125,13215.5419921875,12195.904296875,13010.501953125,9066.263671875,16601.880859375,0.0,12156.962890625,0.0,12007.5537109375,15908.0830078125,26556.650390625,12336.5712890625,7685.02587890625,5552.7685546875,4004.63720703125,14785.130859375,12666.384765625,9312.6298828125,0.0,1512.3685302734375,6185.373046875,4225.572265625,-879.7645263671875,-7088.1845703125,13254.4833984375,3608.862548828125,9233.1572265625,15257.9951171875,9596.34765625,15575.8857421875,5653.69921875,9464.4228515625,4886.7861328125,-0.0,5101.36279296875,12085.4375,6922.08642578125,9453.296875,18867.650390625,6273.587890625,-3249.645263671875,7477.6015625,5535.28466796875,25246.939453125,5766.55078125,11969.4072265625,-7336.9345703125,-10031.064453125,7276.53515625,3935.495849609375,8240.5400390625,5479.65380859375,5613.962890625,5265.87158203125,2384.185791015625,8750.755859375,7654.82568359375,7381.439453125,-14228.8203125,-0.0,-0.0,9897.5498046875,6345.11328125,-2970.695556640625,0.0,12125.96875
-4843.87060546875,-10532.5380859375,6620.8837890625,9570.916015625,14840.76171875,15203.158203125,13214.7470703125,12187.9580078125,13004.939453125,9059.90625,16601.880859375,0.0,12156.962890625,0.0,12013.1181640625,15898.5458984375,26551.087890625,12331.8037109375,7681.0517578125,5545.6162109375,3999.074462890625,14778.7734375,12660.8212890625,9305.4775390625,0.0,1496.473876953125,6185.373046875,4216.82958984375,-892.480224609375,-7079.4423828125,13248.9208984375,3605.68359375,9231.5673828125,15253.2265625,9593.1689453125,15571.1171875,5647.34130859375,9458.859375,4917.7802734375,-0.0,5097.38916015625,12075.1064453125,6919.7021484375,9445.349609375,18864.47265625,6267.2294921875,-3211.498291015625,7469.654296875,5534.490234375,25235.810546875,5765.75634765625,11958.28125,-7337.72900390625,-10060.4697265625,7274.94580078125,3908.475341796875,8243.7197265625,5474.88525390625,5606.015625,5266.66650390625,2366.701904296875,8742.8095703125,7647.67333984375,7374.28662109375,-14231.9990234375,-0.0,-0.0,9893.576171875,6349.0869140625,-2977.84814453125,0.0,12124.37890625
-4805.7236328125,-10488.033203125,6630.4208984375,9562.1748046875,14845.5302734375,15207.1318359375,13217.92578125,12193.5205078125,13005.7333984375,9073.4169921875,16604.265625,0.0,12164.91015625,0.0,12021.859375,15906.4921875,26555.060546875,12334.1875,7685.02587890625,5554.35791015625,4004.63720703125,14781.9521484375,12664.0009765625,9309.451171875,0.0,1500.4476318359375,6190.935546875,4224.77734375,-893.2749633789062,-7095.3369140625,13252.0986328125,3608.06787109375,9236.3359375,15254.8154296875,9596.34765625,15575.091796875,5651.3154296875,9465.2177734375,4917.7802734375,-0.0,5102.95263671875,12075.1064453125,6923.67578125,9450.912109375,18866.0625,6277.56103515625,-3203.551025390625,7460.1171875,5540.052734375,25243.759765625,5771.31884765625,11965.43359375,-7333.75537109375,-10038.216796875,7285.27685546875,3917.21728515625,8250.0771484375,5482.83251953125,5594.88916015625,5280.9716796875,2357.959716796875,8748.3720703125,7654.82568359375,7387.796875,-14238.357421875,-0.0,-0.0,9903.908203125,6328.423828125,-2957.18505859375,0.0,12146.6318359375
-4812.87646484375,-10451.4765625,6636.7783203125,9557.40625,14852.6826171875,15217.4638671875,13220.310546875,12205.44140625,13004.939453125,9083.748046875,16615.390625,0.0,12170.4736328125,0.0,12012.322265625,15915.2353515625,26563.009765625,12343.724609375,7692.17822265625,5558.33203125,4014.174072265625,14789.8984375,12670.357421875,9318.1923828125,0.0,1501.2423095703125,6190.935546875,4235.10888671875,-878.9698486328125,-7087.3896484375,13259.251953125,3617.6044921875,9242.6943359375,15261.1728515625,9603.5,15583.0380859375,5658.4677734375,9473.1650390625,4916.19091796875,-0.0,5111.6943359375,12085.4375,6929.23876953125,9461.2431640625,18869.2421875,6286.30322265625,-3223.419189453125,7456.14404296875,5547.20556640625,25256.474609375,5770.5244140625,11977.35546875,-7329.7822265625,-9992.123046875,7296.4033203125,3940.26416015625,8250.873046875,5492.369140625,5602.83642578125,5300.044921875,2365.1123046875,8759.4990234375,7661.18359375,7388.591796875,-14224.052734375,-0.0,-0.0,9920.5966796875,6320.4765625,-2930.958984375,0.0,12167.294921875
-4823.2080078125,-10470.5498046875,6638.3681640625,9561.3798828125,14851.8876953125,15221.4365234375,13217.1318359375,12202.2626953125,12994.607421875,9078.9794921875,16621.748046875,0.0,12170.4736328125,0.0,12000.4013671875,15906.4921875,26563.009765625,12346.1083984375,7688.9990234375,5553.5634765625,4014.174072265625,14792.283203125,12670.357421875,9319.7822265625,0.0,1494.884521484375,6185.373046875,4230.34033203125,-875.7908935546875,-7074.67431640625,13260.841796875,3616.809814453125,9243.48828125,15261.1728515625,9604.294921875,15585.4228515625,5656.8779296875,9469.19140625,4924.138671875,-0.0,5111.6943359375,12094.1796875,6926.0595703125,9460.44921875,18865.267578125,6282.32958984375,-3218.65087890625,7459.322265625,5546.4111328125,25254.884765625,5762.5771484375,11971.791015625,-7325.80810546875,-9995.30078125,7295.6083984375,3929.93310546875,8248.48828125,5486.01171875,5602.04150390625,5303.22412109375,2351.601806640625,8762.6767578125,7657.2099609375,7382.23388671875,-14215.310546875,-0.0,-0.0,9922.9814453125,6312.529296875,-2934.137939453125,0.0,12165.7060546875
-4840.69189453125,-10501.5439453125,6642.341796875,9571.7119140625,14848.708984375,15221.4365234375,13214.7470703125,12197.494140625,12991.4287109375,9069.4423828125,16621.748046875,0.0,12168.884765625,0.0,12006.759765625,15900.9306640625,26566.1875,12344.51953125,7685.8203125,5547.20556640625,4012.584716796875,14793.873046875,12666.384765625,9315.80859375,0.0,1521.9052734375,6187.7568359375,4223.982421875,-879.7645263671875,-7089.7734375,13261.6357421875,3623.167724609375,9246.6669921875,15265.94140625,9602.7060546875,15586.216796875,5652.10986328125,9467.6015625,4928.11181640625,-0.0,5113.28369140625,12099.7431640625,6923.67578125,9457.2705078125,18862.8828125,6276.76611328125,-3194.014404296875,7468.859375,5544.8212890625,25255.6796875,5763.3720703125,11964.638671875,-7327.39794921875,-10011.1962890625,7296.4033203125,3922.780517578125,8250.0771484375,5474.0908203125,5596.47900390625,5286.53466796875,2358.75439453125,8761.087890625,7652.44140625,7374.28662109375,-14220.8740234375,-0.0,-0.0,9905.4970703125,6306.96630859375,-2949.23779296875,0.0,12150.60546875
-4851.0234375,-10521.412109375,6638.3681640625,9561.3798828125,14849.50390625,15209.515625,13217.92578125,12199.083984375,12997.7861328125,9075.005859375,16611.41796875,0.0,12166.5,0.0,12010.7333984375,15916.029296875,26563.802734375,12342.1357421875,7685.02587890625,5554.35791015625,4011.789794921875,14783.5419921875,12666.384765625,9313.423828125,0.0,1522.699951171875,6190.935546875,4224.77734375,-874.9962158203125,-7085.00537109375,13256.8671875,3625.552001953125,9245.078125,15261.1728515625,9600.3212890625,15578.26953125,5651.3154296875,9468.396484375,4931.291015625,-0.0,5110.8994140625,12077.4912109375,6924.47021484375,9454.88671875,18866.0625,6279.9453125,-3193.219482421875,7460.912109375,5544.02685546875,25250.912109375,5765.75634765625,11970.2021484375,-7316.271484375,-10002.4541015625,7295.6083984375,3947.416748046875,8251.6669921875,5478.85888671875,5600.45263671875,5287.3291015625,2357.959716796875,8757.9091796875,7654.03125,7381.439453125,-14221.66796875,-0.0,-0.0,9911.8544921875,6315.7080078125,-2942.085205078125,0.0,12164.91015625
-4844.66552734375,-10493.595703125,6643.13671875,9567.7373046875,14854.271484375,15219.052734375,13221.1044921875,12210.2099609375,12999.375,9088.5166015625,16609.826171875,0.0,12168.884765625,0.0,12006.759765625,15927.15625,26566.982421875,12348.4921875,7692.17822265625,5562.3056640625,4017.35302734375,14789.1044921875,12671.947265625,9321.3720703125,0.0,1526.6737060546875,6192.525390625,4237.4931640625,-869.43310546875,-7073.87939453125,13262.4306640625,3624.757080078125,9248.2568359375,15265.94140625,9606.6787109375,15585.4228515625,5656.8779296875,9476.34375,4930.49609375,-0.0,5114.87353515625,12084.6435546875,6930.033203125,9464.4228515625,18871.625,6291.0712890625,-3201.96142578125,7466.47509765625,5548.00048828125,25261.244140625,5766.55078125,11982.123046875,-7309.11865234375,-9968.28125,7301.171875,3957.74853515625,8246.1044921875,5491.57470703125,5601.2470703125,5302.42919921875,2375.443603515625,8766.6513671875,7662.77294921875,7388.591796875,-14224.052734375,-0.0,-0.0,9930.9287109375,6306.96630859375,-2930.164306640625,0.0,12183.189453125
-4854.9970703125,-10510.28515625,6635.98388671875,9556.611328125,14847.119140625,15210.310546875,13214.7470703125,12200.6728515625,12999.375,9084.5419921875,16604.265625,0.0,12162.5263671875,0.0,12003.5810546875,15912.8515625,26560.625,12341.33984375,7687.40966796875,5559.92138671875,4011.789794921875,14781.9521484375,12665.5888671875,9312.6298828125,0.0,1519.5211181640625,6185.373046875,4224.77734375,-881.35400390625,-7089.7734375,13256.0732421875,3619.98876953125,9240.3095703125,15257.19921875,9600.3212890625,15577.4755859375,5650.5205078125,9469.19140625,4909.03857421875,-0.0,5108.51513671875,12080.6689453125,6923.67578125,9454.0908203125,18867.650390625,6284.7138671875,-3209.114013671875,7456.9384765625,5540.052734375,25247.732421875,5761.7822265625,11972.5869140625,-7336.1396484375,-9978.6123046875,7292.4296875,3930.7275390625,8240.5400390625,5480.4482421875,5601.2470703125,5298.45556640625,2365.906982421875,8761.8828125,7658.7998046875,7389.38671875,-14235.1787109375,-0.0,-0.0,9915.0341796875,6317.29736328125,-2942.8798828125,0.0,12164.91015625
-4847.0498046875,-10495.98046875,6646.31494140625,9567.7373046875,14851.8876953125,15218.2578125,13219.515625,12204.6474609375,13002.5546875,9090.1064453125,16610.623046875,0.0,12168.08984375,0.0,12007.5537109375,15916.82421875,26566.982421875,12346.1083984375,7692.17822265625,5565.484375,4017.35302734375,14790.6943359375,12671.1533203125,9318.1923828125,0.0,1525.87890625,6188.55126953125,4230.34033203125,-872.6119995117188,-7081.03173828125,13262.4306640625,3625.552001953125,9248.2568359375,15265.94140625,9605.884765625,15583.8330078125,5656.8779296875,9473.1650390625,4897.11767578125,-0.0,5115.66796875,12087.822265625,6927.64892578125,9458.859375,18870.03515625,6291.8662109375,-3223.419189453125,7468.06494140625,5545.6162109375,25255.6796875,5764.96142578125,11977.35546875,-7345.67626953125,-10006.427734375,7297.19775390625,3936.290771484375,8247.693359375,5487.6005859375,5603.63134765625,5304.0185546875,2369.880615234375,8766.6513671875,7663.56787109375,7392.5654296875,-14221.66796875,-0.0,-0.0,9915.0341796875,6319.681640625,-2942.8798828125,0.0,12162.5263671875
-4823.2080078125,-10505.5166015625,6653.4677734375,9589.9892578125,14859.8359375,15228.5888671875,13225.873046875,12212.59375,13005.7333984375,9091.6953125,16632.080078125,0.0,12173.65234375,0.0,12013.1181640625,15924.7724609375,26577.314453125,12357.2353515625,7696.15185546875,5567.86865234375,4026.889892578125,14802.615234375,12679.099609375,9327.7294921875,0.0,1525.87890625,6196.4990234375,4240.671875,-866.254150390625,-7054.8056640625,13273.556640625,3637.472900390625,9260.177734375,15276.2724609375,9614.626953125,15595.75390625,5665.6201171875,9479.5224609375,4935.2646484375,-0.0,5123.615234375,12098.1533203125,6935.5966796875,9467.6015625,18875.599609375,6295.04541015625,-3194.80908203125,7489.5224609375,5555.15283203125,25262.037109375,5770.5244140625,11984.5078125,-7300.376953125,-9996.890625,7292.4296875,3932.317138671875,8255.640625,5501.111328125,5605.220703125,5310.37646484375,2365.906982421875,8779.3662109375,7667.54150390625,7391.77099609375,-14205.7734375,-0.0,-0.0,9938.0810546875,6315.7080078125,-2927.7802734375,0.0,12175.2421875
-4839.89697265625,-10484.0595703125,6660.6201171875,9589.9892578125,14864.603515625,15233.357421875,13232.2314453125,12211.7998046875,13009.70703125,9078.9794921875,16626.515625,0.0,12180.8056640625,0.0,12021.064453125,15917.6201171875,26582.08203125,12365.9775390625,7698.5361328125,5566.27880859375,4030.86328125,14806.587890625,12682.2783203125,9332.498046875,0.0,1537.005126953125,6204.4462890625,4241.46630859375,-863.8699951171875,-7061.16357421875,13279.9150390625,3644.62548828125,9265.740234375,15279.4521484375,9620.984375,15598.93359375,5668.00439453125,9481.9072265625,4961.49072265625,-0.0,5129.97314453125,12103.716796875,6941.15966796875,9471.576171875,18877.982421875,6290.27685546875,-3165.404052734375,7489.5224609375,5564.689453125,25271.57421875,5776.88232421875,11982.91796875,-7294.8134765625,-9988.1484375,7301.96630859375,3940.26416015625,8263.587890625,5500.31640625,5611.57861328125,5306.40283203125,2348.423095703125,8790.4931640625,7666.74658203125,7389.38671875,-14214.515625,-0.0,-0.0,9932.517578125,6329.21826171875,-2941.29052734375,0.0,12159.34765625
-4868.50732421875,-10462.6015625,6663.79931640625,9582.04296875,14870.1669921875,15236.537109375,13237.0,12223.720703125,13016.8603515625,9084.5419921875,16624.927734375,0.0,12191.13671875,0.0,12025.0390625,15932.71875,26583.671875,12372.3349609375,7706.4833984375,5574.2265625,4036.426513671875,14808.97265625,12687.8427734375,9338.85546875,0.0,1537.005126953125,6210.00927734375,4249.4140625,-855.9227294921875,-7061.95849609375,13281.5048828125,3644.62548828125,9268.125,15279.4521484375,9627.341796875,15602.90625,5673.5673828125,9490.6494140625,4951.9541015625,-0.0,5132.35693359375,12106.1005859375,6947.517578125,9478.728515625,18885.134765625,6303.787109375,-3156.662109375,7481.5751953125,5571.84228515625,25274.75390625,5784.03466796875,11998.8125,-7325.80810546875,-9984.17578125,7326.60302734375,3956.95361328125,8270.740234375,5509.853515625,5619.52587890625,5329.4501953125,2374.64892578125,8804.00390625,7674.69384765625,7395.744140625,-14209.7470703125,-0.0,-0.0,9934.107421875,6337.166015625,-2935.727294921875,0.0,12158.552734375
-4827.18115234375,-10445.912109375,6658.23583984375,9574.095703125,14869.3720703125,15235.7412109375,13239.3837890625,12228.4892578125,13024.806640625,9086.9267578125,16626.515625,0.0,12193.5205078125,0.0,12029.01171875,15941.4619140625,26585.259765625,12373.1298828125,7710.45703125,5582.173828125,4035.631591796875,14808.177734375,12690.2265625,9341.240234375,0.0,1528.2630615234375,6210.80419921875,4253.3876953125,-852.7437744140625,-7042.884765625,13280.708984375,3648.598876953125,9265.740234375,15278.6572265625,9627.341796875,15606.0859375,5676.74658203125,9493.828125,4929.701171875,-0.0,5129.1787109375,12101.3330078125,6948.3125,9479.5224609375,18889.904296875,6307.7607421875,-3163.019775390625,7471.2431640625,5572.63720703125,25273.1640625,5787.2138671875,12005.96484375,-7328.9873046875,-9950.001953125,7326.60302734375,3972.848388671875,8270.740234375,5517.80078125,5625.08935546875,5330.24462890625,2392.927978515625,8807.1826171875,7678.66748046875,7407.6650390625,-14204.1845703125,-0.0,-0.0,9931.7236328125,6348.2919921875,-2935.727294921875,0.0,12160.1416015625
-4809.69775390625,-10456.244140625,6628.83154296875,9563.763671875,14849.50390625,15223.0263671875,13224.2841796875,12215.7734375,13018.44921875,9081.36328125,16601.880859375,0.0,12175.2421875,0.0,12017.8857421875,15934.30859375,26563.009765625,12354.056640625,7695.35693359375,5577.4052734375,4014.174072265625,14790.6943359375,12672.7421875,9326.9345703125,0.0,1517.136962890625,6196.4990234375,4244.6455078125,-874.2014770507812,-7061.16357421875,13260.841796875,3623.96240234375,9237.92578125,15259.5830078125,9605.884765625,15587.806640625,5662.44140625,9478.728515625,4892.34912109375,-0.0,5103.7470703125,12089.412109375,6930.828125,9466.8076171875,18879.572265625,6293.45556640625,-3215.471923828125,7461.70654296875,5550.384765625,25264.421875,5773.703125,11995.6328125,-7331.37109375,-9974.638671875,7293.22412109375,3953.77490234375,8254.05078125,5511.44287109375,5617.1416015625,5311.1708984375,2353.986083984375,8789.6982421875,7669.92578125,7404.486328125,-14230.41015625,-0.0,-0.0,9922.9814453125,6350.67626953125,-2936.522216796875,0.0,12154.5791015625
-4819.234375,-10495.98046875,6612.14208984375,9552.6376953125,14831.2255859375,15206.3369140625,13210.7734375,12198.2890625,13012.091796875,9082.158203125,16577.244140625,0.0,12164.1162109375,0.0,12010.7333984375,15920.00390625,26543.935546875,12334.982421875,7681.8466796875,5573.431640625,3997.484619140625,14771.62109375,12656.84765625,9307.861328125,0.0,1498.0634765625,6185.373046875,4227.16162109375,-894.0697021484375,-7088.97900390625,13244.15234375,3607.273193359375,9221.236328125,15242.099609375,9586.0166015625,15569.52734375,5647.34130859375,9462.8330078125,4872.48095703125,-0.0,5085.46826171875,12070.337890625,6914.93359375,9450.1181640625,18867.650390625,6279.150390625,-3236.9296875,7449.78564453125,5530.51611328125,25242.962890625,5761.7822265625,11972.5869140625,-7337.72900390625,-10016.7587890625,7273.35595703125,3920.396240234375,8240.5400390625,5492.369140625,5613.16845703125,5283.35546875,2324.5810546875,8769.03515625,7658.0048828125,7399.7177734375,-14238.357421875,-0.0,-0.0,9908.67578125,6357.82861328125,-2952.416748046875,0.0,12156.1689453125
-4866.91796875,-10533.3330078125,6615.32080078125,9539.921875,14823.27734375,15189.6474609375,13198.05859375,12176.8310546875,12985.865234375,9068.6484375,16567.70703125,0.0,12147.4267578125,0.0,11994.8388671875,15889.802734375,26536.783203125,12323.8564453125,7666.74658203125,5552.7685546875,3991.126953125,14762.083984375,12645.7216796875,9292.76171875,0.0,1478.989990234375,6171.06787109375,4203.3193359375,-896.453857421875,-7112.0263671875,13233.8212890625,3603.29931640625,9219.646484375,15233.357421875,9578.8642578125,15556.8125,5633.8310546875,9447.7333984375,4873.27587890625,-0.0,5084.67333984375,12056.033203125,6905.39697265625,9431.044921875,18850.9609375,6260.8720703125,-3214.677001953125,7438.65966796875,5524.953125,25220.712890625,5747.47705078125,11948.7451171875,-7346.47119140625,-10040.6005859375,7261.43505859375,3899.7333984375,8226.2353515625,5456.6064453125,5599.65771484375,5256.3349609375,2333.3232421875,8749.9619140625,7641.3154296875,7382.23388671875,-14238.357421875,-0.0,-0.0,9876.8876953125,6318.09228515625,-2972.284912109375,0.0,12149.0166015625
-4886.7861328125,-10559.55859375,6632.009765625,9562.1748046875,14836.7880859375,15200.7744140625,13208.3896484375,12183.9833984375,12982.6865234375,9083.748046875,16597.11328125,0.0,12155.3740234375,0.0,12006.759765625,15885.0341796875,26551.880859375,12334.1875,7677.078125,5560.71630859375,4005.43212890625,14775.59375,12657.642578125,9302.298828125,0.0,1497.2686767578125,6182.19384765625,4209.67724609375,-882.1487426757812,-7104.07861328125,13245.7421875,3617.6044921875,9234.74609375,15251.63671875,9593.9638671875,15567.9384765625,5643.36767578125,9455.6806640625,4893.14404296875,-0.0,5102.15771484375,12073.5166015625,6918.1123046875,9440.5810546875,18857.3203125,6271.998046875,-3195.603515625,7461.70654296875,5538.46337890625,25231.04296875,5760.98779296875,11950.333984375,-7344.88134765625,-10063.6484375,7268.58740234375,3904.501708984375,8242.9248046875,5453.427734375,5607.60498046875,5272.2294921875,2353.19140625,8757.1142578125,7649.2626953125,7395.744140625,-14235.9736328125,-0.0,-0.0,9891.9873046875,6295.04541015625,-2950.827392578125,0.0,12166.5
-4835.12890625,-10528.564453125,6648.69921875,9583.6328125,14856.65625,15223.8203125,13226.66796875,12205.44140625,12996.9912109375,9093.2841796875,16619.36328125,0.0,12172.8583984375,0.0,12027.4228515625,15911.2607421875,26570.955078125,12351.671875,7693.767578125,5570.2529296875,4021.32666015625,14797.0517578125,12675.1259765625,9320.5771484375,0.0,1523.4947509765625,6202.8564453125,4234.31396484375,-868.6383666992188,-7091.36328125,13264.01953125,3637.472900390625,9252.23046875,15273.09375,9613.037109375,15589.396484375,5660.85205078125,9474.75390625,4912.2177734375,-0.0,5121.23095703125,12098.1533203125,6937.185546875,9462.8330078125,18874.802734375,6287.892578125,-3182.887939453125,7482.3701171875,5557.537109375,25257.26953125,5780.06103515625,11974.17578125,-7340.908203125,-10009.6064453125,7303.55615234375,3925.959228515625,8262.7939453125,5469.322265625,5613.962890625,5297.66064453125,2360.343994140625,8774.59765625,7662.77294921875,7394.94921875,-14228.0263671875,-0.0,-0.0,9923.775390625,6301.40283203125,-2930.958984375,0.0,12176.037109375
-4811.287109375,-10449.88671875,6650.2890625,9581.248046875,14862.2197265625,15227.0,13233.8212890625,12210.2099609375,13012.091796875,9092.490234375,16634.46484375,0.0,12183.189453125,0.0,12036.9599609375,15921.5927734375,26574.134765625,12358.8251953125,7700.919921875,5576.6103515625,4027.6845703125,14801.8193359375,12683.8681640625,9326.9345703125,0.0,1522.699951171875,6211.5986328125,4234.31396484375,-858.306884765625,-7093.74755859375,13267.994140625,3640.651611328125,9256.9990234375,15274.68359375,9618.599609375,15593.369140625,5670.388671875,9481.9072265625,4912.2177734375,-0.0,5123.615234375,12098.9482421875,6943.5439453125,9467.6015625,18883.546875,6290.27685546875,-3183.6826171875,7479.19091796875,5563.89453125,25258.859375,5789.59814453125,11983.7119140625,-7328.1923828125,-9985.7646484375,7310.70849609375,3918.01220703125,8271.53515625,5469.322265625,5613.962890625,5296.86572265625,2383.39111328125,8780.162109375,7669.92578125,7402.89697265625,-14204.978515625,-0.0,-0.0,9928.5439453125,6313.32421875,-2927.7802734375,0.0,12172.8583984375
-4856.58642578125,-10461.8076171875,6644.7255859375,9575.6845703125,14858.24609375,15219.052734375,13232.2314453125,12205.44140625,13028.78125,9092.490234375,16615.390625,0.0,12176.8310546875,0.0,12035.3701171875,15916.029296875,26566.1875,12354.056640625,7699.33056640625,5582.96826171875,4019.7373046875,14793.078125,12679.099609375,9322.9609375,0.0,1517.931640625,6206.83056640625,4226.36669921875,-871.8172607421875,-7112.8212890625,13262.4306640625,3627.141357421875,9248.2568359375,15265.94140625,9611.447265625,15586.216796875,5666.41455078125,9479.5224609375,4871.6865234375,-0.0,5115.66796875,12091.0009765625,6939.56982421875,9461.2431640625,18884.33984375,6291.0712890625,-3200.3720703125,7473.62744140625,5559.92138671875,25252.5,5788.00830078125,11979.7392578125,-7343.2919921875,-9996.0966796875,7300.376953125,3918.806640625,8266.7666015625,5473.2958984375,5611.57861328125,5297.66064453125,2381.0068359375,8775.3935546875,7673.10498046875,7418.79150390625,-14214.515625,-0.0,-0.0,9917.4189453125,6346.70263671875,-2932.548583984375,0.0,12177.626953125
-4880.42822265625,-10498.3642578125,6620.8837890625,9551.8427734375,14841.556640625,15202.36328125,13213.9521484375,12195.904296875,13016.064453125,9078.9794921875,16588.369140625,0.0,12159.34765625,0.0,12009.9384765625,15904.9033203125,26549.498046875,12336.5712890625,7683.43603515625,5570.2529296875,3999.868896484375,14772.4150390625,12662.4111328125,9307.861328125,0.0,1488.5267333984375,6186.16748046875,4218.41943359375,-890.0960083007812,-7119.9736328125,13244.9462890625,3610.451904296875,9229.9775390625,15246.8681640625,9592.3740234375,15569.52734375,5649.7255859375,9464.4228515625,4916.98583984375,-0.0,5095.0048828125,12068.748046875,6921.29150390625,9448.5283203125,18866.857421875,6282.32958984375,-3220.240234375,7451.37548828125,5542.43701171875,25235.017578125,5764.16650390625,11971.791015625,-7350.44482421875,-10037.421875,7291.63525390625,3909.269775390625,8242.9248046875,5471.70654296875,5593.2998046875,5301.63427734375,2349.2177734375,8760.29296875,7659.59423828125,7401.3076171875,-14235.9736328125,-0.0,-0.0,9902.318359375,6337.166015625,-2945.26416015625,0.0,12166.5
-4854.9970703125,-10519.02734375,6616.91064453125,9542.3056640625,14835.994140625,15198.3896484375,13202.826171875,12190.341796875,13002.5546875,9069.4423828125,16589.9609375,0.0,12156.962890625,0.0,11992.4541015625,15903.314453125,26543.140625,12329.4189453125,7675.48876953125,5559.92138671875,3995.8955078125,14767.646484375,12655.2578125,9302.298828125,0.0,1484.552978515625,6174.24609375,4213.6513671875,-893.2749633789062,-7115.99951171875,13240.177734375,3600.915283203125,9225.208984375,15240.509765625,9587.60546875,15563.96484375,5643.36767578125,9458.859375,4912.2177734375,-0.0,5091.826171875,12063.98046875,6914.93359375,9442.9658203125,18859.705078125,6272.79296875,-3219.445556640625,7441.0439453125,5532.900390625,25232.6328125,5749.861328125,11966.228515625,-7356.0078125,-10050.9326171875,7289.2509765625,3910.859619140625,8236.5673828125,5467.73291015625,5598.068359375,5292.892578125,2331.733642578125,8752.345703125,7652.44140625,7387.00244140625,-14232.794921875,-0.0,-0.0,9885.62890625,6316.5029296875,-2959.5693359375,0.0,12154.5791015625
-4849.43408203125,-10514.259765625,6617.705078125,9545.4853515625,14835.994140625,15202.36328125,13202.826171875,12191.931640625,12994.607421875,9064.6748046875,16595.521484375,0.0,12160.9375,0.0,11992.4541015625,15910.466796875,26543.140625,12331.8037109375,7675.48876953125,5554.35791015625,3996.690185546875,14771.62109375,12655.2578125,9300.708984375,0.0,1491.70556640625,6175.8359375,4218.41943359375,-891.6854858398438,-7120.76806640625,13241.767578125,3602.504638671875,9225.208984375,15241.3056640625,9589.1953125,15565.5546875,5643.36767578125,9460.44921875,4888.3759765625,-0.0,5092.62109375,12067.9541015625,6914.138671875,9446.9384765625,18858.11328125,6271.20361328125,-3239.313720703125,7443.42822265625,5532.900390625,25238.1953125,5749.06689453125,11971.791015625,-7343.2919921875,-10035.0380859375,7278.91943359375,3919.6015625,8239.74609375,5465.3486328125,5597.2734375,5284.150390625,2343.654541015625,8751.5517578125,7650.05712890625,7379.85009765625,-14228.8203125,-0.0,-0.0,9895.9609375,6318.09228515625,-2956.390380859375,0.0,12153.78515625
-4820.82373046875,-10480.0859375,6624.06298828125,9551.0478515625,14844.7353515625,15204.7470703125,13210.7734375,12191.13671875,13000.96484375,9078.185546875,16601.880859375,0.0,12169.6787109375,0.0,12001.9912109375,15896.955078125,26556.650390625,12338.9560546875,7682.6416015625,5563.10009765625,4004.63720703125,14775.59375,12663.205078125,9303.8876953125,0.0,1490.1160888671875,6182.19384765625,4214.44580078125,-885.32763671875,-7115.205078125,13248.9208984375,3620.783447265625,9237.1298828125,15250.841796875,9598.732421875,15570.3232421875,5650.5205078125,9462.8330078125,4900.296875,-0.0,5100.568359375,12072.72265625,6920.49658203125,9447.7333984375,18863.677734375,6276.76611328125,-3240.903076171875,7450.58056640625,5539.25830078125,25238.990234375,5757.013671875,11965.43359375,-7329.7822265625,-10039.806640625,7286.86669921875,3913.24365234375,8244.5146484375,5455.01708984375,5597.2734375,5288.9189453125,2365.906982421875,8753.935546875,7657.2099609375,7388.591796875,-14228.0263671875,-0.0,-0.0,9906.2919921875,6319.681640625,-2941.29052734375,0.0,12167.294921875
-4808.10791015625,-10488.828125,6623.26806640625,9543.1015625,14843.9404296875,15197.5947265625,13209.9794921875,12185.5732421875,13004.939453125,9086.1318359375,16605.05859375,0.0,12168.08984375,0.0,12005.96484375,15888.2138671875,26552.677734375,12334.1875,7681.8466796875,5567.86865234375,4003.0478515625,14769.236328125,12661.6162109375,9299.9140625,0.0,1484.552978515625,6184.578125,4201.73046875,-884.532958984375,-7116.79443359375,13245.7421875,3618.3994140625,9233.951171875,15245.2783203125,9596.34765625,15565.5546875,5650.5205078125,9459.6552734375,4900.296875,-0.0,5099.7734375,12065.5703125,6919.7021484375,9441.3759765625,18866.857421875,6275.9716796875,-3242.49267578125,7442.63330078125,5538.46337890625,25225.48046875,5759.39794921875,11955.1015625,-7326.60302734375,-10014.375,7282.892578125,3895.759521484375,8248.48828125,5455.81201171875,5603.63134765625,5285.73974609375,2363.522705078125,8751.5517578125,7658.0048828125,7395.744140625,-14233.5888671875,-0.0,-0.0,9912.650390625,6318.88720703125,-2934.9326171875,0.0,12173.65234375
-4818.439453125,-10532.5380859375,6621.6787109375,9540.716796875,14841.556640625,15195.2109375,13208.3896484375,12181.599609375,13002.5546875,9082.953125,16604.265625,0.0,12163.3212890625,0.0,12007.5537109375,15889.009765625,26549.498046875,12331.0087890625,7677.078125,5561.5107421875,3999.074462890625,14765.2626953125,12657.642578125,9297.5302734375,0.0,1480.579345703125,6183.783203125,4204.1142578125,-882.1487426757812,-7109.64208984375,13241.767578125,3610.451904296875,9229.9775390625,15243.689453125,9591.5791015625,15563.1708984375,5645.751953125,9458.0654296875,4900.296875,-0.0,5098.978515625,12063.185546875,6914.93359375,9439.7861328125,18865.267578125,6272.79296875,-3205.140380859375,7438.65966796875,5537.6689453125,25223.09765625,5760.98779296875,11952.7177734375,-7341.703125,-9999.275390625,7279.7138671875,3898.143798828125,8253.2568359375,5464.5537109375,5602.04150390625,5276.998046875,2350.80712890625,8742.8095703125,7653.236328125,7393.3603515625,-14237.5634765625,-0.0,-0.0,9910.265625,6325.2451171875,-2938.906494140625,0.0,12168.08984375
-4852.61279296875,-10472.93359375,6638.3681640625,9557.40625,14850.298828125,15205.54296875,13216.3359375,12186.3681640625,13010.501953125,9086.9267578125,16611.41796875,0.0,12171.2685546875,0.0,12014.70703125,15887.4189453125,26560.625,12339.7509765625,7685.02587890625,5567.86865234375,4008.611083984375,14777.9775390625,12666.384765625,9304.6826171875,0.0,1494.0897216796875,6188.55126953125,4213.6513671875,-873.40673828125,-7091.36328125,13251.3046875,3623.96240234375,9242.6943359375,15256.4052734375,9601.1162109375,15571.912109375,5652.10986328125,9465.2177734375,4922.548828125,-0.0,5110.8994140625,12074.3115234375,6923.67578125,9446.9384765625,18870.830078125,6281.53466796875,-3197.98779296875,7454.55419921875,5547.20556640625,25235.810546875,5766.55078125,11955.1015625,-7336.9345703125,-10025.5009765625,7290.04541015625,3907.680419921875,8257.2294921875,5470.1171875,5609.9892578125,5283.35546875,2365.1123046875,8747.578125,7661.18359375,7398.12841796875,-14233.5888671875,-0.0,-0.0,9910.265625,6331.6025390625,-2936.522216796875,0.0,12168.08984375
-4882.017578125,-10514.259765625,6639.95751953125,9555.0224609375,14847.119140625,15205.54296875,13213.1572265625,12186.3681640625,13009.70703125,9085.337890625,16606.6484375,0.0,12167.294921875,0.0,12012.322265625,15888.2138671875,26561.41796875,12338.1611328125,7684.23095703125,5568.6630859375,4008.611083984375,14779.5673828125,12664.0009765625,9303.8876953125,0.0,1500.4476318359375,6186.9619140625,4213.6513671875,-877.38037109375,-7105.66845703125,13248.9208984375,3626.3466796875,9242.6943359375,15256.4052734375,9598.732421875,15570.3232421875,5650.5205078125,9462.8330078125,4914.6015625,-0.0,5106.92578125,12075.9013671875,6922.880859375,9446.14453125,18870.03515625,6279.9453125,-3213.087890625,7453.759765625,5542.43701171875,25238.990234375,5764.16650390625,11953.5126953125,-7328.9873046875,-10037.421875,7289.2509765625,3908.475341796875,8245.30859375,5470.1171875,5609.9892578125,5287.3291015625,2351.601806640625,8749.1669921875,7661.97802734375,7398.92333984375,-14231.9990234375,-0.0,-0.0,9905.4970703125,6336.37109375,-2939.701171875,0.0,12164.91015625
-4860.56005859375,-10555.5849609375,6635.98388671875,9554.2265625,14842.3505859375,15202.36328125,13206.7998046875,12186.3681640625,13000.1708984375,9078.185546875,16597.90625,0.0,12162.5263671875,0.0,12001.9912109375,15893.7783203125,26559.830078125,12334.982421875,7677.873046875,5559.12646484375,4005.43212890625,14777.18359375,12657.642578125,9303.0927734375,0.0,1498.0634765625,6181.39892578125,4213.6513671875,-880.5592651367188,-7115.99951171875,13245.7421875,3620.783447265625,9237.92578125,15256.4052734375,9595.5537109375,15569.52734375,5644.16259765625,9458.859375,4899.501953125,-0.0,5103.7470703125,12071.9267578125,6918.1123046875,9446.14453125,18862.8828125,6275.1767578125,-3202.756103515625,7452.96484375,5537.6689453125,25238.1953125,5757.80859375,11956.69140625,-7328.9873046875,-10000.0693359375,7289.2509765625,3912.448974609375,8236.5673828125,5470.91162109375,5599.65771484375,5285.73974609375,2343.654541015625,8748.3720703125,7655.62060546875,7386.20751953125,-14228.0263671875,-0.0,-0.0,9903.11328125,6314.9130859375,-2946.853515625,0.0,12156.1689453125
-4839.89697265625,-10519.02734375,6637.5732421875,9566.1474609375,14843.9404296875,15209.515625,13213.1572265625,12195.904296875,13002.5546875,9089.310546875,16604.265625,0.0,12164.1162109375,0.0,12005.169921875,15900.134765625,26561.41796875,12342.1357421875,7682.6416015625,5563.89453125,4010.200439453125,14783.5419921875,12663.205078125,9309.451171875,0.0,1502.831787109375,6186.16748046875,4223.18798828125,-885.32763671875,-7099.310546875,13251.3046875,3620.783447265625,9240.3095703125,15261.1728515625,9597.142578125,15575.091796875,5648.93115234375,9467.6015625,4888.3759765625,-0.0,5108.51513671875,12077.4912109375,6920.49658203125,9452.501953125,18867.650390625,6282.32958984375,-3199.577392578125,7463.29638671875,5543.23193359375,25244.5546875,5761.7822265625,11967.0224609375,-7332.96044921875,-9990.533203125,7290.84033203125,3931.5224609375,8245.30859375,5476.474609375,5602.04150390625,5299.25,2359.54931640625,8753.935546875,7659.59423828125,7388.591796875,-14224.8466796875,-0.0,-0.0,9915.8291015625,6314.9130859375,-2930.164306640625,0.0,12180.8056640625
-4827.18115234375,-10468.9599609375,6643.13671875,9567.7373046875,14852.6826171875,15221.4365234375,13222.6943359375,12209.4150390625,13011.2958984375,9102.02734375,16608.23828125,0.0,12175.2421875,0.0,12013.912109375,15920.796875,26569.3671875,12351.671875,7695.35693359375,5575.81591796875,4019.7373046875,14790.6943359375,12673.537109375,9319.7822265625,0.0,1510.779052734375,6194.11474609375,4235.9033203125,-875.7908935546875,-7088.1845703125,13257.6630859375,3632.70458984375,9248.2568359375,15265.94140625,9605.884765625,15583.8330078125,5658.4677734375,9480.3173828125,4914.6015625,-0.0,5115.66796875,12085.4375,6926.8544921875,9466.01171875,18877.1875,6295.83984375,-3209.114013671875,7465.6806640625,5548.79541015625,25258.859375,5768.9345703125,11982.91796875,-7327.39794921875,-9984.17578125,7297.99267578125,3936.290771484375,8255.640625,5484.42236328125,5609.1943359375,5316.734375,2374.64892578125,8765.0615234375,7672.31005859375,7396.5390625,-14227.2314453125,-0.0,-0.0,9931.7236328125,6319.681640625,-2911.0908203125,0.0,12200.6728515625
-4832.74462890625,-10445.912109375,6647.10986328125,9562.96875,14856.65625,15223.8203125,13226.66796875,12211.7998046875,13021.6279296875,9107.58984375,16601.0859375,0.0,12177.626953125,0.0,12021.064453125,15924.7724609375,26569.3671875,12353.2607421875,7699.33056640625,5585.3525390625,4021.32666015625,14790.6943359375,12678.3056640625,9322.9609375,0.0,1515.54736328125,6198.08837890625,4239.08251953125,-871.0225219726562,-7085.80029296875,13259.251953125,3638.267578125,9250.640625,15267.53125,9608.2685546875,15586.216796875,5663.236328125,9483.4970703125,4909.03857421875,-0.0,5115.66796875,12086.232421875,6932.41748046875,9469.986328125,18883.546875,6301.40283203125,-3205.140380859375,7462.50146484375,5551.17919921875,25263.62890625,5773.703125,11987.6865234375,-7328.9873046875,-9990.533203125,7301.96630859375,3937.085693359375,8259.6142578125,5491.57470703125,5618.73095703125,5319.91357421875,2361.933349609375,8768.2412109375,7679.46240234375,7407.6650390625,-14235.9736328125,-0.0,-0.0,9935.6962890625,6333.1923828125,-2911.0908203125,0.0,12195.1103515625
-4867.71240234375,-10461.0126953125,6642.341796875,9561.3798828125,14851.09375,15215.8740234375,13216.3359375,12200.6728515625,13014.4755859375,9090.900390625,16595.521484375,0.0,12169.6787109375,0.0,12016.296875,15911.2607421875,26563.009765625,12346.9033203125,7691.38330078125,5571.84228515625,4013.379638671875,14785.130859375,12670.357421875,9313.423828125,0.0,1513.1632080078125,6191.73046875,4229.54541015625,-874.2014770507812,-7083.416015625,13255.2783203125,3627.141357421875,9245.8720703125,15261.9677734375,9600.3212890625,15581.4482421875,5655.28857421875,9473.1650390625,4905.859375,-0.0,5110.10498046875,12081.4638671875,6925.2646484375,9457.2705078125,18875.599609375,6287.892578125,-3193.219482421875,7460.912109375,5545.6162109375,25255.6796875,5768.14013671875,11974.970703125,-7347.265625,-10032.654296875,7298.78759765625,3937.085693359375,8247.693359375,5486.80615234375,5609.9892578125,5303.22412109375,2347.62841796875,8759.4990234375,7667.54150390625,7389.38671875,-14227.2314453125,-0.0,-0.0,9926.955078125,6333.1923828125,-2927.7802734375,0.0,12170.4736328125
-4882.8125,-10464.986328125,6633.599609375,9552.6376953125,14843.9404296875,15207.9267578125,13209.18359375,12191.13671875,13000.96484375,9071.8271484375,16592.34375,0.0,12169.6787109375,0.0,12009.1435546875,15901.7236328125,26555.060546875,12338.9560546875,7682.6416015625,5554.35791015625,4005.43212890625,14779.5673828125,12662.4111328125,9307.0673828125,0.0,1502.831787109375,6186.16748046875,4220.8037109375,-880.5592651367188,-7088.1845703125,13247.3310546875,3613.631103515625,9238.7197265625,15255.6103515625,9596.34765625,15572.70703125,5648.13623046875,9466.01171875,4918.5751953125,-0.0,5102.95263671875,12074.3115234375,6918.9072265625,9450.912109375,18865.267578125,6277.56103515625,-3211.498291015625,7452.169921875,5539.25830078125,25246.142578125,5761.7822265625,11963.8447265625,-7348.85546875,-10019.1435546875,7294.01904296875,3936.290771484375,8244.5146484375,5479.65380859375,5600.45263671875,5288.1240234375,2353.19140625,8751.5517578125,7655.62060546875,7370.31298828125,-14217.6943359375,-0.0,-0.0,9912.650390625,6315.7080078125,-2949.23779296875,0.0,12150.60546875
-4881.22314453125,-10480.0859375,6631.21533203125,9551.8427734375,14845.5302734375,15209.515625,13215.5419921875,12196.7001953125,13009.70703125,9076.595703125,16601.880859375,0.0,12168.08984375,0.0,12013.912109375,15909.671875,26551.880859375,12341.33984375,7687.40966796875,5560.71630859375,4005.43212890625,14777.9775390625,12664.0009765625,9310.2451171875,0.0,1502.037109375,6190.14111328125,4226.36669921875,-886.1223754882812,-7093.74755859375,13248.9208984375,3608.06787109375,9234.74609375,15251.63671875,9597.142578125,15572.70703125,5651.3154296875,9469.986328125,4907.44921875,-0.0,5103.7470703125,12071.9267578125,6922.08642578125,9454.0908203125,18870.830078125,6281.53466796875,-3225.803466796875,7448.9912109375,5540.84765625,25246.939453125,5766.55078125,11970.9970703125,-7337.72900390625,-9999.275390625,7289.2509765625,3932.317138671875,8247.693359375,5485.216796875,5613.16845703125,5296.0712890625,2356.3701171875,8757.1142578125,7661.18359375,7379.85009765625,-14220.8740234375,-0.0,-0.0,9916.623046875,6331.6025390625,-2940.495849609375,0.0,12161.7314453125
-4897.11767578125,-10518.2333984375,6631.21533203125,9558.201171875,14849.50390625,15213.4892578125,13221.900390625,12206.2373046875,13018.44921875,9092.490234375,16601.0859375,0.0,12164.91015625,0.0,12017.8857421875,15917.6201171875,26556.650390625,12350.876953125,7695.35693359375,5577.4052734375,4010.200439453125,14784.3359375,12671.947265625,9315.80859375,0.0,1505.2159423828125,6195.7041015625,4233.51904296875,-893.2749633789062,-7098.51611328125,13255.2783203125,3611.246826171875,9237.1298828125,15257.9951171875,9601.1162109375,15579.859375,5657.6728515625,9475.548828125,4894.7333984375,-0.0,5107.720703125,12079.875,6927.64892578125,9461.2431640625,18880.3671875,6292.6611328125,-3213.087890625,7456.9384765625,5546.4111328125,25250.912109375,5772.90869140625,11982.123046875,-7339.31884765625,-10021.52734375,7288.4560546875,3924.369873046875,8250.873046875,5486.80615234375,5620.32080078125,5309.58154296875,2353.19140625,8772.2138671875,7670.720703125,7400.5126953125,-14234.3837890625,-0.0,-0.0,9921.3916015625,6343.5234375,-2928.57470703125,0.0,12184.779296875
-4878.0439453125,-10504.72265625,6626.447265625,9566.1474609375,14849.50390625,15215.0791015625,13222.6943359375,12207.03125,13012.8857421875,9094.0791015625,16584.396484375,0.0,12162.5263671875,0.0,12017.0908203125,15916.029296875,26559.830078125,12353.2607421875,7695.35693359375,5578.19970703125,4011.789794921875,14787.5146484375,12672.7421875,9318.98828125,0.0,1509.984375,6195.7041015625,4233.51904296875,-894.0697021484375,-7096.1318359375,13257.6630859375,3621.578125,9235.541015625,15260.37890625,9601.1162109375,15583.8330078125,5657.6728515625,9477.138671875,4883.607421875,-0.0,5103.7470703125,12084.6435546875,6926.0595703125,9461.2431640625,18879.572265625,6295.83984375,-3206.72998046875,7466.47509765625,5546.4111328125,25251.70703125,5773.703125,11982.123046875,-7354.41845703125,-10023.9111328125,7282.892578125,3924.369873046875,8252.4619140625,5486.01171875,5618.73095703125,5311.9658203125,2353.986083984375,8781.7509765625,7671.51513671875,7404.486328125,-14247.89453125,-0.0,-0.0,9917.4189453125,6339.5498046875,-2933.34326171875,0.0,12180.0107421875
-4882.8125,-10478.49609375,6638.3681640625,9564.55859375,14854.271484375,15219.84765625,13222.6943359375,12208.62109375,13006.5283203125,9091.6953125,16589.9609375,0.0,12172.8583984375,0.0,12016.296875,15921.5927734375,26565.392578125,12355.6455078125,7696.94677734375,5574.2265625,4017.35302734375,14788.3095703125,12674.33203125,9321.3720703125,0.0,1511.57373046875,6198.8828125,4237.4931640625,-888.506591796875,-7092.95263671875,13260.046875,3625.552001953125,9244.283203125,15263.5576171875,9607.474609375,15587.0126953125,5661.646484375,9479.5224609375,4908.24365234375,-0.0,5112.4892578125,12085.4375,6929.23876953125,9464.4228515625,18877.982421875,6297.4296875,-3201.96142578125,7464.8857421875,5551.9736328125,25254.884765625,5774.498046875,11985.3017578125,-7359.1865234375,-10029.4755859375,7295.6083984375,3924.369873046875,8256.435546875,5490.77978515625,5613.962890625,5314.35009765625,2359.54931640625,8786.51953125,7670.720703125,7391.77099609375,-14243.919921875,-0.0,-0.0,9925.365234375,6326.03955078125,-2926.190673828125,0.0,12176.037109375
-4847.0498046875,-10481.6748046875,6641.546875,9561.3798828125,14852.6826171875,15222.2314453125,13221.900390625,12209.4150390625,13011.2958984375,9092.490234375,16601.0859375,0.0,12178.4208984375,0.0,12015.501953125,15922.3876953125,26565.392578125,12356.4404296875,7696.15185546875,5579.78955078125,4019.7373046875,14789.8984375,12673.537109375,9321.3720703125,0.0,1518.726318359375,6197.2939453125,4237.4931640625,-883.7382202148438,-7087.3896484375,13260.841796875,3625.552001953125,9245.078125,15265.1474609375,9607.474609375,15587.0126953125,5660.85205078125,9478.728515625,4918.5751953125,-0.0,5112.4892578125,12086.232421875,6930.033203125,9464.4228515625,18880.3671875,6295.04541015625,-3220.240234375,7460.1171875,5549.58984375,25258.064453125,5773.703125,11986.0966796875,-7346.47119140625,-10005.6337890625,7292.4296875,3926.75390625,8256.435546875,5489.1904296875,5612.37353515625,5311.1708984375,2371.47021484375,8784.9306640625,7671.51513671875,7400.5126953125,-14236.767578125,-0.0,-0.0,9928.5439453125,6329.21826171875,-2924.601318359375,0.0,12177.626953125
-4857.38134765625,-10501.5439453125,6632.8046875,9555.0224609375,14849.50390625,15212.6953125,13217.1318359375,12203.8525390625,13016.8603515625,9089.310546875,16601.0859375,0.0,12166.5,0.0,12014.70703125,15913.64453125,26556.650390625,12345.314453125,7688.9990234375,5581.37890625,4010.995361328125,14783.5419921875,12667.9736328125,9311.8349609375,0.0,1510.779052734375,6191.73046875,4231.9296875,-882.9434814453125,-7094.5419921875,13248.9208984375,3616.809814453125,9237.1298828125,15255.6103515625,9599.5263671875,15579.064453125,5654.49365234375,9471.576171875,4917.7802734375,-0.0,5104.5419921875,12077.4912109375,6923.67578125,9457.2705078125,18877.1875,6289.48193359375,-3219.445556640625,7452.169921875,5546.4111328125,25254.091796875,5769.7294921875,11977.35546875,-7330.57666015625,-10008.8115234375,7286.07177734375,3922.780517578125,8252.4619140625,5482.83251953125,5612.37353515625,5299.25,2356.3701171875,8773.009765625,7666.74658203125,7410.04931640625,-14235.9736328125,-0.0,-0.0,9915.8291015625,6344.318359375,-2940.495849609375,0.0,12167.294921875
-4858.17578125,-10489.623046875,6626.447265625,9555.81640625,14843.146484375,15209.515625,13206.7998046875,12195.1103515625,13001.759765625,9078.185546875,16605.05859375,0.0,12160.1416015625,0.0,12004.375,15909.671875,26551.087890625,12337.3671875,7680.25732421875,5563.10009765625,4004.63720703125,14777.18359375,12660.0263671875,9304.6826171875,0.0,1508.3948974609375,6184.578125,4230.34033203125,-878.1751098632812,-7088.97900390625,13242.5625,3612.836181640625,9232.361328125,15252.4306640625,9591.5791015625,15572.70703125,5645.751953125,9464.4228515625,4909.03857421875,-0.0,5100.568359375,12076.6953125,6916.52294921875,9451.70703125,18863.677734375,6278.35595703125,-3209.90869140625,7453.759765625,5543.23193359375,25252.5,5760.98779296875,11971.791015625,-7340.908203125,-9996.890625,7288.4560546875,3925.959228515625,8246.8984375,5489.98486328125,5598.86328125,5292.892578125,2355.57568359375,8758.7041015625,7656.41552734375,7386.20751953125,-14224.8466796875,-0.0,-0.0,9907.0859375,6325.2451171875,-2948.443115234375,0.0,12158.552734375
-4804.92919921875,-10529.3583984375,6635.18896484375,9576.4794921875,14847.119140625,15217.4638671875,13209.18359375,12199.083984375,12996.9912109375,9075.80078125,16616.98046875,0.0,12166.5,0.0,12005.169921875,15919.208984375,26563.009765625,12342.1357421875,7682.6416015625,5557.537109375,4011.789794921875,14785.92578125,12664.0009765625,9311.8349609375,0.0,1521.9052734375,6184.578125,4239.87744140625,-870.227783203125,-7073.08447265625,13250.509765625,3623.96240234375,9241.1044921875,15264.3515625,9596.34765625,15578.26953125,5647.34130859375,9469.19140625,4915.39599609375,-0.0,5105.33642578125,12089.412109375,6920.49658203125,9459.6552734375,18862.08984375,6279.9453125,-3194.80908203125,7473.62744140625,5543.23193359375,25261.244140625,5762.5771484375,11978.943359375,-7336.9345703125,-10027.0908203125,7297.99267578125,3938.6748046875,8247.693359375,5502.70068359375,5596.47900390625,5296.0712890625,2381.801513671875,8757.1142578125,7656.41552734375,7378.26025390625,-14208.953125,-0.0,-0.0,9911.8544921875,6314.11865234375,-2942.085205078125,0.0,12159.34765625
-4797.77685546875,-10605.65234375,6628.83154296875,9574.095703125,14843.146484375,15207.1318359375,13206.0048828125,12190.341796875,12997.7861328125,9063.8798828125,16609.033203125,0.0,12169.6787109375,0.0,12009.9384765625,15908.0830078125,26559.830078125,12335.77734375,7674.69384765625,5553.5634765625,4007.81640625,14780.3623046875,12657.642578125,9303.8876953125,0.0,1510.779052734375,6185.373046875,4229.54541015625,-878.1751098632812,-7092.95263671875,13245.7421875,3626.3466796875,9237.92578125,15263.5576171875,9590.78515625,15570.3232421875,5643.36767578125,9462.0390625,4901.8857421875,-0.0,5101.36279296875,12083.84765625,6918.9072265625,9450.912109375,18859.705078125,6269.61376953125,-3200.3720703125,7471.2431640625,5541.642578125,25250.912109375,5760.98779296875,11970.9970703125,-7336.1396484375,-10120.869140625,7295.6083984375,3924.369873046875,8248.48828125,5486.01171875,5597.2734375,5280.1767578125,2367.49658203125,8747.578125,7651.64697265625,7374.28662109375,-14219.2841796875,-0.0,-0.0,9891.1923828125,6326.833984375,-2963.54296875,0.0,12140.2744140625
-4827.97607421875,-10540.4853515625,6637.5732421875,9583.6328125,14852.6826171875,15215.0791015625,13213.1572265625,12201.46875,13001.759765625,9075.80078125,16614.595703125,0.0,12176.037109375,0.0,12021.859375,15920.796875,26564.59765625,12344.51953125,7685.8203125,5562.3056640625,4016.55810546875,14788.3095703125,12667.1787109375,9311.8349609375,0.0,1516.3421630859375,6194.90966796875,4237.4931640625,-870.227783203125,-7084.2109375,13253.6884765625,3622.372802734375,9243.48828125,15266.736328125,9598.732421875,15577.4755859375,5650.5205078125,9469.986328125,4895.5283203125,-0.0,5110.10498046875,12091.0009765625,6926.0595703125,9460.44921875,18864.47265625,6280.740234375,-3198.78271484375,7481.5751953125,5551.17919921875,25260.44921875,5769.7294921875,11982.91796875,-7334.55029296875,-10056.49609375,7296.4033203125,3933.111572265625,8255.640625,5483.62744140625,5596.47900390625,5292.09765625,2366.701904296875,8755.5244140625,7658.0048828125,7381.439453125,-14215.310546875,-0.0,-0.0,9914.2392578125,6320.4765625,-2945.26416015625,0.0,12158.552734375
-4816.05517578125,-10430.8125,6638.3681640625,9566.943359375,14855.0673828125,15214.2841796875,13213.9521484375,12198.2890625,12994.607421875,9071.0322265625,16620.158203125,0.0,12168.08984375,0.0,12018.6806640625,15919.208984375,26563.802734375,12343.724609375,7685.02587890625,5553.5634765625,4015.763671875,14785.130859375,12667.9736328125,9309.451171875,0.0,1513.9580078125,6195.7041015625,4230.34033203125,-863.8699951171875,-7086.59521484375,13253.6884765625,3616.01513671875,9243.48828125,15261.9677734375,9600.3212890625,15576.6806640625,5649.7255859375,9466.8076171875,4905.859375,-0.0,5113.28369140625,12087.02734375,6926.8544921875,9457.2705078125,18862.8828125,6279.150390625,-3199.577392578125,7466.47509765625,5555.94775390625,25257.26953125,5768.14013671875,11978.943359375,-7317.06640625,-9964.306640625,7301.96630859375,3921.985595703125,8254.845703125,5472.50146484375,5595.68408203125,5289.71337890625,2381.801513671875,8753.935546875,7654.03125,7374.28662109375,-14203.3896484375,-0.0,-0.0,9926.16015625,6315.7080078125,-2942.085205078125,0.0,12158.552734375
-4795.392578125,-10408.560546875,6638.3681640625,9556.611328125,14851.09375,15208.720703125,13210.7734375,12193.5205078125,13000.1708984375,9078.9794921875,16617.775390625,0.0,12160.9375,0.0,12005.169921875,15908.0830078125,26559.03515625,12339.7509765625,7682.6416015625,5556.7421875,4010.995361328125,14778.7734375,12663.205078125,9305.4775390625,0.0,1509.984375,6189.34619140625,4223.18798828125,-871.0225219726562,-7092.95263671875,13247.3310546875,3613.631103515625,9237.92578125,15254.8154296875,9594.7578125,15571.1171875,5647.34130859375,9465.2177734375,4890.759765625,-0.0,5110.10498046875,12078.28515625,6922.880859375,9451.70703125,18863.677734375,6278.35595703125,-3216.2666015625,7453.759765625,5551.17919921875,25250.1171875,5760.98779296875,11970.9970703125,-7305.1455078125,-9974.638671875,7301.96630859375,3921.985595703125,8247.693359375,5469.322265625,5603.63134765625,5299.25,2381.801513671875,8749.1669921875,7654.82568359375,7386.20751953125,-14208.953125,-0.0,-0.0,9926.16015625,6322.06591796875,-2938.111572265625,0.0,12166.5
-4808.10791015625,-10467.3701171875,6631.21533203125,9552.6376953125,14843.146484375,15203.953125,13203.62109375,12192.7265625,12993.8125,9078.185546875,16606.6484375,0.0,12157.7578125,0.0,11997.22265625,15907.287109375,26552.677734375,12336.5712890625,7677.078125,5554.35791015625,4004.63720703125,14774.7998046875,12656.84765625,9301.5029296875,0.0,1500.4476318359375,6181.39892578125,4223.982421875,-872.6119995117188,-7086.59521484375,13240.9736328125,3611.246826171875,9234.74609375,15253.2265625,9588.400390625,15566.3486328125,5642.57275390625,9462.8330078125,4897.91259765625,-0.0,5102.15771484375,12075.1064453125,6914.93359375,9449.322265625,18858.91015625,6275.9716796875,-3232.161376953125,7449.78564453125,5537.6689453125,25244.5546875,5753.8349609375,11970.9970703125,-7312.2978515625,-10005.6337890625,7294.8134765625,3925.164794921875,8240.5400390625,5474.88525390625,5595.68408203125,5300.044921875,2381.0068359375,8742.8095703125,7650.05712890625,7379.05517578125,-14212.92578125,-0.0,-0.0,9922.1865234375,6305.37646484375,-2932.548583984375,0.0,12166.5
-4846.2548828125,-10460.2177734375,6634.39404296875,9557.40625,14847.9150390625,15209.515625,13209.18359375,12195.904296875,12994.607421875,9076.595703125,16607.443359375,0.0,12164.91015625,0.0,12004.375,15907.287109375,26558.240234375,12340.5458984375,7681.8466796875,5552.7685546875,4010.200439453125,14781.1572265625,12663.205078125,9305.4775390625,0.0,1506.805419921875,6183.783203125,4228.75048828125,-868.6383666992188,-7088.1845703125,13247.3310546875,3618.3994140625,9242.6943359375,15261.9677734375,9596.34765625,15573.501953125,5646.546875,9466.8076171875,4911.4228515625,-0.0,5108.51513671875,12081.4638671875,6918.9072265625,9453.296875,18861.29296875,6279.150390625,-3234.54541015625,7457.7333984375,5540.84765625,25250.912109375,5761.7822265625,11974.17578125,-7318.6552734375,-10005.6337890625,7300.376953125,3931.5224609375,8247.693359375,5482.83251953125,5596.47900390625,5305.6083984375,2368.291259765625,8745.193359375,7653.236328125,7371.90234375,-14217.6943359375,-0.0,-0.0,9929.33984375,6306.17138671875,-2930.164306640625,0.0,12165.7060546875
-4867.71240234375,-10461.8076171875,6641.546875,9565.353515625,14847.9150390625,15213.4892578125,13212.36328125,12201.46875,13000.1708984375,9077.3896484375,16605.853515625,0.0,12161.7314453125,0.0,12010.7333984375,15916.82421875,26560.625,12343.724609375,7686.615234375,5555.94775390625,4013.379638671875,14786.720703125,12666.384765625,9309.451171875,0.0,1510.779052734375,6185.373046875,4233.51904296875,-874.2014770507812,-7086.59521484375,13251.3046875,3621.578125,9245.078125,15265.1474609375,9598.732421875,15575.8857421875,5651.3154296875,9469.986328125,4893.14404296875,-0.0,5111.6943359375,12085.4375,6922.08642578125,9458.0654296875,18866.0625,6284.7138671875,-3225.803466796875,7466.47509765625,5540.84765625,25253.296875,5764.96142578125,11982.123046875,-7335.3447265625,-10000.865234375,7293.22412109375,3933.111572265625,8247.693359375,5487.6005859375,5601.2470703125,5314.35009765625,2369.880615234375,8745.193359375,7658.7998046875,7379.05517578125,-14222.462890625,-0.0,-0.0,9926.16015625,6318.09228515625,-2932.548583984375,0.0,12168.884765625
-4870.0966796875,-10464.19140625,6638.3681640625,9555.81640625,14844.7353515625,15210.310546875,13210.7734375,12199.87890625,13000.96484375,9071.0322265625,16601.880859375,0.0,12160.1416015625,0.0,12013.1181640625,15919.208984375,26557.4453125,12339.7509765625,7681.8466796875,5551.9736328125,4009.405517578125,14779.5673828125,12662.4111328125,9306.271484375,0.0,1503.62646484375,6183.783203125,4231.9296875,-883.7382202148438,-7092.15771484375,13249.71484375,3626.3466796875,9241.1044921875,15259.5830078125,9593.1689453125,15571.1171875,5648.13623046875,9467.6015625,4879.63330078125,-0.0,5108.51513671875,12078.28515625,6920.49658203125,9457.2705078125,18863.677734375,6281.53466796875,-3229.777099609375,7454.55419921875,5535.28466796875,25249.322265625,5762.5771484375,11983.7119140625,-7335.3447265625,-9998.48046875,7282.892578125,3922.780517578125,8246.1044921875,5488.3955078125,5601.2470703125,5312.7607421875,2369.880615234375,8742.0146484375,7657.2099609375,7374.28662109375,-14225.642578125,-0.0,-0.0,9910.265625,6325.2451171875,-2948.443115234375,0.0,12149.810546875
-4834.333984375,-10439.5546875,6639.16259765625,9544.6904296875,14848.708984375,15212.6953125,13213.1572265625,12204.6474609375,13002.5546875,9077.3896484375,16609.826171875,0.0,12164.91015625,0.0,12013.1181640625,15931.9248046875,26555.060546875,12340.5458984375,7683.43603515625,5554.35791015625,4010.995361328125,14777.18359375,12665.5888671875,9308.6552734375,0.0,1503.62646484375,6186.16748046875,4239.08251953125,-878.9698486328125,-7082.62109375,13248.1259765625,3615.22021484375,9241.1044921875,15255.6103515625,9594.7578125,15571.912109375,5650.5205078125,9471.576171875,4905.859375,-0.0,5110.8994140625,12076.6953125,6921.29150390625,9461.2431640625,18866.0625,6283.9189453125,-3209.114013671875,7442.63330078125,5540.052734375,25255.6796875,5764.16650390625,11989.2763671875,-7320.2451171875,-9996.890625,7279.7138671875,3920.396240234375,8250.0771484375,5504.2900390625,5605.220703125,5303.22412109375,2353.986083984375,8742.0146484375,7660.38916015625,7373.49169921875,-14220.8740234375,-0.0,-0.0,9914.2392578125,6327.62890625,-2946.853515625,0.0,12151.400390625
-4828.77099609375,-10461.8076171875,6646.31494140625,9570.916015625,14856.65625,15220.642578125,13216.3359375,12207.8251953125,13000.1708984375,9071.0322265625,16615.390625,0.0,12175.2421875,0.0,12012.322265625,15931.1298828125,26562.21484375,12347.6982421875,7688.9990234375,5551.17919921875,4017.35302734375,14786.720703125,12671.1533203125,9314.2197265625,0.0,1517.931640625,6191.73046875,4244.6455078125,-868.6383666992188,-7076.263671875,13255.2783203125,3612.836181640625,9246.6669921875,15262.7626953125,9603.5,15579.859375,5656.08349609375,9475.548828125,4917.7802734375,-0.0,5118.05224609375,12088.6162109375,6926.0595703125,9466.01171875,18869.2421875,6282.32958984375,-3186.06689453125,7468.06494140625,5549.58984375,25263.62890625,5767.34521484375,11990.0703125,-7323.423828125,-10000.865234375,7302.76123046875,3922.780517578125,8254.05078125,5508.26416015625,5606.81005859375,5293.6875,2364.317626953125,8747.578125,7659.59423828125,7369.51806640625,-14212.92578125,-0.0,-0.0,9915.0341796875,6322.06591796875,-2954.80078125,0.0,12152.9892578125
-4834.333984375,-10479.291015625,6647.10986328125,9578.8642578125,14860.6298828125,15222.2314453125,13221.900390625,12210.2099609375,13009.70703125,9079.7734375,16603.470703125,0.0,12180.8056640625,0.0,12020.2705078125,15931.1298828125,26564.59765625,12351.671875,7694.5625,5562.3056640625,4020.5322265625,14789.8984375,12674.33203125,9317.3984375,0.0,1519.5211181640625,6198.08837890625,4244.6455078125,-864.6647338867188,-7077.05810546875,13259.251953125,3617.6044921875,9249.05078125,15268.326171875,9605.08984375,15581.4482421875,5660.05712890625,9479.5224609375,4919.3701171875,-0.0,5120.43603515625,12093.384765625,6930.033203125,9467.6015625,18877.982421875,6288.68701171875,-3200.3720703125,7475.21728515625,5553.5634765625,25262.83203125,5773.703125,11994.0439453125,-7344.0869140625,-10047.7529296875,7310.70849609375,3937.880126953125,8258.025390625,5502.70068359375,5612.37353515625,5308.787109375,2378.622802734375,8755.5244140625,7665.9521484375,7385.41259765625,-14217.6943359375,-0.0,-0.0,9916.623046875,6337.9609375,-2947.648193359375,0.0,12168.08984375
-4827.97607421875,-10471.34375,6651.87841796875,9582.04296875,14862.2197265625,15224.6162109375,13229.052734375,12217.3623046875,13018.44921875,9091.6953125,16601.880859375,0.0,12189.5478515625,0.0,12035.3701171875,15936.693359375,26568.5703125,12357.2353515625,7701.71484375,5573.431640625,4023.710693359375,14792.283203125,12677.5107421875,9322.166015625,0.0,1517.136962890625,6205.24072265625,4244.6455078125,-860.6910400390625,-7069.90576171875,13262.4306640625,3620.783447265625,9249.8466796875,15269.916015625,9609.0634765625,15585.4228515625,5667.20947265625,9486.6748046875,4919.3701171875,-0.0,5121.23095703125,12094.974609375,6936.39111328125,9469.986328125,18883.546875,6300.6083984375,-3198.78271484375,7479.19091796875,5555.15283203125,25263.62890625,5781.650390625,12001.9912109375,-7351.23974609375,-10044.5751953125,7305.1455078125,3951.390625,8274.71484375,5495.54833984375,5623.49951171875,5327.06591796875,2376.238525390625,8764.2666015625,7676.283203125,7401.3076171875,-14212.92578125,-0.0,-0.0,9916.623046875,6351.470703125,-2938.906494140625,0.0,12174.447265625
-4876.45458984375,-10476.1123046875,6642.341796875,9577.2744140625,14854.271484375,15214.2841796875,13224.2841796875,12208.62109375,13016.064453125,9087.7216796875,16614.595703125,0.0,12173.65234375,0.0,12029.806640625,15924.7724609375,26562.21484375,12349.2880859375,7694.5625,5573.431640625,4016.55810546875,14785.130859375,12671.1533203125,9313.423828125,0.0,1504.4212646484375,6199.677734375,4231.9296875,-879.7645263671875,-7087.3896484375,13254.4833984375,3619.98876953125,9245.078125,15265.94140625,9602.7060546875,15577.4755859375,5659.26220703125,9477.9326171875,4909.03857421875,-0.0,5114.07861328125,12085.4375,6930.033203125,9458.859375,18879.572265625,6291.0712890625,-3217.856201171875,7476.01171875,5550.384765625,25248.52734375,5777.67724609375,11992.4541015625,-7334.55029296875,-10023.1171875,7285.27685546875,3930.7275390625,8265.9716796875,5478.85888671875,5621.115234375,5300.83984375,2379.41748046875,8757.9091796875,7669.92578125,7404.486328125,-14213.7216796875,-0.0,-0.0,9909.470703125,6338.75537109375,-2939.701171875,0.0,12170.4736328125
-4882.017578125,-10511.0810546875,6632.009765625,9552.6376953125,14844.7353515625,15201.568359375,13213.9521484375,12191.931640625,12996.9912109375,9080.5693359375,16613.802734375,0.0,12163.3212890625,0.0,12016.296875,15901.7236328125,26555.060546875,12338.1611328125,7684.23095703125,5558.33203125,4007.021484375,14773.2099609375,12661.6162109375,9301.5029296875,0.0,1492.500244140625,6191.73046875,4215.240234375,-878.9698486328125,-7100.900390625,13243.357421875,3615.22021484375,9236.3359375,15254.8154296875,9591.5791015625,15566.3486328125,5646.546875,9466.8076171875,4913.01220703125,-0.0,5104.5419921875,12072.72265625,6921.29150390625,9446.9384765625,18868.447265625,6276.76611328125,-3228.982177734375,7452.169921875,5544.8212890625,25235.017578125,5766.55078125,11970.9970703125,-7332.166015625,-10020.732421875,7293.22412109375,3897.34912109375,8249.283203125,5462.96435546875,5611.57861328125,5280.1767578125,2378.622802734375,8749.9619140625,7658.0048828125,7381.439453125,-14212.92578125,-0.0,-0.0,9903.11328125,6304.58203125,-2931.75390625,0.0,12169.6787109375
-4864.53369140625,-10526.1806640625,6631.21533203125,9542.3056640625,14847.119140625,15198.3896484375,13213.1572265625,12186.3681640625,12989.8388671875,9081.36328125,16609.033203125,0.0,12168.08984375,0.0,12017.0908203125,15889.802734375,26552.677734375,12338.9560546875,7683.43603515625,5553.5634765625,4006.22705078125,14772.4150390625,12661.6162109375,9300.708984375,0.0,1494.884521484375,6192.525390625,4212.0615234375,-871.8172607421875,-7102.4892578125,13244.9462890625,3613.631103515625,9233.951171875,15252.4306640625,9592.3740234375,15563.1708984375,5647.34130859375,9463.6279296875,4924.138671875,-0.0,5103.7470703125,12068.748046875,6921.29150390625,9442.9658203125,18866.0625,6275.9716796875,-3201.96142578125,7438.65966796875,5546.4111328125,25236.607421875,5767.34521484375,11957.486328125,-7338.52392578125,-10014.375,7301.96630859375,3893.37548828125,8250.0771484375,5460.58056640625,5607.60498046875,5287.3291015625,2350.012451171875,8749.1669921875,7655.62060546875,7375.8759765625,-14213.7216796875,-0.0,-0.0,9909.470703125,6303.787109375,-2926.190673828125,0.0,12176.037109375
-4844.66552734375,-10462.6015625,6637.5732421875,9545.4853515625,14849.50390625,15201.568359375,13214.7470703125,12188.751953125,12989.8388671875,9080.5693359375,16607.443359375,0.0,12172.8583984375,0.0,12020.2705078125,15892.1875,26555.060546875,12342.9296875,7684.23095703125,5558.33203125,4010.200439453125,14774.0048828125,12664.0009765625,9303.0927734375,0.0,1495.67919921875,6194.11474609375,4212.0615234375,-875.7908935546875,-7106.462890625,13246.5361328125,3615.22021484375,9238.7197265625,15252.4306640625,9594.7578125,15567.1435546875,5648.13623046875,9463.6279296875,4904.27001953125,-0.0,5107.720703125,12070.337890625,6923.67578125,9445.349609375,18864.47265625,6276.76611328125,-3194.014404296875,7441.8388671875,5548.79541015625,25239.787109375,5770.5244140625,11955.8974609375,-7336.9345703125,-10027.0908203125,7301.96630859375,3910.859619140625,8254.845703125,5462.96435546875,5601.2470703125,5295.27685546875,2330.93896484375,8752.345703125,7656.41552734375,7383.8232421875,-14220.078125,-0.0,-0.0,9914.2392578125,6314.9130859375,-2939.701171875,0.0,12164.1162109375
-4877.2490234375,-10451.4765625,6650.2890625,9549.458984375,14855.0673828125,15209.515625,13219.515625,12199.87890625,13004.939453125,9095.6689453125,16615.390625,0.0,12178.4208984375,0.0,12021.064453125,15910.466796875,26563.009765625,12350.876953125,7692.17822265625,5573.431640625,4019.7373046875,14779.5673828125,12669.5634765625,9311.0400390625,0.0,1497.2686767578125,6200.47216796875,4225.572265625,-869.43310546875,-7102.4892578125,13252.89453125,3625.552001953125,9248.2568359375,15257.9951171875,9599.5263671875,15574.2958984375,5656.8779296875,9474.75390625,4917.7802734375,-0.0,5116.462890625,12076.6953125,6929.23876953125,9454.0908203125,18874.009765625,6290.27685546875,-3186.06689453125,7446.60693359375,5553.5634765625,25246.939453125,5774.498046875,11972.5869140625,-7339.31884765625,-10015.96484375,7308.32421875,3924.369873046875,8256.435546875,5478.85888671875,5600.45263671875,5306.40283203125,2377.033203125,8761.8828125,7665.9521484375,7398.92333984375,-14213.7216796875,-0.0,-0.0,9924.5712890625,6332.3974609375,-2926.190673828125,0.0,12178.4208984375
-4862.14990234375,-10487.2392578125,6653.4677734375,9553.4326171875,14856.65625,15209.515625,13214.7470703125,12198.2890625,13012.8857421875,9092.490234375,16624.1328125,0.0,12177.626953125,0.0,12011.5283203125,15903.314453125,26564.59765625,12354.056640625,7692.17822265625,5571.84228515625,4021.32666015625,14782.74609375,12669.5634765625,9313.423828125,0.0,1498.858154296875,6194.11474609375,4223.982421875,-858.306884765625,-7098.51611328125,13254.4833984375,3624.757080078125,9249.8466796875,15261.9677734375,9601.1162109375,15575.8857421875,5656.8779296875,9474.75390625,4941.6220703125,-0.0,5118.05224609375,12079.875,6926.8544921875,9452.501953125,18874.802734375,6288.68701171875,-3185.272216796875,7451.37548828125,5554.35791015625,25245.34765625,5764.96142578125,11970.2021484375,-7328.1923828125,-10027.0908203125,7310.70849609375,3921.985595703125,8252.4619140625,5480.4482421875,5601.2470703125,5307.99267578125,2375.443603515625,8766.6513671875,7666.74658203125,7392.5654296875,-14208.1572265625,-0.0,-0.0,9926.955078125,6341.93408203125,-2926.985595703125,0.0,12174.447265625
-4824.79736328125,-10464.19140625,6639.95751953125,9554.2265625,14847.9150390625,15204.7470703125,13207.5947265625,12190.341796875,13010.501953125,9081.36328125,16611.41796875,0.0,12168.08984375,0.0,12001.9912109375,15894.5712890625,26557.4453125,12348.4921875,7686.615234375,5563.10009765625,4014.174072265625,14777.9775390625,12663.205078125,9308.6552734375,0.0,1498.858154296875,6182.98876953125,4218.41943359375,-861.4857788085938,-7096.1318359375,13248.1259765625,3619.194091796875,9239.5146484375,15256.4052734375,9593.9638671875,15569.52734375,5648.93115234375,9466.8076171875,4904.27001953125,-0.0,5106.92578125,12075.1064453125,6920.49658203125,9447.7333984375,18868.447265625,6278.35595703125,-3201.166748046875,7452.169921875,5548.00048828125,25241.375,5757.013671875,11960.666015625,-7333.75537109375,-10050.1376953125,7301.96630859375,3920.396240234375,8239.74609375,5476.474609375,5605.220703125,5296.0712890625,2365.906982421875,8765.0615234375,7659.59423828125,7381.439453125,-14212.92578125,-0.0,-0.0,9909.470703125,6343.5234375,-2943.6748046875,0.0,12153.78515625
-4837.51318359375,-10486.443359375,6632.009765625,9551.0478515625,14846.3251953125,15203.158203125,13207.5947265625,12189.5478515625,13008.1171875,9075.005859375,16600.291015625,0.0,12163.3212890625,0.0,12008.349609375,15898.5458984375,26556.650390625,12346.9033203125,7684.23095703125,5563.10009765625,4009.405517578125,14773.2099609375,12660.8212890625,9307.0673828125,0.0,1498.858154296875,6183.783203125,4220.0087890625,-877.38037109375,-7099.310546875,13245.7421875,3623.167724609375,9234.74609375,15252.4306640625,9592.3740234375,15566.3486328125,5644.95703125,9462.8330078125,4886.7861328125,-0.0,5103.7470703125,12074.3115234375,6919.7021484375,9446.9384765625,18865.267578125,6274.38232421875,-3213.087890625,7448.1962890625,5544.8212890625,25242.962890625,5758.603515625,11959.8701171875,-7328.9873046875,-10037.421875,7297.19775390625,3920.396240234375,8242.9248046875,5471.70654296875,5604.42578125,5292.09765625,2376.238525390625,8770.625,7658.0048828125,7379.05517578125,-14223.2578125,-0.0,-0.0,9902.318359375,6343.5234375,-2955.595703125,0.0,12147.4267578125
-4867.71240234375,-10546.0478515625,6632.009765625,9543.8955078125,14845.5302734375,15200.7744140625,13208.3896484375,12188.751953125,13007.3232421875,9067.8525390625,16586.78125,0.0,12164.91015625,0.0,12009.9384765625,15901.7236328125,26555.060546875,12347.6982421875,7683.43603515625,5563.10009765625,4008.611083984375,14773.2099609375,12660.0263671875,9307.861328125,0.0,1494.884521484375,6185.373046875,4217.62451171875,-880.5592651367188,-7110.43701171875,13246.5361328125,3619.98876953125,9233.951171875,15251.63671875,9591.5791015625,15566.3486328125,5644.95703125,9462.8330078125,4877.2490234375,-0.0,5104.5419921875,12071.1328125,6918.1123046875,9445.349609375,18865.267578125,6272.79296875,-3223.419189453125,7444.22314453125,5544.02685546875,25242.169921875,5758.603515625,11962.2548828125,-7327.39794921875,-10044.5751953125,7295.6083984375,3914.8330078125,8244.5146484375,5462.96435546875,5605.220703125,5295.27685546875,2357.1650390625,8774.59765625,7655.62060546875,7386.20751953125,-14228.8203125,-0.0,-0.0,9899.93359375,6345.11328125,-2955.595703125,0.0,12151.400390625
-4864.53369140625,-10572.2744140625,6632.8046875,9545.4853515625,14844.7353515625,15199.1845703125,13211.568359375,12195.1103515625,13015.2705078125,9071.0322265625,16582.806640625,0.0,12175.2421875,0.0,12016.296875,15915.2353515625,26555.857421875,12348.4921875,7687.40966796875,5567.86865234375,4010.200439453125,14775.59375,12661.6162109375,9307.861328125,0.0,1491.70556640625,6188.55126953125,4220.0087890625,-883.7382202148438,-7110.43701171875,13245.7421875,3623.167724609375,9233.1572265625,15252.4306640625,9593.1689453125,15569.52734375,5648.13623046875,9467.6015625,4877.2490234375,-0.0,5102.95263671875,12070.337890625,6919.7021484375,9446.9384765625,18869.2421875,6280.740234375,-3231.366455078125,7445.017578125,5543.23193359375,25237.40234375,5763.3720703125,11974.970703125,-7328.9873046875,-10041.396484375,7293.22412109375,3915.6279296875,8252.4619140625,5473.2958984375,5614.75732421875,5310.37646484375,2351.601806640625,8776.982421875,7659.59423828125,7392.5654296875,-14235.1787109375,-0.0,-0.0,9902.318359375,6368.16015625,-2955.595703125,0.0,12152.9892578125
-4851.81787109375,-10533.3330078125,6632.8046875,9562.1748046875,14845.5302734375,15207.9267578125,13208.3896484375,12199.87890625,13005.7333984375,9075.005859375,16593.93359375,0.0,12165.7060546875,0.0,12008.349609375,15920.796875,26561.41796875,12350.876953125,7685.8203125,5564.689453125,4014.96875,14781.9521484375,12661.6162109375,9311.0400390625,0.0,1503.62646484375,6187.7568359375,4229.54541015625,-885.32763671875,-7103.2841796875,13251.3046875,3627.141357421875,9237.1298828125,15259.5830078125,9597.142578125,15571.912109375,5648.93115234375,9469.19140625,4913.01220703125,-0.0,5102.95263671875,12079.875,6918.9072265625,9452.501953125,18864.47265625,6277.56103515625,-3218.65087890625,7461.70654296875,5546.4111328125,25246.939453125,5760.19287109375,11979.7392578125,-7333.75537109375,-10044.5751953125,7290.04541015625,3904.501708984375,8246.8984375,5482.0380859375,5603.63134765625,5300.044921875,2344.44921875,8777.77734375,7658.0048828125,7385.41259765625,-14228.0263671875,-0.0,-0.0,9907.8818359375,6336.37109375,-2950.827392578125,0.0,12156.962890625
-4824.79736328125,-10465.78125,6633.599609375,9563.763671875,14851.09375,15210.310546875,13208.3896484375,12199.083984375,13000.96484375,9077.3896484375,16606.6484375,0.0,12165.7060546875,0.0,12013.1181640625,15922.3876953125,26559.830078125,12352.466796875,7688.2041015625,5565.484375,4016.55810546875,14782.74609375,12664.794921875,9313.423828125,0.0,1509.1895751953125,6190.935546875,4233.51904296875,-878.1751098632812,-7100.10546875,13250.509765625,3614.42578125,9237.92578125,15256.4052734375,9599.5263671875,15573.501953125,5648.13623046875,9469.19140625,4890.759765625,-0.0,5107.720703125,12083.0537109375,6922.08642578125,9455.6806640625,18863.677734375,6276.76611328125,-3221.034912109375,7462.50146484375,5552.7685546875,25251.70703125,5762.5771484375,11981.328125,-7344.0869140625,-10032.654296875,7297.19775390625,3913.24365234375,8248.48828125,5481.2431640625,5586.1474609375,5284.150390625,2350.80712890625,8774.59765625,7658.0048828125,7388.591796875,-14212.92578125,-0.0,-0.0,9909.470703125,6300.6083984375,-2946.05908203125,0.0,12163.3212890625
-4815.26025390625,-10435.5810546875,6632.009765625,9559.791015625,14854.271484375,15211.10546875,13213.9521484375,12203.0576171875,13004.1435546875,9090.900390625,16610.623046875,0.0,12168.08984375,0.0,12017.0908203125,15928.7451171875,26558.240234375,12353.2607421875,7691.38330078125,5573.431640625,4015.763671875,14781.1572265625,12667.1787109375,9315.80859375,0.0,1511.57373046875,6194.90966796875,4239.08251953125,-867.8436279296875,-7087.3896484375,13251.3046875,3613.631103515625,9237.92578125,15255.6103515625,9600.3212890625,15575.8857421875,5651.3154296875,9474.75390625,4891.55419921875,-0.0,5106.92578125,12082.2587890625,6926.0595703125,9458.859375,18869.2421875,6285.5087890625,-3215.471923828125,7456.14404296875,5553.5634765625,25254.884765625,5766.55078125,11985.3017578125,-7352.0341796875,-10011.990234375,7304.3505859375,3933.111572265625,8252.4619140625,5489.1904296875,5594.0947265625,5290.50830078125,2375.443603515625,8773.009765625,7663.56787109375,7392.5654296875,-14213.7216796875,-0.0,-0.0,9918.212890625,6309.3505859375,-2931.75390625,0.0,12173.65234375
-4827.18115234375,-10462.6015625,6627.24169921875,9554.2265625,14849.50390625,15211.10546875,13212.36328125,12203.8525390625,13008.912109375,9102.02734375,16606.6484375,0.0,12165.7060546875,0.0,12005.169921875,15918.4130859375,26553.47265625,12349.2880859375,7690.58837890625,5578.99462890625,4012.584716796875,14777.9775390625,12666.384765625,9312.6298828125,0.0,1510.779052734375,6189.34619140625,4235.9033203125,-870.227783203125,-7090.568359375,13248.9208984375,3608.06787109375,9233.951171875,15250.841796875,9596.34765625,15574.2958984375,5653.69921875,9474.75390625,4900.296875,-0.0,5102.95263671875,12077.4912109375,6922.880859375,9458.0654296875,18872.419921875,6291.8662109375,-3213.087890625,7452.169921875,5548.00048828125,25254.091796875,5763.3720703125,11979.7392578125,-7340.908203125,-10028.6796875,7301.171875,3935.495849609375,8248.48828125,5486.80615234375,5609.1943359375,5304.8134765625,2357.1650390625,8766.6513671875,7666.74658203125,7397.33349609375,-14217.6943359375,-0.0,-0.0,9927.75,6320.4765625,-2922.217041015625,0.0,12187.9580078125
-4844.66552734375,-10473.728515625,6629.6259765625,9551.8427734375,14845.5302734375,15203.953125,13209.18359375,12191.931640625,12995.40234375,9082.158203125,16605.05859375,0.0,12163.3212890625,0.0,12008.349609375,15893.7783203125,26552.677734375,12344.51953125,7683.43603515625,5558.33203125,4008.611083984375,14776.388671875,12662.4111328125,9307.0673828125,0.0,1504.4212646484375,6186.9619140625,4223.18798828125,-877.38037109375,-7100.10546875,13245.7421875,3609.6572265625,9233.951171875,15250.046875,9593.1689453125,15570.3232421875,5648.13623046875,9466.8076171875,4900.296875,-0.0,5104.5419921875,12074.3115234375,6920.49658203125,9452.501953125,18865.267578125,6279.150390625,-3220.240234375,7448.1962890625,5546.4111328125,25250.1171875,5760.98779296875,11960.666015625,-7325.80810546875,-10034.2431640625,7294.01904296875,3937.880126953125,8246.8984375,5465.3486328125,5602.04150390625,5300.044921875,2352.396728515625,8762.6767578125,7658.0048828125,7372.697265625,-14227.2314453125,-0.0,-0.0,9923.775390625,6319.681640625,-2933.34326171875,0.0,12169.6787109375
-4867.71240234375,-10447.501953125,6629.6259765625,9542.3056640625,14843.146484375,15200.7744140625,13206.7998046875,12191.931640625,12989.0439453125,9076.595703125,16601.0859375,0.0,12163.3212890625,0.0,12010.7333984375,15898.5458984375,26552.677734375,12346.1083984375,7684.23095703125,5553.5634765625,4009.405517578125,14774.0048828125,12661.6162109375,9307.0673828125,0.0,1496.473876953125,6186.16748046875,4223.18798828125,-884.532958984375,-7100.10546875,13242.5625,3609.6572265625,9233.1572265625,15248.4580078125,9593.1689453125,15567.1435546875,5645.751953125,9466.01171875,4889.17041015625,-0.0,5102.15771484375,12070.337890625,6919.7021484375,9449.322265625,18862.08984375,6275.9716796875,-3239.313720703125,7439.45458984375,5543.23193359375,25248.52734375,5757.80859375,11963.8447265625,-7334.55029296875,-10009.6064453125,7291.63525390625,3928.34326171875,8246.8984375,5469.322265625,5595.68408203125,5298.45556640625,2353.19140625,8761.087890625,7654.82568359375,7369.51806640625,-14231.9990234375,-0.0,-0.0,9924.5712890625,6311.73486328125,-2931.75390625,0.0,12168.08984375
-4863.7392578125,-10445.1181640625,6624.857421875,9538.3330078125,14844.7353515625,15198.3896484375,13208.3896484375,12191.931640625,13000.1708984375,9081.36328125,16597.90625,0.0,12165.7060546875,0.0,12013.912109375,15905.69921875,26553.47265625,12346.9033203125,7686.615234375,5562.3056640625,4009.405517578125,14773.2099609375,12661.6162109375,9306.271484375,0.0,1490.1160888671875,6190.935546875,4223.18798828125,-884.532958984375,-7100.900390625,13241.767578125,3612.836181640625,9230.7734375,15246.8681640625,9592.3740234375,15565.5546875,5649.7255859375,9466.01171875,4879.63330078125,-0.0,5097.38916015625,12067.1591796875,6919.7021484375,9447.7333984375,18866.857421875,6279.9453125,-3240.903076171875,7437.0703125,5543.23193359375,25239.787109375,5760.98779296875,11966.228515625,-7342.49755859375,-9992.9169921875,7291.63525390625,3905.29638671875,8248.48828125,5476.474609375,5600.45263671875,5298.45556640625,2355.57568359375,8760.29296875,7659.59423828125,7387.796875,-14239.15234375,-0.0,-0.0,9922.9814453125,6319.681640625,-2929.36962890625,0.0,12174.447265625
-4851.0234375,-10467.3701171875,6630.4208984375,9554.2265625,14849.50390625,15202.36328125,13211.568359375,12193.5205078125,13003.349609375,9078.185546875,16602.673828125,0.0,12168.08984375,0.0,12010.7333984375,15904.1083984375,26559.830078125,12347.6982421875,7685.8203125,5562.3056640625,4012.584716796875,14777.18359375,12663.205078125,9308.6552734375,0.0,1499.65283203125,6191.73046875,4223.18798828125,-878.9698486328125,-7099.310546875,13247.3310546875,3620.783447265625,9237.1298828125,15256.4052734375,9594.7578125,15570.3232421875,5652.10986328125,9467.6015625,4897.11767578125,-0.0,5102.95263671875,12076.6953125,6922.880859375,9449.322265625,18868.447265625,6278.35595703125,-3203.551025390625,7452.169921875,5545.6162109375,25242.962890625,5762.5771484375,11965.43359375,-7349.64990234375,-10001.6591796875,7288.4560546875,3909.269775390625,8245.30859375,5477.26953125,5602.83642578125,5293.6875,2361.933349609375,8764.2666015625,7661.18359375,7386.20751953125,-14236.767578125,-0.0,-0.0,9908.67578125,6326.833984375,-2943.6748046875,0.0,12162.5263671875
-4862.9443359375,-10484.0595703125,6645.5205078125,9563.763671875,14855.861328125,15207.1318359375,13216.3359375,12197.494140625,13008.1171875,9078.9794921875,16611.41796875,0.0,12170.4736328125,0.0,12013.1181640625,15904.1083984375,26565.392578125,12354.8505859375,7689.7939453125,5565.484375,4021.32666015625,14782.74609375,12670.357421875,9312.6298828125,0.0,1499.65283203125,6195.7041015625,4226.36669921875,-877.38037109375,-7092.15771484375,13254.4833984375,3622.372802734375,9243.48828125,15260.37890625,9602.7060546875,15575.091796875,5655.28857421875,9470.7802734375,4911.4228515625,-0.0,5111.6943359375,12081.4638671875,6927.64892578125,9453.296875,18872.419921875,6282.32958984375,-3187.656494140625,7462.50146484375,5551.17919921875,25245.34765625,5768.14013671875,11970.2021484375,-7341.703125,-10042.9853515625,7293.22412109375,3916.42236328125,8250.0771484375,5480.4482421875,5611.57861328125,5296.0712890625,2369.0859375,8766.6513671875,7665.9521484375,7387.796875,-14220.8740234375,-0.0,-0.0,9906.2919921875,6339.5498046875,-2950.827392578125,0.0,12152.9892578125
-4875.66015625,-10466.5751953125,6647.10986328125,9555.0224609375,14855.0673828125,15206.3369140625,13216.3359375,12197.494140625,13010.501953125,9081.36328125,16611.41796875,0.0,12166.5,0.0,12013.1181640625,15904.1083984375,26563.802734375,12354.056640625,7689.7939453125,5570.2529296875,4018.14794921875,14781.1572265625,12670.357421875,9312.6298828125,0.0,1495.67919921875,6194.90966796875,4224.77734375,-881.35400390625,-7096.1318359375,13252.0986328125,3619.98876953125,9242.6943359375,15258.7890625,9601.91015625,15573.501953125,5655.28857421875,9471.576171875,4918.5751953125,-0.0,5112.4892578125,12078.28515625,6926.0595703125,9453.296875,18872.419921875,6282.32958984375,-3203.551025390625,7456.14404296875,5551.9736328125,25243.759765625,5768.14013671875,11970.9970703125,-7328.9873046875,-10072.390625,7294.8134765625,3916.42236328125,8248.48828125,5475.6796875,5613.16845703125,5296.0712890625,2369.0859375,8763.47265625,7663.56787109375,7391.77099609375,-14220.8740234375,-0.0,-0.0,9903.11328125,6337.9609375,-2946.853515625,0.0,12160.9375
-4906.654296875,-10461.8076171875,6643.13671875,9552.6376953125,14854.271484375,15208.720703125,13219.515625,12202.2626953125,13012.091796875,9087.7216796875,16610.623046875,0.0,12170.4736328125,0.0,12017.8857421875,15915.2353515625,26563.009765625,12354.8505859375,7693.767578125,5571.84228515625,4018.14794921875,14781.1572265625,12671.1533203125,9314.2197265625,0.0,1495.67919921875,6195.7041015625,4229.54541015625,-871.0225219726562,-7100.900390625,13250.509765625,3620.783447265625,9241.1044921875,15259.5830078125,9601.91015625,15575.091796875,5658.4677734375,9475.548828125,4916.19091796875,-0.0,5112.4892578125,12079.080078125,6927.64892578125,9459.6552734375,18874.009765625,6287.09814453125,-3225.0087890625,7452.96484375,5551.17919921875,25249.322265625,5771.31884765625,11978.943359375,-7340.908203125,-10040.6005859375,7294.8134765625,3921.190673828125,8252.4619140625,5481.2431640625,5609.9892578125,5304.0185546875,2373.0595703125,8762.6767578125,7665.9521484375,7390.18115234375,-14208.953125,-0.0,-0.0,9909.470703125,6330.80810546875,-2935.727294921875,0.0,12171.2685546875
-4845.46044921875,-10492.8017578125,6640.75244140625,9557.40625,14855.0673828125,15215.0791015625,13221.900390625,12208.62109375,13010.501953125,9088.5166015625,16612.2109375,0.0,12176.037109375,0.0,12024.2431640625,15925.5654296875,26565.392578125,12358.029296875,7698.5361328125,5570.2529296875,4019.7373046875,14785.92578125,12675.921875,9318.98828125,0.0,1502.831787109375,6199.677734375,4239.87744140625,-866.254150390625,-7097.72119140625,13256.0732421875,3624.757080078125,9245.8720703125,15261.1728515625,9603.5,15581.4482421875,5660.85205078125,9480.3173828125,4899.501953125,-0.0,5111.6943359375,12083.84765625,6929.23876953125,9465.2177734375,18875.599609375,6291.8662109375,-3212.29296875,7455.34912109375,5551.9736328125,25257.26953125,5774.498046875,11988.48046875,-7344.0869140625,-10003.2490234375,7306.734375,3931.5224609375,8258.025390625,5493.1640625,5606.015625,5309.58154296875,2354.781005859375,8765.0615234375,7669.92578125,7382.23388671875,-14206.568359375,-0.0,-0.0,9922.1865234375,6325.2451171875,-2926.985595703125,0.0,12177.626953125
-4816.05517578125,-10488.828125,6632.009765625,9551.0478515625,14848.708984375,15209.515625,13213.9521484375,12203.0576171875,13004.1435546875,9080.5693359375,16600.291015625,0.0,12164.91015625,0.0,12013.912109375,15916.029296875,26555.857421875,12352.466796875,7690.58837890625,5560.71630859375,4010.995361328125,14780.3623046875,12668.7685546875,9314.2197265625,0.0,1501.2423095703125,6191.73046875,4235.9033203125,-879.7645263671875,-7103.2841796875,13250.509765625,3613.631103515625,9236.3359375,15252.4306640625,9597.142578125,15575.091796875,5654.49365234375,9474.75390625,4881.22314453125,-0.0,5103.7470703125,12077.4912109375,6924.47021484375,9460.44921875,18870.03515625,6285.5087890625,-3219.445556640625,7449.78564453125,5549.58984375,25253.296875,5766.55078125,11981.328125,-7341.703125,-10040.6005859375,7292.4296875,3922.780517578125,8251.6669921875,5488.3955078125,5603.63134765625,5301.63427734375,2344.44921875,8760.29296875,7663.56787109375,7375.08154296875,-14215.310546875,-0.0,-0.0,9915.0341796875,6318.88720703125,-2936.522216796875,0.0,12167.294921875
-4843.076171875,-10480.0859375,6622.47314453125,9547.07421875,14842.3505859375,15202.36328125,13208.3896484375,12195.904296875,13007.3232421875,9078.185546875,16589.1640625,0.0,12158.552734375,0.0,12001.9912109375,15910.466796875,26547.908203125,12346.1083984375,7685.02587890625,5563.89453125,4005.43212890625,14772.4150390625,12661.6162109375,9307.0673828125,0.0,1494.884521484375,6184.578125,4226.36669921875,-890.0960083007812,-7112.0263671875,13242.5625,3602.504638671875,9226.798828125,15242.099609375,9590.78515625,15567.1435546875,5650.5205078125,9469.986328125,4873.27587890625,-0.0,5098.18408203125,12071.9267578125,6918.1123046875,9451.70703125,18869.2421875,6278.35595703125,-3235.340087890625,7445.017578125,5544.02685546875,25244.5546875,5760.19287109375,11974.970703125,-7338.52392578125,-10058.8798828125,7276.53515625,3908.475341796875,8245.30859375,5478.06396484375,5612.37353515625,5294.48193359375,2344.44921875,8757.1142578125,7660.38916015625,7384.6181640625,-14223.2578125,-0.0,-0.0,9909.470703125,6329.21826171875,-2948.443115234375,0.0,12156.1689453125
-4860.56005859375,-10492.8017578125,6618.5,9555.0224609375,14842.3505859375,15203.953125,13212.36328125,12199.87890625,13013.6806640625,9082.953125,16585.984375,0.0,12160.9375,0.0,12009.1435546875,15916.82421875,26551.880859375,12348.4921875,7687.40966796875,5570.2529296875,4004.63720703125,14774.7998046875,12663.205078125,9309.451171875,0.0,1502.037109375,6187.7568359375,4226.36669921875,-890.0960083007812,-7105.66845703125,13244.15234375,3609.6572265625,9224.4150390625,15246.0732421875,9591.5791015625,15567.9384765625,5651.3154296875,9472.3701171875,4868.50732421875,-0.0,5095.7998046875,12076.6953125,6918.9072265625,9454.0908203125,18870.830078125,6279.9453125,-3226.59814453125,7453.759765625,5540.052734375,25247.732421875,5764.16650390625,11978.943359375,-7344.0869140625,-10038.216796875,7283.6875,3913.24365234375,8250.0771484375,5477.26953125,5615.55224609375,5300.044921875,2348.423095703125,8763.47265625,7662.77294921875,7387.00244140625,-14236.767578125,-0.0,-0.0,9915.0341796875,6340.3447265625,-2945.26416015625,0.0,12159.34765625
-4864.53369140625,-10477.7021484375,6642.341796875,9579.658203125,14854.271484375,15219.052734375,13218.720703125,12208.62109375,13004.939453125,9088.5166015625,16605.05859375,0.0,12169.6787109375,0.0,12011.5283203125,15924.7724609375,26571.75,12362.7978515625,7694.5625,5565.484375,4020.5322265625,14793.873046875,12672.7421875,9322.166015625,0.0,1524.2894287109375,6194.11474609375,4239.08251953125,-880.5592651367188,-7096.1318359375,13260.841796875,3629.525390625,9245.078125,15265.94140625,9606.6787109375,15583.0380859375,5656.08349609375,9481.1123046875,4890.759765625,-0.0,5110.8994140625,12095.7685546875,6927.64892578125,9466.8076171875,18873.21484375,6288.68701171875,-3192.4248046875,7477.6015625,5550.384765625,25262.037109375,5767.34521484375,11991.66015625,-7348.060546875,-10041.396484375,7303.55615234375,3933.111572265625,8251.6669921875,5488.3955078125,5609.9892578125,5316.734375,2365.1123046875,8777.77734375,7665.1572265625,7378.26025390625,-14218.4892578125,-0.0,-0.0,9935.6962890625,6319.681640625,-2922.217041015625,0.0,12180.8056640625
-4827.97607421875,-10468.9599609375,6647.10986328125,9574.095703125,14855.0673828125,15219.052734375,13217.92578125,12206.2373046875,13002.5546875,9090.1064453125,16611.41796875,0.0,12165.7060546875,0.0,12013.1181640625,15914.4404296875,26570.955078125,12361.208984375,7694.5625,5567.07373046875,4022.916259765625,14792.283203125,12672.7421875,9320.5771484375,0.0,1523.4947509765625,6194.90966796875,4235.9033203125,-870.227783203125,-7093.74755859375,13260.046875,3633.4990234375,9249.05078125,15269.1201171875,9607.474609375,15583.0380859375,5657.6728515625,9478.728515625,4924.138671875,-0.0,5113.28369140625,12094.974609375,6927.64892578125,9466.01171875,18874.802734375,6291.0712890625,-3203.551025390625,7473.62744140625,5550.384765625,25261.244140625,5768.9345703125,11983.7119140625,-7343.2919921875,-10015.169921875,7304.3505859375,3933.906494140625,8248.48828125,5489.1904296875,5609.9892578125,5320.7080078125,2373.0595703125,8777.77734375,7665.9521484375,7382.23388671875,-14213.7216796875,-0.0,-0.0,9930.9287109375,6322.86083984375,-2923.01171875,0.0,12178.4208984375
-4845.46044921875,-10493.595703125,6643.93115234375,9552.6376953125,14851.8876953125,15208.720703125,13213.9521484375,12200.6728515625,13006.5283203125,9086.9267578125,16598.701171875,0.0,12165.7060546875,0.0,12014.70703125,15910.466796875,26560.625,12354.8505859375,7691.38330078125,5570.2529296875,4016.55810546875,14781.9521484375,12670.357421875,9315.013671875,0.0,1500.4476318359375,6192.525390625,4231.9296875,-871.0225219726562,-7090.568359375,13253.6884765625,3621.578125,9242.6943359375,15257.9951171875,9600.3212890625,15575.091796875,5656.8779296875,9475.548828125,4923.34375,-0.0,5110.8994140625,12076.6953125,6923.67578125,9457.2705078125,18874.802734375,6288.68701171875,-3221.82958984375,7450.58056640625,5545.6162109375,25250.912109375,5767.34521484375,11977.35546875,-7326.60302734375,-10031.859375,7277.330078125,3924.369873046875,8248.48828125,5486.80615234375,5609.9892578125,5315.14501953125,2350.012451171875,8771.419921875,7665.9521484375,7387.796875,-14222.462890625,-0.0,-0.0,9918.212890625,6330.80810546875,-2931.75390625,0.0,12174.447265625
-4859.765625,-10509.4912109375,6650.2890625,9555.0224609375,14855.0673828125,15209.515625,13217.1318359375,12199.87890625,13009.70703125,9084.5419921875,16598.701171875,0.0,12177.626953125,0.0,12015.501953125,15913.64453125,26561.41796875,12356.4404296875,7692.97265625,5571.84228515625,4019.7373046875,14781.9521484375,12671.947265625,9315.80859375,0.0,1502.037109375,6193.31982421875,4232.724609375,-880.5592651367188,-7092.15771484375,13254.4833984375,3619.98876953125,9246.6669921875,15256.4052734375,9600.3212890625,15575.091796875,5656.8779296875,9477.9326171875,4908.24365234375,-0.0,5114.87353515625,12078.28515625,6924.47021484375,9457.2705078125,18875.599609375,6287.892578125,-3212.29296875,7452.96484375,5544.02685546875,25254.091796875,5770.5244140625,11982.123046875,-7330.57666015625,-10044.5751953125,7285.27685546875,3920.396240234375,8250.0771484375,5486.01171875,5611.57861328125,5313.55517578125,2347.62841796875,8773.8037109375,7666.74658203125,7390.18115234375,-14228.0263671875,-0.0,-0.0,9920.5966796875,6329.21826171875,-2937.31689453125,0.0,12170.4736328125
-4845.46044921875,-10494.3916015625,6649.494140625,9559.791015625,14859.0400390625,15211.10546875,13221.900390625,12203.0576171875,13014.4755859375,9084.5419921875,16610.623046875,0.0,12180.8056640625,0.0,12019.474609375,15916.029296875,26563.802734375,12359.619140625,7695.35693359375,5574.2265625,4022.121337890625,14784.3359375,12673.537109375,9318.1923828125,0.0,1503.62646484375,6196.4990234375,4231.9296875,-874.2014770507812,-7088.97900390625,13252.89453125,3623.96240234375,9248.2568359375,15258.7890625,9605.08984375,15576.6806640625,5659.26220703125,9478.728515625,4884.40185546875,-0.0,5115.66796875,12081.4638671875,6928.44384765625,9457.2705078125,18877.1875,6290.27685546875,-3208.3193359375,7458.52783203125,5554.35791015625,25256.474609375,5772.90869140625,11984.5078125,-7324.21875,-10030.26953125,7310.70849609375,3927.548828125,8252.4619140625,5482.0380859375,5615.55224609375,5317.529296875,2341.2705078125,8776.982421875,7669.130859375,7391.77099609375,-14218.4892578125,-0.0,-0.0,9921.3916015625,6334.78173828125,-2940.495849609375,0.0,12163.3212890625
-4849.43408203125,-10506.3125,6637.5732421875,9566.943359375,14859.8359375,15215.0791015625,13221.900390625,12206.2373046875,13013.6806640625,9091.6953125,16614.595703125,0.0,12172.0625,0.0,12017.8857421875,15922.3876953125,26566.1875,12363.5927734375,7696.15185546875,5577.4052734375,4020.5322265625,14789.1044921875,12675.1259765625,9321.3720703125,0.0,1508.3948974609375,6197.2939453125,4237.4931640625,-865.45947265625,-7083.416015625,13249.71484375,3627.93603515625,9243.48828125,15263.5576171875,9605.884765625,15581.4482421875,5661.646484375,9479.5224609375,4879.63330078125,-0.0,5110.8994140625,12087.02734375,6930.828125,9462.8330078125,18879.572265625,6295.04541015625,-3234.54541015625,7464.8857421875,5559.12646484375,25260.44921875,5772.90869140625,11987.6865234375,-7322.62939453125,-10040.6005859375,7311.5029296875,3933.906494140625,8249.283203125,5489.98486328125,5613.962890625,5316.734375,2373.0595703125,8782.5458984375,7671.51513671875,7394.15478515625,-14204.978515625,-0.0,-0.0,9930.1337890625,6322.86083984375,-2928.57470703125,0.0,12176.037109375
-4847.0498046875,-10460.2177734375,6631.21533203125,9552.6376953125,14856.65625,15208.720703125,13222.6943359375,12203.8525390625,13020.8330078125,9095.6689453125,16608.23828125,0.0,12164.1162109375,0.0,12025.0390625,15916.82421875,26560.625,12361.208984375,7696.15185546875,5584.55810546875,4015.763671875,14783.5419921875,12674.33203125,9319.7822265625,0.0,1502.831787109375,6198.08837890625,4231.9296875,-872.6119995117188,-7087.3896484375,13244.9462890625,3617.6044921875,9237.92578125,15254.0205078125,9601.91015625,15579.064453125,5660.05712890625,9478.728515625,4912.2177734375,-0.0,5107.720703125,12078.28515625,6930.828125,9458.859375,18881.95703125,6294.25048828125,-3222.62451171875,7451.37548828125,5557.537109375,25251.70703125,5776.88232421875,11982.91796875,-7325.80810546875,-10065.23828125,7301.96630859375,3925.959228515625,8254.845703125,5484.42236328125,5617.9365234375,5306.40283203125,2382.59619140625,8784.134765625,7675.48876953125,7403.69189453125,-14210.5419921875,-0.0,-0.0,9924.5712890625,6340.3447265625,-2930.164306640625,0.0,12178.4208984375
-4841.486328125,-10438.759765625,6638.3681640625,9555.0224609375,14859.0400390625,15209.515625,13221.1044921875,12201.46875,13013.6806640625,9090.900390625,16603.470703125,0.0,12166.5,0.0,12025.0390625,15910.466796875,26561.41796875,12365.181640625,7694.5625,5576.6103515625,4018.14794921875,14782.74609375,12676.7158203125,9319.7822265625,0.0,1503.62646484375,6199.677734375,4229.54541015625,-873.40673828125,-7090.568359375,13248.9208984375,3617.6044921875,9241.1044921875,15256.4052734375,9604.294921875,15579.859375,5658.4677734375,9478.728515625,4905.06494140625,-0.0,5110.8994140625,12079.080078125,6933.21240234375,9457.2705078125,18878.779296875,6289.48193359375,-3205.140380859375,7453.759765625,5560.71630859375,25250.1171875,5776.08740234375,11977.35546875,-7327.39794921875,-10033.4482421875,7306.734375,3921.190673828125,8258.025390625,5480.4482421875,5613.962890625,5302.42919921875,2376.238525390625,8789.6982421875,7670.720703125,7387.796875,-14213.7216796875,-0.0,-0.0,9913.4443359375,6334.78173828125,-2935.727294921875,0.0,12173.65234375
-4843.076171875,-10453.064453125,6637.5732421875,9558.201171875,14858.24609375,15212.6953125,13218.720703125,12204.6474609375,13006.5283203125,9090.1064453125,16596.31640625,0.0,12167.294921875,0.0,12014.70703125,15919.208984375,26564.59765625,12366.771484375,7694.5625,5573.431640625,4018.9423828125,14786.720703125,12677.5107421875,9322.166015625,0.0,1509.1895751953125,6197.2939453125,4233.51904296875,-873.40673828125,-7096.92626953125,13252.0986328125,3619.98876953125,9242.6943359375,15258.7890625,9605.884765625,15583.0380859375,5657.6728515625,9480.3173828125,4893.14404296875,-0.0,5110.10498046875,12083.84765625,6930.828125,9460.44921875,18876.39453125,6289.48193359375,-3216.2666015625,7456.9384765625,5556.7421875,25252.5,5770.5244140625,11982.91796875,-7335.3447265625,-10021.52734375,7304.3505859375,3914.0380859375,8255.640625,5482.83251953125,5609.1943359375,5311.1708984375,2370.67529296875,8792.0830078125,7667.54150390625,7383.8232421875,-14215.310546875,-0.0,-0.0,9922.1865234375,6318.09228515625,-2927.7802734375,0.0,12182.39453125
-4862.9443359375,-10505.5166015625,6632.8046875,9558.201171875,14853.4775390625,15212.6953125,13213.9521484375,12205.44140625,12999.375,9072.62109375,16591.548828125,0.0,12166.5,0.0,12010.7333984375,15933.513671875,26563.009765625,12364.3876953125,7691.38330078125,5566.27880859375,4015.763671875,14785.130859375,12671.947265625,9320.5771484375,0.0,1509.1895751953125,6192.525390625,4241.46630859375,-878.1751098632812,-7089.7734375,13248.9208984375,3618.3994140625,9240.3095703125,15257.19921875,9601.1162109375,15581.4482421875,5653.69921875,9477.138671875,4911.4228515625,-0.0,5107.720703125,12084.6435546875,6926.0595703125,9461.2431640625,18870.830078125,6285.5087890625,-3213.087890625,7457.7333984375,5552.7685546875,25254.091796875,5766.55078125,11990.0703125,-7334.55029296875,-10019.1435546875,7300.376953125,3928.34326171875,8253.2568359375,5488.3955078125,5606.015625,5312.7607421875,2361.933349609375,8789.6982421875,7660.38916015625,7376.6708984375,-14217.6943359375,-0.0,-0.0,9920.5966796875,6313.32421875,-2939.701171875,0.0,12161.7314453125
-4866.91796875,-10494.3916015625,6632.8046875,9549.458984375,14849.50390625,15204.7470703125,13209.18359375,12199.87890625,12996.1962890625,9071.8271484375,16604.265625,0.0,12163.3212890625,0.0,12007.5537109375,15932.71875,26555.857421875,12356.4404296875,7686.615234375,5561.5107421875,4010.995361328125,14777.18359375,12664.794921875,9312.6298828125,0.0,1494.0897216796875,6189.34619140625,4235.10888671875,-883.7382202148438,-7088.1845703125,13241.767578125,3612.04150390625,9233.951171875,15251.63671875,9593.9638671875,15571.1171875,5647.34130859375,9470.7802734375,4901.8857421875,-0.0,5102.15771484375,12074.3115234375,6920.49658203125,9456.4755859375,18865.267578125,6281.53466796875,-3212.29296875,7448.9912109375,5548.00048828125,25247.732421875,5760.98779296875,11989.2763671875,-7331.37109375,-10029.4755859375,7294.8134765625,3928.34326171875,8238.15625,5484.42236328125,5603.63134765625,5305.6083984375,2343.654541015625,8781.7509765625,7654.82568359375,7373.49169921875,-14220.8740234375,-0.0,-0.0,9915.0341796875,6314.11865234375,-2946.05908203125,0.0,12159.34765625
-4872.48095703125,-10494.3916015625,6629.6259765625,9555.81640625,14847.119140625,15202.36328125,13209.18359375,12197.494140625,13003.349609375,9082.953125,16607.443359375,0.0,12160.9375,0.0,12009.1435546875,15924.7724609375,26551.880859375,12353.2607421875,7685.02587890625,5570.2529296875,4009.405517578125,14774.7998046875,12663.205078125,9310.2451171875,0.0,1495.67919921875,6185.373046875,4232.724609375,-887.7118530273438,-7094.5419921875,13239.3837890625,3610.451904296875,9232.361328125,15248.4580078125,9591.5791015625,15570.3232421875,5647.34130859375,9472.3701171875,4891.55419921875,-0.0,5098.978515625,12075.1064453125,6918.9072265625,9453.296875,18869.2421875,6279.9453125,-3216.2666015625,7453.759765625,5542.43701171875,25246.142578125,5761.7822265625,11986.8916015625,-7328.9873046875,-10046.1640625,7286.86669921875,3918.01220703125,8239.74609375,5478.06396484375,5606.015625,5297.66064453125,2344.44921875,8778.572265625,7656.41552734375,7392.5654296875,-14228.8203125,-0.0,-0.0,9907.0859375,6321.271484375,-2947.648193359375,0.0,12172.0625
