-3178.11962890625,-8759.4990234375,7359.9814453125,10448.296875,15760.263671875,16124.248046875,14061.1337890625,13376.8720703125,13894.240234375,9980.2021484375,17913.18359375,0.0,13225.078125,0.0,13016.064453125,16824.404296875,27415.751953125,13145.6064453125,8759.4990234375,6635.18896484375,5009.17431640625,15556.8125,13678.8681640625,10289.3515625,0.0,2439.816650390625,7133.48388671875,5218.98291015625,-177.22447204589844,-8097.4892578125,13878.345703125,4255.771484375,9973.84375,16160.01171875,10269.482421875,16409.5546875,6883.939453125,10523.001953125,5435.943359375,0.0,6142.45751953125,13089.1796875,7846.35546875,10624.7265625,19869.8046875,7390.97607421875,-2457.30078125,8327.1669921875,6605.7841796875,26098.09375,6847.3818359375,13107.458984375,-5286.53466796875,-8282.6611328125,8455.912109375,4347.9599609375,9318.98828125,6235.44091796875,6450.017578125,6497.701171875,3972.848388671875,9835.560546875,8821.4873046875,8432.0703125,-13322.830078125,-0.0,0.0,10578.6328125,7119.9736328125,-1691.1824951171875,0.0,13341.109375
-3158.25146484375,-8743.603515625,7371.90234375,10468.9599609375,15767.416015625,16141.7333984375,14074.6435546875,13391.1767578125,13910.134765625,9990.533203125,17938.61328125,0.0,13238.5888671875,0.0,13025.6015625,16839.50390625,27432.44140625,13161.5,8772.2138671875,6649.494140625,5019.505859375,15575.8857421875,13692.37890625,10303.65625,0.0,2451.737548828125,7142.2255859375,5234.876953125,-142.2564239501953,-8094.310546875,13894.240234375,4273.255859375,9988.1484375,16179.0849609375,10280.609375,16426.244140625,6897.44970703125,10538.1015625,5451.837890625,0.0,6137.68896484375,13108.25390625,7859.07080078125,10641.416015625,19881.724609375,7403.69189453125,-2444.585205078125,8346.240234375,6616.91064453125,26119.55078125,6858.5078125,13121.7646484375,-5272.2294921875,-8259.6142578125,8475.7802734375,4357.49658203125,9334.8818359375,6255.30859375,6463.52783203125,6509.6220703125,3997.484619140625,9851.4560546875,8834.203125,8446.3759765625,-13294.2197265625,-0.0,0.0,10583.400390625,7133.48388671875,-1689.593017578125,0.0,13349.8505859375
-3159.8408203125,-8739.630859375,7375.08154296875,10477.7021484375,15775.3623046875,16149.6787109375,14078.6171875,13396.740234375,13918.08203125,9992.9169921875,17961.66015625,0.0,13237.0,0.0,13030.3701171875,16849.041015625,27436.4140625,13168.65234375,8776.1875,6655.85205078125,5027.453125,15583.0380859375,13697.1474609375,10310.013671875,0.0,2462.0693359375,7146.19970703125,5242.02978515625,-142.2564239501953,-8093.51611328125,13900.59765625,4277.2294921875,9993.712890625,16184.6484375,10288.5556640625,16434.193359375,6903.0126953125,10544.458984375,5452.6328125,0.0,6145.63623046875,13117.7900390625,7865.4287109375,10647.7734375,19887.2890625,7406.87060546875,-2439.816650390625,8358.1611328125,6623.26806640625,26126.703125,6864.07080078125,13129.7109375,-5269.845703125,-8246.8984375,8474.1904296875,4341.6025390625,9343.6240234375,6263.255859375,6467.5009765625,6504.05859375,3997.484619140625,9859.40234375,8839.7666015625,8456.70703125,-13304.55078125,-0.0,0.0,10581.810546875,7139.841796875,-1697.540283203125,0.0,13346.671875
-3103.415283203125,-8683.205078125,7425.94384765625,10521.412109375,15821.45703125,16197.36328125,14119.9423828125,13440.4501953125,13955.43359375,10031.859375,18006.166015625,0.0,13272.7626953125,0.0,13063.748046875,16895.9296875,27484.89453125,13213.1572265625,8819.8974609375,6695.58837890625,5076.7265625,15628.337890625,13740.0625,10355.3134765625,0.0,2509.7529296875,7186.73095703125,5288.9189453125,-111.26200103759766,-8041.85888671875,13947.4873046875,4327.29736328125,10040.6005859375,16231.537109375,10333.85546875,16477.107421875,6945.13330078125,10586.5791015625,5500.31640625,0.0,6196.4990234375,13165.4736328125,7905.9599609375,10692.279296875,19927.8203125,7447.4013671875,-2389.748779296875,8405.0498046875,6669.3623046875,26172.796875,6902.2177734375,13176.6005859375,-5214.21435546875,-8193.65234375,8518.6962890625,4399.61767578125,9371.439453125,6307.7607421875,6503.26416015625,6539.02685546875,4049.936767578125,9906.2919921875,8880.2978515625,8498.828125,-13258.45703125,-0.0,0.0,10611.216796875,7170.8359375,-1670.51953125,0.0,13376.8720703125
-3040.631591796875,-8622.8056640625,7470.44873046875,10577.04296875,15868.345703125,16256.173828125,14170.8056640625,13504.822265625,14015.0380859375,10104.1796875,18028.41796875,0.0,13288.6572265625,0.0,13105.869140625,16964.27734375,27538.140625,13267.19921875,8877.9130859375,6760.755859375,5126.79443359375,15683.173828125,13794.8994140625,10412.5341796875,0.0,2569.357666015625,7230.4404296875,5354.88134765625,-67.55193328857422,-7979.86962890625,14000.7333984375,4382.13330078125,10089.8740234375,16285.578125,10385.513671875,16533.533203125,6999.1748046875,10647.7734375,5550.384765625,0.0,6243.3876953125,13221.900390625,7955.2333984375,10751.087890625,19984.24609375,7514.15869140625,-2369.0859375,8459.0908203125,6708.3037109375,26233.1953125,6949.9013671875,13245.7421875,-5157.78857421875,-8134.04736328125,8554.458984375,4468.75927734375,9412.765625,6376.90234375,6554.92138671875,6615.32080078125,4103.978515625,9959.5380859375,8941.4912109375,8569.55859375,-13196.46875,-0.0,0.0,10704.994140625,7221.69873046875,-1572.767822265625,0.0,13465.880859375
-3009.63720703125,-8594.990234375,7495.08544921875,10605.65234375,15891.3935546875,16271.2724609375,14189.083984375,13522.3076171875,14032.5234375,10128.021484375,18043.517578125,0.0,13305.3466796875,0.0,13123.3525390625,16975.40234375,27560.392578125,13286.2734375,8897.78125,6779.82958984375,5147.45703125,15701.4521484375,13813.97265625,10430.0185546875,0.0,2588.43115234375,7248.7197265625,5367.59716796875,-65.96247100830078,-7975.89599609375,14020.6025390625,4405.9755859375,10114.5107421875,16307.8310546875,10403.7919921875,16552.607421875,7015.86376953125,10664.462890625,5579.78955078125,0.0,6268.8193359375,13241.767578125,7975.1015625,10768.5732421875,20002.5234375,7534.02734375,-2387.36474609375,8486.111328125,6728.17236328125,26248.296875,6966.5908203125,13257.6630859375,-5122.8203125,-8109.41015625,8571.9423828125,4490.216796875,9432.6337890625,6389.6181640625,6573.9951171875,6644.7255859375,4134.97314453125,9977.0234375,8960.564453125,8587.04296875,-13185.341796875,-0.0,0.0,10740.7568359375,7242.361328125,-1531.4420166015625,0.0,13496.8759765625
-3066.06298828125,-8640.2890625,7457.7333984375,10548.4326171875,15849.271484375,16221.205078125,14144.580078125,13472.2392578125,13985.6337890625,10078.748046875,18005.37109375,0.0,13310.115234375,0.0,13086.7958984375,16926.130859375,27515.888671875,13239.3837890625,8850.8916015625,6732.9404296875,5104.5419921875,15651.384765625,13767.0830078125,10383.12890625,0.0,2522.468505859375,7208.98291015625,5315.14501953125,-100.13580322265625,-8026.75927734375,13974.5078125,4360.67578125,10071.5947265625,16260.1474609375,10359.287109375,16503.333984375,6971.359375,10615.189453125,5540.84765625,0.0,6232.26171875,13188.521484375,7932.18603515625,10718.5048828125,19954.046875,7486.34326171875,-2366.701904296875,8427.302734375,6688.43603515625,26195.048828125,6926.0595703125,13207.5947265625,-5187.193359375,-8171.39892578125,8533.794921875,4433.79052734375,9384.94921875,6338.75537109375,6525.5166015625,6596.2470703125,4091.2626953125,9928.5439453125,8915.2646484375,8538.5634765625,-13230.6416015625,-0.0,0.0,10682.7421875,7199.4462890625,-1585.4835205078125,0.0,13446.013671875
-3101.82568359375,-8665.720703125,7442.63330078125,10525.3857421875,15826.2255859375,16195.7744140625,14120.73828125,13444.423828125,13954.6396484375,10042.9853515625,17995.833984375,0.0,13294.2197265625,0.0,13069.3125,16897.51953125,27493.634765625,13213.9521484375,8823.0771484375,6700.35693359375,5083.87890625,15629.1328125,13741.65234375,10356.1083984375,0.0,2501.010986328125,7189.115234375,5288.9189453125,-116.82510375976562,-8051.3955078125,13951.4609375,4339.21826171875,10052.521484375,16237.1005859375,10337.03515625,16477.107421875,6945.13330078125,10588.1689453125,5528.1318359375,0.0,6216.3671875,13164.6796875,7909.138671875,10693.0732421875,19927.025390625,7456.14404296875,-2360.343994140625,8405.8447265625,6669.3623046875,26168.82421875,6904.60205078125,13178.984375,-5215.00927734375,-8192.0625,8516.3115234375,4402.79638671875,9373.82421875,6308.5556640625,6496.90625,6562.86865234375,4070.60009765625,9899.1396484375,8886.6552734375,8502.80078125,-13248.9208984375,-0.0,0.0,10650.9521484375,7166.0673828125,-1626.0146484375,0.0,13405.482421875
-3057.32080078125,-8629.9580078125,7467.27001953125,10564.3271484375,15858.0146484375,16225.97265625,14152.52734375,13472.2392578125,13981.66015625,10063.6484375,18037.955078125,0.0,13320.4462890625,0.0,13093.9482421875,16916.59375,27524.62890625,13242.5625,8850.8916015625,6724.9931640625,5113.28369140625,15662.51171875,13772.646484375,10383.923828125,0.0,2540.747314453125,7220.90380859375,5315.939453125,-77.08867645263672,-8018.81103515625,13980.865234375,4372.5966796875,10082.7216796875,16269.68359375,10367.234375,16508.1015625,6976.92236328125,10615.9853515625,5564.689453125,0.0,6236.2353515625,13198.05859375,7941.72265625,10721.68359375,19958.01953125,7479.98583984375,-2325.375732421875,8444.7861328125,6713.072265625,26199.021484375,6936.39111328125,13201.236328125,-5160.1728515625,-8150.73681640625,8550.484375,4432.99609375,9406.4072265625,6330.01318359375,6535.84814453125,6582.73681640625,4103.18359375,9927.75,8912.880859375,8525.0537109375,-13204.4150390625,-0.0,0.0,10657.310546875,7193.88330078125,-1623.6304931640625,0.0,13418.197265625
-3028.710693359375,-8631.546875,7474.42236328125,10566.7109375,15858.80859375,16228.357421875,14148.552734375,13467.470703125,13970.5341796875,10056.49609375,18039.544921875,0.0,13316.4716796875,0.0,13086.0009765625,16908.646484375,27525.42578125,13240.9736328125,8847.7138671875,6716.25146484375,5112.4892578125,15661.716796875,13770.2626953125,10381.5390625,0.0,2553.462890625,7214.54638671875,5310.37646484375,-79.47286224365234,-8027.5537109375,13979.275390625,4370.21240234375,10082.7216796875,16270.4794921875,10366.439453125,16505.71875,6972.154296875,10612.0107421875,5556.7421875,0.0,6241.00341796875,13202.03125,7938.54443359375,10717.7099609375,19952.455078125,7474.42236328125,-2322.99169921875,8448.759765625,6709.0986328125,26200.61328125,6932.41748046875,13195.673828125,-5150.63623046875,-8156.2998046875,8560.81640625,4436.1748046875,9402.4345703125,6321.271484375,6535.05322265625,6577.96875,4097.62060546875,9926.16015625,8907.318359375,8516.3115234375,-13210.7734375,-0.0,0.0,10644.5947265625,7188.3203125,-1631.577880859375,0.0,13411.044921875
-3066.06298828125,-8664.130859375,7436.275390625,10523.7958984375,15815.099609375,16187.826171875,14104.8427734375,13430.9130859375,13930.7978515625,10022.322265625,17993.44921875,0.0,13263.2255859375,0.0,13051.033203125,16878.447265625,27483.3046875,13201.236328125,8807.1826171875,6678.1044921875,5071.9580078125,15619.595703125,13729.7314453125,10341.8037109375,0.0,2508.16357421875,7170.8359375,5274.61376953125,-127.15657043457031,-8068.0849609375,13939.5400390625,4332.8603515625,10042.1904296875,16228.357421875,10326.703125,16466.775390625,6930.828125,10573.0693359375,5508.26416015625,0.0,6202.06201171875,13161.5,7894.0390625,10679.5625,19911.923828125,7436.275390625,-2369.880615234375,8405.8447265625,6654.2626953125,26163.259765625,6889.501953125,13162.294921875,-5203.8828125,-8183.31982421875,8511.54296875,4412.3330078125,9354.7509765625,6286.30322265625,6491.34326171875,6543.00048828125,4069.80517578125,9888.80859375,8867.5810546875,8478.958984375,-13269.583984375,-0.0,0.0,10624.7265625,7153.35205078125,-1649.061767578125,0.0,13379.255859375
-3025.53173828125,-8634.7265625,7467.27001953125,10549.2275390625,15849.271484375,16212.462890625,14138.2216796875,13466.67578125,13968.9443359375,10059.673828125,18027.625,0.0,13304.55078125,0.0,13085.2060546875,16926.130859375,27516.68359375,13233.025390625,8839.7666015625,6713.8671875,5102.95263671875,15646.6162109375,13762.314453125,10374.38671875,0.0,2514.521240234375,7205.80419921875,5311.1708984375,-97.75161743164062,-8023.57958984375,13971.3291015625,4367.828125,10074.7744140625,16260.9423828125,10358.4931640625,16496.9765625,6966.5908203125,10606.4482421875,5552.7685546875,0.0,6237.0302734375,13183.7529296875,7927.41796875,10711.3525390625,19944.509765625,7473.62744140625,-2344.44921875,8428.8916015625,6693.20458984375,26186.30859375,6922.880859375,13202.826171875,-5179.24658203125,-8149.94140625,8549.6904296875,4435.38037109375,9386.5390625,6333.1923828125,6520.748046875,6582.73681640625,4113.51513671875,9919.0068359375,8901.7548828125,8512.337890625,-13225.873046875,-0.0,0.0,10689.099609375,7189.115234375,-1588.6624755859375,0.0,13423.7607421875
-3043.015625,-8685.5888671875,7405.28125,10496.775390625,15781.720703125,16160.806640625,14080.20703125,13404.6865234375,13909.33984375,9985.7646484375,17975.171875,0.0,13262.4306640625,0.0,13031.9599609375,16862.55078125,27462.640625,13173.4208984375,8781.7509765625,6648.69921875,5040.9638671875,15593.369140625,13701.916015625,10316.3720703125,0.0,2469.221923828125,7150.17333984375,5254.74560546875,-135.89859008789062,-8093.51611328125,13914.1083984375,4317.76025390625,10015.169921875,16206.8994140625,10296.50390625,16440.55078125,6906.19140625,10548.4326171875,5501.111328125,-0.0,6166.29931640625,13131.30078125,7867.81298828125,10654.9267578125,19884.904296875,7412.43359375,-2396.106689453125,8378.8232421875,6631.21533203125,26134.6484375,6868.04443359375,13142.4267578125,-5204.677734375,-8203.1884765625,8515.517578125,4376.5703125,9347.59765625,6279.9453125,6462.73291015625,6523.92724609375,4057.08935546875,9859.40234375,8840.560546875,8440.017578125,-13260.841796875,-0.0,0.0,10596.1162109375,7125.53662109375,-1672.9036865234375,0.0,13354.619140625
-3079.573486328125,-8715.7890625,7371.90234375,10464.986328125,15747.546875,16118.6845703125,14041.2646484375,13359.3876953125,13868.80859375,9930.9287109375,17917.951171875,0.0,13220.310546875,0.0,12998.5810546875,16805.330078125,27424.494140625,13132.8896484375,8738.041015625,6598.63134765625,5005.20068359375,15554.427734375,13662.1787109375,10272.662109375,0.0,2433.458984375,7113.61572265625,5207.0615234375,-194.70851135253906,-8150.73681640625,13876.755859375,4282.79248046875,9979.4072265625,16169.5478515625,10259.1513671875,16399.224609375,6863.27587890625,10504.72265625,5454.22216796875,-0.0,6133.71533203125,13093.154296875,7830.46044921875,10612.0107421875,19845.16796875,7364.75,-2436.637939453125,8347.0341796875,6593.068359375,26090.94140625,6831.4873046875,13093.154296875,-5218.18798828125,-8235.7724609375,8461.4755859375,4336.833984375,9311.8349609375,6227.4931640625,6426.97021484375,6476.24365234375,4017.35302734375,9818.0771484375,8796.0556640625,8387.5654296875,-13323.625,-0.0,0.0,10513.46484375,7096.1318359375,-1752.3765869140625,0.0,13291.041015625
-3054.14208984375,-8653.7998046875,7427.53369140625,10514.259765625,15794.435546875,16160.806640625,14083.3857421875,13398.330078125,13906.1611328125,9972.2548828125,17986.296875,0.0,13264.8154296875,0.0,13036.7275390625,16837.916015625,27473.767578125,13178.984375,8779.3662109375,6636.7783203125,5055.2685546875,15600.5224609375,13706.6845703125,10313.9873046875,0.0,2478.758544921875,7158.12060546875,5245.208984375,-126.36184692382812,-8108.61572265625,13922.8505859375,4332.8603515625,10029.4755859375,16218.02734375,10304.451171875,16443.728515625,6906.19140625,10543.6640625,5496.34326171875,-0.0,6186.9619140625,13137.658203125,7874.17138671875,10652.5419921875,19885.69921875,7395.744140625,-2382.59619140625,8394.7177734375,6642.341796875,26132.265625,6870.4287109375,13130.505859375,-5159.3779296875,-8188.08837890625,8513.1328125,4370.21240234375,9349.982421875,6256.8984375,6466.70654296875,6488.16455078125,4066.6259765625,9859.40234375,8834.203125,8422.5341796875,-13280.708984375,-0.0,0.0,10550.81640625,7132.68896484375,-1726.9453125,0.0,13317.267578125
-3055.7314453125,-8639.4951171875,7441.8388671875,10528.564453125,15807.1513671875,16178.2890625,14093.716796875,13413.4296875,13910.134765625,9988.1484375,18014.11328125,0.0,13282.298828125,0.0,13043.880859375,16855.3984375,27495.2265625,13194.083984375,8792.0830078125,6647.10986328125,5067.98388671875,15616.4169921875,13719.3994140625,10329.0869140625,0.0,2497.037109375,7169.24658203125,5263.4873046875,-104.9041748046875,-8089.54248046875,13939.5400390625,4351.13916015625,10046.1640625,16235.509765625,10319.55078125,16459.623046875,6919.7021484375,10558.7646484375,5522.5693359375,-0.0,6199.677734375,13157.52734375,7886.09228515625,10670.8212890625,19894.44140625,7409.25439453125,-2369.0859375,8410.61328125,6652.67333984375,26151.337890625,6879.96533203125,13147.1953125,-5143.4833984375,-8170.6044921875,8517.9013671875,4384.517578125,9360.3134765625,6257.69287109375,6471.47509765625,6487.36962890625,4084.905029296875,9876.091796875,8846.9189453125,8436.0439453125,-13246.5361328125,-0.0,0.0,10565.9169921875,7119.1787109375,-1712.64013671875,0.0,13333.1611328125
-3109.77294921875,-8683.9990234375,7413.228515625,10495.98046875,15786.4892578125,16150.474609375,14071.46484375,13389.587890625,13892.650390625,9980.2021484375,17981.529296875,0.0,13222.6943359375,0.0,13025.6015625,16833.94140625,27466.615234375,13167.8583984375,8770.625,6632.8046875,5043.34765625,15587.806640625,13695.5576171875,10305.2451171875,0.0,2466.837646484375,7146.19970703125,5233.28759765625,-156.56153869628906,-8111.79443359375,13913.3134765625,4318.55517578125,10022.322265625,16205.310546875,10295.708984375,16432.603515625,6895.8603515625,10535.716796875,5513.0322265625,-0.0,6177.42529296875,13127.3271484375,7863.044921875,10643.7998046875,19874.572265625,7394.15478515625,-2402.464599609375,8378.029296875,6630.4208984375,26119.55078125,6856.91845703125,13120.1748046875,-5184.80908203125,-8207.95703125,8472.6015625,4356.7021484375,9332.498046875,6234.64599609375,6449.22265625,6481.01171875,4056.294921875,9852.25,8826.255859375,8419.3544921875,-13279.1201171875,-0.0,0.0,10563.533203125,7099.310546875,-1703.1033935546875,0.0,13323.625
-3050.963134765625,-8668.10546875,7416.4072265625,10504.72265625,15798.41015625,16153.654296875,14080.20703125,13397.5341796875,13902.1875,9991.328125,17983.9140625,0.0,13224.2841796875,0.0,13032.75390625,16848.24609375,27472.97265625,13175.8046875,8776.982421875,6641.546875,5051.294921875,15593.369140625,13701.916015625,10312.3984375,0.0,2458.89013671875,7153.35205078125,5238.85107421875,-160.53517150878906,-8102.2578125,13919.6708984375,4324.9130859375,10028.6796875,16212.462890625,10303.65625,16438.166015625,6902.2177734375,10544.458984375,5530.51611328125,-0.0,6186.16748046875,13131.30078125,7872.58154296875,10647.7734375,19882.521484375,7408.4599609375,-2395.31201171875,8384.38671875,6643.13671875,26119.55078125,6864.86572265625,13128.12109375,-5181.63037109375,-8211.1357421875,8465.44921875,4371.8017578125,9334.8818359375,6263.255859375,6457.169921875,6510.41650390625,4076.957763671875,9857.8134765625,8834.998046875,8426.5068359375,-13272.7626953125,-0.0,0.0,10604.064453125,7112.8212890625,-1660.9827880859375,0.0,13341.9033203125
-2943.6748046875,-8623.599609375,7453.759765625,10526.1806640625,15805.5625,16173.521484375,14092.921875,13415.0185546875,13914.90234375,9983.3798828125,18023.6484375,0.0,13276.736328125,0.0,13044.6748046875,16870.498046875,27498.404296875,13195.673828125,8792.876953125,6648.69921875,5074.34228515625,15614.033203125,13719.3994140625,10330.6767578125,0.0,2477.1689453125,7162.88916015625,5262.69287109375,-138.28277587890625,-8077.62158203125,13939.5400390625,4357.49658203125,10054.90625,16235.509765625,10321.9345703125,16458.03515625,6918.1123046875,10561.943359375,5556.7421875,-0.0,6213.98291015625,13151.962890625,7884.50244140625,10667.6416015625,19895.234375,7419.5859375,-2352.396728515625,8405.8447265625,6654.2626953125,26143.392578125,6879.1708984375,13151.1689453125,-5135.5361328125,-8190.47265625,8504.390625,4402.001953125,9358.7236328125,6283.12451171875,6472.26953125,6530.28466796875,4118.28369140625,9877.681640625,8846.9189453125,8436.8388671875,-13243.357421875,-0.0,0.0,10607.2421875,7128.71533203125,-1671.314208984375,0.0,13344.2880859375
-2937.31689453125,-8611.6787109375,7447.4013671875,10525.3857421875,15799.2041015625,16163.1904296875,14083.3857421875,13403.09765625,13902.9814453125,9969.8701171875,18006.958984375,0.0,13271.1728515625,0.0,13033.548828125,16846.65625,27496.01953125,13188.521484375,8783.3408203125,6635.98388671875,5069.57373046875,15606.8798828125,13709.068359375,10320.345703125,0.0,2485.9111328125,7155.736328125,5249.97705078125,-121.59347534179688,-8093.51611328125,13933.9765625,4362.26513671875,10050.1376953125,16233.1259765625,10313.9873046875,16450.8828125,6908.57568359375,10547.6376953125,5558.33203125,-0.0,6208.419921875,13143.2216796875,7876.5556640625,10655.720703125,19884.109375,7402.89697265625,-2365.1123046875,8405.8447265625,6651.08349609375,26135.4453125,6869.63427734375,13133.685546875,-5125.20458984375,-8166.630859375,8515.517578125,4392.46533203125,9352.3662109375,6262.46142578125,6462.73291015625,6505.64794921875,4138.9462890625,9870.529296875,8834.203125,8429.6865234375,-13241.767578125,-0.0,0.0,10566.7109375,7119.9736328125,-1711.845458984375,0.0,13326.0087890625
-2961.953369140625,-8624.39453125,7438.65966796875,10530.154296875,15794.435546875,16160.01171875,14083.3857421875,13395.9453125,13902.9814453125,9977.8173828125,18009.34375,0.0,13279.1201171875,0.0,13041.49609375,16825.994140625,27495.2265625,13186.13671875,8780.9560546875,6639.16259765625,5062.42138671875,15606.0859375,13706.6845703125,10317.9619140625,0.0,2484.321533203125,7160.5048828125,5239.6455078125,-123.18293762207031,-8095.900390625,13932.3876953125,4364.6494140625,10044.5751953125,16236.3056640625,10306.8349609375,16448.498046875,6906.986328125,10542.869140625,5551.17919921875,-0.0,6184.578125,13147.990234375,7875.76025390625,10651.748046875,19884.109375,7398.12841796875,-2362.72802734375,8411.4072265625,6652.67333984375,26129.087890625,6871.2236328125,13121.7646484375,-5111.6943359375,-8132.45751953125,8525.0537109375,4369.41748046875,9362.697265625,6248.951171875,6460.3486328125,6492.9326171875,4146.89404296875,9868.939453125,8834.203125,8433.6591796875,-13240.9736328125,-0.0,0.0,10559.55859375,7123.947265625,-1719.792724609375,0.0,13326.0087890625
-2951.6220703125,-8631.546875,7464.8857421875,10563.533203125,15816.6884765625,16183.0576171875,14107.2275390625,13414.2236328125,13926.8232421875,10008.8115234375,18025.240234375,0.0,13299.783203125,0.0,13062.9541015625,16842.68359375,27517.4765625,13206.0048828125,8802.4140625,6666.18359375,5084.67333984375,15629.9267578125,13728.9365234375,10337.03515625,0.0,2512.13720703125,7179.578125,5253.15625,-109.67254638671875,-8080.80029296875,13954.6396484375,4385.3125,10070.0068359375,16259.3515625,10329.8828125,16469.955078125,6927.64892578125,10563.533203125,5560.71630859375,-0.0,6214.77734375,13172.626953125,7897.2177734375,10670.8212890625,19906.36328125,7421.17529296875,-2365.906982421875,8444.7861328125,6671.74658203125,26147.365234375,6890.296875,13135.2744140625,-5080.69970703125,-8103.84765625,8554.458984375,4391.67041015625,9381.771484375,6265.64013671875,6481.80615234375,6517.56884765625,4163.58349609375,9888.0126953125,8859.634765625,8467.0380859375,-13214.7470703125,-0.0,0.0,10587.375,7145.40478515625,-1694.361328125,0.0,13353.82421875
-2937.31689453125,-8588.6318359375,7485.54833984375,10582.6064453125,15840.5302734375,16211.66796875,14133.453125,13448.3974609375,13964.970703125,10054.90625,18051.466796875,0.0,13306.140625,0.0,13082.822265625,16887.982421875,27542.11328125,13234.615234375,8834.998046875,6711.48291015625,5110.10498046875,15657.7431640625,13759.1357421875,10367.234375,0.0,2530.415771484375,7203.419921875,5287.3291015625,-90.59906005859375,-8039.474609375,13980.865234375,4407.564453125,10092.2587890625,16283.9892578125,10356.9033203125,16497.76953125,6959.4384765625,10597.7060546875,5585.3525390625,-0.0,6237.82470703125,13194.083984375,7923.44384765625,10702.6103515625,19939.740234375,7460.912109375,-2326.96533203125,8461.4755859375,6689.23046875,26175.9765625,6916.52294921875,13175.0107421875,-5075.13671875,-8086.36376953125,8562.4052734375,4425.84375,9392.1025390625,6299.81396484375,6515.97998046875,6562.07421875,4179.4775390625,9915.8291015625,8896.19140625,8517.1064453125,-13205.2109375,-0.0,0.0,10631.083984375,7183.5517578125,-1637.140869140625,0.0,13412.634765625
-2930.958984375,-8525.0537109375,7514.15869140625,10598.5,15865.16796875,16236.3056640625,14154.9111328125,13479.3916015625,13992.7861328125,10083.5166015625,18086.43359375,0.0,13307.73046875,0.0,13093.9482421875,16926.130859375,27565.16015625,13257.6630859375,8860.4287109375,6739.29833984375,5135.5361328125,15679.201171875,13782.978515625,10394.255859375,0.0,2544.720947265625,7220.90380859375,5319.11865234375,-89.00960540771484,-8015.6328125,14006.296875,4429.8173828125,10116.89453125,16306.2421875,10380.7451171875,16521.611328125,6984.0751953125,10624.7265625,5616.3466796875,-0.0,6266.43505859375,13213.1572265625,7944.10693359375,10729.630859375,19964.376953125,7490.31689453125,-2275.307861328125,8480.548828125,6705.919921875,26206.970703125,6937.185546875,13209.18359375,-5055.2685546875,-8065.70068359375,8567.9697265625,4464.78515625,9394.486328125,6332.3974609375,6543.00048828125,6592.27392578125,4199.34619140625,9938.8759765625,8920.8291015625,8545.7158203125,-13198.05859375,-0.0,0.0,10680.3583984375,7216.1357421875,-1594.2255859375,0.0,13445.2177734375
-2916.65380859375,-8482.138671875,7534.82177734375,10624.7265625,15886.625,16260.9423828125,14172.39453125,13505.6181640625,14004.70703125,10094.642578125,18093.5859375,0.0,13321.240234375,0.0,13109.0478515625,16960.302734375,27589.798828125,13279.1201171875,8879.501953125,6754.3984375,5157.78857421875,15704.6318359375,13801.2568359375,10417.3017578125,0.0,2570.947021484375,7237.59326171875,5346.1396484375,-84.2412338256836,-8003.7119140625,14029.34375,4453.6591796875,10140.736328125,16331.6728515625,10401.408203125,16547.044921875,7003.1484375,10646.18359375,5664.8251953125,-0.0,6287.892578125,13240.9736328125,7963.1806640625,10753.47265625,19982.65625,7509.39013671875,-2261.002685546875,8505.185546875,6726.5830078125,26230.017578125,6954.669921875,13239.3837890625,-5031.4267578125,-8045.83251953125,8572.7373046875,4465.580078125,9405.61328125,6358.62353515625,6553.33203125,6607.37353515625,4221.59814453125,9960.333984375,8938.3125,8556.048828125,-13189.3154296875,-0.0,0.0,10693.8681640625,7222.49365234375,-1575.94677734375,0.0,13461.9072265625
-2911.0908203125,-8501.2119140625,7517.337890625,10616.779296875,15870.7294921875,16256.9677734375,14157.294921875,13496.0810546875,13982.455078125,10072.390625,18084.84375,0.0,13316.4716796875,0.0,13100.306640625,16956.330078125,27578.671875,13267.994140625,8864.40234375,6730.556640625,5142.68896484375,15696.68359375,13788.541015625,10407.765625,0.0,2563.79443359375,7225.67236328125,5342.96044921875,-89.00960540771484,-8049.01123046875,14019.806640625,4440.943359375,10127.2265625,16319.751953125,10387.8974609375,16538.30078125,6988.04833984375,10633.46875,5639.39404296875,-0.0,6269.61376953125,13239.3837890625,7949.669921875,10747.115234375,19964.376953125,7491.90673828125,-2280.87109375,8497.23828125,6713.072265625,26228.427734375,6938.775390625,13233.8212890625,-5058.447265625,-8075.2373046875,8574.326171875,4453.6591796875,9404.0234375,6346.70263671875,6531.8740234375,6595.45263671875,4211.26708984375,9950.796875,8921.623046875,8529.02734375,-13184.5478515625,-0.0,0.0,10663.6689453125,7188.3203125,-1599.7886962890625,0.0,13434.88671875
-2884.070068359375,-8502.80078125,7510.97998046875,10621.5478515625,15868.345703125,16268.0947265625,14155.705078125,13502.4384765625,13980.0712890625,10074.7744140625,18069.744140625,0.0,13308.525390625,0.0,13095.5380859375,16963.482421875,27578.671875,13270.3779296875,8864.40234375,6732.14599609375,5142.68896484375,15701.4521484375,13788.541015625,10411.7392578125,0.0,2570.947021484375,7221.69873046875,5354.88134765625,-82.65177154541016,-8069.67431640625,14021.396484375,4443.32763671875,10123.2529296875,16322.931640625,10387.103515625,16544.66015625,6987.25390625,10638.2373046875,5624.29443359375,-0.0,6265.64013671875,13254.4833984375,7947.28564453125,10757.4462890625,19961.9921875,7495.08544921875,-2290.407958984375,8500.4169921875,6705.12548828125,26244.322265625,6934.8017578125,13241.767578125,-5072.75244140625,-8087.95263671875,8578.30078125,4460.8115234375,9404.818359375,6361.802734375,6531.07958984375,6608.16796875,4215.240234375,9955.5654296875,8920.8291015625,8525.8486328125,-13178.984375,-0.0,0.0,10685.1259765625,7176.3994140625,-1583.099365234375,0.0,13439.6552734375
-2881.68603515625,-8515.517578125,7514.15869140625,10614.3955078125,15868.345703125,16248.2265625,14148.552734375,13484.955078125,13964.17578125,10068.4169921875,18083.25390625,0.0,13308.525390625,0.0,13089.1796875,16935.66796875,27573.904296875,13263.2255859375,8854.0712890625,6721.01953125,5141.099609375,15690.3271484375,13779.00390625,10397.4345703125,0.0,2566.973388671875,7217.72509765625,5327.06591796875,-73.11502838134766,-8029.9375,14014.244140625,4440.943359375,10120.869140625,16316.572265625,10384.71875,16532.740234375,6978.51171875,10623.931640625,5644.95703125,-0.0,6268.8193359375,13241.767578125,7940.92822265625,10735.98828125,19950.072265625,7483.16455078125,-2280.87109375,8494.853515625,6705.12548828125,26210.150390625,6929.23876953125,13217.92578125,-5049.70556640625,-8072.85302734375,8589.4267578125,4421.86962890625,9399.2548828125,6341.13916015625,6524.7216796875,6601.015625,4216.82958984375,9948.4130859375,8908.908203125,8509.953125,-13172.626953125,-0.0,0.0,10693.8681640625,7154.146484375,-1572.767822265625,0.0,13429.32421875
-2914.269775390625,-8546.51171875,7491.90673828125,10576.248046875,15848.478515625,16204.515625,14127.095703125,13447.6025390625,13941.923828125,10047.7529296875,18053.849609375,0.0,13298.1943359375,0.0,13080.4375,16891.95703125,27545.29296875,13233.8212890625,8827.0498046875,6698.76708984375,5115.66796875,15652.1796875,13755.162109375,10363.2607421875,0.0,2535.18408203125,7200.2412109375,5288.9189453125,-98.54634857177734,-8032.32177734375,13983.25,4413.9228515625,10095.4375,16283.9892578125,10360.08203125,16494.591796875,6952.28564453125,10593.7314453125,5619.52587890625,0.0,6252.92431640625,13186.931640625,7921.85498046875,10697.841796875,19929.408203125,7454.55419921875,-2318.22314453125,8455.1171875,6690.025390625,26173.591796875,6914.93359375,13177.39453125,-5049.70556640625,-8084.77392578125,8553.6640625,4387.69677734375,9381.771484375,6306.96630859375,6508.0322265625,6558.89501953125,4196.9619140625,9917.4189453125,8883.4765625,8494.853515625,-13194.083984375,-0.0,0.0,10654.9267578125,7150.96826171875,-1597.404541015625,0.0,13411.83984375
-2954.80078125,-8555.2529296875,7470.44873046875,10569.095703125,15815.099609375,16183.853515625,14101.6640625,13404.6865234375,13899.0087890625,9981.791015625,18025.240234375,0.0,13271.9677734375,0.0,13074.875,16838.708984375,27523.8359375,13207.5947265625,8792.0830078125,6647.90478515625,5087.8525390625,15633.1064453125,13724.16796875,10332.2666015625,0.0,2539.157958984375,7179.578125,5253.15625,-127.95130920410156,-8085.568359375,13959.408203125,4395.6435546875,10073.1845703125,16264.9150390625,10329.0869140625,16471.544921875,6921.29150390625,10556.3798828125,5595.68408203125,0.0,6222.72509765625,13175.0107421875,7893.24462890625,10667.6416015625,19894.44140625,7403.69189453125,-2350.012451171875,8449.5546875,6663.00439453125,26159.287109375,6895.0654296875,13126.5322265625,-5074.34228515625,-8115.7685546875,8517.1064453125,4398.02783203125,9361.107421875,6267.2294921875,6470.68017578125,6478.62744140625,4176.298828125,9889.6025390625,8840.560546875,8440.8125,-13227.462890625,-0.0,0.0,10550.81640625,7117.58935546875,-1718.2032470703125,0.0,13325.21484375
-2946.05908203125,-8561.611328125,7472.0380859375,10563.533203125,15805.5625,16171.9326171875,14089.7431640625,13386.4091796875,13875.9609375,9946.8232421875,18035.5703125,0.0,13264.8154296875,0.0,13061.3642578125,16821.2265625,27519.068359375,13197.2626953125,8776.1875,6617.705078125,5080.69970703125,15626.7490234375,13711.4521484375,10320.345703125,0.0,2506.573974609375,7169.24658203125,5237.26123046875,-141.46168518066406,-8103.05322265625,13952.2548828125,4391.67041015625,10070.0068359375,16261.736328125,10318.755859375,16461.21484375,6905.39697265625,10538.8955078125,5588.53125,0.0,6213.18798828125,13169.4482421875,7881.32373046875,10655.720703125,19876.162109375,7378.26025390625,-2308.6865234375,8443.1962890625,6659.82568359375,26137.033203125,6881.55517578125,13109.0478515625,-5073.54736328125,-8126.89501953125,8524.2587890625,4393.259765625,9360.3134765625,6252.1298828125,6461.1435546875,6452.40185546875,4167.556640625,9874.5029296875,8819.8974609375,8403.4609375,-13248.9208984375,-0.0,0.0,10521.412109375,7093.74755859375,-1769.06591796875,0.0,13277.5302734375
-2925.39599609375,-8556.048828125,7469.654296875,10557.96875,15804.767578125,16174.31640625,14087.359375,13390.3818359375,13883.908203125,9953.181640625,18033.185546875,0.0,13270.3779296875,0.0,13035.93359375,16823.609375,27515.09375,13196.46875,8776.1875,6625.65234375,5080.69970703125,15624.3642578125,13713.0419921875,10321.9345703125,0.0,2497.037109375,7163.68359375,5238.85107421875,-120.00402069091797,-8109.41015625,13950.6650390625,4389.2861328125,10066.0322265625,16258.55859375,10318.755859375,16462.0078125,6905.39697265625,10540.4853515625,5579.78955078125,0.0,6210.80419921875,13168.65234375,7880.5283203125,10658.1044921875,19878.544921875,7382.23388671875,-2321.40234375,8438.427734375,6659.82568359375,26137.033203125,6875.99169921875,13115.40625,-5094.2099609375,-8116.56298828125,8535.384765625,4401.20703125,9358.7236328125,6248.15625,6462.73291015625,6462.73291015625,4161.99365234375,9874.5029296875,8823.0771484375,8411.4072265625,-13231.4365234375,-0.0,0.0,10530.9482421875,7111.2314453125,-1763.502685546875,0.0,13290.24609375
-2911.0908203125,-8546.51171875,7476.806640625,10557.96875,15817.484375,16193.3896484375,14096.896484375,13406.2763671875,13906.1611328125,9977.8173828125,18026.033203125,0.0,13273.556640625,0.0,13035.1376953125,16838.708984375,27523.8359375,13206.0048828125,8791.287109375,6647.10986328125,5089.44189453125,15633.1064453125,13724.16796875,10334.6513671875,0.0,2463.65869140625,7168.45166015625,5251.56640625,-112.8514633178711,-8106.2314453125,13959.408203125,4397.2333984375,10075.5693359375,16264.9150390625,10329.8828125,16473.927734375,6918.1123046875,10555.5849609375,5592.5048828125,0.0,6225.90380859375,13174.2158203125,7889.27099609375,10674.0,19892.056640625,7405.28125,-2320.607421875,8440.017578125,6666.978515625,26150.544921875,6880.76025390625,13131.30078125,-5085.46826171875,-8124.5107421875,8525.8486328125,4438.55908203125,9353.955078125,6247.36181640625,6468.2958984375,6504.05859375,4169.14599609375,9885.62890625,8839.7666015625,8428.0966796875,-13233.8212890625,-0.0,0.0,10569.095703125,7143.8154296875,-1717.4085693359375,0.0,13321.240234375
-2962.748291015625,-8582.2744140625,7439.45458984375,10523.7958984375,15792.0517578125,16184.6484375,14073.8486328125,13389.587890625,13895.03515625,9967.486328125,18018.880859375,0.0,13257.6630859375,0.0,13017.654296875,16811.689453125,27493.634765625,13183.7529296875,8770.625,6633.599609375,5060.83154296875,15613.23828125,13700.326171875,10317.166015625,0.0,2305.507568359375,7148.583984375,5228.51953125,-150.99842834472656,-8114.97412109375,13933.9765625,4363.85498046875,10043.7802734375,16234.716796875,10304.451171875,16454.85546875,6898.244140625,10536.51171875,5549.58984375,0.0,6192.525390625,13161.5,7865.4287109375,10656.515625,19872.189453125,7392.5654296875,-2343.654541015625,8402.6650390625,6647.90478515625,26084.58203125,6856.91845703125,13110.6376953125,-5113.28369140625,-8174.57861328125,8520.28515625,4363.06005859375,9333.29296875,6213.98291015625,6447.63330078125,6496.111328125,4130.9990234375,9863.376953125,8824.666015625,8412.9970703125,-13260.046875,-0.0,0.0,10553.201171875,7129.51025390625,-1719.792724609375,0.0,13309.3193359375
-2946.853515625,-8562.4052734375,7433.09619140625,10549.2275390625,15792.8466796875,16194.978515625,14078.6171875,13409.455078125,13913.3134765625,9992.123046875,18022.85546875,0.0,13257.6630859375,0.0,13014.4755859375,16835.53125,27504.76171875,13194.083984375,8785.724609375,6655.0576171875,5065.60009765625,15627.54296875,13709.8623046875,10332.2666015625,0.0,2498.626708984375,7147.7890625,5257.1298828125,-133.514404296875,-8111.0,13943.5126953125,4375.77587890625,10048.548828125,16249.8154296875,10310.013671875,16469.16015625,6906.986328125,10553.99609375,5559.92138671875,0.0,6190.14111328125,13185.341796875,7867.0185546875,10674.0,19884.904296875,7411.638671875,-2362.72802734375,8428.0966796875,6636.7783203125,26147.365234375,6857.71337890625,13133.685546875,-5095.7998046875,-8157.09423828125,8526.642578125,4320.14453125,9335.6767578125,6253.71923828125,6461.9384765625,6517.56884765625,4155.6357421875,9877.681640625,8841.35546875,8441.607421875,-13223.4892578125,-0.0,0.0,10573.0693359375,7130.3046875,-1691.9771728515625,0.0,13337.1357421875
-2883.275390625,-8520.28515625,7485.54833984375,10584.1953125,15832.58203125,16169.5478515625,14111.99609375,13432.5029296875,13945.1025390625,10022.322265625,18039.544921875,0.0,13284.68359375,0.0,13043.880859375,16876.0625,27540.525390625,13218.720703125,8815.12890625,6686.84619140625,5105.33642578125,15633.9013671875,13738.47265625,10344.982421875,0.0,2641.677734375,7178.783203125,5280.1767578125,-92.18851470947266,-8036.2958984375,13972.9189453125,4417.896484375,10092.2587890625,16279.220703125,10345.7763671875,16474.724609375,6937.185546875,10578.6328125,5591.71044921875,0.0,6243.3876953125,13163.08984375,7904.3701171875,10677.9736328125,19919.873046875,7439.45458984375,-2322.197021484375,8463.859375,6671.74658203125,26197.43359375,6891.091796875,13161.5,-5036.98974609375,-8103.84765625,8546.51171875,4454.4541015625,9363.4921875,6315.7080078125,6496.111328125,6540.61669921875,4215.240234375,9905.4970703125,8871.5556640625,8481.34375,-13201.236328125,-0.0,0.0,10617.57421875,7158.12060546875,-1662.572265625,0.0,13372.8984375
-2881.68603515625,-8539.359375,7500.6484375,10574.658203125,15840.5302734375,16197.36328125,14123.9169921875,13443.62890625,13954.6396484375,10038.216796875,18048.287109375,0.0,13297.3984375,0.0,13057.3916015625,16887.1875,27549.267578125,13232.2314453125,8827.0498046875,6701.1513671875,5113.28369140625,15649.0,13751.189453125,10360.08203125,0.0,2581.278564453125,7193.08837890625,5288.1240234375,-83.44650268554688,-8033.1162109375,13982.455078125,4419.4853515625,10099.4111328125,16284.7841796875,10354.5185546875,16489.82421875,6949.9013671875,10592.9375,5607.60498046875,0.0,6243.3876953125,13178.984375,7916.291015625,10693.0732421875,19930.205078125,7451.37548828125,-2312.66015625,8455.1171875,6689.23046875,26193.4609375,6904.60205078125,13171.037109375,-5044.14208984375,-8055.369140625,8558.4326171875,4428.22802734375,9375.4130859375,6313.32421875,6507.23779296875,6551.74267578125,4205.70361328125,9919.0068359375,8883.4765625,8497.23828125,-13220.310546875,-0.0,0.0,10633.46875,7170.04150390625,-1650.6513671875,0.0,13391.1767578125
-2914.269775390625,-8567.9697265625,7511.7744140625,10583.400390625,15854.0400390625,16218.02734375,14133.453125,13457.9345703125,13958.61328125,10050.9326171875,18049.08203125,0.0,13283.09375,0.0,13063.748046875,16899.904296875,27558.0078125,13247.3310546875,8838.1767578125,6709.0986328125,5128.3837890625,15664.896484375,13763.904296875,10376.7705078125,0.0,2564.58935546875,7201.0361328125,5303.22412109375,-105.69890594482422,-8047.42138671875,13995.1708984375,4424.25390625,10110.537109375,16296.705078125,10367.234375,16507.306640625,6960.2333984375,10605.65234375,5608.39990234375,0.0,6260.8720703125,13202.03125,7927.41796875,10709.7626953125,19937.357421875,7463.29638671875,-2296.765625,8463.0654296875,6697.177734375,26202.201171875,6911.75439453125,13183.7529296875,-5060.037109375,-8030.73193359375,8538.5634765625,4444.9169921875,9373.82421875,6318.09228515625,6512.00634765625,6571.61083984375,4202.52490234375,9930.1337890625,8892.21875,8499.6220703125,-13230.6416015625,-0.0,0.0,10641.416015625,7169.24658203125,-1629.193603515625,0.0,13395.9453125
-2977.053466796875,-8638.69921875,7482.3701171875,10550.81640625,15823.0458984375,16190.2099609375,14110.40625,13434.0927734375,13940.333984375,10027.8857421875,18039.544921875,0.0,13270.3779296875,0.0,13051.033203125,16878.447265625,27530.193359375,13217.1318359375,8815.12890625,6690.025390625,5097.38916015625,15635.490234375,13736.8837890625,10350.544921875,0.0,2520.08447265625,7178.783203125,5277.79248046875,-121.59347534179688,-8079.21142578125,13965.765625,4394.84912109375,10081.1318359375,16266.50390625,10338.6240234375,16481.080078125,6936.39111328125,10581.810546875,5592.5048828125,0.0,6225.10888671875,13168.65234375,7901.19189453125,10685.1259765625,19917.48828125,7442.63330078125,-2312.66015625,8430.48046875,6664.59423828125,26163.259765625,6892.68115234375,13162.294921875,-5076.7265625,-8070.46875,8517.9013671875,4440.943359375,9359.5185546875,6296.634765625,6495.31689453125,6555.7158203125,4175.50439453125,9902.318359375,8872.349609375,8481.34375,-13237.7939453125,-0.0,0.0,10631.87890625,7160.5048828125,-1641.1146240234375,0.0,13371.30859375
-2959.5693359375,-8627.57421875,7479.19091796875,10530.9482421875,15815.8935546875,16184.6484375,14101.6640625,13417.4033203125,13930.7978515625,9999.275390625,18038.75,0.0,13273.556640625,0.0,13054.2119140625,16849.041015625,27523.041015625,13206.7998046875,8800.029296875,6672.541015625,5087.8525390625,15626.7490234375,13727.34765625,10337.830078125,0.0,2502.600341796875,7173.22021484375,5265.0771484375,-128.74603271484375,-8101.46337890625,13957.0234375,4393.259765625,10074.7744140625,16256.9677734375,10329.0869140625,16470.75,6926.8544921875,10566.7109375,5583.76318359375,0.0,6218.75146484375,13159.1162109375,7894.0390625,10677.1787109375,19906.36328125,7421.97021484375,-2322.99169921875,8411.4072265625,6660.6201171875,26142.59765625,6886.3232421875,13140.837890625,-5125.99951171875,-8082.3896484375,8533.794921875,4417.896484375,9357.134765625,6263.255859375,6480.216796875,6525.5166015625,4174.70947265625,9890.3974609375,8854.0712890625,8466.244140625,-13225.078125,-0.0,0.0,10592.142578125,7158.12060546875,-1688.0035400390625,0.0,13344.2880859375
-2911.0908203125,-8522.669921875,7518.92724609375,10574.658203125,15856.4248046875,16225.97265625,14141.400390625,13460.318359375,13964.970703125,10036.6279296875,18084.84375,0.0,13310.9091796875,0.0,13089.1796875,16891.16015625,27561.982421875,13249.71484375,8841.35546875,6705.12548828125,5129.1787109375,15666.484375,13767.0830078125,10379.1552734375,0.0,2547.10498046875,7210.57275390625,5323.88671875,-92.98324584960938,-8054.57421875,13999.939453125,4436.1748046875,10115.3056640625,16296.705078125,10369.6181640625,16510.486328125,6965.00146484375,10607.2421875,5624.29443359375,0.0,6260.8720703125,13199.646484375,7932.18603515625,10720.888671875,19942.91796875,7458.52783203125,-2281.665771484375,8451.9384765625,6703.53564453125,26191.076171875,6924.47021484375,13183.7529296875,-5075.13671875,-8065.70068359375,8576.7109375,4430.6123046875,9392.1025390625,6305.37646484375,6513.595703125,6554.92138671875,4214.44580078125,9930.9287109375,8891.4228515625,8501.2119140625,-13176.6005859375,-0.0,0.0,10621.5478515625,7181.16748046875,-1659.393310546875,0.0,13382.4345703125
-2894.401611328125,-8439.2236328125,7549.126953125,10647.7734375,15896.162109375,16277.6318359375,14181.13671875,13515.94921875,14007.8857421875,10094.642578125,18125.375,0.0,13339.51953125,0.0,13109.8427734375,16960.302734375,27608.076171875,13296.6044921875,8890.62890625,6755.193359375,5172.09375,15720.525390625,13812.3828125,10428.4287109375,0.0,2634.525390625,7247.1298828125,5367.59716796875,-51.6573600769043,-8016.42724609375,14048.4169921875,4475.91162109375,10157.42578125,16349.951171875,10413.3291015625,16562.939453125,7011.890625,10658.1044921875,5678.33544921875,0.0,6296.634765625,13266.404296875,7971.12744140625,10769.3671875,19987.42578125,7513.3642578125,-2276.8974609375,8525.0537109375,6737.708984375,26274.5234375,6958.6435546875,13243.357421875,-5018.7109375,-8021.1953125,8612.4736328125,4487.03759765625,9418.328125,6379.2861328125,6561.279296875,6615.32080078125,4242.26123046875,9977.8173828125,8943.875,8552.07421875,-13146.400390625,-0.0,0.0,10704.2001953125,7216.1357421875,-1575.94677734375,0.0,13453.166015625
-2870.5595703125,-8460.6806640625,7539.59033203125,10651.748046875,15890.5986328125,16271.2724609375,14172.39453125,13499.259765625,13992.7861328125,10084.3115234375,18115.04296875,0.0,13328.392578125,0.0,13097.126953125,16947.587890625,27598.5390625,13289.451171875,8878.7080078125,6744.86181640625,5164.94140625,15717.34765625,13804.435546875,10419.6865234375,0.0,2625.783203125,7239.18310546875,5334.21826171875,-56.42573165893555,-7998.943359375,14039.67578125,4463.19580078125,10149.478515625,16347.56640625,10405.380859375,16556.58203125,7003.1484375,10644.5947265625,5647.34130859375,0.0,6291.8662109375,13267.994140625,7964.7705078125,10757.4462890625,19975.50390625,7502.23779296875,-2264.181884765625,8532.2060546875,6732.9404296875,26261.806640625,6950.6962890625,13228.2568359375,-5033.81103515625,-8031.52734375,8594.1953125,4488.626953125,9410.380859375,6372.9287109375,6558.89501953125,6604.19482421875,4224.77734375,9968.28125,8934.3388671875,8540.1533203125,-13161.5,-0.0,0.0,10694.6630859375,7205.80419921875,-1579.125732421875,0.0,13445.2177734375
-2930.164306640625,-8559.2265625,7472.8330078125,10581.810546875,15831.7890625,16202.9267578125,14119.1484375,13440.4501953125,13936.3603515625,10026.2958984375,18027.625,0.0,13271.9677734375,0.0,13055.0068359375,16889.572265625,27536.55078125,13229.8466796875,8819.8974609375,6690.025390625,5102.15771484375,15652.1796875,13745.6259765625,10358.4931640625,0.0,2515.31591796875,7187.525390625,5278.58740234375,-113.64618682861328,-8046.626953125,13975.302734375,4398.02783203125,10083.5166015625,16282.400390625,10344.982421875,16491.4140625,6944.33837890625,10584.990234375,5599.65771484375,0.0,6231.466796875,13199.646484375,7909.93408203125,10696.251953125,19919.076171875,7442.63330078125,-2317.4287109375,8463.0654296875,6678.1044921875,26173.591796875,6900.62841796875,13168.65234375,-5122.8203125,-8093.51611328125,8520.28515625,4435.38037109375,9366.671875,6303.787109375,6502.4697265625,6543.00048828125,4158.81494140625,9909.470703125,8876.3232421875,8486.9072265625,-13209.18359375,-0.0,0.0,10631.083984375,7154.94140625,-1640.31982421875,0.0,13387.203125
-2970.695556640625,-8610.0888671875,7466.47509765625,10565.9169921875,15823.8408203125,16202.130859375,14112.7900390625,13434.88671875,13933.9765625,10021.52734375,18017.29296875,0.0,13251.3046875,0.0,13052.623046875,16883.21484375,27523.8359375,13221.1044921875,8812.7451171875,6684.4619140625,5091.03173828125,15645.822265625,13739.2685546875,10353.724609375,0.0,2507.368896484375,7185.14111328125,5274.61376953125,-141.46168518066406,-8074.44287109375,13965.765625,4380.5439453125,10071.5947265625,16267.2998046875,10337.03515625,16485.849609375,6939.56982421875,10580.2216796875,5597.2734375,0.0,6221.93017578125,13198.05859375,7904.3701171875,10691.4833984375,19913.515625,7437.0703125,-2338.88623046875,8447.96484375,6674.130859375,26172.001953125,6895.0654296875,13163.8837890625,-5103.7470703125,-8127.689453125,8517.9013671875,4435.38037109375,9360.3134765625,6291.8662109375,6489.75390625,6535.84814453125,4140.53564453125,9904.7021484375,8870.7607421875,8480.548828125,-13234.615234375,-0.0,0.0,10624.7265625,7153.35205078125,-1650.6513671875,0.0,13377.666015625
-2981.82177734375,-8588.6318359375,7461.70654296875,10526.974609375,15819.8681640625,16183.853515625,14104.048828125,13418.197265625,13922.8505859375,9997.685546875,18004.576171875,0.0,13276.736328125,0.0,13051.8271484375,16856.193359375,27508.736328125,13206.7998046875,8800.029296875,6666.18359375,5082.2890625,15624.3642578125,13728.9365234375,10338.6240234375,0.0,2501.010986328125,7179.578125,5261.89794921875,-154.17735290527344,-8068.87890625,13951.4609375,4368.623046875,10062.05859375,16249.021484375,10325.908203125,16469.16015625,6927.64892578125,10566.7109375,5574.2265625,0.0,6218.75146484375,13160.705078125,7899.60205078125,10675.58984375,19903.18359375,7419.5859375,-2353.19140625,8409.8173828125,6676.51513671875,26160.875,6887.91259765625,13143.2216796875,-5129.97314453125,-8131.6630859375,8520.28515625,4418.69091796875,9359.5185546875,6276.76611328125,6477.0380859375,6511.21142578125,4129.40966796875,9891.1923828125,8854.8662109375,8457.5009765625,-13253.6884765625,-0.0,0.0,10580.2216796875,7147.7890625,-1701.513916015625,0.0,13341.109375
-2965.92724609375,-8562.4052734375,7460.1171875,10543.6640625,15807.1513671875,16180.673828125,14100.869140625,13416.607421875,13922.8505859375,9998.48046875,18015.703125,0.0,13287.8623046875,0.0,13055.8017578125,16857.783203125,27511.119140625,13204.4150390625,8800.029296875,6663.00439453125,5079.9052734375,15623.5693359375,13724.16796875,10337.03515625,0.0,2526.4423828125,7172.42578125,5265.0771484375,-121.59347534179688,-8076.8271484375,13949.076171875,4377.365234375,10061.263671875,16252.994140625,10322.73046875,16465.982421875,6922.880859375,10565.9169921875,5570.2529296875,0.0,6211.5986328125,13159.1162109375,7890.8603515625,10673.205078125,19902.38671875,7421.17529296875,-2355.57568359375,8427.302734375,6657.44140625,26159.287109375,6886.3232421875,13143.2216796875,-5146.662109375,-8117.3583984375,8536.974609375,4424.25390625,9369.8505859375,6283.9189453125,6479.421875,6519.953125,4129.40966796875,9885.62890625,8852.4814453125,8451.14453125,-13237.0,-0.0,0.0,10600.08984375,7146.19970703125,-1690.3876953125,0.0,13341.109375
-2964.337646484375,-8570.353515625,7457.7333984375,10527.7705078125,15815.8935546875,16176.7001953125,14112.7900390625,13427.734375,13938.744140625,10017.5546875,18026.033203125,0.0,13295.0146484375,0.0,13066.927734375,16872.087890625,27509.53125,13208.3896484375,8810.361328125,6680.48876953125,5084.67333984375,15620.390625,13734.5,10342.59765625,0.0,2501.010986328125,7185.14111328125,5272.2294921875,-88.21487426757812,-8041.064453125,13950.6650390625,4379.74951171875,10061.263671875,16249.8154296875,10329.8828125,16466.775390625,6935.5966796875,10573.8642578125,5566.27880859375,0.0,6213.98291015625,13142.4267578125,7899.60205078125,10678.7685546875,19914.30859375,7434.68603515625,-2346.038818359375,8408.228515625,6665.388671875,26154.517578125,6898.244140625,13157.52734375,-5120.43603515625,-8128.48388671875,8544.921875,4425.048828125,9386.5390625,6300.6083984375,6492.9326171875,6540.61669921875,4138.15185546875,9892.78125,8866.787109375,8469.421875,-13210.7734375,-0.0,0.0,10626.31640625,7163.68359375,-1658.5985107421875,0.0,13368.923828125
-3000.895263671875,-8610.0888671875,7429.123046875,10511.875,15796.0263671875,16167.958984375,14088.154296875,13420.58203125,13917.287109375,10012.7861328125,17995.0390625,0.0,13260.841796875,0.0,13039.1123046875,16874.470703125,27486.482421875,13187.7255859375,8792.0830078125,6666.978515625,5060.037109375,15605.2900390625,13713.8369140625,10328.29296875,0.0,2489.08984375,7162.09423828125,5264.2822265625,-122.38819885253906,-8078.416015625,13930.7978515625,4349.5498046875,10035.83203125,16229.9482421875,10309.2197265625,16452.470703125,6916.52294921875,10560.353515625,5536.87451171875,0.0,6186.16748046875,13136.0693359375,7875.76025390625,10667.6416015625,19896.03125,7426.73876953125,-2361.138671875,8391.5400390625,6646.31494140625,26148.16015625,6874.40234375,13153.552734375,-5129.1787109375,-8160.2734375,8514.7216796875,4382.13330078125,9351.5712890625,6287.892578125,6471.47509765625,6542.2060546875,4107.1572265625,9876.091796875,8850.8916015625,8456.70703125,-13251.3046875,-0.0,0.0,10670.8212890625,7137.45751953125,-1616.47802734375,0.0,13379.255859375
-3008.0478515625,-8639.4951171875,7419.5859375,10511.0810546875,15782.5146484375,16157.626953125,14070.669921875,13394.35546875,13897.4189453125,9981.791015625,17974.376953125,0.0,13239.3837890625,0.0,13021.6279296875,16835.53125,27473.767578125,13172.626953125,8772.2138671875,6644.7255859375,5047.3212890625,15595.75390625,13696.3525390625,10309.2197265625,0.0,2490.679443359375,7145.40478515625,5238.05615234375,-156.56153869628906,-8114.97412109375,13918.08203125,4334.44970703125,10024.70703125,16220.4111328125,10294.9140625,16439.755859375,6898.244140625,10538.1015625,5519.39013671875,0.0,6177.42529296875,13137.658203125,7859.8662109375,10650.9521484375,19876.162109375,7400.5126953125,-2357.959716796875,8390.744140625,6632.8046875,26137.033203125,6856.12353515625,13121.7646484375,-5156.19921875,-8195.2412109375,8494.853515625,4365.4443359375,9332.498046875,6248.15625,6456.375,6502.4697265625,4080.13671875,9857.0185546875,8826.255859375,8428.0966796875,-13298.1943359375,-0.0,0.0,10581.0166015625,7125.53662109375,-1680.0562744140625,0.0,13339.51953125
-3013.61083984375,-8624.39453125,7425.94384765625,10526.1806640625,15785.6943359375,16160.806640625,14073.8486328125,13389.587890625,13899.0087890625,9972.2548828125,17985.501953125,0.0,13245.7421875,0.0,13023.216796875,16828.37890625,27480.125,13178.984375,8773.009765625,6640.75244140625,5054.4736328125,15601.3173828125,13699.53125,10310.8095703125,0.0,2476.374267578125,7148.583984375,5234.08251953125,-144.64060974121094,-8100.6689453125,13924.439453125,4340.01318359375,10029.4755859375,16227.5634765625,10301.2724609375,16445.318359375,6900.62841796875,10539.69140625,5520.9794921875,0.0,6186.16748046875,13145.6064453125,7866.22314453125,10649.36328125,19876.95703125,7394.15478515625,-2368.291259765625,8406.638671875,6638.3681640625,26129.087890625,6859.302734375,13116.2001953125,-5174.47802734375,-8179.34716796875,8505.98046875,4392.46533203125,9341.240234375,6247.36181640625,6457.96435546875,6480.216796875,4089.673583984375,9859.40234375,8824.666015625,8423.328125,-13298.1943359375,-0.0,0.0,10541.2802734375,7121.56298828125,-1722.9715576171875,0.0,13318.8564453125
-3019.173828125,-8606.9111328125,7422.76513671875,10524.5908203125,15788.078125,16163.1904296875,14073.8486328125,13395.150390625,13894.240234375,9965.896484375,17999.806640625,0.0,13240.177734375,0.0,13023.216796875,16846.65625,27480.125,13180.5732421875,8773.009765625,6635.18896484375,5053.67919921875,15602.111328125,13702.7099609375,10313.193359375,0.0,2480.347900390625,7145.40478515625,5247.5927734375,-151.7931671142578,-8104.64208984375,13924.439453125,4342.39697265625,10029.4755859375,16225.97265625,10305.2451171875,16446.11328125,6899.83349609375,10541.2802734375,5517.80078125,0.0,6191.73046875,13142.4267578125,7865.4287109375,10654.9267578125,19875.3671875,7391.77099609375,-2396.9013671875,8404.2548828125,6633.599609375,26131.470703125,6857.71337890625,13127.3271484375,-5177.65673828125,-8155.50537109375,8491.67578125,4401.20703125,9336.4716796875,6260.0771484375,6453.1962890625,6470.68017578125,4097.62060546875,9863.376953125,8824.666015625,8417.765625,-13275.9404296875,-0.0,0.0,10547.6376953125,7115.205078125,-1730.1241455078125,0.0,13311.7041015625
-3010.431884765625,-8594.990234375,7452.96484375,10542.0751953125,15818.27734375,16191.005859375,14099.2802734375,13431.7080078125,13916.4921875,9998.48046875,18012.5234375,0.0,13259.251953125,0.0,13043.0859375,16894.33984375,27506.3515625,13209.18359375,8801.619140625,6662.2099609375,5083.87890625,15626.7490234375,13728.9365234375,10343.392578125,0.0,2512.13720703125,7167.6572265625,5288.1240234375,-148.61424255371094,-8069.67431640625,13950.6650390625,4363.06005859375,10057.2900390625,16249.021484375,10333.0615234375,16474.724609375,6926.8544921875,10570.685546875,5528.1318359375,0.0,6231.466796875,13167.0634765625,7890.8603515625,10688.3046875,19901.59375,7425.94384765625,-2373.0595703125,8419.3544921875,6658.23583984375,26164.0546875,6879.1708984375,13168.65234375,-5156.19921875,-8143.58447265625,8489.291015625,4440.14892578125,9352.3662109375,6299.01904296875,6473.064453125,6523.92724609375,4110.33642578125,9893.576171875,8854.0712890625,8444.7861328125,-13258.45703125,-0.0,0.0,10604.8583984375,7130.3046875,-1678.466796875,0.0,13353.82421875
-3038.247314453125,-8631.546875,7429.91796875,10528.564453125,15795.23046875,16186.2373046875,14085.76953125,13413.4296875,13907.75,9987.3544921875,17979.14453125,0.0,13267.19921875,0.0,13034.34375,16854.60546875,27487.27734375,13193.2900390625,8788.1083984375,6653.4677734375,5060.037109375,15615.6220703125,13713.0419921875,10333.0615234375,0.0,2445.3798828125,7158.9150390625,5255.54052734375,-141.46168518066406,-8089.54248046875,13935.56640625,4339.21826171875,10033.4482421875,16233.9208984375,10312.3984375,16463.59765625,6914.138671875,10558.7646484375,5507.46923828125,0.0,6182.19384765625,13170.2421875,7876.5556640625,10674.7939453125,19891.26171875,7415.61279296875,-2369.0859375,8407.43359375,6648.69921875,26127.49609375,6868.04443359375,13145.6064453125,-5164.94140625,-8175.373046875,8489.291015625,4347.16552734375,9348.392578125,6261.6669921875,6462.73291015625,6533.4638671875,4086.494384765625,9876.8876953125,8842.9453125,8432.865234375,-13267.19921875,-0.0,0.0,10596.1162109375,7123.947265625,-1682.4404296875,0.0,13340.3134765625
-3036.657958984375,-8664.130859375,7422.76513671875,10523.001953125,15790.462890625,16191.80078125,14081.0009765625,13403.892578125,13902.9814453125,9984.9697265625,17973.58203125,0.0,13263.2255859375,0.0,13031.1650390625,16835.53125,27480.919921875,13189.3154296875,8784.134765625,6648.69921875,5055.2685546875,15620.390625,13710.658203125,10327.498046875,0.0,2461.2744140625,7154.94140625,5243.61962890625,-134.3091278076172,-8145.96826171875,13932.3876953125,4331.2705078125,10027.8857421875,16230.7412109375,10306.041015625,16463.59765625,6909.37060546875,10553.99609375,5516.2109375,0.0,6177.42529296875,13182.9580078125,7872.58154296875,10670.025390625,19884.904296875,7410.84423828125,-2381.801513671875,8402.6650390625,6644.7255859375,26147.365234375,6864.07080078125,13130.505859375,-5178.45166015625,-8216.6982421875,8498.0322265625,4336.833984375,9350.7763671875,6241.79833984375,6458.75927734375,6520.748046875,4076.162841796875,9872.9130859375,8838.970703125,8431.275390625,-13273.556640625,-0.0,0.0,10596.9111328125,7116.79443359375,-1679.2615966796875,0.0,13342.6982421875
-3034.27392578125,-8667.3095703125,7435.48046875,10513.46484375,15805.5625,16166.3681640625,14093.716796875,13414.2236328125,13912.5185546875,9988.1484375,17994.24609375,0.0,13277.5302734375,0.0,13046.2646484375,16866.525390625,27487.27734375,13193.2900390625,8792.876953125,6659.03076171875,5065.60009765625,15606.8798828125,13720.1943359375,10326.703125,0.0,2499.42138671875,7168.45166015625,5261.10302734375,-112.8514633178711,-8095.10498046875,13933.9765625,4340.01318359375,10039.806640625,16229.15234375,10317.166015625,16454.85546875,6920.49658203125,10560.353515625,5537.6689453125,0.0,6199.677734375,13136.0693359375,7886.09228515625,10666.84765625,19897.619140625,7417.9970703125,-2381.801513671875,8395.5126953125,6659.03076171875,26161.669921875,6877.5810546875,13151.1689453125,-5175.2724609375,-8178.5517578125,8505.185546875,4410.74365234375,9370.64453125,6269.61376953125,6468.2958984375,6515.18505859375,4085.699462890625,9876.091796875,8846.1240234375,8447.96484375,-13260.841796875,-0.0,0.0,10608.83203125,7124.7421875,-1671.314208984375,0.0,13357.798828125
-3058.11572265625,-8637.9052734375,7448.1962890625,10529.3583984375,15819.8681640625,16187.826171875,14111.201171875,13434.88671875,13931.591796875,10001.6591796875,18010.138671875,0.0,13279.1201171875,0.0,13056.595703125,16886.392578125,27502.37890625,13208.3896484375,8810.361328125,6675.72021484375,5081.49462890625,15621.185546875,13735.2939453125,10344.982421875,0.0,2474.784912109375,7181.96240234375,5281.7666015625,-111.26200103759766,-8063.31640625,13949.076171875,4353.5234375,10055.701171875,16244.2529296875,10331.4716796875,16471.544921875,6936.39111328125,10578.6328125,5541.642578125,0.0,6210.80419921875,13146.400390625,7900.3974609375,10686.71484375,19915.103515625,7436.275390625,-2381.0068359375,8411.4072265625,6671.74658203125,26163.259765625,6892.68115234375,13172.626953125,-5165.73583984375,-8153.12109375,8509.953125,4447.30126953125,9374.6181640625,6287.892578125,6487.36962890625,6535.05322265625,4089.673583984375,9893.576171875,8864.40234375,8460.6806640625,-13250.509765625,-0.0,0.0,10600.884765625,7151.7626953125,-1668.13525390625,0.0,13364.951171875
-3077.98388671875,-8641.87890625,7442.63330078125,10550.0224609375,15812.7158203125,16201.337890625,14100.869140625,13426.9404296875,13926.8232421875,10005.6337890625,17999.806640625,0.0,13244.15234375,0.0,13039.1123046875,16868.115234375,27500.787109375,13206.7998046875,8804.00390625,6673.3359375,5078.31591796875,15630.7216796875,13727.34765625,10344.1875,0.0,2514.521240234375,7167.6572265625,5276.203125,-144.64060974121094,-8097.4892578125,13949.87109375,4350.34423828125,10051.7275390625,16247.4306640625,10327.498046875,16477.904296875,6928.44384765625,10573.0693359375,5540.84765625,0.0,6209.21484375,13175.0107421875,7889.27099609375,10689.89453125,19906.36328125,7429.91796875,-2391.33837890625,8428.8916015625,6658.23583984375,26158.490234375,6881.55517578125,13157.52734375,-5176.8623046875,-8170.6044921875,8509.953125,4347.9599609375,9343.6240234375,6275.9716796875,6479.421875,6523.13232421875,4078.547119140625,9889.6025390625,8858.83984375,8460.6806640625,-13295.8095703125,-0.0,0.0,10596.1162109375,7145.40478515625,-1677.6719970703125,0.0,13357.798828125
-3049.37353515625,-8633.931640625,7445.017578125,10571.4794921875,15819.8681640625,16191.80078125,14114.3798828125,13442.0390625,13944.30859375,10019.1435546875,18010.138671875,0.0,13254.4833984375,0.0,13053.4169921875,16894.33984375,27509.53125,13213.1572265625,8816.71875,6693.20458984375,5083.87890625,15635.490234375,13738.47265625,10351.33984375,0.0,2611.47802734375,7178.783203125,5287.3291015625,-120.79874420166016,-8083.9794921875,13957.0234375,4360.67578125,10057.2900390625,16259.3515625,10335.4453125,16481.876953125,6941.9541015625,10586.5791015625,5547.20556640625,0.0,6213.98291015625,13176.6005859375,7899.60205078125,10695.45703125,19921.4609375,7444.22314453125,-2388.9541015625,8451.14453125,6666.18359375,26193.4609375,6895.8603515625,13178.984375,-5172.09375,-8154.7099609375,8528.232421875,4440.943359375,9350.7763671875,6307.7607421875,6496.90625,6544.58984375,4103.978515625,9899.1396484375,8873.939453125,8481.34375,-13271.9677734375,-0.0,0.0,10642.2109375,7164.478515625,-1641.9093017578125,0.0,13380.8447265625
-3019.173828125,-8629.9580078125,7454.55419921875,10552.40625,15830.1982421875,16220.4111328125,14127.890625,13461.9072265625,13959.408203125,10039.806640625,18010.138671875,0.0,13283.09375,0.0,13072.490234375,16918.181640625,27518.271484375,13228.2568359375,8833.408203125,6706.71484375,5095.0048828125,15649.7958984375,13752.7783203125,10371.2080078125,0.0,2553.462890625,7193.08837890625,5306.40283203125,-104.10944366455078,-8053.77978515625,13969.7392578125,4369.41748046875,10065.23828125,16264.1201171875,10345.7763671875,16497.76953125,6957.05419921875,10603.2685546875,5539.25830078125,0.0,6219.5458984375,13187.7255859375,7912.318359375,10716.12109375,19936.5625,7463.29638671875,-2353.19140625,8432.865234375,6678.8994140625,26202.201171875,6911.75439453125,13199.646484375,-5167.32568359375,-8145.1728515625,8543.33203125,4467.16943359375,9379.38671875,6324.4501953125,6511.21142578125,6562.07421875,4114.3095703125,9915.0341796875,8890.62890625,8494.0595703125,-13255.2783203125,-0.0,0.0,10652.5419921875,7179.578125,-1618.0673828125,0.0,13403.892578125
-3008.842529296875,-8610.0888671875,7467.27001953125,10545.25390625,15838.94140625,16205.310546875,14132.6591796875,13459.5234375,13954.6396484375,10046.958984375,18041.134765625,0.0,13298.98828125,0.0,13082.02734375,16909.44140625,27523.041015625,13231.4365234375,8834.998046875,6706.71484375,5101.36279296875,15645.02734375,13757.546875,10368.82421875,0.0,2532.800048828125,7202.62548828125,5310.37646484375,-99.34107208251953,-8024.375,13972.9189453125,4374.98095703125,10073.9794921875,16264.1201171875,10352.134765625,16494.591796875,6960.2333984375,10603.2685546875,5539.25830078125,0.0,6229.08251953125,13175.8046875,7918.67529296875,10711.3525390625,19938.9453125,7463.29638671875,-2325.375732421875,8424.91796875,6686.0517578125,26197.43359375,6918.1123046875,13196.46875,-5156.19921875,-8131.6630859375,8551.2802734375,4471.9375,9394.486328125,6321.271484375,6512.80078125,6558.10009765625,4118.28369140625,9922.1865234375,8890.62890625,8492.4697265625,-13237.7939453125,-0.0,0.0,10650.9521484375,7176.3994140625,-1625.219970703125,0.0,13402.302734375
-3080.3681640625,-8645.8525390625,7429.91796875,10511.0810546875,15807.947265625,16150.474609375,14095.306640625,13408.6611328125,13910.9296875,10007.22265625,17975.171875,0.0,13260.841796875,0.0,13053.4169921875,16849.8359375,27480.125,13187.7255859375,8791.287109375,6666.18359375,5064.0107421875,15597.34375,13717.015625,10321.9345703125,0.0,2502.600341796875,7168.45166015625,5253.95068359375,-151.7931671142578,-8063.31640625,13929.2080078125,4327.29736328125,10035.83203125,16220.4111328125,10315.5771484375,16446.11328125,6918.1123046875,10557.1748046875,5506.67431640625,0.0,6201.26708984375,13127.3271484375,7883.7080078125,10656.515625,19897.619140625,7419.5859375,-2365.1123046875,8391.5400390625,6653.4677734375,26154.517578125,6882.349609375,13140.0419921875,-5207.0615234375,-8175.373046875,8502.0068359375,4436.1748046875,9360.3134765625,6270.40869140625,6475.44873046875,6516.7744140625,4059.4736328125,9878.4765625,8848.5078125,8447.96484375,-13278.3251953125,-0.0,0.0,10622.341796875,7139.04736328125,-1661.7774658203125,0.0,13360.1826171875
-3101.82568359375,-8684.7939453125,7373.49169921875,10471.34375,15759.4677734375,16125.0439453125,14060.337890625,13376.8720703125,13884.7041015625,9988.9443359375,17924.30859375,0.0,13217.92578125,0.0,13020.8330078125,16820.431640625,27438.005859375,13151.962890625,8758.7041015625,6642.341796875,5020.30029296875,15564.7587890625,13680.4580078125,10290.9404296875,0.0,2427.10107421875,7131.89453125,5218.18798828125,-176.42974853515625,-8102.2578125,13891.060546875,4287.56103515625,9989.73828125,16179.0849609375,10272.662109375,16412.734375,6884.73388671875,10526.1806640625,5476.474609375,0.0,6144.046875,13101.8955078125,7845.56103515625,10625.521484375,19865.83203125,7392.5654296875,-2423.12744140625,8352.59765625,6606.57861328125,26112.3984375,6848.17626953125,13103.4853515625,-5248.3876953125,-8228.619140625,8471.806640625,4360.67578125,9321.3720703125,6236.2353515625,6449.22265625,6504.05859375,4014.96875,9842.712890625,8822.2822265625,8424.91796875,-13303.7568359375,-0.0,0.0,10598.5,7111.2314453125,-1660.1881103515625,0.0,13349.8505859375
-3077.189208984375,-8673.66796875,7387.00244140625,10494.3916015625,15778.5419921875,16163.984375,14078.6171875,13402.302734375,13906.1611328125,10010.4013671875,17947.35546875,0.0,13231.4365234375,0.0,13027.19140625,16849.8359375,27457.078125,13175.8046875,8781.7509765625,6663.79931640625,5040.1689453125,15596.548828125,13700.326171875,10317.166015625,0.0,2453.3271484375,7146.994140625,5246.7978515625,-139.8722381591797,-8114.97412109375,13914.90234375,4304.25,10005.6337890625,16205.310546875,10293.32421875,16444.525390625,6903.80712890625,10550.81640625,5484.42236328125,0.0,6163.1201171875,13149.5791015625,7863.044921875,10658.1044921875,19886.494140625,7416.4072265625,-2419.948486328125,8376.439453125,6626.447265625,26141.0078125,6863.27587890625,13130.505859375,-5261.89794921875,-8223.056640625,8466.244140625,4356.7021484375,9330.9091796875,6259.28271484375,6462.73291015625,6527.10595703125,4028.47900390625,9865.7607421875,8842.9453125,8453.5283203125,-13285.4775390625,-0.0,0.0,10610.4208984375,7121.56298828125,-1653.0355224609375,0.0,13371.30859375
-3031.8896484375,-8629.9580078125,7444.22314453125,10550.0224609375,15827.0205078125,16210.0791015625,14123.1220703125,13449.986328125,13953.8447265625,10046.1640625,17983.9140625,0.0,13273.556640625,0.0,13059.775390625,16895.13671875,27507.939453125,13225.873046875,8829.4345703125,6704.33056640625,5090.23681640625,15645.822265625,13749.599609375,10365.6455078125,0.0,2539.157958984375,7189.115234375,5295.27685546875,-118.41455841064453,-8052.9853515625,13966.560546875,4351.13916015625,10057.2900390625,16252.994140625,10342.59765625,16493.001953125,6952.28564453125,10598.5,5527.33740234375,0.0,6219.5458984375,13190.9052734375,7908.34423828125,10705.7890625,19932.587890625,7461.70654296875,-2383.39111328125,8431.275390625,6676.51513671875,26187.1015625,6906.19140625,13178.984375,-5226.13525390625,-8182.525390625,8504.390625,4427.43310546875,9364.287109375,6318.09228515625,6506.44287109375,6565.2529296875,4076.162841796875,9913.4443359375,8888.244140625,8496.443359375,-13264.01953125,-0.0,0.0,10654.1318359375,7163.68359375,-1640.31982421875,0.0,13394.35546875
-3037.45263671875,-8628.3681640625,7433.89111328125,10551.6123046875,15813.5087890625,16193.3896484375,14119.1484375,13448.3974609375,13953.0498046875,10044.5751953125,17996.62890625,0.0,13280.708984375,0.0,13060.5693359375,16902.2890625,27502.37890625,13217.1318359375,8823.8720703125,6703.53564453125,5078.31591796875,15631.517578125,13743.2412109375,10360.08203125,0.0,2550.2841796875,7184.3466796875,5295.27685546875,-119.20928955078125,-8037.884765625,13957.0234375,4350.34423828125,10046.958984375,16246.6376953125,10330.6767578125,16480.287109375,6947.517578125,10596.1162109375,5526.54248046875,0.0,6190.935546875,13162.294921875,7901.19189453125,10698.6357421875,19931.79296875,7458.52783203125,-2413.590576171875,8432.0703125,6661.4150390625,26178.359375,6903.80712890625,13181.369140625,-5195.935546875,-8177.75732421875,8524.2587890625,4444.9169921875,9371.439453125,6326.03955078125,6507.23779296875,6566.0478515625,4078.547119140625,9904.7021484375,8885.8603515625,8495.6484375,-13277.5302734375,-0.0,0.0,10650.158203125,7162.88916015625,-1625.219970703125,0.0,13402.302734375
-3083.546875,-8672.873046875,7404.486328125,10510.28515625,15788.078125,16161.6005859375,14092.921875,13415.0185546875,13921.2607421875,10002.4541015625,17971.197265625,0.0,13270.3779296875,0.0,13043.0859375,16870.498046875,27472.97265625,13186.13671875,8794.466796875,6668.56787109375,5048.1162109375,15599.7275390625,13715.4267578125,10329.0869140625,0.0,2498.626708984375,7162.88916015625,5260.30859375,-145.43533325195312,-8065.70068359375,13926.8232421875,4319.349609375,10019.1435546875,16215.642578125,10302.861328125,16450.8828125,6917.31787109375,10562.7373046875,5498.7275390625,0.0,6167.888671875,13128.9169921875,7876.5556640625,10666.052734375,19903.978515625,7421.97021484375,-2419.948486328125,8389.9501953125,6635.98388671875,26137.828125,6879.96533203125,13148.7841796875,-5219.77734375,-8189.67822265625,8501.2119140625,4396.4384765625,9360.3134765625,6289.48193359375,6480.216796875,6516.7744140625,4045.16845703125,9872.119140625,8852.4814453125,8458.296875,-13307.73046875,-0.0,0.0,10580.2216796875,7142.2255859375,-1682.4404296875,0.0,13359.3876953125
-3116.130859375,-8717.3779296875,7402.10205078125,10494.3916015625,15788.8740234375,16160.01171875,14087.359375,13408.6611328125,13910.9296875,9984.9697265625,17953.71484375,0.0,13250.509765625,0.0,13038.3173828125,16864.935546875,27465.025390625,13181.369140625,8787.314453125,6654.2626953125,5043.34765625,15593.369140625,13709.068359375,10321.9345703125,0.0,2485.1162109375,7155.736328125,5261.10302734375,-156.56153869628906,-8089.54248046875,13920.466796875,4311.40283203125,10015.169921875,16206.1064453125,10300.4765625,16445.318359375,6911.75439453125,10553.201171875,5484.42236328125,0.0,6171.06787109375,13123.3525390625,7874.17138671875,10662.873046875,19893.646484375,7410.04931640625,-2400.080322265625,8372.4658203125,6633.599609375,26139.41796875,6874.40234375,13144.0166015625,-5233.28759765625,-8201.599609375,8474.986328125,4397.2333984375,9355.544921875,6283.9189453125,6473.064453125,6493.72705078125,4030.86328125,9864.966796875,8842.9453125,8442.40234375,-13298.1943359375,-0.0,0.0,10558.7646484375,7137.45751953125,-1714.2296142578125,0.0,13336.3408203125
-3120.899169921875,-8710.2255859375,7401.3076171875,10493.595703125,15784.10546875,16154.447265625,14077.822265625,13397.5341796875,13896.625,9969.8701171875,17939.41015625,0.0,13240.177734375,0.0,13034.34375,16843.4765625,27459.462890625,13174.2158203125,8775.3935546875,6639.16259765625,5040.1689453125,15589.396484375,13701.12109375,10313.193359375,0.0,2483.52685546875,7148.583984375,5252.361328125,-164.50881958007812,-8099.0791015625,13914.90234375,4305.83935546875,10010.4013671875,16203.7216796875,10294.1201171875,16437.373046875,6903.0126953125,10544.458984375,5462.96435546875,0.0,6167.888671875,13124.9423828125,7867.0185546875,10654.9267578125,19881.724609375,7395.744140625,-2403.25927734375,8374.8505859375,6629.6259765625,26134.6484375,6866.455078125,13129.7109375,-5251.56640625,-8210.341796875,8461.4755859375,4376.5703125,9351.5712890625,6270.40869140625,6462.73291015625,6473.859375,4014.96875,9857.0185546875,8829.4345703125,8427.302734375,-13308.525390625,-0.0,0.0,10545.25390625,7123.947265625,-1742.0450439453125,0.0,13314.8828125
-3128.0517578125,-8678.4365234375,7416.4072265625,10511.875,15799.9990234375,16171.9326171875,14097.6904296875,13415.8134765625,13915.6982421875,9999.275390625,17970.404296875,0.0,13264.01953125,0.0,13055.0068359375,16853.80859375,27478.537109375,13194.083984375,8796.0556640625,6662.2099609375,5057.65283203125,15609.2646484375,13721.783203125,10333.0615234375,0.0,2491.47412109375,7171.630859375,5265.87158203125,-139.8722381591797,-8076.8271484375,13933.9765625,4320.939453125,10027.8857421875,16222.7958984375,10310.8095703125,16457.23828125,6920.49658203125,10562.7373046875,5501.111328125,0.0,6181.39892578125,13142.4267578125,7885.296875,10669.2314453125,19902.38671875,7420.380859375,-2400.875,8392.333984375,6650.2890625,26147.365234375,6889.501953125,13142.4267578125,-5235.671875,-8195.2412109375,8504.390625,4399.61767578125,9370.64453125,6272.79296875,6487.36962890625,6515.97998046875,4022.916259765625,9876.8876953125,8850.8916015625,8447.96484375,-13294.2197265625,-0.0,0.0,10590.5537109375,7140.63623046875,-1691.1824951171875,0.0,13351.4404296875
-3101.82568359375,-8651.416015625,7427.53369140625,10522.2060546875,15813.5087890625,16194.978515625,14117.55859375,13440.4501953125,13937.9501953125,10031.859375,17991.06640625,0.0,13274.3525390625,0.0,13074.080078125,16884.0078125,27492.046875,13210.7734375,8818.30859375,6689.23046875,5071.1630859375,15626.7490234375,13740.0625,10352.134765625,0.0,2489.884521484375,7189.115234375,5302.42919921875,-135.89859008789062,-8069.67431640625,13948.28125,4331.2705078125,10042.1904296875,16236.3056640625,10326.703125,16476.3125,6940.36474609375,10586.5791015625,5523.36376953125,0.0,6194.90966796875,13158.3212890625,7901.19189453125,10696.251953125,19925.435546875,7446.60693359375,-2392.927978515625,8403.4609375,6662.2099609375,26164.849609375,6910.16552734375,13171.037109375,-5203.08837890625,-8188.8837890625,8518.6962890625,4441.73828125,9380.181640625,6287.892578125,6516.7744140625,6556.5107421875,4041.19482421875,9894.37109375,8876.3232421875,8474.986328125,-13280.708984375,-0.0,0.0,10636.6474609375,7163.68359375,-1628.39892578125,0.0,13398.330078125
-3072.4208984375,-8655.388671875,7429.91796875,10519.822265625,15818.27734375,16194.978515625,14119.9423828125,13444.423828125,13942.71875,10041.396484375,17996.62890625,0.0,13256.8671875,0.0,13076.46484375,16892.751953125,27489.662109375,13209.18359375,8819.103515625,6700.35693359375,5073.54736328125,15622.775390625,13740.857421875,10351.33984375,0.0,2489.08984375,7190.7041015625,5294.48193359375,-141.46168518066406,-8056.9580078125,13948.28125,4329.681640625,10042.9853515625,16234.716796875,10329.0869140625,16475.51953125,6943.5439453125,10589.7587890625,5513.82666015625,0.0,6201.26708984375,13158.3212890625,7905.16552734375,10695.45703125,19927.8203125,7453.759765625,-2378.622802734375,8400.28125,6666.18359375,26168.02734375,6910.9599609375,13177.39453125,-5207.8564453125,-8200.009765625,8506.775390625,4401.20703125,9373.82421875,6304.58203125,6512.80078125,6566.8427734375,4044.3740234375,9894.37109375,8881.091796875,8488.49609375,-13289.451171875,-0.0,0.0,10643.7998046875,7165.27294921875,-1610.914794921875,0.0,13417.4033203125
-3092.2890625,-8672.873046875,7430.71240234375,10536.51171875,15821.45703125,16183.0576171875,14111.201171875,13422.9658203125,13925.234375,10016.7587890625,17992.654296875,0.0,13238.5888671875,0.0,13066.927734375,16871.294921875,27489.662109375,13204.4150390625,8806.3876953125,6678.8994140625,5074.34228515625,15621.185546875,13735.2939453125,10339.4189453125,0.0,2515.31591796875,7186.73095703125,5249.97705078125,-152.587890625,-8068.87890625,13945.8974609375,4330.47607421875,10042.9853515625,16241.0732421875,10325.908203125,16467.5703125,6932.41748046875,10573.0693359375,5511.44287109375,0.0,6206.83056640625,13167.0634765625,7900.3974609375,10675.58984375,19913.515625,7433.89111328125,-2381.0068359375,8416.970703125,6670.95166015625,26167.234375,6902.2177734375,13153.552734375,-5218.18798828125,-8190.47265625,8502.0068359375,4401.20703125,9364.287109375,6295.83984375,6487.36962890625,6546.97412109375,4053.11572265625,9885.62890625,8862.0185546875,8463.859375,-13295.0146484375,-0.0,0.0,10630.2900390625,7150.96826171875,-1651.446044921875,0.0,13376.8720703125
-3120.899169921875,-8674.4619140625,7415.61279296875,10526.1806640625,15802.3837890625,16172.7275390625,14093.716796875,13412.634765625,13912.5185546875,9998.48046875,17945.765625,0.0,13224.2841796875,0.0,13047.8544921875,16862.55078125,27477.7421875,13189.3154296875,8791.287109375,6662.2099609375,5059.2421875,15608.4697265625,13718.60546875,10328.29296875,0.0,2504.189697265625,7166.0673828125,5247.5927734375,-166.09828186035156,-8091.9267578125,13930.7978515625,4319.349609375,10025.5009765625,16229.15234375,10310.8095703125,16454.060546875,6917.31787109375,10559.55859375,5497.1376953125,0.0,6193.31982421875,13155.9375,7883.7080078125,10665.2578125,19897.619140625,7418.79150390625,-2421.5380859375,8407.43359375,6651.87841796875,26152.9296875,6883.14453125,13145.6064453125,-5234.876953125,-8203.9833984375,8454.3232421875,4367.03369140625,9363.4921875,6271.20361328125,6472.26953125,6538.232421875,4045.96337890625,9870.529296875,8847.7138671875,8441.607421875,-13298.1943359375,-0.0,0.0,10617.57421875,7140.63623046875,-1667.340576171875,0.0,13351.4404296875
-3110.56787109375,-8672.078125,7416.4072265625,10511.0810546875,15796.8193359375,16163.984375,14091.33203125,13407.0712890625,13913.3134765625,9991.328125,17956.892578125,0.0,13264.8154296875,0.0,13050.23828125,16851.42578125,27474.5625,13185.341796875,8788.1083984375,6657.44140625,5055.2685546875,15600.5224609375,13715.4267578125,10322.73046875,0.0,2482.732177734375,7166.8623046875,5248.3876953125,-152.587890625,-8087.158203125,13925.234375,4314.58154296875,10024.70703125,16222.7958984375,10306.041015625,16449.29296875,6915.72802734375,10554.7900390625,5486.01171875,0.0,6188.55126953125,13139.248046875,7882.91259765625,10660.4892578125,19894.44140625,7412.43359375,-2408.027587890625,8390.744140625,6651.87841796875,26138.625,6877.5810546875,13138.453125,-5247.5927734375,-8211.9306640625,8494.0595703125,4362.26513671875,9371.439453125,6268.8193359375,6470.68017578125,6517.56884765625,4034.837158203125,9864.966796875,8845.3291015625,8438.427734375,-13302.1669921875,-0.0,0.0,10581.0166015625,7142.2255859375,-1695.9508056640625,0.0,13337.1357421875
-3086.725830078125,-8690.357421875,7415.61279296875,10503.1328125,15796.0263671875,16170.34375,14092.921875,13416.607421875,13918.08203125,10001.6591796875,17979.939453125,0.0,13303.7568359375,0.0,13041.49609375,16864.140625,27474.5625,13190.9052734375,8794.466796875,6663.79931640625,5053.67919921875,15603.701171875,13719.3994140625,10327.498046875,0.0,2486.705810546875,7165.27294921875,5259.513671875,-127.95130920410156,-8083.18408203125,13929.2080078125,4313.787109375,10025.5009765625,16223.5888671875,10306.8349609375,16454.85546875,6920.49658203125,10561.943359375,5489.1904296875,-0.0,6178.22021484375,13136.0693359375,7882.1181640625,10669.2314453125,19899.2109375,7421.97021484375,-2398.490966796875,8382.796875,6652.67333984375,26145.77734375,6875.99169921875,13147.990234375,-5249.97705078125,-8211.1357421875,8527.4384765625,4394.05419921875,9353.1611328125,6287.09814453125,6477.8330078125,6517.56884765625,4038.015869140625,9872.9130859375,8850.8916015625,8451.9384765625,-13291.8359375,-0.0,0.0,10603.2685546875,7140.63623046875,-1685.619384765625,0.0,13354.619140625
-3081.95751953125,-8699.099609375,7405.28125,10513.46484375,15789.6669921875,16171.13671875,14089.7431640625,13418.9921875,13923.64453125,10011.1962890625,17962.455078125,0.0,13262.4306640625,0.0,13032.75390625,16860.9609375,27471.384765625,13189.3154296875,8795.26171875,6672.541015625,5050.50048828125,15603.701171875,13715.4267578125,10329.8828125,0.0,2500.21630859375,7153.35205078125,5261.89794921875,-128.74603271484375,-8080.80029296875,13929.2080078125,4312.197265625,10019.1435546875,16222.7958984375,10304.451171875,16454.85546875,6918.1123046875,10565.1220703125,5477.26953125,-0.0,6177.42529296875,13140.837890625,7875.76025390625,10670.8212890625,19903.18359375,7427.53369140625,-2425.51171875,8392.333984375,6632.009765625,26153.72265625,6872.0185546875,13147.1953125,-5254.74560546875,-8192.8564453125,8491.67578125,4413.1279296875,9338.0615234375,6286.30322265625,6481.80615234375,6530.28466796875,4036.426513671875,9875.2978515625,8854.8662109375,8459.8857421875,-13295.8095703125,-0.0,0.0,10618.369140625,7155.736328125,-1664.9564208984375,0.0,13366.5400390625
-3089.90478515625,-8669.6943359375,7418.79150390625,10538.8955078125,15806.3564453125,16187.0322265625,14102.458984375,13431.7080078125,13936.3603515625,10023.9111328125,17967.224609375,0.0,13258.45703125,0.0,13051.8271484375,16876.85546875,27485.689453125,13205.2109375,8807.9765625,6686.84619140625,5066.39501953125,15620.390625,13729.7314453125,10345.7763671875,0.0,2515.31591796875,7170.04150390625,5274.61376953125,-153.3826141357422,-8068.87890625,13945.1025390625,4326.50244140625,10034.2431640625,16240.2783203125,10321.140625,16469.16015625,6931.623046875,10577.837890625,5497.9326171875,0.0,6197.2939453125,13162.294921875,7890.0654296875,10683.5361328125,19914.30859375,7440.2490234375,-2419.948486328125,8419.3544921875,6648.69921875,26168.82421875,6888.70751953125,13159.1162109375,-5230.90380859375,-8167.42626953125,8498.828125,4412.3330078125,9349.1865234375,6291.0712890625,6484.9853515625,6548.5634765625,4041.19482421875,9892.78125,8869.1708984375,8474.1904296875,-13309.3193359375,-0.0,0.0,10619.9580078125,7166.0673828125,-1656.21435546875,0.0,13378.4609375
-3103.415283203125,-8673.66796875,7409.25439453125,10527.7705078125,15799.9990234375,16190.2099609375,14102.458984375,13437.271484375,13928.4130859375,10020.732421875,17988.681640625,0.0,13269.583984375,0.0,13055.8017578125,16893.544921875,27482.509765625,13203.62109375,8810.361328125,6684.4619140625,5060.037109375,15621.185546875,13728.9365234375,10347.3662109375,0.0,2511.34228515625,7172.42578125,5283.35546875,-138.28277587890625,-8068.0849609375,13941.12890625,4321.73388671875,10027.8857421875,16236.3056640625,10316.3720703125,16471.544921875,6932.41748046875,10580.2216796875,5498.7275390625,0.0,6175.8359375,13161.5,7890.8603515625,10689.099609375,19912.71875,7441.8388671875,-2408.027587890625,8410.61328125,6651.08349609375,26171.20703125,6890.296875,13171.037109375,-5208.65087890625,-8223.056640625,8518.6962890625,4402.001953125,9359.5185546875,6297.4296875,6482.60107421875,6549.3583984375,4038.810791015625,9894.37109375,8866.787109375,8472.6015625,-13276.736328125,-0.0,0.0,10632.673828125,7150.17333984375,-1649.8565673828125,0.0,13382.4345703125
-3095.4677734375,-8652.2099609375,7434.68603515625,10550.0224609375,15823.8408203125,16216.4365234375,14123.1220703125,13469.85546875,13953.8447265625,10050.9326171875,17984.708984375,0.0,13295.0146484375,0.0,13063.748046875,16933.283203125,27507.939453125,13225.873046875,8836.5869140625,6710.68798828125,5086.26318359375,15645.02734375,13752.7783203125,10373.5927734375,0.0,2532.00537109375,7189.90966796875,5316.734375,-104.10944366455078,-8051.3955078125,13965.765625,4345.57568359375,10052.521484375,16259.3515625,10340.2138671875,16496.181640625,6956.25927734375,10611.216796875,5532.10595703125,0.0,6202.8564453125,13184.5478515625,7911.52294921875,10719.298828125,19936.5625,7472.8330078125,-2393.72265625,8432.0703125,6666.18359375,26198.228515625,6906.19140625,13208.3896484375,-5196.72998046875,-8205.5732421875,8528.232421875,4450.47998046875,9374.6181640625,6338.75537109375,6517.56884765625,6585.12109375,4064.241943359375,9918.212890625,8892.21875,8500.4169921875,-13245.7421875,-0.0,0.0,10693.8681640625,7179.578125,-1597.404541015625,0.0,13414.2236328125
-3119.3095703125,-8681.615234375,7414.02294921875,10507.1064453125,15800.794921875,16175.9052734375,14096.896484375,13427.734375,13927.619140625,10011.1962890625,17949.740234375,0.0,13269.583984375,0.0,13047.8544921875,16875.267578125,27476.9453125,13195.673828125,8802.4140625,6678.1044921875,5058.447265625,15608.4697265625,13724.16796875,10336.240234375,0.0,2473.990234375,7167.6572265625,5267.46142578125,-131.13021850585938,-8071.26318359375,13934.771484375,4316.9658203125,10025.5009765625,16225.1796875,10312.3984375,16458.830078125,6926.0595703125,10571.4794921875,5500.31640625,0.0,6182.98876953125,13140.837890625,7887.68115234375,10677.1787109375,19907.951171875,7433.09619140625,-2408.027587890625,8389.1552734375,6646.31494140625,26148.955078125,6885.5283203125,13159.9111328125,-5245.208984375,-8218.2880859375,8494.0595703125,4417.1015625,9362.697265625,6291.0712890625,6493.72705078125,6535.05322265625,4029.27392578125,9883.244140625,8860.4287109375,8463.859375,-13290.24609375,-0.0,0.0,10616.779296875,7160.5048828125,-1666.5458984375,0.0,13361.771484375
-3107.388671875,-8675.2578125,7425.94384765625,10518.2333984375,15814.3046875,16186.2373046875,14108.021484375,13437.271484375,13933.181640625,10016.7587890625,17971.197265625,0.0,13277.5302734375,0.0,13060.5693359375,16884.0078125,27487.27734375,13208.3896484375,8811.15625,6688.43603515625,5069.57373046875,15621.185546875,13736.0888671875,10347.3662109375,0.0,2492.268798828125,7178.783203125,5274.61376953125,-115.23564910888672,-8059.34228515625,13945.8974609375,4328.88671875,10037.421875,16235.509765625,10324.3193359375,16469.955078125,6935.5966796875,10581.0166015625,5499.52197265625,0.0,6197.2939453125,13155.142578125,7898.8076171875,10686.71484375,19916.693359375,7444.22314453125,-2388.9541015625,8400.28125,6662.2099609375,26160.875,6895.8603515625,13171.037109375,-5245.208984375,-8215.109375,8494.853515625,4409.154296875,9373.82421875,6294.25048828125,6500.08544921875,6559.68994140625,4041.19482421875,9895.1650390625,8869.9658203125,8474.986328125,-13279.9150390625,-0.0,0.0,10630.2900390625,7158.12060546875,-1657.0091552734375,0.0,13375.2822265625
-3101.82568359375,-8690.357421875,7407.6650390625,10511.875,15797.615234375,16178.2890625,14088.154296875,13427.734375,13902.9814453125,10008.017578125,17956.892578125,0.0,13258.45703125,0.0,13035.93359375,16886.392578125,27472.177734375,13193.2900390625,8795.26171875,6667.77294921875,5055.2685546875,15610.8544921875,13717.810546875,10333.85546875,0.0,2507.368896484375,7162.09423828125,5269.845703125,-136.6933135986328,-8088.748046875,13930.7978515625,4311.40283203125,10021.52734375,16222.7958984375,10306.8349609375,16458.830078125,6918.1123046875,10567.505859375,5478.85888671875,0.0,6182.19384765625,13153.552734375,7879.73388671875,10677.9736328125,19896.03125,7432.3017578125,-2414.385498046875,8392.333984375,6643.13671875,26153.72265625,6874.40234375,13167.8583984375,-5259.513671875,-8230.208984375,8499.6220703125,4389.2861328125,9353.955078125,6291.0712890625,6479.421875,6556.5107421875,4019.7373046875,9876.8876953125,8852.4814453125,8453.5283203125,-13294.2197265625,-0.0,0.0,10644.5947265625,7123.947265625,-1629.98828125,0.0,13373.6923828125
-3101.031005859375,-8708.63671875,7386.20751953125,10492.0068359375,15777.74609375,16160.806640625,14069.875,13407.0712890625,13883.1142578125,9992.9169921875,17936.23046875,0.0,13244.15234375,0.0,13014.4755859375,16859.373046875,27452.310546875,13173.4208984375,8776.982421875,6652.67333984375,5036.98974609375,15589.396484375,13697.1474609375,10314.7822265625,0.0,2482.732177734375,7141.43115234375,5255.54052734375,-166.09828186035156,-8111.0,13911.7236328125,4293.12353515625,10003.2490234375,16202.9267578125,10290.1455078125,16440.55078125,6897.44970703125,10550.0224609375,5453.427734375,0.0,6161.53076171875,13133.685546875,7859.8662109375,10660.4892578125,19876.95703125,7407.6650390625,-2435.84326171875,8371.6708984375,6625.65234375,26140.212890625,6855.3291015625,13141.6318359375,-5276.998046875,-8250.873046875,8491.67578125,4386.10693359375,9330.11328125,6279.150390625,6453.1962890625,6512.80078125,3999.074462890625,9856.2236328125,8833.408203125,8436.8388671875,-13319.6513671875,-0.0,0.0,10598.5,7104.87353515625,-1660.9827880859375,0.0,13360.1826171875
-3098.64697265625,-8683.205078125,7413.228515625,10495.98046875,15799.9990234375,16168.7529296875,14092.1279296875,13417.4033203125,13916.4921875,10012.7861328125,17962.455078125,0.0,13252.0986328125,0.0,13039.90625,16857.783203125,27471.384765625,13190.9052734375,8796.0556640625,6678.1044921875,5056.85791015625,15599.7275390625,13717.015625,10328.29296875,0.0,2462.864013671875,7160.5048828125,5260.30859375,-149.4089813232422,-8074.44287109375,13930.7978515625,4311.40283203125,10023.9111328125,16218.02734375,10310.8095703125,16454.060546875,6917.31787109375,10565.1220703125,5478.06396484375,0.0,6185.373046875,13133.685546875,7881.32373046875,10668.4365234375,19900.00390625,7425.1494140625,-2401.669677734375,8376.439453125,6646.31494140625,26148.16015625,6877.5810546875,13145.6064453125,-5261.10302734375,-8214.314453125,8506.775390625,4407.564453125,9344.4189453125,6283.12451171875,6477.0380859375,6518.36376953125,4015.763671875,9876.8876953125,8855.66015625,8465.44921875,-13304.55078125,-0.0,0.0,10601.6796875,7147.7890625,-1667.340576171875,0.0,13374.48828125
-3085.93115234375,-8652.2099609375,7444.22314453125,10527.7705078125,15825.4296875,16203.7216796875,14117.55859375,13438.0654296875,13940.333984375,10027.8857421875,17984.708984375,0.0,13275.146484375,0.0,13066.927734375,16877.650390625,27503.171875,13221.900390625,8820.693359375,6693.9990234375,5084.67333984375,15634.6953125,13746.4208984375,10357.697265625,0.0,2446.96923828125,7186.73095703125,5276.998046875,-112.8514633178711,-8045.037109375,13961.7919921875,4339.21826171875,10053.3173828125,16250.6103515625,10337.03515625,16486.64453125,6942.7490234375,10587.375,5512.2373046875,0.0,6210.80419921875,13177.39453125,7907.5498046875,10696.251953125,19923.845703125,7445.81201171875,-2369.0859375,8409.0234375,6670.15673828125,26169.619140625,6903.0126953125,13161.5,-5218.98291015625,-8180.93603515625,8518.6962890625,4425.048828125,9369.8505859375,6295.83984375,6501.6748046875,6545.384765625,4047.552490234375,9907.8818359375,8877.1181640625,8478.958984375,-13267.994140625,-0.0,0.0,10623.1376953125,7170.04150390625,-1657.8038330078125,0.0,13378.4609375
-3139.177978515625,-8693.5361328125,7413.228515625,10511.875,15796.8193359375,16198.9541015625,14089.7431640625,13415.8134765625,13905.3662109375,9998.48046875,17944.970703125,0.0,13248.1259765625,0.0,13040.7021484375,16856.98828125,27477.7421875,13199.646484375,8794.466796875,6662.2099609375,5059.2421875,15625.158203125,13720.9892578125,10338.6240234375,0.0,2426.306396484375,7159.7099609375,5257.92431640625,-170.07191467285156,-8102.2578125,13938.744140625,4312.197265625,10026.2958984375,16229.15234375,10310.8095703125,16472.33984375,6917.31787109375,10564.3271484375,5482.83251953125,0.0,6182.19384765625,13185.341796875,7877.349609375,10680.3583984375,19894.44140625,7418.79150390625,-2410.411865234375,8392.333984375,6639.16259765625,26155.314453125,6874.40234375,13140.0419921875,-5242.82470703125,-8224.646484375,8474.1904296875,4366.2392578125,9343.6240234375,6268.0244140625,6469.88525390625,6521.54296875,4017.35302734375,9886.423828125,8846.1240234375,8444.7861328125,-13312.4990234375,-0.0,0.0,10604.064453125,7132.68896484375,-1686.4140625,0.0,13349.8505859375
-3137.58837890625,-8689.5625,7417.9970703125,10515.8486328125,15808.740234375,16188.62109375,14098.4853515625,13426.14453125,13920.466796875,10011.1962890625,17981.529296875,0.0,13272.7626953125,0.0,13055.0068359375,16873.677734375,27484.09765625,13204.4150390625,8802.4140625,6674.130859375,5065.60009765625,15623.5693359375,13729.7314453125,10339.4189453125,0.0,2538.36328125,7170.04150390625,5270.64013671875,-143.0511474609375,-8094.310546875,13942.71875,4317.76025390625,10032.654296875,16230.7412109375,10320.345703125,16470.75,6926.8544921875,10572.2744140625,5498.7275390625,0.0,6193.31982421875,13165.4736328125,7889.27099609375,10683.5361328125,19906.36328125,7430.71240234375,-2413.590576171875,8395.5126953125,6651.08349609375,26164.849609375,6886.3232421875,13155.142578125,-5250.77197265625,-8203.9833984375,8496.443359375,4399.61767578125,9361.107421875,6281.53466796875,6482.60107421875,6534.25830078125,4019.7373046875,9891.9873046875,8858.83984375,8459.0908203125,-13302.1669921875,-0.0,0.0,10615.9853515625,7148.583984375,-1667.340576171875,0.0,13367.3349609375
-3079.573486328125,-8649.03125,7458.52783203125,10532.5380859375,15848.478515625,16191.80078125,14134.248046875,13457.9345703125,13959.408203125,10047.7529296875,18015.703125,0.0,13302.1669921875,0.0,13086.0009765625,16915.798828125,27512.708984375,13232.2314453125,8834.998046875,6711.48291015625,5098.978515625,15634.6953125,13760.7255859375,10364.849609375,0.0,2557.436767578125,7203.419921875,5296.86572265625,-95.367431640625,-8018.0166015625,13971.3291015625,4352.728515625,10066.0322265625,16252.19921875,10352.9287109375,16488.234375,6960.2333984375,10604.064453125,5528.9267578125,0.0,6236.2353515625,13147.990234375,7925.828125,10703.404296875,19942.91796875,7464.0908203125,-2381.801513671875,8411.4072265625,6694.7939453125,26168.02734375,6919.7021484375,13193.2900390625,-5220.57177734375,-8159.47802734375,8524.2587890625,4458.42724609375,9396.076171875,6318.88720703125,6519.15869140625,6560.484375,4057.08935546875,9916.623046875,8895.3974609375,8499.6220703125,-13270.3779296875,-0.0,0.0,10655.720703125,7181.96240234375,-1624.42529296875,0.0,13409.455078125
-3125.66748046875,-8723.7353515625,7403.69189453125,10486.443359375,15794.435546875,16158.4228515625,14086.564453125,13408.6611328125,13910.134765625,9982.5859375,17950.53515625,0.0,13244.9462890625,0.0,13039.1123046875,16867.318359375,27460.255859375,13184.5478515625,8786.51953125,6653.4677734375,5047.3212890625,15592.5751953125,13711.4521484375,10318.755859375,0.0,2479.55322265625,7156.53076171875,5252.361328125,-162.1246337890625,-8083.18408203125,13921.2607421875,4296.302734375,10013.580078125,16205.310546875,10302.06640625,16446.11328125,6911.75439453125,10555.5849609375,5462.16943359375,0.0,6179.8095703125,13117.7900390625,7874.9658203125,10660.4892578125,19893.646484375,7406.076171875,-2457.30078125,8365.3134765625,6640.75244140625,26125.908203125,6872.0185546875,13144.0166015625,-5266.66650390625,-8235.7724609375,8471.01171875,4373.3916015625,9353.1611328125,6266.43505859375,6473.859375,6490.548828125,3999.074462890625,9872.119140625,8842.150390625,8435.2490234375,-13331.572265625,-0.0,0.0,10587.375,7143.0205078125,-1710.2559814453125,0.0,13329.982421875
-3141.562255859375,-8738.8349609375,7376.6708984375,10483.2646484375,15768.208984375,16140.9375,14068.2861328125,13395.150390625,13896.625,9972.2548828125,17914.771484375,0.0,13221.1044921875,0.0,13020.0390625,16849.8359375,27442.7734375,13164.6796875,8769.03515625,6639.95751953125,5027.453125,15575.8857421875,13692.37890625,10304.451171875,0.0,2476.374267578125,7138.25244140625,5243.61962890625,-187.5559539794922,-8107.8212890625,13901.392578125,4278.81884765625,9992.123046875,16189.4169921875,10280.609375,16430.21875,6892.68115234375,10538.8955078125,5446.275390625,0.0,6150.404296875,13108.25390625,7854.30224609375,10644.5947265625,19876.162109375,7394.15478515625,-2457.30078125,8362.1337890625,6620.8837890625,26139.41796875,6855.3291015625,13128.9169921875,-5290.50830078125,-8250.873046875,8452.7333984375,4375.77587890625,9333.29296875,6258.48779296875,6459.55419921875,6486.57470703125,3978.4111328125,9853.0458984375,8825.4609375,8423.328125,-13334.7509765625,-0.0,0.0,10571.4794921875,7130.3046875,-1715.8189697265625,0.0,13320.4462890625
-3116.925537109375,-8697.509765625,7402.10205078125,10515.0537109375,15792.8466796875,16171.13671875,14094.51171875,13422.9658203125,13926.8232421875,10016.7587890625,17962.455078125,0.0,13249.71484375,0.0,13045.470703125,16869.703125,27471.384765625,13193.2900390625,8798.4404296875,6676.51513671875,5054.4736328125,15606.8798828125,13719.3994140625,10333.85546875,0.0,2504.984619140625,7162.88916015625,5268.255859375,-143.0511474609375,-8080.80029296875,13930.7978515625,4308.2236328125,10020.732421875,16218.8203125,10308.4248046875,16458.03515625,6923.67578125,10569.8896484375,5492.369140625,0.0,6171.06787109375,13142.4267578125,7878.939453125,10673.205078125,19904.771484375,7430.71240234375,-2408.027587890625,8392.333984375,6636.7783203125,26163.259765625,6881.55517578125,13153.552734375,-5255.54052734375,-8225.44140625,8498.0322265625,4407.564453125,9350.7763671875,6289.48193359375,6482.60107421875,6540.61669921875,4009.405517578125,9879.271484375,8858.044921875,8464.654296875,-13299.783203125,-0.0,0.0,10615.189453125,7147.7890625,-1660.1881103515625,0.0,13372.8984375
-3153.483154296875,-8724.5302734375,7390.18115234375,10496.775390625,15779.3369140625,16159.2158203125,14081.0009765625,13412.634765625,13913.3134765625,10006.427734375,17937.025390625,0.0,13239.3837890625,0.0,13039.90625,16868.91015625,27456.283203125,13181.369140625,8786.51953125,6670.95166015625,5041.75830078125,15595.75390625,13706.6845703125,10321.9345703125,0.0,2481.9375,7150.17333984375,5257.1298828125,-143.8458709716797,-8101.46337890625,13915.6982421875,4293.12353515625,10004.837890625,16205.310546875,10294.1201171875,16444.525390625,6912.54931640625,10560.353515625,5475.6796875,0.0,6159.94140625,13131.30078125,7866.22314453125,10662.0791015625,19893.646484375,7421.17529296875,-2429.4853515625,8376.439453125,6619.29443359375,26142.59765625,6870.4287109375,13145.6064453125,-5272.2294921875,-8250.0771484375,8459.0908203125,4374.18603515625,9339.650390625,6281.53466796875,6471.47509765625,6533.4638671875,3983.974365234375,9866.5556640625,8847.7138671875,8460.6806640625,-13312.4990234375,-0.0,0.0,10625.521484375,7134.27880859375,-1644.29345703125,0.0,13380.8447265625
-3139.177978515625,-8734.8623046875,7414.02294921875,10518.2333984375,15808.740234375,16193.3896484375,14100.869140625,13452.37109375,13926.8232421875,10019.9384765625,17943.3828125,0.0,13244.9462890625,0.0,13056.595703125,16935.66796875,27479.330078125,13204.4150390625,8811.15625,6689.23046875,5066.39501953125,15620.390625,13731.3203125,10349.7509765625,0.0,2509.7529296875,7170.8359375,5304.8134765625,-140.66696166992188,-8091.13232421875,13937.9501953125,4315.37646484375,10029.4755859375,16228.357421875,10320.345703125,16471.544921875,6934.00732421875,10588.1689453125,5492.369140625,0.0,6194.11474609375,13157.52734375,7891.65478515625,10697.841796875,19912.71875,7448.9912109375,-2431.074951171875,8399.486328125,6645.5205078125,26179.94921875,6890.296875,13200.4423828125,-5251.56640625,-8233.3876953125,8451.9384765625,4399.61767578125,9357.134765625,6326.833984375,6487.36962890625,6563.66357421875,3995.8955078125,9893.576171875,8870.7607421875,8480.548828125,-13306.935546875,-0.0,0.0,10682.7421875,7138.25244140625,-1595.8150634765625,0.0,13414.2236328125
-3074.804931640625,-8707.8408203125,7460.912109375,10553.99609375,15854.0400390625,16222.0,14141.400390625,13477.802734375,13958.61328125,10048.548828125,17999.806640625,0.0,13283.888671875,0.0,13093.154296875,16945.203125,27520.65625,13243.357421875,8846.1240234375,6717.8408203125,5110.8994140625,15655.359375,13769.4677734375,10382.3349609375,0.0,2526.4423828125,7213.75146484375,5323.88671875,-110.46727752685547,-8021.99072265625,13979.275390625,4355.9072265625,10074.7744140625,16268.888671875,10362.4658203125,16506.513671875,6969.77001953125,10619.9580078125,5536.07958984375,0.0,6242.59326171875,13189.3154296875,7932.98046875,10724.8623046875,19947.6875,7477.6015625,-2359.54931640625,8435.2490234375,6693.20458984375,26197.43359375,6929.23876953125,13221.900390625,-5211.03515625,-8192.8564453125,8525.0537109375,4424.25390625,9402.4345703125,6345.90771484375,6522.33740234375,6581.1474609375,4046.758056640625,9930.9287109375,8904.1396484375,8505.185546875,-13274.3525390625,-0.0,0.0,10667.6416015625,7174.01513671875,-1612.50439453125,0.0,13418.197265625
-3102.620361328125,-8713.404296875,7421.17529296875,10517.4375,15815.099609375,16187.0322265625,14113.5859375,13434.88671875,13933.9765625,10023.9111328125,17959.275390625,0.0,13287.8623046875,0.0,13066.1328125,16870.498046875,27484.09765625,13210.7734375,8815.9248046875,6690.8203125,5072.75244140625,15623.5693359375,13736.0888671875,10347.3662109375,0.0,2481.9375,7183.5517578125,5272.2294921875,-124.77238464355469,-8066.4951171875,13945.1025390625,4320.939453125,10035.83203125,16233.9208984375,10325.908203125,16473.134765625,6941.15966796875,10582.6064453125,5496.34326171875,0.0,6191.73046875,13162.294921875,7901.19189453125,10685.9208984375,19920.66796875,7441.8388671875,-2392.133056640625,8399.486328125,6662.2099609375,26159.287109375,6901.4228515625,13164.6796875,-5268.255859375,-8211.9306640625,8515.517578125,4390.0810546875,9385.7451171875,6291.8662109375,6496.90625,6540.61669921875,4030.06884765625,9897.5498046875,8873.1455078125,8476.5751953125,-13293.42578125,-0.0,0.0,10606.4482421875,7158.12060546875,-1670.51953125,0.0,13375.2822265625
-3162.22509765625,-8735.65625,7367.92919921875,10476.1123046875,15758.6728515625,16149.6787109375,14068.2861328125,13387.203125,13896.625,9992.9169921875,17917.951171875,0.0,13244.15234375,0.0,13027.19140625,16809.3046875,27438.005859375,13164.6796875,8774.59765625,6656.646484375,5022.6845703125,15583.0380859375,13687.6103515625,10302.861328125,0.0,2410.411865234375,7137.45751953125,5218.18798828125,-172.4561004638672,-8132.45751953125,13899.0087890625,4276.4345703125,9985.7646484375,16189.4169921875,10277.4306640625,16434.193359375,6899.03857421875,10538.1015625,5447.86474609375,0.0,6132.1259765625,13128.12109375,7851.1240234375,10641.416015625,19880.13671875,7399.7177734375,-2447.76416015625,8354.1875,6608.16796875,26109.21875,6858.5078125,13105.869140625,-5298.45556640625,-8246.8984375,8472.6015625,4359.880859375,9338.0615234375,6231.466796875,6463.52783203125,6504.05859375,3983.974365234375,9852.25,8831.818359375,8442.40234375,-13316.4716796875,-0.0,0.0,10572.2744140625,7135.0732421875,-1699.9244384765625,0.0,13339.51953125
-3206.72998046875,-8741.2197265625,7354.41845703125,10457.8330078125,15751.5205078125,16153.654296875,14053.98046875,13373.6923828125,13882.3193359375,9978.6123046875,17902.8515625,0.0,13205.2109375,0.0,13019.244140625,16799.767578125,27422.904296875,13150.3740234375,8758.7041015625,6641.546875,5011.55859375,15570.3232421875,13675.689453125,10293.32421875,0.0,2351.601806640625,7123.15234375,5205.47265625,-212.19253540039062,-8147.55712890625,13884.7041015625,4258.15576171875,9973.84375,16172.7275390625,10267.0986328125,16425.451171875,6883.939453125,10525.3857421875,5434.3544921875,-0.0,6130.53662109375,13110.6376953125,7838.40869140625,10635.05859375,19864.240234375,7384.6181640625,-2473.990234375,8337.498046875,6593.86279296875,26089.349609375,6844.20263671875,13091.564453125,-5298.45556640625,-8289.01953125,8434.455078125,4343.986328125,9315.80859375,6215.572265625,6439.68603515625,6491.34326171875,3953.77490234375,9837.9453125,8816.71875,8422.5341796875,-13374.48828125,-0.0,0.0,10564.3271484375,7131.89453125,-1705.487548828125,0.0,13330.77734375
-3207.524658203125,-8755.5244140625,7334.55029296875,10441.939453125,15734.8310546875,16127.427734375,14038.0859375,13360.1826171875,13869.603515625,9960.333984375,17918.744140625,0.0,13204.4150390625,0.0,13012.091796875,16796.58984375,27404.626953125,13132.095703125,8741.2197265625,6622.47314453125,4990.10107421875,15549.66015625,13659.0,10274.2509765625,0.0,2414.385498046875,7111.2314453125,5197.52490234375,-203.4505157470703,-8154.7099609375,13867.21875,4242.26123046875,9956.359375,16156.0380859375,10249.6142578125,16403.994140625,6868.04443359375,10509.4912109375,5417.6650390625,-0.0,6105.89990234375,13089.1796875,7822.513671875,10616.779296875,19849.142578125,7371.107421875,-2493.8583984375,8320.80859375,6577.173828125,26079.8125,6831.4873046875,13082.02734375,-5299.25,-8302.529296875,8437.6337890625,4287.56103515625,9307.861328125,6212.39306640625,6425.380859375,6475.44873046875,3929.93310546875,9818.87109375,8799.2353515625,8401.076171875,-13380.05078125,-0.0,0.0,10554.7900390625,7115.99951171875,-1718.2032470703125,0.0,13312.4990234375
-3237.724365234375,-8770.625,7317.86083984375,10421.2763671875,15720.525390625,16065.439453125,14019.0126953125,13337.9296875,13852.9140625,9938.0810546875,17884.572265625,0.0,13190.9052734375,0.0,12989.0439453125,16783.080078125,27384.7578125,13106.6640625,8720.5576171875,6603.39990234375,4972.61669921875,15514.69140625,13638.3369140625,10244.0517578125,0.0,2455.71142578125,7096.1318359375,5178.45166015625,-209.0136260986328,-8162.65771484375,13846.556640625,4224.77734375,9938.8759765625,16133.78515625,10228.1572265625,16367.435546875,6848.17626953125,10486.443359375,5400.1806640625,-0.0,6091.5947265625,13047.8544921875,7805.029296875,10579.4267578125,19831.658203125,7349.64990234375,-2504.984619140625,8300.9404296875,6566.8427734375,26068.6875,6812.41357421875,13064.5439453125,-5338.19189453125,-8298.556640625,8425.712890625,4305.83935546875,9299.119140625,6203.6513671875,6420.6123046875,6457.169921875,3917.21728515625,9789.466796875,8780.9560546875,8382.0029296875,-13382.4345703125,-0.0,0.0,10536.51171875,7094.5419921875,-1738.0714111328125,0.0,13291.8359375
-3221.034912109375,-8750.755859375,7346.47119140625,10449.091796875,15738.8056640625,16098.0224609375,14033.3173828125,13353.0302734375,13860.861328125,9943.64453125,17899.671875,0.0,13208.3896484375,0.0,12987.4541015625,16791.025390625,27407.8046875,13126.5322265625,8735.65625,6612.14208984375,4998.04833984375,15539.328125,13655.822265625,10262.330078125,0.0,2468.427001953125,7107.2578125,5195.935546875,-190.73486328125,-8155.50537109375,13867.21875,4244.6455078125,9961.9228515625,16156.83203125,10247.23046875,16391.27734375,6861.6865234375,10502.3388671875,5412.1015625,-0.0,6119.41015625,13075.6689453125,7820.12939453125,10604.8583984375,19842.783203125,7359.9814453125,-2474.784912109375,8328.755859375,6587.50537109375,26091.734375,6819.56640625,13076.46484375,-5316.734375,-8278.6875,8445.580078125,4332.0654296875,9307.0673828125,6214.77734375,6431.73828125,6465.1171875,3943.443359375,9806.15625,8790.4931640625,8383.591796875,-13362.5673828125,-0.0,0.0,10531.7431640625,7096.1318359375,-1742.83984375,0.0,13293.42578125
-3171.76171875,-8736.451171875,7355.21337890625,10456.244140625,15745.1630859375,16111.5322265625,14042.8544921875,13364.951171875,13868.0146484375,9954.7705078125,17909.208984375,0.0,13222.6943359375,0.0,12995.40234375,16802.9453125,27418.931640625,13136.86328125,8747.578125,6623.26806640625,5007.5849609375,15550.4541015625,13666.947265625,10275.8408203125,0.0,2466.837646484375,7115.205078125,5207.8564453125,-162.9193572998047,-8130.8681640625,13875.9609375,4259.7451171875,9969.8701171875,16166.3681640625,10255.97265625,16402.40234375,6871.2236328125,10513.46484375,5393.0283203125,-0.0,6128.15234375,13082.02734375,7828.076171875,10615.9853515625,19853.91015625,7371.107421875,-2476.374267578125,8336.703125,6593.86279296875,26105.24609375,6831.4873046875,13089.1796875,-5310.37646484375,-8271.53515625,8454.3232421875,4337.62890625,9317.3984375,6225.10888671875,6435.71240234375,6477.0380859375,3964.106201171875,9820.4609375,8801.619140625,8397.1025390625,-13333.95703125,-0.0,0.0,10535.716796875,7100.900390625,-1733.3031005859375,0.0,13307.73046875
-3152.688232421875,-8728.50390625,7366.33935546875,10458.62890625,15766.62109375,16124.248046875,14057.9541015625,13378.4609375,13885.498046875,9973.048828125,17910.00390625,0.0,13234.615234375,0.0,13016.8603515625,16822.01953125,27431.646484375,13153.552734375,8763.47265625,6640.75244140625,5021.89013671875,15561.5810546875,13683.63671875,10291.7353515625,0.0,2445.3798828125,7132.68896484375,5217.3935546875,-178.81393432617188,-8113.38427734375,13891.060546875,4270.07666015625,9981.791015625,16175.9052734375,10273.45703125,16415.9140625,6887.11767578125,10529.3583984375,5428.791015625,-0.0,6150.404296875,13092.3583984375,7847.14990234375,10628.7001953125,19870.599609375,7387.00244140625,-2479.55322265625,8339.087890625,6614.5263671875,26107.62890625,6848.970703125,13105.0751953125,-5310.37646484375,-8258.8193359375,8447.96484375,4328.09228515625,9331.703125,6241.00341796875,6450.81201171875,6492.9326171875,3974.437744140625,9837.9453125,8819.103515625,8416.970703125,-13341.109375,-0.0,0.0,10560.353515625,7115.205078125,-1710.2559814453125,0.0,13325.21484375
-3133.61474609375,-8701.4833984375,7388.591796875,10499.16015625,15789.6669921875,16163.1904296875,14088.9482421875,13412.634765625,13922.0556640625,10009.6064453125,17944.177734375,0.0,13256.8671875,0.0,13045.470703125,16857.783203125,27461.052734375,13183.7529296875,8795.26171875,6678.8994140625,5047.3212890625,15594.958984375,13712.2470703125,10325.908203125,0.0,2498.626708984375,7157.32568359375,5251.56640625,-160.53517150878906,-8087.95263671875,13922.0556640625,4293.12353515625,10010.4013671875,16207.6953125,10302.06640625,16450.0859375,6918.1123046875,10563.533203125,5473.2958984375,-0.0,6161.53076171875,13136.0693359375,7875.76025390625,10663.6689453125,19902.38671875,7423.5595703125,-2446.174560546875,8380.4130859375,6639.95751953125,26143.392578125,6876.78662109375,13140.0419921875,-5273.81884765625,-8230.208984375,8482.138671875,4376.5703125,9350.7763671875,6268.8193359375,6483.39599609375,6529.490234375,3995.1005859375,9869.734375,8854.0712890625,8460.6806640625,-13308.525390625,-0.0,0.0,10606.4482421875,7160.5048828125,-1668.9300537109375,0.0,13365.7451171875
-3120.1044921875,-8687.97265625,7405.28125,10512.669921875,15798.41015625,16178.2890625,14100.0751953125,13426.14453125,13931.591796875,10019.9384765625,17959.275390625,0.0,13256.8671875,0.0,13051.8271484375,16872.8828125,27475.357421875,13196.46875,8807.9765625,6690.025390625,5059.2421875,15610.8544921875,13724.16796875,10337.03515625,0.0,2508.9580078125,7166.0673828125,5265.87158203125,-141.46168518066406,-8078.416015625,13935.56640625,4309.0185546875,10024.70703125,16224.384765625,10312.3984375,16462.802734375,6930.828125,10575.4541015625,5494.75341796875,-0.0,6175.8359375,13152.7587890625,7884.50244140625,10677.1787109375,19913.515625,7436.275390625,-2415.18017578125,8395.5126953125,6644.7255859375,26157.697265625,6884.73388671875,13153.552734375,-5261.10302734375,-8216.6982421875,8494.0595703125,4382.13330078125,9355.544921875,6282.32958984375,6492.1376953125,6540.61669921875,4004.63720703125,9882.4501953125,8865.197265625,8469.421875,-13298.1943359375,-0.0,0.0,10622.341796875,7170.8359375,-1655.419677734375,0.0,13377.666015625
-3112.951904296875,-8691.947265625,7416.4072265625,10519.02734375,15814.3046875,16196.5693359375,14111.99609375,13447.6025390625,13945.1025390625,10039.01171875,17963.251953125,0.0,13270.3779296875,0.0,13063.748046875,16901.4921875,27486.482421875,13212.36328125,8823.0771484375,6705.919921875,5075.13671875,15623.5693359375,13738.47265625,10353.724609375,0.0,2514.521240234375,7181.16748046875,5288.9189453125,-136.6933135986328,-8056.16357421875,13948.28125,4319.349609375,10037.421875,16236.3056640625,10326.703125,16477.904296875,6946.72265625,10592.142578125,5501.111328125,-0.0,6187.7568359375,13163.8837890625,7899.60205078125,10695.45703125,19928.61328125,7454.55419921875,-2395.31201171875,8400.28125,6658.23583984375,26178.359375,6898.244140625,13178.984375,-5258.71875,-8227.8251953125,8502.0068359375,4390.87548828125,9369.0556640625,6306.17138671875,6502.4697265625,6554.92138671875,4015.763671875,9896.7548828125,8882.681640625,8490.0859375,-13285.4775390625,-0.0,0.0,10643.7998046875,7179.578125,-1629.193603515625,0.0,13403.892578125
-3102.620361328125,-8681.615234375,7429.91796875,10537.306640625,15827.814453125,16207.6953125,14126.30078125,13461.9072265625,13957.0234375,10049.3427734375,17975.171875,0.0,13285.4775390625,0.0,13077.2587890625,16924.5390625,27498.404296875,13223.4892578125,8834.203125,6717.04638671875,5088.6474609375,15633.9013671875,13750.3935546875,10367.234375,0.0,2521.673828125,7195.47265625,5303.22412109375,-126.36184692382812,-8045.037109375,13958.61328125,4332.0654296875,10050.1376953125,16247.4306640625,10338.6240234375,16489.029296875,6957.84912109375,10606.4482421875,5504.2900390625,-0.0,6202.06201171875,13174.2158203125,7911.52294921875,10710.556640625,19940.53515625,7467.27001953125,-2383.39111328125,8415.3818359375,6673.3359375,26188.69140625,6911.75439453125,13199.646484375,-5246.00341796875,-8193.65234375,8516.3115234375,4436.1748046875,9383.361328125,6318.09228515625,6516.7744140625,6564.45849609375,4026.889892578125,9907.8818359375,8893.0126953125,8502.80078125,-13281.5048828125,-0.0,0.0,10664.462890625,7185.14111328125,-1614.09375,0.0,13414.2236328125
-3071.6259765625,-8656.1845703125,7456.9384765625,10551.6123046875,15850.0673828125,16228.357421875,14148.552734375,13488.9287109375,13974.5078125,10084.3115234375,17992.654296875,0.0,13302.9619140625,0.0,13097.126953125,16953.9453125,27520.65625,13245.7421875,8856.4560546875,6744.06689453125,5110.10498046875,15656.15234375,13775.03125,10391.87109375,0.0,2518.494873046875,7216.1357421875,5333.423828125,-95.367431640625,-8024.375,13980.865234375,4355.11279296875,10071.5947265625,16267.2998046875,10362.4658203125,16510.486328125,6978.51171875,10631.083984375,5524.15869140625,-0.0,6228.2880859375,13193.2900390625,7932.98046875,10734.3984375,19962.787109375,7494.291015625,-2356.3701171875,8432.865234375,6693.9990234375,26210.943359375,6935.5966796875,13230.6416015625,-5209.44580078125,-8169.81005859375,8544.921875,4481.474609375,9397.666015625,6350.67626953125,6547.76904296875,6603.39990234375,4050.731689453125,9932.517578125,8917.6494140625,8531.4111328125,-13261.6357421875,-0.0,0.0,10714.53125,7195.47265625,-1560.846923828125,0.0,13455.5498046875
-3094.673095703125,-8685.5888671875,7437.0703125,10534.126953125,15827.0205078125,16206.8994140625,14123.9169921875,13453.9599609375,13941.923828125,10048.548828125,17979.939453125,0.0,13285.4775390625,0.0,13074.875,16897.51953125,27500.787109375,13224.2841796875,8830.2294921875,6709.8935546875,5087.0576171875,15637.0791015625,13750.3935546875,10366.439453125,0.0,2491.47412109375,7191.4990234375,5298.45556640625,-108.87781524658203,-8054.57421875,13960.998046875,4336.0390625,10051.7275390625,16249.021484375,10341.0078125,16489.82421875,6951.49072265625,10600.884765625,5502.70068359375,-0.0,6210.80419921875,13181.369140625,7909.138671875,10703.404296875,19933.3828125,7460.912109375,-2377.033203125,8414.5859375,6668.56787109375,26187.1015625,6913.34375,13183.7529296875,-5249.18212890625,-8200.8046875,8524.2587890625,4429.8173828125,9385.7451171875,6308.5556640625,6519.953125,6570.02099609375,4034.837158203125,9908.67578125,8887.4501953125,8494.0595703125,-13279.1201171875,-0.0,0.0,10653.3369140625,7170.8359375,-1615.6832275390625,0.0,13415.0185546875
-3130.43603515625,-8710.2255859375,7410.04931640625,10498.3642578125,15801.587890625,16176.7001953125,14095.306640625,13419.787109375,13914.1083984375,10014.375,17963.251953125,0.0,13258.45703125,0.0,13045.470703125,16860.9609375,27475.357421875,13194.87890625,8800.82421875,6678.8994140625,5060.037109375,15610.05859375,13720.1943359375,10336.240234375,0.0,2490.679443359375,7163.68359375,5261.89794921875,-143.0511474609375,-8084.77392578125,13933.181640625,4311.40283203125,10026.2958984375,16221.205078125,10314.7822265625,16461.21484375,6922.880859375,10569.095703125,5470.1171875,-0.0,6191.73046875,13153.552734375,7882.1181640625,10673.205078125,19903.18359375,7427.53369140625,-2427.10107421875,8379.6181640625,6638.3681640625,26154.517578125,6883.939453125,13146.400390625,-5293.6875,-8227.0302734375,8479.7548828125,4364.6494140625,9354.7509765625,6279.150390625,6483.39599609375,6533.4638671875,4010.200439453125,9880.8603515625,8856.4560546875,8459.8857421875,-13306.140625,-0.0,0.0,10615.189453125,7148.583984375,-1662.572265625,0.0,13374.48828125
-3147.919921875,-8712.609375,7397.33349609375,10500.7490234375,15790.462890625,16169.5478515625,14086.564453125,13416.607421875,13909.33984375,10012.7861328125,17946.5625,0.0,13244.9462890625,0.0,13039.1123046875,16870.498046875,27468.205078125,13187.7255859375,8792.876953125,6677.3095703125,5049.70556640625,15599.7275390625,13712.2470703125,10329.8828125,0.0,2518.494873046875,7156.53076171875,5265.0771484375,-156.56153869628906,-8091.9267578125,13922.8505859375,4305.83935546875,10013.580078125,16214.0517578125,10303.65625,16453.265625,6916.52294921875,10565.9169921875,5464.5537109375,-0.0,6167.09375,13137.658203125,7874.17138671875,10670.025390625,19896.03125,7425.1494140625,-2438.227294921875,8382.0029296875,6632.009765625,26158.490234375,6875.19677734375,13149.5791015625,-5280.1767578125,-8227.0302734375,8455.912109375,4380.5439453125,9347.59765625,6291.8662109375,6465.912109375,6534.25830078125,3994.30615234375,9877.681640625,8850.09765625,8457.5009765625,-13326.0087890625,-0.0,0.0,10619.9580078125,7140.63623046875,-1650.6513671875,0.0,13380.8447265625
-3135.204345703125,-8695.919921875,7404.486328125,10528.564453125,15800.794921875,16184.6484375,14098.4853515625,13428.5283203125,13923.64453125,10017.5546875,17952.123046875,0.0,13263.2255859375,0.0,13052.623046875,16879.240234375,27479.330078125,13202.03125,8804.7978515625,6686.0517578125,5060.83154296875,15613.23828125,13722.5791015625,10342.59765625,0.0,2525.6474609375,7170.04150390625,5281.7666015625,-143.0511474609375,-8102.2578125,13935.56640625,4318.55517578125,10024.70703125,16227.5634765625,10314.7822265625,16467.5703125,6926.0595703125,10577.837890625,5488.3955078125,-0.0,6172.6572265625,13154.34765625,7885.296875,10683.5361328125,19906.36328125,7435.48046875,-2425.51171875,8409.0234375,6647.90478515625,26170.412109375,6885.5283203125,13161.5,-5251.56640625,-8219.0830078125,8472.6015625,4420.2802734375,9364.287109375,6308.5556640625,6476.24365234375,6539.02685546875,3997.484619140625,9891.9873046875,8862.8134765625,8460.6806640625,-13306.140625,-0.0,0.0,10613.6005859375,7156.53076171875,-1655.419677734375,0.0,13379.255859375
