-3225.803466796875,-8565.5849609375,8038.68017578125,11467.93359375,16433.396484375,17218.58984375,14774.7998046875,14510.154296875,14335.314453125,10840.0986328125,18819.966796875,0.0,13682.0478515625,0.0,13860.861328125,17798.7421875,28414.7265625,13944.30859375,9775.9560546875,7658.0048828125,5820.59228515625,16342.0048828125,14535.5859375,11264.4833984375,0.0,3341.0390625,7992.5849609375,6233.85107421875,773.2709350585938,-7689.7939453125,14620.6220703125,4999.6376953125,10677.9736328125,17208.2578125,10878.2451171875,17286.935546875,7849.5341796875,11560.1220703125,6194.11474609375,-0.0,7092.95263671875,14175.57421875,8552.869140625,11857.3505859375,20866.39453125,8447.96484375,-1700.71923828125,9298.32421875,7477.6015625,27120.908203125,7676.283203125,14267.76171875,-4850.22900390625,-8170.6044921875,9238.7197265625,5103.7470703125,9988.1484375,7222.49365234375,7181.96240234375,7558.6640625,4530.748046875,10744.73046875,9883.244140625,9075.005859375,-12788.7724609375,-0.0,0.0,11421.83984375,7616.6787109375,-568.23095703125,0.0,14265.3779296875
-3231.366455078125,-8556.8427734375,8027.5537109375,11448.8603515625,16419.091796875,17206.66796875,14756.5205078125,14491.0810546875,14310.677734375,10812.2822265625,18812.814453125,0.0,13666.947265625,0.0,13848.9404296875,17782.052734375,28399.625,13929.2080078125,9757.677734375,7633.3681640625,5804.69775390625,16330.083984375,14518.8974609375,11246.9990234375,0.0,3333.091796875,7979.0751953125,6221.93017578125,751.813232421875,-7720.78857421875,14605.5224609375,4986.921875,10663.6689453125,17191.568359375,10862.3505859375,17271.041015625,7831.255859375,11542.6376953125,6165.50439453125,-0.0,7080.23681640625,14161.26953125,8536.974609375,11843.044921875,20846.525390625,8426.5068359375,-1726.9453125,9278.45703125,7462.50146484375,27110.576171875,7661.97802734375,14251.8681640625,-4859.765625,-8160.2734375,9225.208984375,5079.11083984375,9977.0234375,7212.95703125,7158.9150390625,7528.4638671875,4507.70068359375,10724.8623046875,9861.787109375,9047.1904296875,-12818.1767578125,-0.0,0.0,11392.4345703125,7603.16845703125,-613.5304565429688,0.0,14224.8466796875
-3235.340087890625,-8583.068359375,8008.47998046875,11444.8857421875,16407.171875,17197.1328125,14747.779296875,14476.7763671875,14303.525390625,10812.2822265625,18791.357421875,0.0,13663.7685546875,0.0,13848.9404296875,17747.083984375,28391.6796875,13918.876953125,9748.935546875,7630.189453125,5792.7763671875,16319.751953125,14508.5654296875,11237.4619140625,0.0,3330.70751953125,7972.71728515625,6205.24072265625,745.4554443359375,-7727.94091796875,14595.9853515625,4978.1796875,10649.36328125,17185.2109375,10848.83984375,17260.708984375,7822.513671875,11532.306640625,6129.74169921875,-0.0,7063.5478515625,14154.9111328125,8529.822265625,11831.919921875,20836.1953125,8417.765625,-1748.4029541015625,9276.072265625,7452.169921875,27105.80859375,7654.82568359375,14227.2314453125,-4867.71240234375,-8182.525390625,9215.6728515625,5080.69970703125,9981.791015625,7185.14111328125,7146.19970703125,7517.337890625,4500.5478515625,10712.94140625,9856.2236328125,9047.1904296875,-12831.6875,-0.0,0.0,11360.6455078125,7589.658203125,-636.57763671875,0.0,14224.052734375
-3226.59814453125,-8570.353515625,8016.42724609375,11454.4228515625,16415.9140625,17197.927734375,14752.546875,14472.0078125,14305.9091796875,10806.7197265625,18793.7421875,0.0,13678.8681640625,0.0,13853.708984375,17726.421875,28398.037109375,13924.439453125,9752.1142578125,7627.80517578125,5800.72412109375,16324.5205078125,14515.7177734375,11238.2578125,0.0,3325.939208984375,7979.0751953125,6194.11474609375,766.1183471679688,-7704.8935546875,14603.1376953125,4989.30615234375,10654.9267578125,17193.158203125,10857.58203125,17262.30078125,7827.28173828125,11532.306640625,6134.51025390625,-0.0,7074.67431640625,14160.4736328125,8534.5908203125,11828.740234375,20839.373046875,8414.5859375,-1742.0450439453125,9286.4033203125,7461.70654296875,27098.65625,7659.59423828125,14212.1318359375,-4847.0498046875,-8191.26806640625,9229.18359375,5078.31591796875,9989.73828125,7170.8359375,7144.60986328125,7522.10595703125,4518.0322265625,10716.12109375,9854.634765625,9036.064453125,-12827.7138671875,-0.0,0.0,11354.287109375,7597.60546875,-648.49853515625,0.0,14209.7470703125
-3200.3720703125,-8539.359375,8028.34814453125,11470.3173828125,16429.423828125,17209.84765625,14764.4677734375,14487.107421875,14329.7509765625,10817.845703125,18822.3515625,0.0,13693.96875,0.0,13859.2724609375,17746.291015625,28413.13671875,13937.9501953125,9764.8310546875,7641.3154296875,5815.82421875,16338.0302734375,14527.638671875,11252.5625,0.0,3334.68115234375,7989.40673828125,6211.5986328125,794.7285766601562,-7696.94677734375,14615.853515625,5008.37939453125,10669.2314453125,17205.873046875,10871.0927734375,17277.3984375,7839.203125,11546.611328125,6169.47802734375,-0.0,7088.97900390625,14173.984375,8547.3056640625,11840.6611328125,20854.47265625,8429.6865234375,-1726.1505126953125,9301.5029296875,7475.21728515625,27104.21875,7668.33642578125,14229.615234375,-4827.18115234375,-8161.06787109375,9245.8720703125,5087.8525390625,9991.328125,7185.93603515625,7158.12060546875,7534.82177734375,4522.00537109375,10727.24609375,9870.529296875,9052.75390625,-12802.283203125,-0.0,0.0,11372.56640625,7619.06298828125,-627.0408935546875,0.0,14223.2578125
-3200.3720703125,-8560.81640625,8045.83251953125,11491.775390625,16442.140625,17227.33203125,14776.388671875,14503.001953125,14343.26171875,10832.150390625,18842.220703125,0.0,13701.12109375,0.0,13872.7822265625,17763.7734375,28425.05859375,13949.076171875,9776.751953125,7654.03125,5827.7451171875,16351.5419921875,14539.5595703125,11266.8671875,0.0,3363.29150390625,8001.32763671875,6230.67236328125,801.8811645507812,-7718.404296875,14626.185546875,5011.55859375,10682.7421875,17217.794921875,10881.423828125,17293.294921875,7850.32958984375,11560.1220703125,6177.42529296875,-0.0,7104.07861328125,14192.263671875,8560.021484375,11856.5556640625,20868.77734375,8442.40234375,-1726.9453125,9322.166015625,7487.13818359375,27128.060546875,7680.25732421875,14248.6884765625,-4833.53955078125,-8149.14697265625,9253.025390625,5107.720703125,9994.5068359375,7193.88330078125,7172.42578125,7545.9482421875,4508.4951171875,10740.7568359375,9883.244140625,9063.8798828125,-12773.6728515625,-0.0,0.0,11377.3349609375,7619.06298828125,-612.7357177734375,0.0,14240.7421875
-3252.823974609375,-8625.189453125,8018.0166015625,11461.5751953125,16411.939453125,17200.3125,14751.751953125,14478.3662109375,14317.0361328125,10810.6923828125,18805.662109375,0.0,13670.9208984375,0.0,13851.3251953125,17743.111328125,28391.6796875,13919.6708984375,9751.3203125,7632.57373046875,5797.544921875,16322.1357421875,14511.744140625,11238.2578125,0.0,3339.44970703125,7974.30712890625,6196.4990234375,753.4027099609375,-7750.98779296875,14595.9853515625,4971.822265625,10651.748046875,17184.416015625,10851.2236328125,17264.685546875,7824.89794921875,11535.4853515625,6142.45751953125,-0.0,7073.08447265625,14164.4482421875,8533.794921875,11830.330078125,20843.34765625,8421.73828125,-1730.1241455078125,9291.171875,7457.7333984375,27107.396484375,7655.62060546875,14226.4365234375,-4884.40185546875,-8213.5205078125,9206.1357421875,5084.67333984375,9988.1484375,7175.6044921875,7151.7626953125,7527.66943359375,4487.03759765625,10716.9150390625,9856.2236328125,9037.654296875,-12815.79296875,-0.0,0.0,11366.2080078125,7600.7841796875,-618.298828125,0.0,14229.615234375
-3267.129150390625,-8636.3154296875,7998.943359375,11435.349609375,16399.224609375,17182.826171875,14742.21484375,14468.0341796875,14309.0888671875,10797.1826171875,18791.357421875,0.0,13659.794921875,0.0,13844.966796875,17732.779296875,28378.962890625,13905.3662109375,9741.783203125,7623.8310546875,5783.23974609375,16304.6513671875,14499.8232421875,11226.3369140625,0.0,3310.83935546875,7966.359375,6180.6044921875,728.76611328125,-7749.39892578125,14581.6806640625,4960.69580078125,10636.6474609375,17170.111328125,10836.9189453125,17247.19921875,7815.36083984375,11523.564453125,6156.7626953125,-0.0,7055.6005859375,14144.580078125,8521.080078125,11816.0244140625,20833.015625,8416.17578125,-1741.2503662109375,9266.5361328125,7442.63330078125,27078.787109375,7648.4677734375,14217.6943359375,-4887.5810546875,-8219.8779296875,9191.0361328125,5052.884765625,9983.3798828125,7167.6572265625,7146.19970703125,7537.2060546875,4492.60107421875,10708.1728515625,9848.27734375,9029.7060546875,-12838.8408203125,-0.0,0.0,11356.6708984375,7595.22119140625,-627.0408935546875,0.0,14217.6943359375
-3244.876953125,-8592.60546875,8006.095703125,11441.7080078125,16406.376953125,17190.775390625,14747.779296875,14469.6240234375,14305.9091796875,10790.8251953125,18799.3046875,0.0,13669.33203125,0.0,13858.4775390625,17724.037109375,28388.5,13914.90234375,9744.1669921875,7616.6787109375,5789.59814453125,16313.39453125,14505.38671875,11233.4892578125,0.0,3325.14453125,7976.69140625,6186.9619140625,741.4818115234375,-7750.98779296875,14588.0380859375,4968.64306640625,10643.7998046875,17178.05859375,10844.8671875,17256.736328125,7819.3349609375,11526.744140625,6167.09375,-0.0,7058.779296875,14152.52734375,8528.232421875,11822.3828125,20836.1953125,8413.7919921875,-1734.8924560546875,9273.6884765625,7451.37548828125,27091.50390625,7659.59423828125,14213.7216796875,-4867.71240234375,-8206.3671875,9200.5732421875,5062.42138671875,9982.5859375,7166.0673828125,7141.43115234375,7529.2587890625,4506.90625,10717.7099609375,9848.27734375,9016.990234375,-12827.7138671875,-0.0,0.0,11338.3935546875,7587.27392578125,-655.651123046875,0.0,14189.083984375
-3255.208251953125,-8582.2744140625,8004.50634765625,11433.7607421875,16404.787109375,17187.595703125,14744.599609375,14465.6494140625,14307.4990234375,10794.00390625,18793.7421875,0.0,13665.3583984375,0.0,13840.9931640625,17727.216796875,28385.3203125,13913.3134765625,9741.783203125,7620.65283203125,5786.4189453125,16311.0107421875,14503.001953125,11229.5146484375,0.0,3322.76025390625,7969.53857421875,6180.6044921875,743.0712280273438,-7750.98779296875,14586.4482421875,4964.669921875,10644.5947265625,17175.673828125,10843.27734375,17254.353515625,7815.36083984375,11524.359375,6159.14697265625,-0.0,7057.98486328125,14151.732421875,8524.2587890625,11818.4091796875,20834.603515625,8407.43359375,-1726.9453125,9264.9462890625,7448.9912109375,27089.119140625,7650.85205078125,14211.3369140625,-4862.9443359375,-8217.494140625,9205.341796875,5079.11083984375,9969.8701171875,7166.8623046875,7141.43115234375,7507.00634765625,4502.93212890625,10720.09375,9845.09765625,9028.1171875,-12828.509765625,-0.0,0.0,11331.240234375,7585.68408203125,-654.8563842773438,0.0,14199.416015625
-3244.082275390625,-8597.3740234375,8005.30126953125,11417.0712890625,16406.376953125,17181.23828125,14746.189453125,14468.8291015625,14319.419921875,10797.9775390625,18800.89453125,0.0,13666.947265625,0.0,13828.27734375,17734.369140625,28382.935546875,13914.1083984375,9745.7568359375,7631.77880859375,5788.80322265625,16304.6513671875,14507.7705078125,11228.720703125,0.0,3286.99755859375,7967.154296875,6185.373046875,747.0448608398438,-7722.3779296875,14586.4482421875,4966.2587890625,10646.18359375,17169.31640625,10846.4560546875,17251.96875,7819.3349609375,11527.5380859375,6155.9677734375,-0.0,7061.16357421875,14136.6318359375,8525.0537109375,11816.8193359375,20840.16796875,8412.2021484375,-1722.9715576171875,9245.8720703125,7452.96484375,27079.58203125,7648.4677734375,14216.10546875,-4845.46044921875,-8200.009765625,9214.083984375,5068.77880859375,9966.69140625,7181.96240234375,7154.94140625,7511.7744140625,4494.98486328125,10724.0673828125,9851.4560546875,9044.0107421875,-12825.330078125,-0.0,0.0,11337.59765625,7599.9892578125,-642.9354248046875,0.0,14212.92578125
-3226.59814453125,-8594.1953125,8009.2744140625,11433.7607421875,16406.376953125,17186.005859375,14744.599609375,14472.8017578125,14317.830078125,10798.771484375,18806.45703125,0.0,13663.7685546875,0.0,13829.8671875,17735.162109375,28389.294921875,13918.08203125,9747.345703125,7630.189453125,5791.1875,16309.419921875,14507.7705078125,11231.1044921875,0.0,3298.91845703125,7967.94873046875,6191.73046875,754.1974487304688,-7731.91455078125,14589.626953125,4971.02734375,10647.7734375,17174.87890625,10846.4560546875,17255.94140625,7822.513671875,11528.3330078125,6153.58349609375,-0.0,7062.75341796875,14146.1689453125,8526.642578125,11821.587890625,20839.373046875,8414.5859375,-1734.8924560546875,9264.9462890625,7453.759765625,27085.939453125,7646.083984375,14217.6943359375,-4837.51318359375,-8192.0625,9204.546875,5075.13671875,9969.8701171875,7185.93603515625,7153.35205078125,7522.90087890625,4492.60107421875,10728.0419921875,9850.6611328125,9036.8583984375,-12818.97265625,-0.0,0.0,11348.724609375,7597.60546875,-644.52490234375,0.0,14201.0048828125
-3225.803466796875,-8576.7109375,8010.8642578125,11436.14453125,16407.966796875,17183.623046875,14746.9833984375,14468.0341796875,14316.2412109375,10805.9248046875,18798.509765625,0.0,13666.947265625,0.0,13839.404296875,17723.2421875,28388.5,13918.08203125,9747.345703125,7631.77880859375,5791.98193359375,16310.21484375,14507.7705078125,11229.5146484375,0.0,3294.94482421875,7971.9228515625,6182.19384765625,756.5816040039062,-7726.35107421875,14589.626953125,4975.0009765625,10650.9521484375,17176.470703125,10848.044921875,17254.353515625,7820.923828125,11525.9482421875,6151.994140625,-0.0,7065.931640625,14144.580078125,8529.02734375,11817.6142578125,20839.373046875,8410.61328125,-1755.5555419921875,9268.125,7460.1171875,27081.966796875,7649.2626953125,14210.5419921875,-4843.076171875,-8200.009765625,9204.546875,5076.7265625,9978.6123046875,7165.27294921875,7154.94140625,7511.7744140625,4501.3427734375,10730.42578125,9851.4560546875,9036.064453125,-12813.4091796875,-0.0,0.0,11359.0556640625,7603.96337890625,-643.7301635742188,0.0,14205.7734375
-3221.034912109375,-8570.353515625,8021.1953125,11445.681640625,16415.119140625,17193.158203125,14756.5205078125,14472.0078125,14326.572265625,10820.2294921875,18802.484375,0.0,13678.07421875,0.0,13851.3251953125,17723.2421875,28397.2421875,13924.439453125,9753.7041015625,7642.1103515625,5799.92919921875,16318.9560546875,14514.9228515625,11238.2578125,0.0,3312.4287109375,7983.04833984375,6182.98876953125,763.7341918945312,-7735.88818359375,14596.7802734375,4982.9482421875,10658.1044921875,17185.2109375,10856.7880859375,17263.09375,7827.28173828125,11533.1015625,6162.3251953125,-0.0,7074.67431640625,14152.52734375,8538.5634765625,11821.587890625,20848.115234375,8417.765625,-1712.64013671875,9276.072265625,7468.859375,27088.32421875,7661.97802734375,14207.36328125,-4840.69189453125,-8176.16748046875,9226.0048828125,5068.77880859375,9993.712890625,7161.29931640625,7166.0673828125,7514.15869140625,4525.9794921875,10734.3984375,9861.787109375,9044.0107421875,-12809.435546875,-0.0,0.0,11372.56640625,7619.85791015625,-625.451416015625,0.0,14216.8994140625
-3210.70361328125,-8593.400390625,8028.34814453125,11463.1650390625,16421.4765625,17201.10546875,14761.2890625,14476.7763671875,14334.51953125,10825.79296875,18812.021484375,0.0,13681.2529296875,0.0,13856.8876953125,17733.57421875,28405.984375,13932.3876953125,9759.2666015625,7649.2626953125,5807.08154296875,16326.109375,14521.28125,11246.9990234375,0.0,3323.554931640625,7989.40673828125,6190.14111328125,769.2973022460938,-7735.88818359375,14604.7275390625,4990.10107421875,10663.6689453125,17193.953125,10861.5556640625,17270.24609375,7833.64013671875,11539.458984375,6175.041015625,-0.0,7081.82666015625,14163.6533203125,8543.33203125,11828.740234375,20856.0625,8424.123046875,-1699.1297607421875,9291.966796875,7472.8330078125,27092.298828125,7671.51513671875,14212.92578125,-4842.28125,-8175.373046875,9233.951171875,5074.34228515625,9996.0966796875,7172.42578125,7174.81005859375,7525.28515625,4535.51611328125,10743.935546875,9867.3505859375,9046.3955078125,-12811.0244140625,-0.0,0.0,11370.9765625,7639.72607421875,-624.6566772460938,0.0,14213.7216796875
-3216.2666015625,-8582.2744140625,8031.52734375,11456.8076171875,16424.65625,17205.873046875,14759.7001953125,14481.544921875,14326.572265625,10821.8193359375,18824.736328125,0.0,13680.4580078125,0.0,13849.7353515625,17739.931640625,28412.341796875,13937.1552734375,9761.6513671875,7646.083984375,5811.0556640625,16329.2880859375,14522.8701171875,11250.1787109375,0.0,3327.52880859375,7985.4326171875,6198.8828125,763.7341918945312,-7712.8408203125,14611.0849609375,5001.22705078125,10669.2314453125,17197.1328125,10863.9404296875,17275.015625,7834.4345703125,11541.84375,6181.39892578125,-0.0,7088.97900390625,14167.6259765625,8543.33203125,11835.0986328125,20854.47265625,8426.5068359375,-1699.1297607421875,9286.4033203125,7476.01171875,27103.423828125,7667.54150390625,14221.66796875,-4835.12890625,-8234.18359375,9224.4150390625,5102.15771484375,9986.5595703125,7185.14111328125,7168.45166015625,7523.6953125,4539.48974609375,10751.087890625,9866.5556640625,9042.421875,-12803.078125,-0.0,0.0,11360.6455078125,7619.85791015625,-638.9617919921875,0.0,14204.1845703125
-3213.88232421875,-8544.921875,8030.73193359375,11475.0859375,16424.65625,17213.822265625,14757.3154296875,14490.287109375,14317.830078125,10821.0244140625,18816.7890625,0.0,13673.3056640625,0.0,13843.376953125,17757.416015625,28417.111328125,13941.923828125,9764.03515625,7642.90478515625,5813.43994140625,16337.236328125,14525.25390625,11254.9462890625,0.0,3341.833740234375,7980.6640625,6211.5986328125,767.7078247070312,-7708.07275390625,14614.2646484375,5003.611328125,10670.8212890625,17205.873046875,10866.32421875,17280.578125,7833.64013671875,11545.8173828125,6175.8359375,-0.0,7086.59521484375,14177.1630859375,8540.9482421875,11842.2509765625,20852.08984375,8429.6865234375,-1707.0770263671875,9306.271484375,7471.2431640625,27112.9609375,7661.97802734375,14233.5888671875,-4837.51318359375,-8223.8515625,9204.546875,5132.35693359375,9975.43359375,7197.06201171875,7157.32568359375,7531.64306640625,4535.51611328125,10758.240234375,9866.5556640625,9034.474609375,-12803.8720703125,-0.0,0.0,11381.30859375,7592.04248046875,-629.425048828125,0.0,14212.1318359375
-3216.2666015625,-8559.2265625,8025.9638671875,11479.8544921875,16418.298828125,17214.6171875,14751.751953125,14487.90234375,14311.47265625,10817.845703125,18812.021484375,0.0,13661.384765625,0.0,13833.0458984375,17761.388671875,28413.931640625,13938.744140625,9759.2666015625,7639.72607421875,5809.4658203125,16335.6455078125,14519.69140625,11254.9462890625,0.0,3337.0654296875,7971.9228515625,6210.80419921875,750.2238159179688,-7727.14599609375,14611.8798828125,4998.04833984375,10666.84765625,17204.28515625,10861.5556640625,17278.990234375,7828.076171875,11544.2275390625,6167.888671875,-0.0,7082.62109375,14176.369140625,8533.794921875,11841.4560546875,20844.935546875,8428.0966796875,-1716.61376953125,9310.2451171875,7461.70654296875,27114.548828125,7654.03125,14234.3837890625,-4846.2548828125,-8165.83642578125,9202.1630859375,5118.8466796875,9965.896484375,7196.267578125,7146.19970703125,7530.0537109375,4530.748046875,10754.267578125,9860.9921875,9032.8857421875,-12829.3037109375,-0.0,0.0,11366.2080078125,7575.35302734375,-631.8092041015625,0.0,14220.8740234375
-3209.114013671875,-8542.5380859375,8046.626953125,11487.0068359375,16434.98828125,17233.689453125,14769.236328125,14507.7705078125,14332.134765625,10829.7666015625,18831.888671875,0.0,13684.431640625,0.0,13855.2978515625,17782.845703125,28433.798828125,13957.818359375,9775.9560546875,7657.2099609375,5827.7451171875,16353.1298828125,14536.380859375,11274.0205078125,0.0,3360.9072265625,7991.791015625,6232.26171875,769.2973022460938,-7712.8408203125,14627.7744140625,5016.3271484375,10686.71484375,17220.177734375,10879.833984375,17297.267578125,7847.14990234375,11561.7109375,6198.08837890625,-0.0,7104.87353515625,14193.0576171875,8555.2529296875,11861.32421875,20863.21484375,8444.7861328125,-1706.2822265625,9317.3984375,7479.98583984375,27137.59765625,7673.8994140625,14256.63671875,-4813.6708984375,-8118.15283203125,9244.283203125,5118.8466796875,9990.533203125,7218.51953125,7167.6572265625,7545.9482421875,4552.20556640625,10770.162109375,9877.681640625,9053.5478515625,-12821.3564453125,-0.0,0.0,11375.7451171875,7600.7841796875,-623.8619384765625,0.0,14235.9736328125
-3204.345703125,-8529.02734375,8053.77978515625,11479.8544921875,16438.9609375,17235.279296875,14777.9775390625,14520.486328125,14347.2353515625,10842.482421875,18829.50390625,0.0,13697.1474609375,0.0,13867.21875,17805.89453125,28432.2109375,13962.5859375,9784.6982421875,7669.92578125,5829.33447265625,16354.71875,14544.328125,11279.5830078125,0.0,3354.54931640625,8001.32763671875,6240.208984375,791.5496826171875,-7688.9990234375,14630.9541015625,5018.7109375,10689.89453125,17218.58984375,10883.013671875,17298.0625,7855.09765625,11569.6591796875,6205.24072265625,-0.0,7104.87353515625,14191.4677734375,8563.201171875,11866.88671875,20873.546875,8459.8857421875,-1708.66650390625,9312.6298828125,7487.13818359375,27135.212890625,7684.23095703125,14274.1201171875,-4812.08203125,-8107.02587890625,9260.9716796875,5113.28369140625,10002.4541015625,7228.056640625,7183.5517578125,7560.2529296875,4557.7685546875,10772.5458984375,9888.0126953125,9073.4169921875,-12791.1572265625,-0.0,0.0,11390.0498046875,7618.2685546875,-609.5568237304688,0.0,14251.8681640625
-3198.78271484375,-8536.1796875,8042.6533203125,11467.93359375,16427.8359375,17223.357421875,14766.8525390625,14510.94921875,14336.109375,10832.9462890625,18830.298828125,0.0,13681.2529296875,0.0,13853.708984375,17787.615234375,28419.494140625,13949.87109375,9772.77734375,7655.62060546875,5816.61865234375,16342.0048828125,14531.6123046875,11264.4833984375,0.0,3335.475830078125,7990.201171875,6225.90380859375,772.4761962890625,-7708.86767578125,14619.033203125,5008.37939453125,10679.5625,17208.2578125,10869.5029296875,17285.34765625,7842.38134765625,11558.533203125,6198.08837890625,-0.0,7090.568359375,14178.7529296875,8550.484375,11854.9658203125,20862.421875,8451.14453125,-1698.3350830078125,9300.708984375,7478.39599609375,27120.11328125,7672.31005859375,14265.3779296875,-4831.94970703125,-8115.7685546875,9244.283203125,5093.41552734375,9986.5595703125,7202.62548828125,7170.8359375,7556.27978515625,4547.43701171875,10756.65234375,9878.4765625,9057.521484375,-12799.8994140625,-0.0,0.0,11367.7978515625,7602.37353515625,-611.1463012695312,0.0,14236.767578125
-3193.219482421875,-8555.2529296875,8039.474609375,11463.1650390625,16419.88671875,17212.232421875,14757.3154296875,14484.72265625,14319.419921875,10825.79296875,18824.736328125,0.0,13672.5107421875,0.0,13846.556640625,17730.39453125,28413.13671875,13937.1552734375,9758.47265625,7640.5205078125,5808.67138671875,16330.083984375,14521.28125,11248.5888671875,0.0,3331.502197265625,7980.6640625,6197.2939453125,761.3499755859375,-7730.3251953125,14609.49609375,5001.22705078125,10670.8212890625,17201.900390625,10859.171875,17272.630859375,7829.666015625,11541.048828125,6182.19384765625,-0.0,7085.00537109375,14171.6005859375,8540.1533203125,11836.6884765625,20848.115234375,8431.275390625,-1686.4140625,9295.9404296875,7470.44873046875,27117.728515625,7660.38916015625,14226.4365234375,-4834.333984375,-8147.55712890625,9229.18359375,5082.2890625,9985.7646484375,7162.09423828125,7154.146484375,7545.1533203125,4541.8740234375,10736.783203125,9864.1708984375,9040.0380859375,-12818.1767578125,-0.0,0.0,11359.0556640625,7580.12158203125,-619.0935668945312,0.0,14230.41015625
-3170.17236328125,-8557.6376953125,8047.42138671875,11479.060546875,16428.62890625,17222.5625,14769.236328125,14485.5185546875,14331.3408203125,10825.79296875,18836.65625,0.0,13689.2001953125,0.0,13866.4248046875,17723.2421875,28425.8515625,13945.8974609375,9765.625,7646.083984375,5819.79736328125,16344.388671875,14532.4072265625,11257.3310546875,0.0,3350.57568359375,7995.7646484375,6201.26708984375,791.5496826171875,-7735.09375,14620.6220703125,5010.763671875,10679.5625,17213.822265625,10869.5029296875,17282.16796875,7839.9970703125,11548.201171875,6194.90966796875,-0.0,7092.95263671875,14183.521484375,8551.2802734375,11844.634765625,20856.857421875,8431.275390625,-1675.287841796875,9312.6298828125,7480.7802734375,27128.85546875,7675.48876953125,14219.2841796875,-4804.92919921875,-8153.12109375,9236.3359375,5095.7998046875,10007.22265625,7163.68359375,7162.09423828125,7539.59033203125,4560.947265625,10743.935546875,9868.939453125,9048.779296875,-12779.236328125,-0.0,0.0,11359.0556640625,7598.39990234375,-619.0935668945312,0.0,14231.9990234375
-3136.7939453125,-8513.1328125,8074.44287109375,11513.2333984375,16461.21484375,17243.2265625,14799.435546875,14514.9228515625,14363.1298828125,10863.14453125,18869.2421875,0.0,13717.015625,0.0,13898.2138671875,17762.18359375,28455.2578125,13976.8916015625,9795.029296875,7682.6416015625,5850.7919921875,16372.2041015625,14560.22265625,11284.3515625,0.0,3368.8544921875,8026.75927734375,6227.4931640625,820.9546508789062,-7703.30419921875,14650.02734375,5040.9638671875,10709.7626953125,17245.611328125,10900.4970703125,17308.392578125,7871.787109375,11577.6064453125,6221.93017578125,-0.0,7124.7421875,14209.7470703125,8581.4794921875,11867.6826171875,20888.646484375,8459.8857421875,-1653.8302001953125,9347.59765625,7512.5693359375,27126.470703125,7710.45703125,14251.0732421875,-4777.908203125,-8091.9267578125,9270.5087890625,5141.099609375,10025.5009765625,7202.62548828125,7188.3203125,7562.63720703125,4593.53125,10774.9296875,9901.5234375,9088.5166015625,-12743.47265625,-0.0,0.0,11398.7919921875,7630.189453125,-582.5360717773438,0.0,14269.3515625
-3157.45654296875,-8551.2802734375,8041.85888671875,11485.4169921875,16430.21875,17217.0,14766.8525390625,14490.287109375,14324.982421875,10834.5341796875,18830.298828125,0.0,13688.4052734375,0.0,13868.80859375,17745.494140625,28425.8515625,13945.8974609375,9766.4189453125,7650.85205078125,5821.38671875,16343.59375,14530.0224609375,11256.53515625,0.0,3338.65478515625,7994.1748046875,6214.77734375,777.2445678710938,-7733.50390625,14621.4169921875,5014.73779296875,10677.9736328125,17216.205078125,10867.9130859375,17281.373046875,7839.9970703125,11549.7900390625,6190.14111328125,-0.0,7091.36328125,14182.7265625,8550.484375,11840.6611328125,20856.0625,8433.6591796875,-1695.9508056640625,9319.7822265625,7479.98583984375,27097.06640625,7677.078125,14228.0263671875,-4821.61865234375,-8111.79443359375,9233.951171875,5096.59423828125,9997.685546875,7170.04150390625,7167.6572265625,7536.4111328125,4562.53662109375,10746.3193359375,9871.3232421875,9052.75390625,-12790.3623046875,-0.0,0.0,11382.1025390625,7593.6318359375,-611.9410400390625,0.0,14238.357421875
-3182.09326171875,-8577.505859375,8019.6064453125,11451.244140625,16404.787109375,17189.98046875,14745.39453125,14468.0341796875,14304.3203125,10810.6923828125,18804.869140625,0.0,13670.126953125,0.0,13846.556640625,17723.2421875,28396.447265625,13918.08203125,9741.783203125,7626.21533203125,5792.7763671875,16315.7783203125,14505.38671875,11231.8994140625,0.0,3301.302734375,7971.9228515625,6191.73046875,733.5344848632812,-7761.31982421875,14592.806640625,4982.1533203125,10650.9521484375,17183.623046875,10841.6875,17253.556640625,7815.36083984375,11525.154296875,6167.888671875,-0.0,7068.31591796875,14150.142578125,8526.642578125,11819.203125,20833.810546875,8410.61328125,-1726.9453125,9284.01953125,7456.14404296875,27076.40234375,7654.82568359375,14206.568359375,-4841.486328125,-8174.57861328125,9210.904296875,5055.2685546875,9982.5859375,7143.8154296875,7158.12060546875,7516.54296875,4533.1318359375,10721.68359375,9847.4814453125,9028.9111328125,-12827.7138671875,-0.0,0.0,11359.0556640625,7576.9423828125,-633.398681640625,0.0,14215.310546875
-3170.967041015625,-8525.8486328125,8022.78515625,11467.93359375,16408.76171875,17197.927734375,14749.3681640625,14466.4453125,14310.677734375,10811.48828125,18793.7421875,0.0,13671.7158203125,0.0,13844.966796875,17724.037109375,28405.189453125,13924.439453125,9745.7568359375,7630.189453125,5796.75048828125,16325.3154296875,14507.7705078125,11234.283203125,0.0,3322.76025390625,7975.89599609375,6167.888671875,738.3028564453125,-7744.63037109375,14600.75390625,4993.27978515625,10658.900390625,17193.158203125,10845.6611328125,17260.708984375,7819.3349609375,11529.1279296875,6164.70947265625,-0.0,7071.4951171875,14164.4482421875,8529.822265625,11819.9990234375,20838.580078125,8412.2021484375,-1746.8134765625,9299.119140625,7458.52783203125,27094.68359375,7659.59423828125,14205.7734375,-4831.1552734375,-8155.50537109375,9215.6728515625,5091.03173828125,9980.99609375,7167.6572265625,7160.5048828125,7521.3115234375,4558.5634765625,10721.68359375,9852.25,9036.064453125,-12807.845703125,-0.0,0.0,11367.00390625,7592.04248046875,-627.8355712890625,0.0,14220.8740234375
-3169.377685546875,-8501.2119140625,8029.9375,11487.8017578125,16410.3515625,17207.46484375,14750.1630859375,14472.8017578125,14318.625,10805.9248046875,18800.099609375,0.0,13670.126953125,0.0,13848.1455078125,17733.57421875,28417.111328125,13931.591796875,9747.345703125,7631.77880859375,5802.3134765625,16335.6455078125,14513.3330078125,11239.8466796875,0.0,3333.091796875,7975.89599609375,6179.0146484375,751.0185546875,-7727.94091796875,14607.90625,5008.37939453125,10666.052734375,17206.66796875,10851.2236328125,17267.86328125,7821.71923828125,11533.1015625,6150.404296875,-0.0,7077.8525390625,14177.1630859375,8531.4111328125,11827.1513671875,20840.962890625,8416.17578125,-1718.2032470703125,9318.1923828125,7457.7333984375,27097.859375,7661.18359375,14214.515625,-4814.4658203125,-8140.40478515625,9217.2626953125,5087.8525390625,9976.2275390625,7171.630859375,7153.35205078125,7534.02734375,4580.02099609375,10724.0673828125,9854.634765625,9037.654296875,-12795.130859375,-0.0,0.0,11362.2353515625,7610.3212890625,-631.8092041015625,0.0,14220.8740234375
-3168.5830078125,-8516.3115234375,8045.037109375,11494.9541015625,16418.298828125,17210.642578125,14753.341796875,14482.3388671875,14322.5986328125,10809.103515625,18824.736328125,0.0,13677.279296875,0.0,13847.3515625,17751.05859375,28425.8515625,13935.56640625,9753.7041015625,7633.3681640625,5811.85009765625,16341.208984375,14519.69140625,11246.9990234375,0.0,3337.0654296875,7979.0751953125,6193.31982421875,754.9921875,-7719.19873046875,14612.6748046875,5020.30029296875,10676.3837890625,17215.41015625,10858.376953125,17274.220703125,7824.89794921875,11539.458984375,6182.98876953125,-0.0,7092.15771484375,14181.931640625,8536.1796875,11832.7138671875,20841.755859375,8420.1494140625,-1686.4140625,9328.5244140625,7465.6806640625,27102.62890625,7660.38916015625,14231.205078125,-4800.955078125,-8141.2001953125,9229.9775390625,5101.36279296875,9979.4072265625,7175.6044921875,7146.994140625,7541.1796875,4600.68359375,10728.0419921875,9857.8134765625,9036.064453125,-12801.48828125,-0.0,0.0,11352.6982421875,7601.5791015625,-637.372314453125,0.0,14216.10546875
-3152.688232421875,-8530.6171875,8054.57421875,11493.365234375,16419.88671875,17216.205078125,14753.341796875,14487.107421875,14319.419921875,10815.4609375,18839.8359375,0.0,13678.07421875,0.0,13840.9931640625,17762.98046875,28433.798828125,13938.744140625,9756.8828125,7632.57373046875,5818.2080078125,16343.59375,14521.28125,11250.97265625,0.0,3339.44970703125,7977.48583984375,6204.4462890625,753.4027099609375,-7701.71484375,14616.6484375,5029.04248046875,10685.1259765625,17220.974609375,10863.9404296875,17277.3984375,7828.076171875,11543.43359375,6203.6513671875,-0.0,7096.92626953125,14185.111328125,8536.974609375,11836.6884765625,20844.140625,8423.328125,-1696.7454833984375,9325.3447265625,7470.44873046875,27110.576171875,7654.03125,14239.15234375,-4793.00830078125,-8117.3583984375,9217.2626953125,5106.92578125,9979.4072265625,7188.3203125,7153.35205078125,7529.2587890625,4609.42578125,10727.24609375,9857.8134765625,9033.6796875,-12799.103515625,-0.0,0.0,11346.33984375,7588.86328125,-631.8092041015625,0.0,14218.4892578125
-3114.541259765625,-8499.6220703125,8064.90625,11520.3857421875,16433.396484375,17235.279296875,14762.87890625,14500.6181640625,14328.162109375,10836.1240234375,18845.400390625,0.0,13688.4052734375,0.0,13848.9404296875,17773.310546875,28451.28515625,13954.6396484375,9769.5986328125,7646.083984375,5834.1025390625,16361.8720703125,14534.791015625,11264.4833984375,0.0,3358.523193359375,7988.6123046875,6223.52001953125,765.3236083984375,-7691.38330078125,14634.1328125,5050.50048828125,10701.0205078125,17239.251953125,10878.2451171875,17294.087890625,7837.61328125,11556.1484375,6219.5458984375,-0.0,7112.0263671875,14204.1845703125,8548.8955078125,11854.171875,20855.267578125,8438.427734375,-1717.4085693359375,9350.7763671875,7480.7802734375,27129.650390625,7665.9521484375,14252.6630859375,-4769.9609375,-8103.84765625,9218.056640625,5090.23681640625,9988.9443359375,7211.3671875,7162.88916015625,7529.2587890625,4627.70458984375,10739.962890625,9870.529296875,9047.1904296875,-12780.0302734375,-0.0,0.0,11358.2607421875,7592.04248046875,-608.7620849609375,0.0,14247.099609375
-3118.51513671875,-8490.8798828125,8069.67431640625,11534.6904296875,16436.576171875,17239.251953125,14769.236328125,14499.0283203125,14336.9033203125,10847.2509765625,18846.193359375,0.0,13692.37890625,0.0,13859.2724609375,17750.263671875,28453.66796875,13960.2021484375,9771.9833984375,7655.62060546875,5836.48681640625,16369.0244140625,14537.970703125,11266.8671875,0.0,3378.391357421875,7992.5849609375,6219.5458984375,774.065673828125,-7733.50390625,14636.5166015625,5046.5263671875,10704.2001953125,17244.81640625,10880.6298828125,17298.857421875,7842.38134765625,11557.73828125,6231.466796875,-0.0,7110.43701171875,14212.1318359375,8552.869140625,11855.76171875,20860.830078125,8443.1962890625,-1670.51953125,9365.8759765625,7483.958984375,27133.623046875,7673.8994140625,14237.5634765625,-4762.80810546875,-8145.1728515625,9241.8984375,5097.38916015625,9996.0966796875,7197.06201171875,7171.630859375,7537.2060546875,4618.962890625,10744.73046875,9877.681640625,9059.90625,-12782.4140625,-0.0,0.0,11360.6455078125,7602.37353515625,-604.7884521484375,0.0,14260.609375
-3115.336181640625,-8446.3759765625,8075.2373046875,11521.1796875,16440.55078125,17235.279296875,14774.7998046875,14495.849609375,14344.8515625,10842.482421875,18860.498046875,0.0,13695.5576171875,0.0,13868.0146484375,17747.083984375,28455.2578125,13961.7919921875,9774.3671875,7658.0048828125,5839.666015625,16365.8466796875,14538.7646484375,11266.072265625,0.0,3367.264892578125,7998.14892578125,6214.77734375,779.6287841796875,-7719.99365234375,14638.1064453125,5047.3212890625,10709.7626953125,17244.81640625,10883.013671875,17296.47265625,7844.765625,11556.943359375,6268.8193359375,-0.0,7113.61572265625,14207.36328125,8556.8427734375,11851.787109375,20864.009765625,8444.7861328125,-1637.140869140625,9353.1611328125,7489.5224609375,27124.880859375,7678.66748046875,14231.205078125,-4757.24560546875,-8141.99462890625,9259.3828125,5114.87353515625,10006.427734375,7193.08837890625,7177.98876953125,7541.1796875,4638.0361328125,10749.4990234375,9880.06640625,9059.90625,-12785.59375,-0.0,0.0,11366.2080078125,7623.8310546875,-607.1726684570312,0.0,14253.45703125
-3075.599609375,-8405.0498046875,8080.005859375,11525.9482421875,16447.703125,17245.611328125,14781.9521484375,14503.001953125,14354.388671875,10840.892578125,18864.47265625,0.0,13713.8369140625,0.0,13881.5244140625,17766.15625,28464.794921875,13971.3291015625,9781.51953125,7662.77294921875,5846.0234375,16376.1767578125,14548.3017578125,11274.814453125,0.0,3383.954345703125,8009.2744140625,6221.93017578125,789.960205078125,-7709.662109375,14648.4375,5064.8056640625,10716.12109375,17255.1484375,10890.9609375,17306.8046875,7852.71337890625,11564.890625,6264.05078125,-0.0,7119.9736328125,14218.4892578125,8565.5849609375,11862.119140625,20872.751953125,8447.96484375,-1643.498779296875,9358.7236328125,7495.8798828125,27139.982421875,7688.2041015625,14243.1259765625,-4746.9140625,-8063.31640625,9271.3037109375,5162.55712890625,10017.5546875,7195.47265625,7189.90966796875,7541.974609375,4667.44091796875,10761.419921875,9887.21875,9060.7001953125,-12772.8779296875,-0.0,0.0,11378.12890625,7637.341796875,-610.3515625,0.0,14237.5634765625
-3053.347412109375,-8420.9443359375,8082.3896484375,11526.744140625,16454.060546875,17251.173828125,14789.1044921875,14513.3330078125,14361.541015625,10848.83984375,18866.857421875,0.0,13721.783203125,0.0,13888.6767578125,17786.025390625,28470.357421875,13974.5078125,9787.876953125,7672.31005859375,5850.7919921875,16379.3564453125,14554.66015625,11281.966796875,0.0,3368.059814453125,8018.0166015625,6230.67236328125,796.3180541992188,-7696.15185546875,14654.0,5071.9580078125,10720.09375,17260.708984375,10897.318359375,17312.369140625,7859.07080078125,11570.4541015625,6249.74560546875,-0.0,7124.7421875,14220.8740234375,8571.9423828125,11870.06640625,20880.69921875,8455.1171875,-1651.446044921875,9358.7236328125,7503.03271484375,27141.5703125,7695.35693359375,14259.0205078125,-4739.76123046875,-8050.60107421875,9276.072265625,5157.78857421875,10031.064453125,7197.06201171875,7197.85693359375,7545.1533203125,4667.44091796875,10767.77734375,9893.576171875,9070.2373046875,-12770.4931640625,-0.0,0.0,11386.87109375,7647.67333984375,-612.7357177734375,0.0,14235.1787109375
-3071.6259765625,-8444.7861328125,8067.29052734375,11500.517578125,16433.396484375,17230.509765625,14765.2626953125,14491.8759765625,14325.7783203125,10826.587890625,18854.140625,0.0,13696.3525390625,0.0,13864.8349609375,17761.388671875,28454.462890625,13957.0234375,9766.4189453125,7642.1103515625,5833.3076171875,16360.283203125,14533.2021484375,11260.509765625,0.0,3324.349609375,7994.1748046875,6211.5986328125,772.4761962890625,-7713.6357421875,14636.5166015625,5058.447265625,10702.6103515625,17242.431640625,10877.4501953125,17292.5,7836.81884765625,11550.5859375,6239.4140625,-0.0,7108.052734375,14200.2109375,8550.484375,11847.01953125,20853.677734375,8430.48046875,-1657.8038330078125,9332.498046875,7482.3701171875,27112.166015625,7672.31005859375,14235.9736328125,-4767.57666015625,-8049.01123046875,9236.3359375,5094.2099609375,10010.4013671875,7177.1943359375,7161.29931640625,7524.490234375,4651.54638671875,10745.525390625,9867.3505859375,9036.064453125,-12797.5146484375,-0.0,0.0,11367.7978515625,7600.7841796875,-627.8355712890625,0.0,14224.052734375
-3077.98388671875,-8426.5068359375,8077.62158203125,11515.6171875,16437.373046875,17238.458984375,14764.4677734375,14484.72265625,14309.8828125,10807.5146484375,18854.9375,0.0,13693.173828125,0.0,13868.0146484375,17741.521484375,28462.41015625,13961.7919921875,9764.03515625,7623.8310546875,5840.46044921875,16369.0244140625,14534.791015625,11263.6884765625,0.0,3354.54931640625,7994.1748046875,6215.572265625,762.939453125,-7731.11962890625,14642.875,5067.98388671875,10712.146484375,17251.173828125,10880.6298828125,17298.857421875,7834.4345703125,11548.201171875,6256.103515625,-0.0,7115.205078125,14215.310546875,8551.2802734375,11850.1982421875,20844.935546875,8421.73828125,-1644.29345703125,9348.392578125,7485.54833984375,27117.728515625,7670.720703125,14225.642578125,-4762.013671875,-8004.50634765625,9234.74609375,5084.67333984375,10010.4013671875,7175.6044921875,7146.994140625,7520.51708984375,4650.75146484375,10748.7041015625,9858.6083984375,9010.6328125,-12791.951171875,-0.0,0.0,11365.4140625,7573.76318359375,-628.6303100585938,0.0,14212.92578125
-3082.752197265625,-8415.3818359375,8095.900390625,11527.5380859375,16457.23828125,17251.173828125,14785.92578125,14506.1806640625,14334.51953125,10824.998046875,18867.650390625,0.0,13710.658203125,0.0,13889.4716796875,17762.18359375,28479.099609375,13977.6865234375,9782.314453125,7645.2890625,5857.1494140625,16380.9453125,14555.4541015625,11281.1728515625,0.0,3383.954345703125,8018.0166015625,6233.056640625,778.039306640625,-7706.4833984375,14657.974609375,5083.87890625,10730.42578125,17267.86328125,10898.9072265625,17313.95703125,7854.30224609375,11566.4794921875,6279.9453125,-0.0,7133.48388671875,14217.6943359375,8572.7373046875,11869.271484375,20866.39453125,8443.1962890625,-1636.34619140625,9361.107421875,7506.2119140625,27139.1875,7693.767578125,14247.099609375,-4718.3037109375,-7989.40673828125,9252.23046875,5137.12548828125,10028.6796875,7195.47265625,7170.04150390625,7545.1533203125,4669.03076171875,10766.1884765625,9878.4765625,9033.6796875,-12773.6728515625,-0.0,0.0,11386.87109375,7602.37353515625,-609.5568237304688,0.0,14224.052734375
-3062.089111328125,-8409.0234375,8096.69482421875,11520.3857421875,16459.623046875,17247.99609375,14785.92578125,14508.5654296875,14343.26171875,10827.3818359375,18877.982421875,0.0,13701.916015625,0.0,13875.1669921875,17774.900390625,28480.6875,13977.6865234375,9784.6982421875,7652.44140625,5857.1494140625,16377.767578125,14553.8642578125,11280.376953125,0.0,3387.13330078125,8013.24853515625,6224.314453125,779.6287841796875,-7690.58837890625,14656.384765625,5087.8525390625,10732.0146484375,17264.685546875,10898.9072265625,17312.369140625,7855.09765625,11568.0693359375,6291.0712890625,-0.0,7135.0732421875,14210.5419921875,8570.353515625,11866.0927734375,20871.95703125,8445.580078125,-1635.551513671875,9353.1611328125,7506.2119140625,27145.544921875,7691.38330078125,14251.8681640625,-4699.22998046875,-8025.9638671875,9256.9990234375,5156.19921875,10004.0439453125,7205.80419921875,7181.96240234375,7544.35888671875,4671.4150390625,10766.9833984375,9882.4501953125,9046.3955078125,-12780.0302734375,-0.0,0.0,11383.6923828125,7621.447265625,-615.9146728515625,0.0,14219.2841796875
-3100.236083984375,-8411.4072265625,8060.93212890625,11497.337890625,16422.271484375,17217.0,14750.1630859375,14479.955078125,14316.2412109375,10805.1298828125,18821.55859375,0.0,13662.974609375,0.0,13831.4560546875,17744.69921875,28452.873046875,13945.8974609375,9754.498046875,7629.39453125,5826.1552734375,16349.951171875,14521.28125,11250.97265625,0.0,3345.807373046875,7971.12744140625,6194.90966796875,744.6607055664062,-7700.919921875,14623.80078125,5059.2421875,10698.6357421875,17232.89453125,10865.529296875,17282.962890625,7824.89794921875,11539.458984375,6251.3349609375,-0.0,7096.1318359375,14183.521484375,8534.5908203125,11835.0986328125,20843.34765625,8417.765625,-1662.572265625,9328.5244140625,7464.8857421875,27105.013671875,7653.236328125,14222.462890625,-4762.013671875,-8027.5537109375,9224.4150390625,5122.02587890625,9957.94921875,7180.37255859375,7158.12060546875,7515.74853515625,4643.59912109375,10741.5517578125,9855.4296875,9024.9375,-12805.4619140625,-0.0,0.0,11353.4931640625,7591.24755859375,-647.7037963867188,0.0,14196.236328125
-3093.083740234375,-8414.5859375,8060.1376953125,11503.6962890625,16421.4765625,17221.76953125,14751.751953125,14475.9814453125,14311.47265625,10810.6923828125,18785.794921875,0.0,13633.568359375,0.0,13837.01953125,17730.39453125,28451.28515625,13945.1025390625,9755.2939453125,7630.98388671875,5828.53955078125,16351.5419921875,14522.8701171875,11254.1513671875,0.0,3358.523193359375,7975.89599609375,6198.8828125,746.2501220703125,-7731.91455078125,14624.595703125,5055.2685546875,10695.45703125,17233.689453125,10866.32421875,17285.34765625,7826.4873046875,11539.458984375,6234.64599609375,-0.0,7095.3369140625,14189.8798828125,8540.1533203125,11837.482421875,20842.552734375,8418.5595703125,-1677.6719970703125,9334.8818359375,7463.29638671875,27112.9609375,7658.0048828125,14213.7216796875,-4777.908203125,-8032.32177734375,9226.0048828125,5110.10498046875,9972.2548828125,7181.16748046875,7158.9150390625,7518.1328125,4641.21484375,10745.525390625,9855.4296875,9027.322265625,-12799.103515625,-0.0,0.0,11341.572265625,7583.30029296875,-646.9090576171875,0.0,14209.7470703125
-3061.29443359375,-8415.3818359375,8080.80029296875,11533.1015625,16445.318359375,17244.81640625,14771.62109375,14488.697265625,14318.625,10818.640625,18837.451171875,0.0,13651.84765625,0.0,13864.8349609375,17738.341796875,28467.974609375,13964.17578125,9769.5986328125,7641.3154296875,5846.818359375,16373.79296875,14540.3544921875,11271.6357421875,0.0,3408.591064453125,8004.50634765625,6216.3671875,758.1710815429688,-7744.63037109375,14643.6689453125,5073.54736328125,10713.736328125,17253.556640625,10886.1923828125,17305.216796875,7843.1767578125,11555.3544921875,6229.87744140625,-0.0,7116.79443359375,14221.66796875,8560.81640625,11856.5556640625,20855.267578125,8430.48046875,-1664.16162109375,9364.287109375,7484.75390625,27147.134765625,7681.0517578125,14224.052734375,-4729.4296875,-8056.16357421875,9249.05078125,5149.04638671875,10003.2490234375,7201.0361328125,7174.81005859375,7532.43798828125,4649.95703125,10765.3935546875,9866.5556640625,9040.83203125,-12787.1826171875,-0.0,0.0,11341.572265625,7593.6318359375,-645.3196411132812,0.0,14207.36328125
-3070.831298828125,-8424.123046875,8081.59521484375,11525.154296875,16449.29296875,17234.484375,14770.03125,14487.107421875,14319.419921875,10814.6669921875,18881.162109375,0.0,13717.810546875,0.0,13863.24609375,17737.546875,28465.58984375,13964.17578125,9769.5986328125,7642.1103515625,5844.43408203125,16368.23046875,14538.7646484375,11266.8671875,0.0,3368.8544921875,8004.50634765625,6210.00927734375,761.3499755859375,-7698.5361328125,14642.875,5074.34228515625,10714.53125,17251.173828125,10887.7822265625,17300.447265625,7842.38134765625,11552.9697265625,6262.46142578125,-0.0,7119.9736328125,14208.953125,8561.611328125,11851.787109375,20856.0625,8431.275390625,-1658.5985107421875,9357.134765625,7497.46923828125,27125.677734375,7678.66748046875,14225.642578125,-4715.91943359375,-8041.064453125,9256.9990234375,5128.3837890625,9997.685546875,7193.88330078125,7167.6572265625,7539.59033203125,4644.39404296875,10766.1884765625,9866.5556640625,9040.83203125,-12775.26171875,-0.0,0.0,11353.4931640625,7583.30029296875,-635.7828979492188,0.0,14209.7470703125
-3078.778564453125,-8468.6279296875,8070.46875,11530.716796875,16438.166015625,17232.099609375,14761.2890625,14491.8759765625,14317.830078125,10805.9248046875,18867.650390625,0.0,13730.5263671875,0.0,13859.2724609375,17751.8515625,28460.025390625,13960.998046875,9764.03515625,7636.546875,5837.28173828125,16367.435546875,14531.6123046875,11266.8671875,0.0,3354.54931640625,7990.201171875,6213.18798828125,775.6550903320312,-7696.94677734375,14636.5166015625,5067.189453125,10709.7626953125,17247.19921875,10879.0400390625,17295.6796875,7836.0244140625,11552.1748046875,6271.998046875,-0.0,7110.43701171875,14203.3896484375,8549.6904296875,11850.9931640625,20849.705078125,8433.6591796875,-1660.1881103515625,9363.4921875,7494.291015625,27123.29296875,7669.92578125,14239.15234375,-4734.9931640625,-8065.70068359375,9249.05078125,5124.41015625,10003.2490234375,7184.3466796875,7155.736328125,7567.40576171875,4632.47314453125,10762.21484375,9865.7607421875,9025.7333984375,-12760.95703125,-0.0,0.0,11367.00390625,7580.12158203125,-628.6303100585938,0.0,14212.92578125
-3065.268310546875,-8488.49609375,8080.005859375,11556.1484375,16450.0859375,17247.19921875,14773.2099609375,14507.7705078125,14334.51953125,10824.998046875,18871.625,0.0,13719.3994140625,0.0,13873.5771484375,17772.515625,28471.150390625,13972.9189453125,9776.751953125,7650.05712890625,5850.7919921875,16380.1513671875,14543.533203125,11279.5830078125,0.0,3376.007080078125,8003.7119140625,6229.08251953125,785.1918334960938,-7687.40966796875,14649.2314453125,5076.7265625,10720.888671875,17259.916015625,10892.55078125,17309.984375,7848.73974609375,11565.685546875,6269.61376953125,-0.0,7123.15234375,14222.462890625,8562.4052734375,11866.88671875,20863.21484375,8446.3759765625,-1653.0355224609375,9388.12890625,7509.39013671875,27136.802734375,7685.02587890625,14257.4306640625,-4719.0986328125,-8096.69482421875,9270.5087890625,5141.099609375,10015.169921875,7201.0361328125,7178.783203125,7572.173828125,4646.7783203125,10778.109375,9880.8603515625,9034.474609375,-12741.0888671875,-0.0,0.0,11366.2080078125,7611.11572265625,-617.504150390625,0.0,14228.0263671875
-3035.86328125,-8445.580078125,8092.72119140625,11550.5859375,16460.41796875,17257.53125,14790.6943359375,14515.7177734375,14350.4140625,10851.2236328125,18874.802734375,0.0,13720.1943359375,0.0,13894.240234375,17775.693359375,28475.919921875,13980.865234375,9790.26171875,7674.69384765625,5858.7392578125,16386.509765625,14554.66015625,11289.9140625,0.0,3387.13330078125,8023.57958984375,6237.82470703125,800.2916870117188,-7709.662109375,14658.7685546875,5086.26318359375,10727.24609375,17264.685546875,10903.67578125,17320.314453125,7863.83935546875,11576.0166015625,6256.8984375,-0.0,7132.68896484375,14230.41015625,8577.505859375,11878.013671875,20878.314453125,8454.3232421875,-1644.29345703125,9384.1552734375,7518.92724609375,27146.33984375,7703.30419921875,14262.994140625,-4711.1513671875,-8039.474609375,9282.4296875,5133.94677734375,10021.52734375,7216.93017578125,7201.0361328125,7554.68994140625,4674.59326171875,10788.4404296875,9895.9609375,9071.8271484375,-12733.1416015625,-0.0,0.0,11372.56640625,7630.98388671875,-603.9937133789062,0.0,14252.6630859375
-3028.710693359375,-8425.712890625,8091.9267578125,11526.744140625,16460.41796875,17252.763671875,14789.1044921875,14506.9765625,14335.314453125,10849.634765625,18877.1875,0.0,13716.220703125,0.0,13894.240234375,17769.3359375,28472.7421875,13976.8916015625,9786.2880859375,7666.74658203125,5855.560546875,16379.3564453125,14552.275390625,11285.1455078125,0.0,3379.980712890625,8021.99072265625,6233.85107421875,805.06005859375,-7717.609375,14654.0,5085.46826171875,10724.0673828125,17258.326171875,10902.8818359375,17315.546875,7859.8662109375,11570.4541015625,6250.5400390625,-0.0,7135.0732421875,14219.2841796875,8574.326171875,11872.451171875,20871.162109375,8451.14453125,-1660.9827880859375,9357.134765625,7520.51708984375,27148.72265625,7699.33056640625,14247.89453125,-4718.3037109375,-8025.16943359375,9274.482421875,5137.92041015625,10011.1962890625,7210.57275390625,7181.96240234375,7550.71630859375,4681.74609375,10783.671875,9889.6025390625,9068.6484375,-12748.2412109375,-0.0,0.0,11380.513671875,7600.7841796875,-602.404296875,0.0,14251.0732421875
-3071.6259765625,-8432.0703125,8055.369140625,11490.9814453125,16424.65625,17218.58984375,14750.95703125,14472.8017578125,14296.3720703125,10790.8251953125,18852.552734375,0.0,13686.81640625,0.0,13856.8876953125,17747.87890625,28442.541015625,13943.5126953125,9749.73046875,7611.11572265625,5821.38671875,16345.9775390625,14516.5126953125,11252.5625,0.0,3350.57568359375,7983.84375,6205.24072265625,762.939453125,-7731.91455078125,14620.6220703125,5052.884765625,10690.689453125,17224.154296875,10867.119140625,17282.16796875,7822.513671875,11536.2802734375,6231.466796875,-0.0,7096.92626953125,14185.9052734375,8536.1796875,11837.482421875,20831.42578125,8409.8173828125,-1663.366943359375,9324.55078125,7483.16455078125,27115.345703125,7660.38916015625,14216.10546875,-4750.88720703125,-8094.310546875,9246.6669921875,5118.8466796875,9987.3544921875,7181.96240234375,7135.8681640625,7518.92724609375,4643.59912109375,10748.7041015625,9847.4814453125,9005.0693359375,-12785.59375,-0.0,0.0,11355.08203125,7558.6640625,-649.2932739257812,0.0,14195.4423828125
-3095.4677734375,-8420.9443359375,8051.3955078125,11494.16015625,16417.50390625,17209.84765625,14739.0361328125,14464.85546875,14290.015625,10782.0830078125,18853.345703125,0.0,13678.8681640625,0.0,13834.6357421875,17737.546875,28438.568359375,13936.3603515625,9740.193359375,7599.9892578125,5817.4130859375,16340.4140625,14508.5654296875,11242.23046875,0.0,3340.244384765625,7969.53857421875,6195.7041015625,751.813232421875,-7743.04052734375,14615.853515625,5052.08984375,10685.9208984375,17222.5625,10858.376953125,17275.810546875,7812.97705078125,11529.1279296875,6220.3408203125,-0.0,7088.97900390625,14182.7265625,8525.8486328125,11827.9453125,20821.890625,8401.076171875,-1645.8829345703125,9328.5244140625,7470.44873046875,27097.06640625,7647.67333984375,14213.7216796875,-4745.32470703125,-8095.10498046875,9243.48828125,5104.5419921875,9977.8173828125,7169.24658203125,7128.71533203125,7501.443359375,4630.8837890625,10740.7568359375,9838.740234375,8994.73828125,-12785.59375,-0.0,0.0,11355.08203125,7557.869140625,-655.651123046875,0.0,14189.083984375
-3111.362548828125,-8424.123046875,8061.7265625,11502.90234375,16424.65625,17221.76953125,14746.9833984375,14478.3662109375,14311.47265625,10814.6669921875,18850.16796875,0.0,13678.8681640625,0.0,13828.27734375,17749.46875,28445.720703125,13943.5126953125,9752.1142578125,7626.21533203125,5825.36083984375,16350.74609375,14518.1015625,11251.767578125,0.0,3352.165283203125,7972.71728515625,6206.03564453125,778.8340454101562,-7721.5830078125,14623.80078125,5062.42138671875,10694.6630859375,17230.509765625,10867.119140625,17286.142578125,7823.30810546875,11542.6376953125,6207.625,-0.0,7096.1318359375,14193.0576171875,8533.0009765625,11842.2509765625,20836.98828125,8420.9443359375,-1638.7303466796875,9333.29296875,7469.654296875,27110.576171875,7650.85205078125,14228.0263671875,-4744.52978515625,-8084.77392578125,9228.388671875,5114.87353515625,9977.8173828125,7176.3994140625,7146.19970703125,7514.95361328125,4616.57861328125,10751.087890625,9856.2236328125,9027.322265625,-12770.4931640625,-0.0,0.0,11376.5400390625,7584.09521484375,-619.8883056640625,0.0,14228.8203125
-3110.56787109375,-8453.5283203125,8079.21142578125,11511.6435546875,16440.55078125,17236.07421875,14760.494140625,14489.4912109375,14331.3408203125,10835.330078125,18858.91015625,0.0,13693.173828125,0.0,13847.3515625,17753.443359375,28452.873046875,13953.0498046875,9768.0087890625,7646.083984375,5836.48681640625,16361.8720703125,14531.6123046875,11265.2783203125,0.0,3362.49658203125,7990.99658203125,6219.5458984375,787.5760498046875,-7711.251953125,14634.1328125,5060.83154296875,10708.1728515625,17237.6640625,10879.833984375,17297.267578125,7836.81884765625,11553.7646484375,6228.2880859375,-0.0,7112.0263671875,14204.1845703125,8549.6904296875,11854.9658203125,20852.08984375,8435.2490234375,-1627.6041259765625,9342.0341796875,7487.13818359375,27130.4453125,7666.74658203125,14235.9736328125,-4750.0927734375,-8130.8681640625,9248.2568359375,5110.8994140625,9994.5068359375,7193.08837890625,7162.09423828125,7534.02734375,4615.78369140625,10759.0361328125,9871.3232421875,9046.3955078125,-12758.572265625,-0.0,0.0,11382.8974609375,7612.705078125,-607.1726684570312,0.0,14241.5361328125
-3070.03662109375,-8447.96484375,8086.36376953125,11542.6376953125,16453.265625,17255.1484375,14769.236328125,14503.001953125,14332.9306640625,10842.482421875,18866.857421875,0.0,13706.6845703125,0.0,13852.119140625,17751.8515625,28467.974609375,13968.150390625,9779.9296875,7650.85205078125,5851.5869140625,16382.5361328125,14542.7392578125,11281.966796875,0.0,3397.46484375,8000.533203125,6233.056640625,796.3180541992188,-7716.02001953125,14651.6162109375,5068.77880859375,10720.888671875,17258.326171875,10894.9345703125,17317.13671875,7848.73974609375,11566.4794921875,6248.951171875,-0.0,7125.53662109375,14226.4365234375,8560.81640625,11872.451171875,20860.830078125,8447.96484375,-1637.140869140625,9375.4130859375,7501.443359375,27153.4921875,7673.8994140625,14240.7421875,-4754.861328125,-8131.6630859375,9274.482421875,5148.251953125,10004.837890625,7205.00927734375,7162.88916015625,7571.37939453125,4648.3671875,10772.5458984375,9880.06640625,9047.9853515625,-12756.1884765625,-0.0,0.0,11397.998046875,7588.068359375,-594.4569702148438,0.0,14247.099609375
-3093.87841796875,-8471.806640625,8071.26318359375,11519.591796875,16441.345703125,17235.279296875,14761.2890625,14491.8759765625,14320.2138671875,10830.5615234375,18848.578125,0.0,13701.12109375,0.0,13847.3515625,17757.416015625,28452.078125,13956.2294921875,9766.4189453125,7638.13623046875,5838.076171875,16366.6396484375,14530.818359375,11266.8671875,0.0,3354.54931640625,7993.38037109375,6217.95654296875,779.6287841796875,-7694.5625,14636.5166015625,5049.70556640625,10706.583984375,17241.63671875,10879.833984375,17300.447265625,7836.81884765625,11554.55859375,6227.4931640625,-0.0,7110.43701171875,14204.978515625,8550.484375,11854.9658203125,20849.705078125,8437.6337890625,-1660.1881103515625,9351.5712890625,7488.7275390625,27124.0859375,7665.1572265625,14237.5634765625,-4775.52392578125,-8135.63623046875,9261.767578125,5112.4892578125,9994.5068359375,7193.08837890625,7154.146484375,7555.48486328125,4634.0625,10757.4462890625,9868.14453125,9033.6796875,-12776.0576171875,-0.0,0.0,11388.4609375,7575.35302734375,-609.5568237304688,0.0,14230.41015625
-3144.740966796875,-8516.3115234375,8044.24267578125,11480.6494140625,16422.271484375,17214.6171875,14746.9833984375,14475.9814453125,14309.8828125,10814.6669921875,18824.736328125,0.0,13686.81640625,0.0,13842.5830078125,17751.05859375,28429.03125,13934.771484375,9750.525390625,7623.8310546875,5816.61865234375,16344.388671875,14515.7177734375,11246.9990234375,0.0,3319.581298828125,7978.2802734375,6198.08837890625,762.1447143554688,-7707.27783203125,14613.46875,5025.86376953125,10681.9462890625,17217.0,10861.5556640625,17278.1953125,7820.923828125,11537.869140625,6209.21484375,-0.0,7087.3896484375,14176.369140625,8534.5908203125,11835.0986328125,20834.603515625,8419.3544921875,-1675.287841796875,9313.423828125,7469.654296875,27105.80859375,7654.82568359375,14224.8466796875,-4798.5712890625,-8132.45751953125,9216.4677734375,5083.083984375,9984.9697265625,7182.7568359375,7146.19970703125,7519.72216796875,4595.91552734375,10735.98828125,9854.634765625,9024.9375,-12793.541015625,-0.0,0.0,11370.181640625,7574.55810546875,-628.6303100585938,0.0,14212.92578125
-3147.919921875,-8467.0380859375,8057.75341796875,11482.23828125,16433.396484375,17227.33203125,14755.7255859375,14485.5185546875,14322.5986328125,10827.3818359375,18846.193359375,0.0,13697.94140625,0.0,13852.9140625,17749.46875,28439.36328125,13943.5126953125,9759.2666015625,7633.3681640625,5827.7451171875,16354.71875,14526.0498046875,11258.125,0.0,3351.37060546875,7987.81689453125,6209.21484375,768.5025634765625,-7727.14599609375,14624.595703125,5036.98974609375,10694.6630859375,17228.921875,10873.4765625,17290.115234375,7831.255859375,11548.201171875,6236.2353515625,-0.0,7098.51611328125,14189.8798828125,8544.1279296875,11847.8134765625,20844.140625,8428.8916015625,-1668.13525390625,9315.013671875,7480.7802734375,27128.85546875,7662.77294921875,14227.2314453125,-4780.29248046875,-8078.416015625,9223.6201171875,5121.23095703125,9994.5068359375,7191.4990234375,7155.736328125,7525.28515625,4599.88916015625,10741.5517578125,9864.1708984375,9038.4482421875,-12784.798828125,-0.0,0.0,11374.15625,7588.86328125,-619.0935668945312,0.0,14227.2314453125
-3155.072509765625,-8481.34375,8064.90625,11474.2919921875,16441.345703125,17220.974609375,14758.904296875,14479.955078125,14323.3935546875,10827.3818359375,18856.525390625,0.0,13702.7099609375,0.0,13861.65625,17739.931640625,28439.36328125,13943.5126953125,9758.47265625,7636.546875,5829.33447265625,16351.5419921875,14528.43359375,11254.1513671875,0.0,3338.65478515625,7992.5849609375,6204.4462890625,785.986572265625,-7719.19873046875,14624.595703125,5038.57958984375,10699.431640625,17224.947265625,10875.861328125,17287.73046875,7832.05029296875,11545.8173828125,6233.056640625,-0.0,7105.66845703125,14182.7265625,8549.6904296875,11843.044921875,20844.140625,8426.5068359375,-1681.645751953125,9305.4775390625,7491.90673828125,27116.93359375,7669.92578125,14220.078125,-4764.39794921875,-8079.21142578125,9259.3828125,5106.130859375,10003.2490234375,7190.7041015625,7158.12060546875,7530.84814453125,4597.5048828125,10740.7568359375,9864.1708984375,9042.421875,-12778.44140625,-0.0,0.0,11370.9765625,7591.24755859375,-615.9146728515625,0.0,14233.5888671875
-3139.177978515625,-8529.02734375,8055.369140625,11468.728515625,16433.396484375,17215.41015625,14753.341796875,14472.8017578125,14314.6513671875,10813.8720703125,18827.119140625,0.0,13695.5576171875,0.0,13863.24609375,17739.13671875,28431.416015625,13937.1552734375,9753.7041015625,7626.21533203125,5822.181640625,16344.388671875,14521.28125,11248.5888671875,0.0,3331.502197265625,7987.81689453125,6197.2939453125,792.3444213867188,-7709.662109375,14617.443359375,5034.60546875,10690.689453125,17217.794921875,10868.708984375,17280.578125,7825.6923828125,11538.6650390625,6223.52001953125,-0.0,7096.1318359375,14175.57421875,8544.921875,11836.6884765625,20837.783203125,8416.970703125,-1719.792724609375,9299.119140625,7480.7802734375,27105.013671875,7667.54150390625,14219.2841796875,-4784.26611328125,-8085.568359375,9250.640625,5098.18408203125,10000.865234375,7185.93603515625,7154.94140625,7522.90087890625,4586.37841796875,10735.98828125,9856.2236328125,9033.6796875,-12782.4140625,-0.0,0.0,11361.439453125,7577.7373046875,-628.6303100585938,0.0,14220.078125
-3120.899169921875,-8509.1591796875,8055.369140625,11474.2919921875,16436.576171875,17220.974609375,14758.904296875,14479.955078125,14318.625,10818.640625,18835.86328125,0.0,13690.7890625,0.0,13865.6298828125,17748.673828125,28437.7734375,13945.8974609375,9758.47265625,7631.77880859375,5826.1552734375,16350.74609375,14526.84375,11254.1513671875,0.0,3332.297119140625,7993.38037109375,6206.03564453125,792.3444213867188,-7706.4833984375,14623.005859375,5041.75830078125,10693.8681640625,17223.357421875,10875.861328125,17285.34765625,7831.255859375,11545.0224609375,6243.3876953125,-0.0,7096.1318359375,14181.13671875,8548.8955078125,11842.2509765625,20843.34765625,8423.328125,-1675.287841796875,9306.271484375,7483.16455078125,27110.576171875,7672.31005859375,14227.2314453125,-4787.4453125,-8075.2373046875,9247.4619140625,5104.5419921875,9998.48046875,7190.7041015625,7160.5048828125,7525.28515625,4587.17333984375,10743.935546875,9860.1982421875,9035.26953125,-12782.4140625,-0.0,0.0,11367.7978515625,7594.4267578125,-625.451416015625,0.0,14222.462890625
-3152.688232421875,-8472.6015625,8047.42138671875,11480.6494140625,16434.193359375,17219.384765625,14759.7001953125,14485.5185546875,14326.572265625,10831.3564453125,18842.220703125,0.0,13682.0478515625,0.0,13858.4775390625,17755.826171875,28432.2109375,13945.1025390625,9761.6513671875,7642.90478515625,5821.38671875,16352.3349609375,14526.0498046875,11256.53515625,0.0,3337.0654296875,7990.201171875,6207.625,783.6024169921875,-7712.8408203125,14621.4169921875,5029.8369140625,10687.5107421875,17220.974609375,10873.4765625,17285.34765625,7832.8447265625,11548.99609375,6220.3408203125,-0.0,7091.36328125,14183.521484375,8547.3056640625,11843.044921875,20847.3203125,8431.275390625,-1668.13525390625,9311.8349609375,7481.5751953125,27111.37109375,7673.10498046875,14233.5888671875,-4795.392578125,-8098.28466796875,9243.48828125,5087.8525390625,9988.9443359375,7184.3466796875,7159.7099609375,7530.84814453125,4580.81591796875,10745.525390625,9866.5556640625,9047.1904296875,-12768.904296875,-0.0,0.0,11378.9248046875,7610.3212890625,-610.3515625,0.0,14235.1787109375
-3178.914306640625,-8482.138671875,8036.2958984375,11473.49609375,16422.271484375,17209.052734375,14746.9833984375,14471.212890625,14315.4462890625,10821.0244140625,18830.298828125,0.0,13668.537109375,0.0,13842.5830078125,17733.57421875,28421.083984375,13932.3876953125,9749.73046875,7631.77880859375,5809.4658203125,16340.4140625,14513.3330078125,11244.6142578125,0.0,3335.475830078125,7975.89599609375,6190.14111328125,756.5816040039062,-7738.27197265625,14610.291015625,5016.3271484375,10674.7939453125,17209.84765625,10863.9404296875,17275.015625,7820.12939453125,11537.0751953125,6205.24072265625,-0.0,7084.2109375,14177.1630859375,8535.384765625,11831.919921875,20836.98828125,8419.3544921875,-1695.1561279296875,9304.6826171875,7468.859375,27100.244140625,7658.7998046875,14215.310546875,-4810.4921875,-8132.45751953125,9233.951171875,5088.6474609375,9977.8173828125,7166.0673828125,7144.60986328125,7524.490234375,4553.794921875,10733.6044921875,9856.2236328125,9035.26953125,-12785.59375,-0.0,0.0,11369.3876953125,7593.6318359375,-618.298828125,0.0,14221.66796875
-3166.993408203125,-8490.0859375,8036.2958984375,11480.6494140625,16426.244140625,17211.4375,14747.779296875,14468.8291015625,14316.2412109375,10815.4609375,18831.095703125,0.0,13677.279296875,0.0,13852.119140625,17727.216796875,28424.263671875,13933.9765625,9750.525390625,7627.80517578125,5811.85009765625,16342.0048828125,14514.9228515625,11246.2041015625,0.0,3341.0390625,7981.45947265625,6189.34619140625,757.3763427734375,-7739.06689453125,14611.8798828125,5019.505859375,10675.58984375,17212.232421875,10865.529296875,17277.3984375,7819.3349609375,11537.869140625,6196.4990234375,-0.0,7087.3896484375,14181.931640625,8539.359375,11832.7138671875,20837.783203125,8416.970703125,-1722.1768798828125,9313.423828125,7474.42236328125,27105.013671875,7662.77294921875,14208.953125,-4798.5712890625,-8147.55712890625,9231.5673828125,5110.8994140625,9983.3798828125,7166.0673828125,7139.841796875,7522.90087890625,4556.97412109375,10735.1943359375,9854.634765625,9028.1171875,-12798.3095703125,-0.0,0.0,11362.2353515625,7594.4267578125,-630.2197875976562,0.0,14208.953125
-3166.993408203125,-8491.67578125,8034.7060546875,11496.5439453125,16429.423828125,17224.154296875,14750.95703125,14474.3916015625,14317.0361328125,10816.2568359375,18821.55859375,0.0,13686.0205078125,0.0,13856.09375,17733.57421875,28428.236328125,13938.744140625,9755.2939453125,7627.01025390625,5815.82421875,16351.5419921875,14519.69140625,11254.1513671875,0.0,3359.31787109375,7983.84375,6200.47216796875,760.5552978515625,-7720.78857421875,14619.033203125,5025.86376953125,10678.7685546875,17219.384765625,10868.708984375,17286.935546875,7824.103515625,11542.6376953125,6184.578125,-0.0,7085.00537109375,14193.0576171875,8540.9482421875,11843.8408203125,20837.783203125,8420.1494140625,-1706.2822265625,9329.3193359375,7479.98583984375,27130.4453125,7665.1572265625,14215.310546875,-4815.26025390625,-8145.1728515625,9223.6201171875,5115.66796875,9989.73828125,7172.42578125,7146.994140625,7526.87451171875,4575.25244140625,10741.5517578125,9857.0185546875,9024.1435546875,-12789.5673828125,-0.0,0.0,11361.439453125,7597.60546875,-631.8092041015625,0.0,14208.1572265625
-3190.835205078125,-8524.2587890625,8045.037109375,11490.185546875,16434.193359375,17228.126953125,14753.341796875,14480.75,14317.830078125,10823.4091796875,18817.583984375,0.0,13693.173828125,0.0,13844.966796875,17741.521484375,28427.443359375,13943.5126953125,9759.2666015625,7631.77880859375,5820.59228515625,16354.71875,14522.8701171875,11258.919921875,0.0,3347.39697265625,7983.04833984375,6208.419921875,754.9921875,-7716.02001953125,14621.4169921875,5021.09521484375,10683.5361328125,17219.384765625,10872.681640625,17289.3203125,7827.28173828125,11546.611328125,6190.14111328125,-0.0,7093.74755859375,14192.263671875,8545.7158203125,11848.609375,20840.962890625,8425.712890625,-1692.77197265625,9319.7822265625,7485.54833984375,27131.23828125,7661.97802734375,14222.462890625,-4831.1552734375,-8167.42626953125,9237.92578125,5087.0576171875,9988.1484375,7185.93603515625,7160.5048828125,7536.4111328125,4564.12646484375,10744.73046875,9860.9921875,9031.2958984375,-12795.130859375,-0.0,0.0,11372.56640625,7591.24755859375,-620.6830444335938,0.0,14223.2578125
-3191.630126953125,-8568.763671875,8040.26904296875,11474.2919921875,16428.62890625,17216.205078125,14748.5732421875,14472.8017578125,14313.857421875,10819.435546875,18826.326171875,0.0,13697.94140625,0.0,13846.556640625,17735.958984375,28417.90625,13934.771484375,9752.9091796875,7630.189453125,5812.64501953125,16343.59375,14515.7177734375,11250.1787109375,0.0,3298.91845703125,7979.86962890625,6196.4990234375,766.1183471679688,-7719.19873046875,14611.8798828125,5013.14794921875,10678.7685546875,17208.2578125,10864.734375,17279.783203125,7822.513671875,11539.458984375,6189.34619140625,-0.0,7087.3896484375,14182.7265625,8542.5380859375,11836.6884765625,20837.783203125,8420.9443359375,-1692.77197265625,9304.6826171875,7477.6015625,27096.271484375,7659.59423828125,14216.8994140625,-4826.38671875,-8151.53125,9242.6943359375,5082.2890625,9988.9443359375,7181.16748046875,7159.7099609375,7532.43798828125,4544.25830078125,10736.783203125,9856.2236328125,9034.474609375,-12791.951171875,-0.0,0.0,11371.771484375,7588.068359375,-619.8883056640625,0.0,14220.8740234375
-3177.324951171875,-8564.7900390625,8033.1162109375,11467.93359375,16423.06640625,17223.357421875,14749.3681640625,14477.5703125,14315.4462890625,10818.640625,18823.94140625,0.0,13683.63671875,0.0,13859.2724609375,17742.314453125,28414.7265625,13933.9765625,9754.498046875,7631.77880859375,5808.67138671875,16344.388671875,14515.7177734375,11250.97265625,0.0,3308.455322265625,7981.45947265625,6215.572265625,780.4234619140625,-7774.03515625,14610.291015625,5006.7900390625,10673.205078125,17206.66796875,10862.3505859375,17282.962890625,7823.30810546875,11541.84375,6182.19384765625,-0.0,7079.4423828125,14189.8798828125,8541.7431640625,11843.8408203125,20840.16796875,8423.328125,-1701.513916015625,9298.32421875,7471.2431640625,27102.62890625,7664.3623046875,14223.2578125,-4827.18115234375,-8159.47802734375,9228.388671875,5053.67919921875,9990.533203125,7167.6572265625,7163.68359375,7534.02734375,4537.900390625,10737.578125,9858.6083984375,9036.8583984375,-12791.1572265625,-0.0,0.0,11371.771484375,7597.60546875,-620.6830444335938,0.0,14222.462890625
-3155.072509765625,-8525.0537109375,8040.26904296875,11471.9072265625,16429.423828125,17214.6171875,14753.341796875,14479.16015625,14315.4462890625,10816.2568359375,18820.76171875,0.0,13688.4052734375,0.0,13871.193359375,17743.111328125,28417.111328125,13933.9765625,9754.498046875,7630.98388671875,5811.85009765625,16340.4140625,14520.486328125,11251.767578125,0.0,3336.2705078125,7991.791015625,6227.4931640625,779.6287841796875,-7751.78271484375,14611.0849609375,5010.763671875,10676.3837890625,17206.66796875,10866.32421875,17279.783203125,7826.4873046875,11541.84375,6185.373046875,-0.0,7088.97900390625,14180.3427734375,8546.51171875,11841.4560546875,20840.16796875,8422.5341796875,-1698.3350830078125,9303.0927734375,7481.5751953125,27094.68359375,7673.8994140625,14227.2314453125,-4809.69775390625,-8177.75732421875,9237.92578125,5073.54736328125,10000.0693359375,7154.94140625,7166.8623046875,7534.02734375,4544.25830078125,10740.7568359375,9858.6083984375,9033.6796875,-12782.4140625,-0.0,0.0,11361.439453125,7596.01611328125,-625.451416015625,0.0,14216.8994140625
-3153.483154296875,-8535.384765625,8048.216796875,11480.6494140625,16434.98828125,17209.84765625,14754.931640625,14479.16015625,14316.2412109375,10819.435546875,18832.68359375,0.0,13689.9951171875,0.0,13866.4248046875,17748.673828125,28418.69921875,13936.3603515625,9756.087890625,7633.3681640625,5815.82421875,16336.44140625,14522.0751953125,11252.5625,0.0,3364.086181640625,7993.38037109375,6207.625,782.012939453125,-7721.5830078125,14613.46875,5014.73779296875,10681.15234375,17207.46484375,10868.708984375,17277.3984375,7828.87158203125,11542.6376953125,6188.55126953125,-0.0,7096.92626953125,14169.2158203125,8549.6904296875,11839.072265625,20842.552734375,8424.91796875,-1704.69287109375,9313.423828125,7487.13818359375,27114.548828125,7673.10498046875,14227.2314453125,-4802.544921875,-8188.8837890625,9251.435546875,5108.51513671875,10000.0693359375,7193.08837890625,7163.68359375,7534.82177734375,4546.64208984375,10746.3193359375,9860.9921875,9033.6796875,-12781.6201171875,-0.0,0.0,11368.591796875,7597.60546875,-618.298828125,0.0,14216.8994140625
-3174.14599609375,-8560.81640625,8037.09033203125,11479.060546875,16424.65625,17199.515625,14746.189453125,14464.060546875,14315.4462890625,10815.4609375,18839.041015625,0.0,13681.2529296875,0.0,13851.3251953125,17739.931640625,28410.75390625,13928.4130859375,9748.1416015625,7632.57373046875,5808.67138671875,16330.083984375,14513.3330078125,11242.23046875,0.0,3341.833740234375,7982.25390625,6171.8623046875,778.039306640625,-7704.09912109375,14606.31640625,5006.7900390625,10674.0,17201.10546875,10859.171875,17270.24609375,7821.71923828125,11534.6904296875,6171.06787109375,-0.0,7086.59521484375,14167.6259765625,8541.7431640625,11824.767578125,20836.98828125,8417.765625,-1694.361328125,9312.6298828125,7476.806640625,27105.80859375,7664.3623046875,14212.92578125,-4814.4658203125,-8200.009765625,9248.2568359375,5115.66796875,9988.9443359375,7196.267578125,7152.5576171875,7526.87451171875,4543.46337890625,10738.373046875,9853.83984375,9032.8857421875,-12799.103515625,-0.0,0.0,11378.12890625,7601.5791015625,-621.477783203125,0.0,14217.6943359375
-3167.788330078125,-8539.359375,8040.26904296875,11489.3916015625,16438.166015625,17220.177734375,14758.1103515625,14486.3125,14333.724609375,10836.9189453125,18850.9609375,0.0,13690.7890625,0.0,13863.24609375,17762.18359375,28423.466796875,13942.71875,9764.03515625,7653.236328125,5822.181640625,16347.56640625,14526.84375,11259.71484375,0.0,3351.37060546875,7992.5849609375,6205.24072265625,777.2445678710938,-7713.6357421875,14619.033203125,5023.4794921875,10684.3310546875,17215.41015625,10873.4765625,17289.3203125,7836.0244140625,11552.9697265625,6190.14111328125,-0.0,7093.74755859375,14185.9052734375,8552.07421875,11846.224609375,20850.5,8436.0439453125,-1671.314208984375,9323.755859375,7487.9326171875,27112.9609375,7673.8994140625,14235.9736328125,-4800.955078125,-8174.57861328125,9248.2568359375,5113.28369140625,9994.5068359375,7197.06201171875,7158.12060546875,7546.74267578125,4558.5634765625,10751.8837890625,9869.734375,9057.521484375,-12798.3095703125,-0.0,0.0,11395.61328125,7615.88427734375,-596.8411865234375,0.0,14250.2783203125
-3178.11962890625,-8543.33203125,8051.3955078125,11492.5703125,16448.498046875,17229.71484375,14764.4677734375,14499.8232421875,14345.6455078125,10842.482421875,18839.041015625,0.0,13704.2998046875,0.0,13868.80859375,17780.462890625,28431.416015625,13953.8447265625,9770.3935546875,7660.38916015625,5830.12890625,16354.71875,14534.791015625,11268.4560546875,0.0,3345.0126953125,8000.533203125,6223.52001953125,801.8811645507812,-7702.50927734375,14625.3896484375,5029.8369140625,10692.279296875,17221.76953125,10881.423828125,17296.47265625,7844.765625,11563.30078125,6206.03564453125,-0.0,7103.2841796875,14189.8798828125,8560.81640625,11857.3505859375,20860.037109375,8444.7861328125,-1671.314208984375,9326.140625,7499.05908203125,27125.677734375,7676.283203125,14249.484375,-4800.16064453125,-8169.81005859375,9241.1044921875,5107.720703125,10000.0693359375,7208.98291015625,7174.81005859375,7551.51123046875,4560.15234375,10761.419921875,9880.8603515625,9067.05859375,-12766.5205078125,-0.0,0.0,11393.2294921875,7631.77880859375,-596.8411865234375,0.0,14255.8408203125
-3203.551025390625,-8582.2744140625,8034.7060546875,11465.5498046875,16422.271484375,17209.052734375,14749.3681640625,14483.9287109375,14324.982421875,10819.435546875,18818.37890625,0.0,13692.37890625,0.0,13860.861328125,17770.92578125,28409.95703125,13933.9765625,9752.1142578125,7638.13623046875,5809.4658203125,16334.056640625,14515.7177734375,11250.1787109375,0.0,3317.991943359375,7986.22802734375,6207.625,786.7813110351562,-7714.43017578125,14603.9326171875,5009.17431640625,10672.41015625,17200.3125,10859.9658203125,17276.60546875,7827.28173828125,11541.84375,6189.34619140625,-0.0,7082.62109375,14166.037109375,8540.1533203125,11836.6884765625,20840.16796875,8424.91796875,-1696.7454833984375,9298.32421875,7485.54833984375,27109.78125,7663.56787109375,14234.3837890625,-4826.38671875,-8208.751953125,9241.1044921875,5094.2099609375,9992.123046875,7199.4462890625,7155.736328125,7530.84814453125,4542.6689453125,10742.3466796875,9861.787109375,9038.4482421875,-12772.0830078125,-0.0,0.0,11370.181640625,7607.14208984375,-626.2461547851562,0.0,14220.8740234375
-3197.98779296875,-8573.5322265625,8037.09033203125,11462.37109375,16418.298828125,17209.84765625,14746.189453125,14483.9287109375,14321.8037109375,10827.3818359375,18823.146484375,0.0,13682.0478515625,0.0,13853.708984375,17762.98046875,28410.75390625,13930.7978515625,9752.9091796875,7641.3154296875,5806.287109375,16332.4677734375,14513.3330078125,11249.3828125,0.0,3329.117919921875,7981.45947265625,6207.625,773.2709350585938,-7733.50390625,14602.34375,5006.7900390625,10672.41015625,17199.515625,10856.7880859375,17276.60546875,7824.89794921875,11541.84375,6177.42529296875,-0.0,7083.416015625,14167.6259765625,8535.384765625,11838.27734375,20839.373046875,8427.302734375,-1697.540283203125,9293.556640625,7477.6015625,27112.9609375,7661.18359375,14235.1787109375,-4839.89697265625,-8223.8515625,9245.8720703125,5095.7998046875,9987.3544921875,7193.88330078125,7151.7626953125,7536.4111328125,4531.54248046875,10739.1669921875,9861.787109375,9044.0107421875,-12784.798828125,-0.0,0.0,11370.9765625,7596.81103515625,-615.1199340820312,0.0,14229.615234375
-3185.272216796875,-8551.2802734375,8035.50048828125,11463.1650390625,16420.68359375,17213.025390625,14746.189453125,14479.16015625,14323.3935546875,10829.7666015625,18823.94140625,0.0,13681.2529296875,0.0,13847.3515625,17741.521484375,28412.341796875,13933.181640625,9754.498046875,7642.90478515625,5806.287109375,16336.44140625,14514.12890625,11247.7939453125,0.0,3344.218017578125,7978.2802734375,6202.06201171875,766.1183471679688,-7745.4248046875,14605.5224609375,5005.9951171875,10672.41015625,17200.3125,10856.7880859375,17278.990234375,7824.103515625,11542.6376953125,6173.45166015625,-0.0,7085.00537109375,14172.39453125,8537.76953125,11838.27734375,20840.962890625,8427.302734375,-1692.77197265625,9295.9404296875,7476.806640625,27115.345703125,7657.2099609375,14223.2578125,-4845.46044921875,-8217.494140625,9237.92578125,5109.31005859375,9983.3798828125,7182.7568359375,7156.53076171875,7541.1796875,4536.310546875,10742.3466796875,9862.58203125,9053.5478515625,-12803.8720703125,-0.0,0.0,11374.15625,7593.6318359375,-607.9674072265625,0.0,14239.947265625
-3212.29296875,-8560.021484375,8025.9638671875,11445.681640625,16413.53125,17192.36328125,14738.2421875,14460.0869140625,14317.0361328125,10813.0771484375,18823.146484375,0.0,13674.099609375,0.0,13844.966796875,17719.26953125,28399.625,13918.876953125,9741.783203125,7631.77880859375,5795.16064453125,16318.9560546875,14503.796875,11232.693359375,0.0,3307.660400390625,7972.71728515625,6179.0146484375,747.0448608398438,-7774.03515625,14592.01171875,4990.8955078125,10661.2841796875,17186.005859375,10846.4560546875,17263.888671875,7815.36083984375,11525.9482421875,6175.041015625,-0.0,7077.8525390625,14150.9375,8530.6171875,11819.203125,20832.220703125,8411.4072265625,-1707.0770263671875,9276.072265625,7471.2431640625,27085.146484375,7651.64697265625,14201.80078125,-4839.10205078125,-8203.1884765625,9229.9775390625,5083.083984375,9980.99609375,7154.146484375,7154.94140625,7526.07958984375,4519.62158203125,10732.0146484375,9850.6611328125,9039.2431640625,-12818.1767578125,-0.0,0.0,11350.314453125,7599.9892578125,-629.425048828125,0.0,14224.052734375
-3240.1083984375,-8564.7900390625,8016.42724609375,11444.091796875,16409.5546875,17189.18359375,14738.2421875,14461.6767578125,14320.2138671875,10806.7197265625,18806.45703125,0.0,13666.947265625,0.0,13845.76171875,17726.421875,28392.47265625,13918.08203125,9739.3994140625,7630.98388671875,5788.80322265625,16313.39453125,14499.8232421875,11231.8994140625,0.0,3290.17626953125,7973.51171875,6182.19384765625,756.5816040039062,-7755.75634765625,14588.0380859375,4983.7431640625,10653.3369140625,17180.443359375,10844.0712890625,17259.916015625,7812.18212890625,11525.9482421875,6166.29931640625,-0.0,7069.11083984375,14145.3740234375,8529.02734375,11816.8193359375,20832.220703125,8412.2021484375,-1727.739990234375,9276.072265625,7465.6806640625,27082.76171875,7651.64697265625,14208.1572265625,-4836.71826171875,-8178.5517578125,9214.8779296875,5058.447265625,9980.99609375,7154.94140625,7159.7099609375,7527.66943359375,4513.263671875,10730.42578125,9849.8662109375,9039.2431640625,-12801.48828125,-0.0,0.0,11333.625,7611.11572265625,-640.55126953125,0.0,14219.2841796875
-3232.161376953125,-8563.201171875,8020.40087890625,11456.8076171875,16417.50390625,17201.900390625,14746.189453125,14479.955078125,14318.625,10792.4150390625,18808.841796875,0.0,13674.099609375,0.0,13856.09375,17762.18359375,28400.421875,13928.4130859375,9746.5517578125,7629.39453125,5796.75048828125,16324.5205078125,14509.3603515625,11243.8203125,0.0,3308.455322265625,7979.86962890625,6199.677734375,774.8603515625,-7731.91455078125,14596.7802734375,4994.07421875,10660.4892578125,17189.98046875,10852.8134765625,17269.453125,7822.513671875,11537.0751953125,6164.70947265625,-0.0,7072.2900390625,14160.4736328125,8536.974609375,11833.5087890625,20836.98828125,8423.328125,-1726.9453125,9289.58203125,7472.0380859375,27101.0390625,7659.59423828125,14237.5634765625,-4821.61865234375,-8169.81005859375,9206.9306640625,5062.42138671875,9989.73828125,7181.96240234375,7162.09423828125,7561.0478515625,4514.85302734375,10739.1669921875,9855.4296875,9034.474609375,-12788.7724609375,-0.0,0.0,11350.314453125,7613.5,-647.7037963867188,0.0,14206.568359375
-3205.140380859375,-8550.484375,8036.2958984375,11475.880859375,16432.603515625,17224.947265625,14754.1357421875,14503.001953125,14310.677734375,10796.3876953125,18819.966796875,0.0,13686.81640625,0.0,13856.09375,17797.947265625,28418.69921875,13943.5126953125,9759.2666015625,7627.01025390625,5813.43994140625,16347.56640625,14522.8701171875,11261.3037109375,0.0,3346.602294921875,7987.0224609375,6225.90380859375,781.2182006835938,-7729.5302734375,14614.2646484375,5014.73779296875,10677.1787109375,17210.642578125,10867.119140625,17289.3203125,7832.05029296875,11555.3544921875,6174.24609375,-0.0,7088.97900390625,14183.521484375,8548.1005859375,11855.76171875,20840.962890625,8435.2490234375,-1695.9508056640625,9308.6552734375,7483.958984375,27132.03515625,7662.77294921875,14269.3515625,-4827.18115234375,-8160.2734375,9237.1298828125,5105.33642578125,9987.3544921875,7197.85693359375,7157.32568359375,7580.12158203125,4534.72119140625,10754.267578125,9863.376953125,9021.7587890625,-12793.541015625,-0.0,0.0,11368.591796875,7585.68408203125,-646.1143798828125,0.0,14194.6474609375
-3218.65087890625,-8572.7373046875,8022.78515625,11463.9599609375,16424.65625,17220.177734375,14752.546875,14493.4658203125,14323.3935546875,10818.640625,18800.099609375,0.0,13682.0478515625,0.0,13857.6826171875,17781.2578125,28407.57421875,13936.3603515625,9756.087890625,7640.5205078125,5803.9033203125,16340.4140625,14517.3076171875,11255.7412109375,0.0,3352.9599609375,7985.4326171875,6217.95654296875,768.5025634765625,-7747.80908203125,14605.5224609375,5004.40576171875,10666.84765625,17201.10546875,10859.171875,17282.962890625,7829.666015625,11549.7900390625,6193.31982421875,-0.0,7078.6474609375,14177.9580078125,8544.1279296875,11847.01953125,20845.732421875,8431.275390625,-1703.1033935546875,9295.1455078125,7475.21728515625,27128.85546875,7666.74658203125,14256.63671875,-4861.35498046875,-8169.01513671875,9235.541015625,5114.07861328125,9990.533203125,7179.578125,7166.8623046875,7541.974609375,4533.1318359375,10743.1416015625,9864.966796875,9041.626953125,-12805.4619140625,-0.0,0.0,11373.3603515625,7619.06298828125,-626.2461547851562,0.0,14220.8740234375
-3221.034912109375,-8581.4794921875,8012.4541015625,11434.5546875,16414.32421875,17193.158203125,14747.779296875,14471.212890625,14324.1884765625,10819.435546875,18806.45703125,0.0,13681.2529296875,0.0,13858.4775390625,17746.291015625,28389.294921875,13918.876953125,9745.7568359375,7640.5205078125,5788.00830078125,16314.9833984375,14506.1806640625,11236.66796875,0.0,3294.94482421875,7982.25390625,6191.73046875,766.1183471679688,-7727.14599609375,14587.2431640625,4985.33251953125,10654.1318359375,17181.23828125,10845.6611328125,17260.708984375,7820.12939453125,11533.1015625,6180.6044921875,-0.0,7065.931640625,14147.7587890625,8536.974609375,11822.3828125,20840.16796875,8419.3544921875,-1721.382080078125,9264.9462890625,7467.27001953125,27091.50390625,7663.56787109375,14221.66796875,-4866.123046875,-8207.95703125,9233.1572265625,5063.2158203125,10002.4541015625,7159.7099609375,7164.478515625,7510.18505859375,4517.2373046875,10723.2734375,9857.0185546875,9048.779296875,-12799.103515625,-0.0,0.0,11363.82421875,7631.77880859375,-627.0408935546875,0.0,14231.205078125
-3224.2138671875,-8560.021484375,8037.884765625,11452.833984375,16434.98828125,17213.025390625,14763.6728515625,14486.3125,14322.5986328125,10836.1240234375,18846.98828125,0.0,13705.8896484375,0.0,13868.0146484375,17755.826171875,28413.13671875,13938.744140625,9761.6513671875,7647.67333984375,5811.0556640625,16337.236328125,14526.0498046875,11255.7412109375,0.0,3318.78662109375,7998.943359375,6206.83056640625,794.7285766601562,-7711.251953125,14609.49609375,5008.37939453125,10678.7685546875,17202.6953125,10866.32421875,17281.373046875,7836.0244140625,11549.7900390625,6192.525390625,-0.0,7089.7734375,14169.2158203125,8554.458984375,11843.044921875,20850.5,8434.455078125,-1694.361328125,9282.4296875,7490.31689453125,27111.37109375,7674.69384765625,14230.41015625,-4838.3076171875,-8202.3935546875,9251.435546875,5067.189453125,10021.52734375,7189.115234375,7166.0673828125,7534.02734375,4549.0263671875,10739.1669921875,9869.734375,9048.779296875,-12783.2099609375,-0.0,0.0,11381.30859375,7588.86328125,-611.9410400390625,0.0,14239.15234375
-3233.75048828125,-8572.7373046875,8042.6533203125,11462.37109375,16435.78125,17217.794921875,14764.4677734375,14491.8759765625,14324.1884765625,10843.27734375,18855.73046875,0.0,13716.220703125,0.0,13870.3984375,17772.515625,28411.546875,13941.923828125,9766.4189453125,7653.236328125,5814.234375,16339.6201171875,14527.638671875,11258.919921875,0.0,3328.3232421875,8000.533203125,6212.39306640625,797.9075317382812,-7737.4775390625,14611.8798828125,5007.5849609375,10681.15234375,17204.28515625,10868.708984375,17283.7578125,7840.79248046875,11554.55859375,6197.2939453125,-0.0,7093.74755859375,14174.779296875,8554.458984375,11848.609375,20851.29296875,8438.427734375,-1686.4140625,9294.3505859375,7489.5224609375,27116.93359375,7677.873046875,14243.1259765625,-4823.2080078125,-8186.49951171875,9251.435546875,5087.8525390625,10017.5546875,7199.4462890625,7164.478515625,7538.79541015625,4553.0,10739.1669921875,9872.9130859375,9057.521484375,-12795.9248046875,-0.0,0.0,11391.6396484375,7588.86328125,-601.6095581054688,0.0,14244.7158203125
-3230.57177734375,-8606.1162109375,8025.16943359375,11468.728515625,16420.68359375,17208.2578125,14745.39453125,14482.3388671875,14305.9091796875,10833.740234375,18805.662109375,0.0,13698.7373046875,0.0,13847.3515625,17762.98046875,28398.037109375,13930.0029296875,9752.9091796875,7638.93115234375,5799.92919921875,16329.2880859375,14513.3330078125,11247.7939453125,0.0,3325.14453125,7979.0751953125,6206.83056640625,770.88671875,-7739.86181640625,14601.5478515625,4994.07421875,10664.462890625,17196.3359375,10854.4033203125,17271.837890625,7827.28173828125,11542.6376953125,6159.14697265625,-0.0,7075.46875,14170.0107421875,8536.974609375,11839.072265625,20834.603515625,8428.8916015625,-1719.792724609375,9299.9140625,7467.27001953125,27109.78125,7654.82568359375,14232.794921875,-4847.8447265625,-8231.00390625,9220.4404296875,5094.2099609375,9984.9697265625,7190.7041015625,7138.25244140625,7523.6953125,4530.748046875,10727.24609375,9860.9921875,9044.0107421875,-12810.23046875,-0.0,0.0,11382.1025390625,7553.1005859375,-607.1726684570312,0.0,14237.5634765625
-3220.240234375,-8589.4267578125,8032.32177734375,11487.0068359375,16428.62890625,17214.6171875,14753.341796875,14481.544921875,14318.625,10840.0986328125,18804.07421875,0.0,13692.37890625,0.0,13856.09375,17748.673828125,28409.95703125,13937.9501953125,9757.677734375,7642.1103515625,5809.4658203125,16338.0302734375,14522.0751953125,11250.97265625,0.0,3338.65478515625,7985.4326171875,6206.03564453125,775.6550903320312,-7725.556640625,14610.291015625,5007.5849609375,10674.7939453125,17205.873046875,10862.3505859375,17281.373046875,7834.4345703125,11545.8173828125,6167.888671875,-0.0,7087.3896484375,14183.521484375,8544.921875,11841.4560546875,20842.552734375,8431.275390625,-1718.9979248046875,9318.98828125,7476.806640625,27109.78125,7662.77294921875,14223.2578125,-4850.22900390625,-8245.30859375,9231.5673828125,5087.0576171875,9988.1484375,7185.93603515625,7149.37841796875,7532.43798828125,4522.80029296875,10732.8095703125,9865.7607421875,9038.4482421875,-12797.5146484375,-0.0,0.0,11385.28125,7569.7900390625,-605.5831909179688,0.0,14233.5888671875
-3228.1875,-8591.8115234375,8020.40087890625,11475.0859375,16416.70703125,17204.28515625,14747.779296875,14475.9814453125,14322.5986328125,10829.7666015625,18814.40625,0.0,13670.126953125,0.0,13850.529296875,17742.314453125,28402.009765625,13929.2080078125,9752.1142578125,7637.341796875,5798.33984375,16329.2880859375,14514.12890625,11243.025390625,0.0,3318.78662109375,7978.2802734375,6196.4990234375,775.6550903320312,-7735.09375,14599.958984375,4997.25341796875,10663.6689453125,17197.1328125,10853.6083984375,17271.837890625,7828.076171875,11540.25390625,6175.8359375,-0.0,7074.67431640625,14170.8056640625,8537.76953125,11831.919921875,20837.783203125,8424.123046875,-1729.3294677734375,9307.0673828125,7468.06494140625,27100.244140625,7657.2099609375,14216.10546875,-4857.38134765625,-8207.162109375,9218.8515625,5054.4736328125,9984.17578125,7180.37255859375,7151.7626953125,7529.2587890625,4514.05859375,10726.4521484375,9859.40234375,9033.6796875,-12787.978515625,-0.0,0.0,11375.7451171875,7584.8896484375,-617.504150390625,0.0,14225.642578125
-3221.034912109375,-8592.60546875,8019.6064453125,11464.7548828125,16416.70703125,17201.900390625,14746.189453125,14475.1865234375,14318.625,10823.4091796875,18827.119140625,0.0,13670.9208984375,0.0,13842.5830078125,17736.75390625,28400.421875,13928.4130859375,9750.525390625,7635.75244140625,5800.72412109375,16330.083984375,14513.3330078125,11243.8203125,0.0,3316.40234375,7975.89599609375,6195.7041015625,774.8603515625,-7738.27197265625,14600.75390625,4990.8955078125,10662.0791015625,17197.927734375,10852.8134765625,17270.24609375,7825.6923828125,11537.869140625,6173.45166015625,-0.0,7075.46875,14166.83203125,8536.1796875,11831.1240234375,20838.580078125,8421.73828125,-1737.2767333984375,9298.32421875,7469.654296875,27100.244140625,7655.62060546875,14215.310546875,-4849.43408203125,-8202.3935546875,9225.208984375,5086.26318359375,9977.0234375,7180.37255859375,7153.35205078125,7530.84814453125,4514.05859375,10724.0673828125,9857.8134765625,9030.5009765625,-12784.00390625,-0.0,0.0,11362.2353515625,7585.68408203125,-623.0671997070312,0.0,14223.2578125
-3210.70361328125,-8587.04296875,8029.1435546875,11475.0859375,16426.244140625,17215.41015625,14754.1357421875,14482.3388671875,14320.2138671875,10833.740234375,18834.271484375,0.0,13672.5107421875,0.0,13847.3515625,17741.521484375,28407.57421875,13937.1552734375,9757.677734375,7641.3154296875,5807.08154296875,16340.4140625,14522.8701171875,11251.767578125,0.0,3336.2705078125,7989.40673828125,6207.625,782.8076782226562,-7725.556640625,14610.291015625,4998.04833984375,10670.8212890625,17207.46484375,10861.5556640625,17281.373046875,7832.8447265625,11547.40625,6182.19384765625,-0.0,7084.2109375,14179.546875,8544.921875,11843.044921875,20843.34765625,8428.8916015625,-1725.355712890625,9307.0673828125,7474.42236328125,27116.140625,7662.77294921875,14222.462890625,-4831.94970703125,-8211.9306640625,9240.3095703125,5125.20458984375,9980.2021484375,7196.267578125,7155.736328125,7542.76904296875,4522.00537109375,10729.630859375,9864.966796875,9035.26953125,-12777.646484375,-0.0,0.0,11374.9501953125,7582.505859375,-607.1726684570312,0.0,14237.5634765625
-3211.498291015625,-8619.6259765625,8029.1435546875,11452.0390625,16427.8359375,17205.873046875,14754.1357421875,14477.5703125,14320.2138671875,10832.150390625,18823.94140625,0.0,13675.689453125,0.0,13853.708984375,17739.931640625,28402.009765625,13933.181640625,9755.2939453125,7642.90478515625,5804.69775390625,16329.2880859375,14521.28125,11246.2041015625,0.0,3309.25,7990.99658203125,6198.8828125,776.4498291015625,-7730.3251953125,14603.9326171875,4991.68994140625,10670.025390625,17196.3359375,10858.376953125,17274.220703125,7832.05029296875,11542.6376953125,6179.8095703125,-0.0,7085.80029296875,14164.4482421875,8546.51171875,11835.892578125,20840.16796875,8426.5068359375,-1715.0242919921875,9284.8134765625,7473.62744140625,27101.8359375,7665.1572265625,14216.10546875,-4830.3603515625,-8215.109375,9237.1298828125,5086.26318359375,9984.17578125,7189.115234375,7158.12060546875,7539.59033203125,4518.0322265625,10724.0673828125,9863.376953125,9037.654296875,-12788.7724609375,-0.0,0.0,11374.15625,7592.04248046875,-611.1463012695312,0.0,14237.5634765625
-3222.62451171875,-8577.505859375,8017.22216796875,11444.8857421875,16415.119140625,17195.54296875,14744.599609375,14467.2392578125,14314.6513671875,10820.2294921875,18817.583984375,0.0,13690.7890625,0.0,13852.119140625,17726.421875,28391.6796875,13923.64453125,9745.7568359375,7633.3681640625,5794.3662109375,16319.751953125,14510.154296875,11235.873046875,0.0,3302.097412109375,7976.69140625,6185.373046875,761.3499755859375,-7742.24609375,14593.6015625,4985.33251953125,10659.6943359375,17186.80078125,10847.2509765625,17262.30078125,7822.513671875,11530.716796875,6162.3251953125,-0.0,7071.4951171875,14154.9111328125,8536.1796875,11823.177734375,20833.015625,8417.765625,-1708.66650390625,9277.6611328125,7468.06494140625,27089.9140625,7656.41552734375,14204.978515625,-4854.2021484375,-8181.7314453125,9226.0048828125,5065.60009765625,9987.3544921875,7166.0673828125,7151.7626953125,7530.84814453125,4515.64794921875,10712.94140625,9855.4296875,9030.5009765625,-12790.3623046875,-0.0,0.0,11366.2080078125,7596.01611328125,-618.298828125,0.0,14224.8466796875
-3219.445556640625,-8556.048828125,8017.22216796875,11442.501953125,16417.50390625,17199.515625,14748.5732421875,14472.0078125,14319.419921875,10824.998046875,18821.55859375,0.0,13696.3525390625,0.0,13865.6298828125,17728.009765625,28394.857421875,13926.8232421875,9750.525390625,7638.93115234375,5795.95556640625,16322.931640625,14513.3330078125,11240.6416015625,0.0,3310.83935546875,7981.45947265625,6190.14111328125,772.4761962890625,-7732.70947265625,14596.7802734375,4991.68994140625,10662.0791015625,17189.18359375,10850.4296875,17267.068359375,7828.076171875,11534.6904296875,6163.1201171875,-0.0,7073.87939453125,14159.6796875,8540.1533203125,11825.5615234375,20838.580078125,8422.5341796875,-1730.1241455078125,9276.072265625,7472.0380859375,27097.06640625,7663.56787109375,14209.7470703125,-4851.81787109375,-8169.81005859375,9215.6728515625,5077.52099609375,10000.0693359375,7170.04150390625,7158.12060546875,7536.4111328125,4522.80029296875,10716.12109375,9858.6083984375,9036.064453125,-12780.8251953125,-0.0,0.0,11361.439453125,7603.16845703125,-611.9410400390625,0.0,14230.41015625
-3199.577392578125,-8544.1279296875,8048.216796875,11460.78125,16442.93359375,17227.33203125,14770.8251953125,14497.439453125,14336.9033203125,10843.27734375,18836.65625,0.0,13710.658203125,0.0,13884.7041015625,17757.416015625,28424.263671875,13952.2548828125,9774.3671875,7655.62060546875,5821.38671875,16349.951171875,14537.970703125,11266.8671875,0.0,3341.0390625,8006.89013671875,6221.1357421875,797.9075317382812,-7704.8935546875,14623.80078125,5019.505859375,10691.4833984375,17216.205078125,10877.4501953125,17293.294921875,7851.91845703125,11560.9169921875,6195.7041015625,-0.0,7104.07861328125,14185.9052734375,8563.201171875,11853.376953125,20859.2421875,8444.7861328125,-1705.487548828125,9294.3505859375,7496.6748046875,27128.85546875,7685.8203125,14237.5634765625,-4816.05517578125,-8157.88916015625,9247.4619140625,5107.720703125,10017.5546875,7194.677734375,7174.81005859375,7554.68994140625,4543.46337890625,10743.935546875,9877.681640625,9051.1640625,-12767.314453125,-0.0,0.0,11370.181640625,7612.705078125,-600.0200805664062,0.0,14245.509765625
-3223.419189453125,-8571.9423828125,8029.9375,11457.6025390625,16426.244140625,17215.41015625,14755.7255859375,14483.9287109375,14326.572265625,10825.79296875,18808.046875,0.0,13692.37890625,0.0,13860.861328125,17743.111328125,28407.57421875,13937.9501953125,9760.0625,7644.49462890625,5806.287109375,16335.6455078125,14521.28125,11251.767578125,0.0,3340.244384765625,7987.0224609375,6206.03564453125,778.8340454101562,-7739.86181640625,14607.90625,4998.8427734375,10675.58984375,17201.900390625,10859.9658203125,17279.783203125,7834.4345703125,11545.8173828125,6175.041015625,-0.0,7086.59521484375,14176.369140625,8546.51171875,11839.8662109375,20844.935546875,8430.48046875,-1721.382080078125,9291.966796875,7476.806640625,27113.755859375,7669.92578125,14224.8466796875,-4837.51318359375,-8207.162109375,9241.8984375,5085.46826171875,9993.712890625,7181.96240234375,7160.5048828125,7542.76904296875,4513.263671875,10733.6044921875,9868.14453125,9043.216796875,-12805.4619140625,-0.0,0.0,11362.2353515625,7605.552734375,-618.298828125,0.0,14228.0263671875
-3221.82958984375,-8597.3740234375,8007.685546875,11444.8857421875,16406.376953125,17192.36328125,14740.6259765625,14462.470703125,14312.267578125,10810.6923828125,18792.15234375,0.0,13680.4580078125,0.0,13848.1455078125,17723.2421875,28384.52734375,13918.876953125,9740.193359375,7632.57373046875,5785.6240234375,16314.9833984375,14503.001953125,11231.1044921875,0.0,3314.018310546875,7971.9228515625,6177.42529296875,758.1710815429688,-7763.70361328125,14584.859375,4975.7958984375,10650.158203125,17178.853515625,10841.6875,17258.326171875,7817.7451171875,11526.744140625,6141.66259765625,-0.0,7064.34228515625,14154.9111328125,8528.232421875,11818.4091796875,20828.24609375,8412.2021484375,-1747.608154296875,9280.0458984375,7455.34912109375,27081.966796875,7652.44140625,14204.978515625,-4849.43408203125,-8248.48828125,9229.9775390625,5059.2421875,9977.0234375,7161.29931640625,7147.7890625,7524.490234375,4490.216796875,10715.3251953125,9849.0712890625,9032.08984375,-12832.482421875,-0.0,0.0,11353.4931640625,7603.16845703125,-638.9617919921875,0.0,14212.1318359375
-3211.498291015625,-8592.60546875,8018.0166015625,11449.654296875,16417.50390625,17198.720703125,14744.599609375,14468.8291015625,14315.4462890625,10812.2822265625,18792.15234375,0.0,13675.689453125,0.0,13840.9931640625,17731.984375,28394.064453125,13926.8232421875,9745.7568359375,7631.77880859375,5794.3662109375,16318.9560546875,14510.94921875,11236.66796875,0.0,3288.5869140625,7973.51171875,6184.578125,758.9658203125,-7743.04052734375,14592.806640625,4988.51171875,10658.900390625,17188.390625,10849.634765625,17266.2734375,7821.71923828125,11532.306640625,6133.71533203125,-0.0,7076.263671875,14158.884765625,8535.384765625,11823.9716796875,20832.220703125,8414.5859375,-1741.2503662109375,9283.224609375,7468.859375,27089.9140625,7650.85205078125,14208.953125,-4851.81787109375,-8242.9248046875,9211.69921875,5058.447265625,9977.8173828125,7155.736328125,7156.53076171875,7524.490234375,4506.90625,10722.4775390625,9853.0458984375,9025.7333984375,-12820.5615234375,-0.0,0.0,11360.6455078125,7599.9892578125,-634.1934204101562,0.0,14216.10546875
-3232.161376953125,-8571.1474609375,8029.1435546875,11456.0126953125,16426.244140625,17209.052734375,14748.5732421875,14476.7763671875,14315.4462890625,10816.2568359375,18781.8203125,0.0,13670.126953125,0.0,13840.9931640625,17743.111328125,28405.984375,13936.3603515625,9752.1142578125,7632.57373046875,5803.9033203125,16330.083984375,14515.7177734375,11246.2041015625,0.0,3301.302734375,7976.69140625,6198.08837890625,766.1183471679688,-7755.75634765625,14603.1376953125,4995.6640625,10670.025390625,17197.1328125,10855.1982421875,17275.810546875,7827.28173828125,11537.869140625,6136.89404296875,-0.0,7086.59521484375,14173.1904296875,8540.9482421875,11833.5087890625,20835.400390625,8418.5595703125,-1723.766357421875,9287.9931640625,7475.21728515625,27109.78125,7655.62060546875,14217.6943359375,-4854.2021484375,-8223.056640625,9202.95703125,5053.67919921875,9978.6123046875,7164.478515625,7156.53076171875,7530.0537109375,4529.953125,10730.42578125,9857.0185546875,9024.9375,-12809.435546875,-0.0,0.0,11367.7978515625,7597.60546875,-625.451416015625,0.0,14220.8740234375
-3259.9765625,-8570.353515625,8028.34814453125,11447.2705078125,16424.65625,17199.515625,14748.5732421875,14474.3916015625,14312.267578125,10817.845703125,18805.662109375,0.0,13669.33203125,0.0,13839.404296875,17739.13671875,28402.8046875,13933.9765625,9751.3203125,7634.1630859375,5803.1083984375,16326.109375,14512.5390625,11242.23046875,0.0,3310.83935546875,7979.0751953125,6196.4990234375,771.6814575195312,-7733.50390625,14603.1376953125,4999.6376953125,10670.8212890625,17195.54296875,10853.6083984375,17271.041015625,7824.89794921875,11537.869140625,6190.14111328125,-0.0,7085.80029296875,14163.6533203125,8540.1533203125,11827.1513671875,20834.603515625,8420.1494140625,-1704.69287109375,9280.0458984375,7478.39599609375,27085.939453125,7656.41552734375,14216.10546875,-4856.58642578125,-8213.5205078125,9226.798828125,5056.85791015625,9976.2275390625,7163.68359375,7151.7626953125,7530.0537109375,4529.953125,10731.220703125,9857.8134765625,9028.9111328125,-12798.3095703125,-0.0,0.0,11370.9765625,7590.45263671875,-622.2724609375,0.0,14223.2578125
-3250.43994140625,-8588.6318359375,8031.52734375,11455.21875,16417.50390625,17197.1328125,14743.8046875,14471.212890625,14308.29296875,10811.48828125,18855.73046875,0.0,13674.8955078125,0.0,13837.814453125,17735.162109375,28402.009765625,13932.3876953125,9748.935546875,7627.80517578125,5799.134765625,16325.3154296875,14512.5390625,11243.025390625,0.0,3341.833740234375,7975.1015625,6200.47216796875,769.2973022460938,-7742.24609375,14603.9326171875,4998.04833984375,10671.615234375,17194.748046875,10850.4296875,17270.24609375,7821.71923828125,11534.6904296875,6202.06201171875,-0.0,7082.62109375,14159.6796875,8535.384765625,11827.9453125,20831.42578125,8415.3818359375,-1688.0035400390625,9288.7880859375,7472.8330078125,27093.88671875,7653.236328125,14214.515625,-4845.46044921875,-8225.44140625,9251.435546875,5072.75244140625,9973.048828125,7165.27294921875,7148.583984375,7526.07958984375,4511.67431640625,10729.630859375,9853.0458984375,9016.990234375,-12793.541015625,-0.0,0.0,11368.591796875,7586.47900390625,-632.6039428710938,0.0,14209.7470703125
-3224.2138671875,-8571.9423828125,8032.32177734375,11465.5498046875,16421.4765625,17207.46484375,14748.5732421875,14477.5703125,14313.857421875,10814.6669921875,18856.525390625,0.0,13679.6640625,0.0,13846.556640625,17745.494140625,28406.779296875,13938.744140625,9756.087890625,7632.57373046875,5805.4921875,16335.6455078125,14516.5126953125,11250.1787109375,0.0,3347.39697265625,7981.45947265625,6194.90966796875,783.6024169921875,-7746.2197265625,14609.49609375,5002.81689453125,10674.7939453125,17201.10546875,10855.1982421875,17278.990234375,7827.28173828125,11542.6376953125,6186.16748046875,-0.0,7084.2109375,14170.8056640625,8540.1533203125,11834.3037109375,20835.400390625,8420.1494140625,-1677.6719970703125,9298.32421875,7473.62744140625,27116.93359375,7660.38916015625,14219.2841796875,-4843.87060546875,-8231.00390625,9248.2568359375,5106.92578125,9989.73828125,7187.525390625,7154.94140625,7534.02734375,4524.3896484375,10735.1943359375,9859.40234375,9020.1689453125,-12776.8515625,-0.0,0.0,11382.8974609375,7596.81103515625,-626.2461547851562,0.0,14212.1318359375
-3205.140380859375,-8563.201171875,8037.09033203125,11475.0859375,16436.576171875,17215.41015625,14766.056640625,14489.4912109375,14327.3671875,10832.150390625,18854.9375,0.0,13673.3056640625,0.0,13866.4248046875,17761.388671875,28418.69921875,13951.4609375,9768.8037109375,7649.2626953125,5818.2080078125,16346.7734375,14531.6123046875,11261.3037109375,0.0,3340.244384765625,7999.73779296875,6207.625,795.5233154296875,-7707.27783203125,14619.033203125,5013.14794921875,10684.3310546875,17213.025390625,10868.708984375,17289.3203125,7841.5869140625,11556.1484375,6198.08837890625,-0.0,7095.3369140625,14177.9580078125,8556.048828125,11844.634765625,20850.5,8436.8388671875,-1676.0826416015625,9307.0673828125,7488.7275390625,27116.93359375,7676.283203125,14235.1787109375,-4833.53955078125,-8215.904296875,9262.5615234375,5127.5888671875,10019.1435546875,7201.0361328125,7169.24658203125,7551.51123046875,4533.1318359375,10749.4990234375,9873.7080078125,9042.421875,-12758.572265625,-0.0,0.0,11397.998046875,7604.7578125,-600.0200805664062,0.0,14237.5634765625
-3207.524658203125,-8575.916015625,8044.24267578125,11489.3916015625,16446.908203125,17232.89453125,14774.0048828125,14503.796875,14329.7509765625,10840.0986328125,18849.373046875,0.0,13707.478515625,0.0,13875.1669921875,17778.873046875,28430.62109375,13964.17578125,9778.3408203125,7657.2099609375,5826.9501953125,16359.4873046875,14541.943359375,11275.609375,0.0,3356.93359375,8012.4541015625,6229.87744140625,805.06005859375,-7685.02587890625,14628.5693359375,5022.6845703125,10690.689453125,17223.357421875,10880.6298828125,17303.625,7851.91845703125,11568.0693359375,6202.8564453125,-0.0,7103.2841796875,14193.8525390625,8567.173828125,11859.734375,20858.4453125,8447.96484375,-1685.619384765625,9320.5771484375,7497.46923828125,27134.41796875,7687.40966796875,14251.0732421875,-4831.1552734375,-8203.9833984375,9270.5087890625,5136.3310546875,10037.421875,7214.54638671875,7172.42578125,7564.2265625,4545.05322265625,10767.77734375,9883.244140625,9048.779296875,-12756.9833984375,-0.0,0.0,11409.9189453125,7600.7841796875,-591.278076171875,0.0,14251.8681640625
-3199.577392578125,-8563.201171875,8046.626953125,11494.16015625,16442.93359375,17232.099609375,14764.4677734375,14500.6181640625,14322.5986328125,10829.7666015625,18843.015625,0.0,13754.3681640625,0.0,13860.861328125,17775.693359375,28430.62109375,13962.5859375,9773.572265625,7647.67333984375,5824.56591796875,16359.4873046875,14535.5859375,11271.6357421875,0.0,3365.67578125,8001.32763671875,6225.90380859375,797.11279296875,-7700.919921875,14628.5693359375,5021.89013671875,10689.099609375,17221.76953125,10876.6552734375,17302.037109375,7845.56103515625,11563.30078125,6192.525390625,-0.0,7103.2841796875,14197.826171875,8560.81640625,11858.1455078125,20852.884765625,8439.2236328125,-1691.1824951171875,9326.9345703125,7496.6748046875,27135.212890625,7676.283203125,14247.89453125,-4819.234375,-8254.845703125,9259.3828125,5125.20458984375,10007.22265625,7215.34130859375,7162.88916015625,7558.6640625,4552.20556640625,10766.9833984375,9876.091796875,9040.83203125,-12773.6728515625,-0.0,0.0,11401.1767578125,7599.19482421875,-598.4306640625,0.0,14241.5361328125
-3266.33447265625,-8609.294921875,8013.24853515625,11456.8076171875,16407.966796875,17193.953125,14733.4736328125,14461.6767578125,14296.3720703125,10796.3876953125,18801.689453125,0.0,13703.505859375,0.0,13837.01953125,17731.984375,28392.47265625,13924.439453125,9740.193359375,7618.2685546875,5788.80322265625,16322.1357421875,14501.412109375,11234.283203125,0.0,3329.912841796875,7968.7431640625,6186.16748046875,750.2238159179688,-7759.72998046875,14591.216796875,4980.56396484375,10653.3369140625,17183.623046875,10840.892578125,17263.888671875,7810.5927734375,11525.9482421875,6160.736328125,-0.0,7068.31591796875,14159.6796875,8527.4384765625,11819.9990234375,20821.09375,8402.6650390625,-1725.355712890625,9291.171875,7463.29638671875,27097.06640625,7647.67333984375,14209.7470703125,-4849.43408203125,-8293.7880859375,9223.6201171875,5079.9052734375,9973.84375,7173.22021484375,7138.25244140625,7517.337890625,4502.93212890625,10732.0146484375,9841.9189453125,9015.4013671875,-12814.9990234375,-0.0,0.0,11349.5185546875,7584.8896484375,-641.345947265625,0.0,14207.36328125
-3276.666015625,-8629.9580078125,8005.30126953125,11442.501953125,16403.19921875,17189.18359375,14731.8837890625,14459.2919921875,14297.9619140625,10797.9775390625,18797.716796875,0.0,13678.07421875,0.0,13837.01953125,17726.421875,28389.294921875,13922.8505859375,9737.0146484375,7619.85791015625,5785.6240234375,16314.1884765625,14499.0283203125,11230.3095703125,0.0,3317.197021484375,7966.359375,6182.19384765625,764.5289306640625,-7747.0146484375,14590.4228515625,4978.974609375,10649.36328125,17181.23828125,10836.1240234375,17259.12109375,7809.7978515625,11522.76953125,6166.29931640625,-0.0,7061.95849609375,14152.52734375,8522.669921875,11815.23046875,20819.505859375,8402.6650390625,-1735.687255859375,9277.6611328125,7458.52783203125,27087.529296875,7645.2890625,14205.7734375,-4860.56005859375,-8203.1884765625,9226.0048828125,5075.931640625,9969.0751953125,7162.88916015625,7136.6630859375,7511.7744140625,4495.779296875,10728.8359375,9841.125,9017.78515625,-12799.8994140625,-0.0,0.0,11346.33984375,7580.916015625,-643.7301635742188,0.0,14208.953125
-3238.51904296875,-8610.884765625,8017.22216796875,11438.529296875,16413.53125,17194.748046875,14742.21484375,14469.6240234375,14307.4990234375,10806.7197265625,18823.146484375,0.0,13676.484375,0.0,13845.76171875,17741.521484375,28396.447265625,13930.0029296875,9743.373046875,7628.599609375,5795.16064453125,16317.3671875,14507.7705078125,11236.66796875,0.0,3306.071044921875,7975.89599609375,6191.73046875,778.039306640625,-7734.298828125,14595.9853515625,4987.716796875,10658.900390625,17187.595703125,10846.4560546875,17263.888671875,7816.95068359375,11531.5126953125,6168.68359375,-0.0,7073.08447265625,14155.705078125,8529.822265625,11823.9716796875,20830.630859375,8411.4072265625,-1717.4085693359375,9271.3037109375,7468.06494140625,27089.9140625,7654.82568359375,14219.2841796875,-4854.9970703125,-8171.39892578125,9234.74609375,5080.69970703125,9981.791015625,7168.45166015625,7147.7890625,7524.490234375,4510.87939453125,10734.3984375,9853.83984375,9028.9111328125,-12786.388671875,-0.0,0.0,11351.9033203125,7593.6318359375,-633.398681640625,0.0,14221.66796875
-3236.9296875,-8587.04296875,8015.6328125,11421.83984375,16414.32421875,17192.36328125,14741.4208984375,14474.3916015625,14309.0888671875,10806.7197265625,18821.55859375,0.0,13674.8955078125,0.0,13851.3251953125,17758.2109375,28394.064453125,13926.8232421875,9744.9619140625,7629.39453125,5790.392578125,16314.9833984375,14506.9765625,11237.4619140625,0.0,3295.739501953125,7976.69140625,6195.7041015625,772.4761962890625,-7746.2197265625,14592.01171875,4989.30615234375,10654.9267578125,17180.443359375,10844.0712890625,17262.30078125,7816.95068359375,11532.306640625,6159.94140625,-0.0,7073.08447265625,14146.9638671875,8529.822265625,11823.9716796875,20830.630859375,8412.9970703125,-1719.792724609375,9255.4091796875,7469.654296875,27089.119140625,7655.62060546875,14229.615234375,-4866.123046875,-8175.373046875,9227.59375,5070.3681640625,9986.5595703125,7178.783203125,7146.994140625,7532.43798828125,4509.2900390625,10733.6044921875,9853.0458984375,9029.7060546875,-12800.693359375,-0.0,0.0,11351.1083984375,7596.81103515625,-634.1934204101562,0.0,14224.052734375
-3241.697998046875,-8588.6318359375,8019.6064453125,11434.5546875,16417.50390625,17195.54296875,14746.9833984375,14478.3662109375,14304.3203125,10797.9775390625,18826.326171875,0.0,13675.689453125,0.0,13868.0146484375,17769.3359375,28395.65234375,13928.4130859375,9748.1416015625,7625.4208984375,5794.3662109375,16318.9560546875,14510.154296875,11241.435546875,0.0,3309.25,7982.25390625,6201.26708984375,766.1183471679688,-7747.0146484375,14595.19140625,4991.68994140625,10658.900390625,17183.623046875,10848.044921875,17264.685546875,7822.513671875,11534.6904296875,6161.53076171875,-0.0,7079.4423828125,14154.1162109375,8534.5908203125,11827.1513671875,20833.015625,8413.7919921875,-1726.9453125,9268.125,7473.62744140625,27093.091796875,7664.3623046875,14235.9736328125,-4861.35498046875,-8197.625,9219.646484375,5073.54736328125,9996.0966796875,7183.5517578125,7148.583984375,7528.4638671875,4505.31640625,10733.6044921875,9852.25,9020.96484375,-12813.4091796875,-0.0,0.0,11363.82421875,7591.24755859375,-638.1670532226562,0.0,14206.568359375
-3230.57177734375,-8596.5791015625,8022.78515625,11446.4755859375,16419.88671875,17201.10546875,14751.751953125,14487.107421875,14304.3203125,10806.7197265625,18830.298828125,0.0,13685.2265625,0.0,13869.603515625,17773.310546875,28398.83203125,13931.591796875,9752.9091796875,7629.39453125,5797.544921875,16322.1357421875,14514.9228515625,11246.9990234375,0.0,3314.81298828125,7987.0224609375,6210.00927734375,767.7078247070312,-7728.7353515625,14599.1640625,4990.10107421875,10662.0791015625,17189.18359375,10852.8134765625,17269.453125,7827.28173828125,11542.6376953125,6159.14697265625,-0.0,7082.62109375,14160.4736328125,8538.5634765625,11833.5087890625,20837.783203125,8422.5341796875,-1738.8662109375,9277.6611328125,7474.42236328125,27101.0390625,7668.33642578125,14246.3046875,-4855.79150390625,-8215.109375,9233.1572265625,5073.54736328125,9999.275390625,7189.90966796875,7154.146484375,7537.2060546875,4507.70068359375,10735.1943359375,9857.0185546875,9016.990234375,-12814.9990234375,-0.0,0.0,11376.5400390625,7576.9423828125,-618.298828125,0.0,14214.515625
-3227.392822265625,-8624.39453125,8017.22216796875,11456.8076171875,16411.939453125,17196.3359375,14743.8046875,14479.16015625,14307.4990234375,10828.177734375,18809.63671875,0.0,13677.279296875,0.0,13841.7880859375,17744.69921875,28397.2421875,13929.2080078125,9748.935546875,7638.13623046875,5795.16064453125,16322.931640625,14509.3603515625,11241.435546875,0.0,3311.634033203125,7974.30712890625,6194.11474609375,772.4761962890625,-7730.3251953125,14595.9853515625,4985.33251953125,10657.310546875,17189.98046875,10848.83984375,17267.86328125,7823.30810546875,11535.4853515625,6151.994140625,-0.0,7072.2900390625,14162.0634765625,8530.6171875,11826.35546875,20834.603515625,8423.328125,-1735.687255859375,9288.7880859375,7462.50146484375,27094.68359375,7655.62060546875,14224.8466796875,-4863.7392578125,-8223.8515625,9222.8251953125,5077.52099609375,9980.2021484375,7181.16748046875,7154.94140625,7541.1796875,4507.70068359375,10731.220703125,9857.0185546875,9028.9111328125,-12798.3095703125,-0.0,0.0,11376.5400390625,7580.12158203125,-601.6095581054688,0.0,14241.5361328125
-3240.903076171875,-8611.6787109375,8021.99072265625,11459.986328125,16411.146484375,17193.953125,14740.6259765625,14468.8291015625,14300.3466796875,10815.4609375,18808.046875,0.0,13680.4580078125,0.0,13840.1982421875,17732.779296875,28400.421875,13930.0029296875,9744.9619140625,7629.39453125,5793.5712890625,16323.724609375,14507.7705078125,11237.4619140625,0.0,3310.04443359375,7973.51171875,6186.16748046875,775.6550903320312,-7747.0146484375,14597.5751953125,4987.716796875,10662.0791015625,17194.748046875,10848.83984375,17265.478515625,7819.3349609375,11529.9228515625,6168.68359375,-0.0,7073.87939453125,14166.037109375,8529.822265625,11823.177734375,20827.451171875,8415.3818359375,-1712.64013671875,9291.966796875,7464.8857421875,27094.68359375,7650.85205078125,14209.7470703125,-4861.35498046875,-8209.5458984375,9222.8251953125,5092.62109375,9980.2021484375,7170.04150390625,7138.25244140625,7530.0537109375,4509.2900390625,10730.42578125,9849.8662109375,9022.5537109375,-12783.2099609375,-0.0,0.0,11370.181640625,7579.32666015625,-623.0671997070312,0.0,14228.8203125
-3242.49267578125,-8601.34765625,8020.40087890625,11457.6025390625,16412.734375,17193.158203125,14739.8310546875,14469.6240234375,14308.29296875,10814.6669921875,18819.173828125,0.0,13681.2529296875,0.0,13844.966796875,17736.75390625,28398.037109375,13930.7978515625,9745.7568359375,7630.98388671875,5795.16064453125,16322.1357421875,14507.7705078125,11239.0517578125,0.0,3314.81298828125,7975.1015625,6189.34619140625,770.88671875,-7733.50390625,14595.9853515625,4988.51171875,10663.6689453125,17192.36328125,10848.83984375,17267.068359375,7819.3349609375,11533.1015625,6176.63037109375,-0.0,7076.263671875,14163.6533203125,8530.6171875,11823.177734375,20827.451171875,8413.7919921875,-1711.0506591796875,9291.171875,7468.859375,27097.06640625,7653.236328125,14211.3369140625,-4848.63916015625,-8241.3359375,9226.0048828125,5073.54736328125,9988.1484375,7165.27294921875,7135.0732421875,7516.54296875,4508.4951171875,10730.42578125,9849.8662109375,9028.9111328125,-12795.130859375,-0.0,0.0,11365.4140625,7588.068359375,-631.8092041015625,0.0,14216.8994140625
-3225.0087890625,-8589.4267578125,8029.1435546875,11468.728515625,16421.4765625,17215.41015625,14748.5732421875,14486.3125,14321.8037109375,10828.9716796875,18827.119140625,0.0,13686.0205078125,0.0,13848.9404296875,17761.388671875,28407.57421875,13941.923828125,9756.8828125,7643.69970703125,5803.9033203125,16337.236328125,14518.1015625,11254.1513671875,0.0,3350.57568359375,7981.45947265625,6212.39306640625,781.2182006835938,-7739.06689453125,14607.1123046875,4998.04833984375,10673.205078125,17203.490234375,10859.171875,17283.7578125,7829.666015625,11547.40625,6177.42529296875,-0.0,7085.00537109375,14181.931640625,8540.1533203125,11843.8408203125,20836.98828125,8429.6865234375,-1714.2296142578125,9302.298828125,7479.19091796875,27124.880859375,7656.41552734375,14231.9990234375,-4851.81787109375,-8239.74609375,9229.9775390625,5095.7998046875,9990.533203125,7186.73095703125,7151.7626953125,7526.07958984375,4514.85302734375,10739.962890625,9864.1708984375,9040.0380859375,-12787.1826171875,-0.0,0.0,11367.7978515625,7603.16845703125,-624.6566772460938,0.0,14223.2578125
-3232.161376953125,-8588.6318359375,8021.99072265625,11453.62890625,16417.50390625,17205.873046875,14743.8046875,14475.9814453125,14309.8828125,10823.4091796875,18815.19921875,0.0,13669.33203125,0.0,13847.3515625,17747.083984375,28398.037109375,13935.56640625,9747.345703125,7635.75244140625,5795.16064453125,16326.904296875,14514.12890625,11244.6142578125,0.0,3334.68115234375,7977.48583984375,6199.677734375,769.2973022460938,-7743.83544921875,14598.369140625,4990.10107421875,10664.462890625,17193.953125,10851.2236328125,17273.42578125,7823.30810546875,11536.2802734375,6163.1201171875,-0.0,7079.4423828125,14170.0107421875,8534.5908203125,11831.919921875,20830.630859375,8420.9443359375,-1711.845458984375,9286.4033203125,7476.01171875,27109.78125,7651.64697265625,14223.2578125,-4864.53369140625,-8218.2880859375,9220.4404296875,5086.26318359375,9974.638671875,7176.3994140625,7146.994140625,7522.10595703125,4505.31640625,10730.42578125,9855.4296875,9030.5009765625,-12799.103515625,-0.0,0.0,11359.0556640625,7599.9892578125,-631.0145263671875,0.0,14218.4892578125
-3240.903076171875,-8587.04296875,8021.1953125,11445.681640625,16414.32421875,17201.900390625,14741.4208984375,14471.212890625,14302.73046875,10812.2822265625,18804.07421875,0.0,13668.537109375,0.0,13852.119140625,17744.69921875,28395.65234375,13930.7978515625,9744.1669921875,7624.6259765625,5793.5712890625,16323.724609375,14508.5654296875,11240.6416015625,0.0,3335.475830078125,7975.1015625,6195.7041015625,766.1183471679688,-7740.65625,14596.7802734375,4990.10107421875,10662.0791015625,17190.775390625,10848.83984375,17271.041015625,7820.12939453125,11532.306640625,6147.22607421875,-0.0,7078.6474609375,14167.6259765625,8529.02734375,11826.35546875,20825.86328125,8414.5859375,-1709.461181640625,9279.2509765625,7467.27001953125,27103.423828125,7654.03125,14220.8740234375,-4856.58642578125,-8231.00390625,9219.646484375,5076.7265625,9984.9697265625,7177.1943359375,7143.0205078125,7523.6953125,4511.67431640625,10723.2734375,9849.8662109375,9016.990234375,-12807.845703125,-0.0,0.0,11357.466796875,7592.04248046875,-638.9617919921875,0.0,14216.10546875
