-3252.029296875,-8672.873046875,8077.62158203125,11377.3349609375,16494.591796875,17210.642578125,14870.9609375,14524.4599609375,14358.361328125,10917.1865234375,19111.6328125,0.0,13809.2041015625,0.0,13989.607421875,17805.099609375,28380.552734375,13949.076171875,9768.8037109375,7762.9091796875,5815.029296875,16327.69921875,14545.91796875,11209.6474609375,0.0,3297.328857421875,8104.64208984375,6240.208984375,895.6591186523438,-8335.908203125,14505.38671875,4893.14404296875,10676.3837890625,17152.62890625,10899.703125,17209.84765625,7859.8662109375,11525.154296875,6175.8359375,0.0,7225.67236328125,14181.931640625,8569.55859375,11838.27734375,20938.71484375,8498.828125,-1587.072998046875,9218.8515625,7550.71630859375,27068.45703125,7785.9560546875,14323.3935546875,-4788.23974609375,-8523.4638671875,9485.880859375,4928.90673828125,10205.9052734375,7102.4892578125,7213.75146484375,7613.5,4456.04345703125,10650.9521484375,9947.6171875,9048.779296875,-12456.576171875,-0.0,0.0,11397.2021484375,7879.73388671875,-422.7956237792969,0.0,14417.9658203125
-3245.671630859375,-8659.36328125,8083.18408203125,11377.3349609375,16501.74609375,17181.23828125,14876.525390625,14524.4599609375,14361.541015625,10915.5966796875,19108.453125,0.0,13816.3564453125,0.0,13991.1962890625,17811.45703125,28386.115234375,13949.87109375,9771.9833984375,7762.1142578125,5820.59228515625,16314.9833984375,14549.8916015625,11205.6728515625,0.0,3300.5078125,8112.58984375,6244.9775390625,922.679931640625,-8308.8876953125,14505.38671875,4899.501953125,10682.7421875,17153.421875,10905.265625,17201.10546875,7865.4287109375,11525.9482421875,6204.4462890625,0.0,7232.0302734375,14154.9111328125,8577.505859375,11828.740234375,20945.072265625,8498.0322265625,-1593.430908203125,9220.4404296875,7566.61083984375,27078.787109375,7793.1083984375,14328.95703125,-4777.908203125,-8501.2119140625,9517.669921875,4976.5908203125,10213.0576171875,7115.99951171875,7225.67236328125,7612.705078125,4453.6591796875,10651.748046875,9950.001953125,9041.626953125,-12453.396484375,-0.0,0.0,11390.845703125,7887.68115234375,-434.716552734375,0.0,14409.224609375
-3217.061279296875,-8645.0576171875,8107.02587890625,11405.9453125,16529.560546875,17214.6171875,14901.1611328125,14545.91796875,14384.5869140625,10934.6708984375,19148.984375,0.0,13843.376953125,0.0,14016.6279296875,17822.583984375,28409.162109375,13976.0966796875,9795.029296875,7781.1875,5846.818359375,16344.388671875,14572.1435546875,11231.8994140625,0.0,3320.376220703125,8138.81591796875,6262.46142578125,959.2374267578125,-8310.4775390625,14530.818359375,4923.34375,10707.3779296875,17177.263671875,10930.697265625,17229.71484375,7890.0654296875,11548.99609375,6225.10888671875,0.0,7257.46142578125,14192.263671875,8603.732421875,11853.376953125,20964.94140625,8517.9013671875,-1579.125732421875,9249.05078125,7595.22119140625,27103.423828125,7817.7451171875,14348.0302734375,-4742.9404296875,-8478.958984375,9528.7958984375,4992.48486328125,10237.693359375,7129.51025390625,7243.951171875,7632.57373046875,4467.16943359375,10679.5625,9970.6650390625,9059.111328125,-12416.83984375,-0.0,0.0,11392.4345703125,7909.138671875,-425.9745178222656,0.0,14419.5556640625
-3295.739501953125,-8732.478515625,8021.99072265625,11327.2666015625,16449.29296875,17137.52734375,14821.6884765625,14459.2919921875,14305.9091796875,10836.1240234375,19090.17578125,0.0,13769.4677734375,0.0,13949.076171875,17723.2421875,28329.69140625,13897.4189453125,9713.1728515625,7692.17822265625,5768.14013671875,16266.50390625,14491.8759765625,11150.8369140625,0.0,3238.51904296875,8064.11083984375,6175.041015625,871.8172607421875,-8402.6650390625,14450.5498046875,4842.28125,10620.7529296875,17096.99609375,10847.2509765625,17150.244140625,7807.41357421875,11464.7548828125,6140.0732421875,0.0,7175.6044921875,14115.9697265625,8525.0537109375,11772.3154296875,20883.87890625,8429.6865234375,-1650.6513671875,9171.962890625,7515.74853515625,27020.7734375,7742.24609375,14256.63671875,-4827.97607421875,-8566.3798828125,9442.9658203125,4908.24365234375,10174.115234375,7039.70556640625,7165.27294921875,7539.59033203125,4400.412109375,10600.08984375,9885.62890625,8962.154296875,-12498.6962890625,-0.0,0.0,11281.1728515625,7840.79248046875,-550.7469482421875,0.0,14297.9619140625
-3345.0126953125,-8765.8564453125,7983.84375,11294.6826171875,16413.53125,17108.12109375,14787.5146484375,14433.06640625,14276.5048828125,10808.30859375,19045.671875,0.0,13721.783203125,0.0,13914.90234375,17699.400390625,28291.544921875,13863.24609375,9681.3837890625,7664.3623046875,5730.78759765625,16231.537109375,14460.0869140625,11119.0478515625,0.0,3198.78271484375,8029.9375,6150.404296875,809.03369140625,-8423.328125,14413.9931640625,4802.544921875,10584.990234375,17060.4375,10813.0771484375,17117.658203125,7775.62451171875,11436.939453125,6093.97900390625,0.0,7137.45751953125,14082.5908203125,8490.0859375,11743.705078125,20853.677734375,8402.6650390625,-1691.9771728515625,9136.994140625,7476.01171875,26980.2421875,7708.07275390625,14231.9990234375,-4902.6806640625,-8601.34765625,9393.6923828125,4883.607421875,10137.5576171875,7005.53271484375,7135.8681640625,7515.74853515625,4365.4443359375,10566.7109375,9856.2236328125,8939.90234375,-12566.2490234375,-0.0,0.0,11265.2783203125,7809.00341796875,-572.9993286132812,0.0,14280.478515625
-3346.602294921875,-8744.3994140625,8008.47998046875,11305.80859375,16440.55078125,17132.759765625,14810.5625,14460.0869140625,14301.140625,10838.5087890625,19062.361328125,0.0,13741.65234375,0.0,13934.771484375,17723.2421875,28311.41015625,13887.087890625,9706.0205078125,7692.97265625,5753.04052734375,16253.7900390625,14483.9287109375,11142.8896484375,0.0,3205.935302734375,8051.3955078125,6173.45166015625,813.00732421875,-8400.28125,14437.0390625,4819.234375,10610.4208984375,17077.921875,10838.5087890625,17139.1171875,7802.64501953125,11461.5751953125,6108.2841796875,0.0,7167.6572265625,14100.0751953125,8512.337890625,11765.95703125,20879.109375,8430.48046875,-1675.287841796875,9147.326171875,7500.6484375,26997.724609375,7729.5302734375,14256.63671875,-4899.501953125,-8587.8369140625,9404.818359375,4893.9384765625,10155.0419921875,7025.40087890625,7157.32568359375,7545.1533203125,4372.5966796875,10590.5537109375,9882.4501953125,8967.716796875,-12566.2490234375,-0.0,0.0,11294.6826171875,7825.6923828125,-527.6997680664062,0.0,14318.625
-3310.04443359375,-8704.662109375,8041.064453125,11341.572265625,16475.51953125,17172.494140625,14844.7353515625,14495.0556640625,14332.134765625,10879.0400390625,19096.533203125,0.0,13778.2099609375,0.0,13964.970703125,17758.2109375,28350.353515625,13926.029296875,9745.7568359375,7727.14599609375,5791.98193359375,16293.525390625,14519.69140625,11182.6259765625,0.0,3248.0556640625,8084.77392578125,6203.6513671875,852.7437744140625,-8360.544921875,14478.3662109375,4856.58642578125,10646.9794921875,17117.658203125,10875.861328125,17180.443359375,7838.40869140625,11500.517578125,6145.63623046875,-0.0,7198.65185546875,14141.400390625,8548.1005859375,11804.8984375,20913.283203125,8467.833984375,-1641.1146240234375,9182.2939453125,7534.02734375,27047.79296875,7762.9091796875,14292.3994140625,-4862.14990234375,-8548.8955078125,9452.501953125,4922.548828125,10186.8310546875,7069.90576171875,7183.5517578125,7588.86328125,4403.59130859375,10630.2900390625,9920.5966796875,9001.8916015625,-12528.896484375,-0.0,0.0,11345.5458984375,7847.14990234375,-481.60552978515625,0.0,14361.541015625
-3329.117919921875,-8726.9140625,8021.99072265625,11327.2666015625,16450.8828125,17146.26953125,14820.8935546875,14464.060546875,14302.73046875,10848.83984375,19071.1015625,0.0,13761.5205078125,0.0,13945.1025390625,17728.8046875,28327.306640625,13902.9814453125,9721.1201171875,7696.15185546875,5771.31884765625,16272.068359375,14496.6435546875,11157.9892578125,0.0,3238.51904296875,8064.11083984375,6171.8623046875,846.385986328125,-8385.9755859375,14455.318359375,4835.12890625,10626.31640625,17097.791015625,10852.8134765625,17156.6015625,7813.771484375,11471.9072265625,6116.2314453125,-0.0,7174.81005859375,14121.5322265625,8527.4384765625,11777.0830078125,20888.646484375,8436.8388671875,-1659.393310546875,9169.578125,7512.5693359375,27023.15625,7742.24609375,14258.2255859375,-4881.22314453125,-8556.8427734375,9438.9912109375,4909.83349609375,10167.7578125,7043.6796875,7159.7099609375,7561.84228515625,4382.92822265625,10606.4482421875,9892.78125,8966.9228515625,-12531.2802734375,-0.0,0.0,11324.8828125,7820.923828125,-517.3682861328125,0.0,14323.3935546875
-3367.264892578125,-8753.140625,7994.96923828125,11295.4775390625,16427.041015625,17117.658203125,14798.6416015625,14444.1923828125,14285.2470703125,10828.177734375,19038.51953125,0.0,13740.857421875,0.0,13930.0029296875,17712.1171875,28298.697265625,13875.1669921875,9695.689453125,7679.46240234375,5742.70849609375,16241.869140625,14474.3916015625,11130.96875,0.0,3197.98779296875,8041.064453125,6151.19921875,828.9019165039062,-8416.17578125,14425.9140625,4808.10791015625,10598.5,17067.58984375,10826.587890625,17127.1953125,7788.34033203125,11445.681640625,6094.77392578125,-0.0,7149.37841796875,14088.9482421875,8503.5966796875,11753.2412109375,20867.982421875,8414.5859375,-1690.3876953125,9138.583984375,7485.54833984375,26989.779296875,7720.78857421875,14239.15234375,-4889.17041015625,-8594.1953125,9413.5595703125,4867.71240234375,10149.478515625,7020.63232421875,7144.60986328125,7536.4111328125,4359.880859375,10577.837890625,9868.939453125,8951.8232421875,-12544.791015625,-0.0,0.0,11307.3984375,7818.53955078125,-537.2365112304688,0.0,14304.3203125
-3327.52880859375,-8728.50390625,8021.1953125,11313.755859375,16450.0859375,17139.912109375,14826.45703125,14464.060546875,14317.830078125,10849.634765625,19065.5390625,0.0,13757.546875,0.0,13957.818359375,17730.39453125,28323.33203125,13897.4189453125,9718.7353515625,7707.27783203125,5765.75634765625,16264.1201171875,14497.439453125,11152.4267578125,0.0,3217.061279296875,8067.29052734375,6169.47802734375,855.1279907226562,-8394.7177734375,14448.9599609375,4833.53955078125,10623.1376953125,17091.431640625,10850.4296875,17150.244140625,7812.97705078125,11471.1123046875,6124.17822265625,-0.0,7174.01513671875,14111.99609375,8527.4384765625,11771.51953125,20895.00390625,8436.0439453125,-1661.7774658203125,9156.0673828125,7510.18505859375,27009.64453125,7747.80908203125,14260.609375,-4866.91796875,-8576.7109375,9436.607421875,4881.22314453125,10178.8837890625,7033.34814453125,7174.81005859375,7548.33203125,4389.2861328125,10602.474609375,9895.1650390625,8985.99609375,-12513.0009765625,-0.0,0.0,11296.2724609375,7859.8662109375,-535.6470947265625,0.0,14325.7783203125
-3279.050048828125,-8698.3037109375,8053.77978515625,11347.134765625,16477.904296875,17175.673828125,14854.271484375,14500.6181640625,14349.6201171875,10880.6298828125,19108.453125,0.0,13777.4150390625,0.0,13985.6337890625,17776.48828125,28354.326171875,13927.619140625,9748.935546875,7739.86181640625,5796.75048828125,16299.08984375,14528.43359375,11185.009765625,0.0,3263.15576171875,8095.10498046875,6209.21484375,872.6119995117188,-8359.75,14478.3662109375,4869.30224609375,10655.720703125,17124.810546875,10881.423828125,17182.826171875,7844.765625,11506.0810546875,6162.3251953125,-0.0,7205.80419921875,14146.1689453125,8555.2529296875,11806.48828125,20922.818359375,8472.6015625,-1619.6568603515625,9188.65234375,7538.79541015625,27051.767578125,7777.2138671875,14303.525390625,-4835.12890625,-8553.6640625,9459.6552734375,4919.3701171875,10201.9306640625,7070.7001953125,7197.85693359375,7592.8369140625,4425.048828125,10634.2626953125,9926.955078125,9024.1435546875,-12479.623046875,-0.0,0.0,11347.134765625,7890.0654296875,-483.1949768066406,0.0,14369.4873046875
-3284.61328125,-8704.662109375,8055.369140625,11353.4931640625,16479.4921875,17178.853515625,14852.6826171875,14503.796875,14337.69921875,10871.0927734375,19106.0703125,0.0,13776.6201171875,0.0,13987.2236328125,17776.48828125,28358.30078125,13927.619140625,9748.1416015625,7730.3251953125,5796.75048828125,16299.08984375,14527.638671875,11188.189453125,0.0,3269.513427734375,8097.4892578125,6213.98291015625,872.6119995117188,-8370.08203125,14480.75,4873.27587890625,10655.720703125,17127.1953125,10882.21875,17182.826171875,7843.1767578125,11506.0810546875,6163.1201171875,0.0,7205.00927734375,14150.142578125,8555.2529296875,11812.05078125,20918.845703125,8474.1904296875,-1610.1201171875,9192.6259765625,7539.59033203125,27057.330078125,7774.830078125,14307.4990234375,-4836.71826171875,-8552.07421875,9458.859375,4933.67529296875,10202.7255859375,7075.46875,7190.7041015625,7608.73193359375,4422.66455078125,10634.2626953125,9920.5966796875,9013.8125,-12490.7490234375,-0.0,0.0,11361.439453125,7863.83935546875,-473.6582336425781,0.0,14367.8984375
-3330.70751953125,-8740.4248046875,8028.34814453125,11314.5517578125,16452.470703125,17135.939453125,14824.0732421875,14467.2392578125,14301.9365234375,10843.27734375,19081.43359375,0.0,13745.6259765625,0.0,13960.2021484375,17740.7265625,28325.716796875,13894.240234375,9717.146484375,7695.35693359375,5765.75634765625,16260.9423828125,14496.6435546875,11150.8369140625,0.0,3210.70361328125,8075.2373046875,6171.8623046875,844.0017700195312,-8397.1025390625,14447.37109375,4840.69189453125,10626.31640625,17093.0234375,10850.4296875,17147.064453125,7811.3876953125,11470.3173828125,6131.3310546875,0.0,7177.98876953125,14107.2275390625,8529.02734375,11773.109375,20888.646484375,8437.6337890625,-1641.9093017578125,9158.4521484375,7514.95361328125,27006.46875,7747.80908203125,14269.3515625,-4864.53369140625,-8574.326171875,9439.7861328125,4900.296875,10181.267578125,7038.1162109375,7168.45166015625,7565.81640625,4383.72265625,10597.7060546875,9887.21875,8978.048828125,-12520.94921875,-0.0,0.0,11325.6767578125,7812.18212890625,-507.036865234375,0.0,14333.724609375
-3300.5078125,-8703.8681640625,8055.369140625,11341.572265625,16478.697265625,17164.548828125,14850.298828125,14488.697265625,14326.572265625,10875.0654296875,19111.6328125,0.0,13782.978515625,0.0,13981.66015625,17760.595703125,28347.173828125,13918.08203125,9743.373046875,7723.96728515625,5791.1875,16287.1689453125,14521.28125,11175.4736328125,0.0,3245.671630859375,8098.28466796875,6197.2939453125,871.0225219726562,-8372.4658203125,14470.41796875,4862.14990234375,10650.158203125,17117.658203125,10874.271484375,17173.291015625,7838.40869140625,11494.16015625,6155.1728515625,0.0,7205.00927734375,14135.837890625,8556.048828125,11797.74609375,20914.078125,8457.5009765625,-1622.8358154296875,9184.677734375,7543.56396484375,27035.078125,7773.24072265625,14287.630859375,-4822.4130859375,-8544.1279296875,9468.396484375,4928.11181640625,10202.7255859375,7060.369140625,7200.2412109375,7572.96875,4412.3330078125,10619.1630859375,9911.8544921875,9002.685546875,-12480.41796875,-0.0,0.0,11351.1083984375,7834.4345703125,-470.4793395996094,0.0,14367.103515625
-3304.4814453125,-8716.5830078125,8031.52734375,11320.1142578125,16454.85546875,17144.6796875,14828.0458984375,14462.470703125,14304.3203125,10858.376953125,19075.87109375,0.0,13785.3623046875,0.0,13972.123046875,17728.009765625,28324.921875,13896.625,9721.1201171875,7702.50927734375,5768.9345703125,16266.50390625,14499.0283203125,11153.220703125,0.0,3227.392822265625,8073.6474609375,6172.6572265625,853.5385131835938,-8393.923828125,14448.166015625,4839.89697265625,10628.7001953125,17096.99609375,10852.8134765625,17151.83203125,7816.1552734375,11472.7021484375,6125.76806640625,-0.0,7180.37255859375,14117.55859375,8533.0009765625,11774.69921875,20891.82421875,8436.8388671875,-1652.24072265625,9164.015625,7522.10595703125,27016.00390625,7754.1669921875,14254.251953125,-4834.333984375,-8570.353515625,9453.296875,4898.70703125,10193.984375,7034.14306640625,7172.42578125,7555.48486328125,4402.001953125,10596.1162109375,9891.1923828125,8985.2021484375,-12496.3125,-0.0,0.0,11324.8828125,7822.513671875,-490.3475646972656,0.0,14354.388671875
-3329.912841796875,-8730.888671875,8021.99072265625,11304.2197265625,16443.728515625,17130.375,14816.919921875,14454.5244140625,14297.9619140625,10848.044921875,19071.1015625,0.0,13768.6728515625,0.0,13957.818359375,17728.8046875,28313.794921875,13887.087890625,9710.7890625,7696.94677734375,5757.80859375,16254.5830078125,14489.4912109375,11143.6845703125,0.0,3210.70361328125,8060.1376953125,6163.9150390625,840.8228759765625,-8404.2548828125,14437.0390625,4827.97607421875,10618.369140625,17083.486328125,10843.27734375,17140.70703125,7805.82421875,11463.9599609375,6113.05224609375,-0.0,7171.630859375,14103.2529296875,8521.080078125,11763.572265625,20882.287109375,8426.5068359375,-1660.9827880859375,9148.9150390625,7512.5693359375,27000.904296875,7743.04052734375,14251.0732421875,-4858.17578125,-8590.2216796875,9442.9658203125,4882.017578125,10179.6787109375,7021.42724609375,7156.53076171875,7541.1796875,4386.10693359375,10584.990234375,9884.0400390625,8985.2021484375,-12504.259765625,-0.0,0.0,11302.630859375,7815.36083984375,-513.3946533203125,0.0,14348.0302734375
-3304.4814453125,-8693.5361328125,8064.90625,11343.9560546875,16482.671875,17174.0859375,14855.861328125,14507.7705078125,14347.2353515625,10894.9345703125,19137.859375,0.0,13792.5146484375,0.0,13983.25,17803.509765625,28354.326171875,13928.4130859375,9754.498046875,7743.04052734375,5796.75048828125,16294.3212890625,14529.228515625,11188.984375,0.0,3245.671630859375,8095.10498046875,6222.72509765625,868.6383666992188,-8363.7236328125,14477.5703125,4868.50732421875,10658.1044921875,17123.22265625,10883.80859375,17183.623046875,7846.35546875,11509.2587890625,6161.53076171875,-0.0,7215.34130859375,14143.7841796875,8558.4326171875,11813.640625,20923.615234375,8477.3701171875,-1610.914794921875,9187.0625,7547.537109375,27046.998046875,7778.80322265625,14315.4462890625,-4835.12890625,-8549.6904296875,9481.1123046875,4932.88037109375,10202.7255859375,7088.97900390625,7190.7041015625,7583.30029296875,4415.51220703125,10628.7001953125,9927.75,9033.6796875,-12477.23828125,-0.0,0.0,11380.513671875,7865.4287109375,-440.2796325683594,0.0,14396.5078125
-3298.12353515625,-8683.205078125,8071.26318359375,11360.6455078125,16489.82421875,17191.568359375,14864.603515625,14522.8701171875,14359.951171875,10905.265625,19144.216796875,0.0,13793.3095703125,0.0,13985.6337890625,17816.224609375,28367.04296875,13942.71875,9767.21484375,7754.96142578125,5810.2607421875,16310.21484375,14541.943359375,11203.2890625,0.0,3264.7451171875,8102.2578125,6236.2353515625,878.9698486328125,-8347.8291015625,14490.287109375,4881.22314453125,10670.025390625,17138.322265625,10892.55078125,17197.927734375,7858.2763671875,11524.359375,6176.63037109375,-0.0,7220.90380859375,14159.6796875,8568.763671875,11827.9453125,20937.125,8493.2646484375,-1593.430908203125,9202.95703125,7553.1005859375,27069.25,7784.36669921875,14332.9306640625,-4828.77099609375,-8534.5908203125,9482.701171875,4951.9541015625,10207.494140625,7104.87353515625,7202.62548828125,7599.9892578125,4432.99609375,10642.2109375,9939.6708984375,9044.0107421875,-12460.5498046875,-0.0,0.0,11389.255859375,7882.91259765625,-441.0743713378906,0.0,14401.2763671875
-3300.5078125,-8715.7890625,8047.42138671875,11345.5458984375,16471.544921875,17168.521484375,14842.3505859375,14491.8759765625,14333.724609375,10879.0400390625,19109.25,0.0,13779.7998046875,0.0,13962.5859375,17759.00390625,28347.96875,13920.466796875,9744.1669921875,7732.70947265625,5789.59814453125,16289.552734375,14520.486328125,11177.0625,0.0,3249.645263671875,8081.59521484375,6200.47216796875,877.38037109375,-8374.0546875,14471.212890625,4862.14990234375,10649.36328125,17120.04296875,10873.4765625,17177.263671875,7835.22900390625,11497.337890625,6153.58349609375,-0.0,7196.267578125,14140.60546875,8547.3056640625,11800.9248046875,20914.873046875,8465.44921875,-1626.0146484375,9188.65234375,7534.82177734375,27043.0234375,7758.935546875,14288.42578125,-4826.38671875,-8557.6376953125,9458.0654296875,4929.701171875,10192.39453125,7065.13720703125,7197.06201171875,7582.505859375,4417.896484375,10621.5478515625,9917.4189453125,9014.6064453125,-12474.060546875,-0.0,0.0,11354.287109375,7870.99169921875,-491.14227294921875,0.0,14359.951171875
-3324.349609375,-8745.98828125,8020.40087890625,11305.80859375,16440.55078125,17119.25,14809.767578125,14441.013671875,14295.578125,10840.0986328125,19079.84375,0.0,13763.904296875,0.0,13939.5400390625,17690.658203125,28310.6171875,13882.3193359375,9702.841796875,7695.35693359375,5757.013671875,16245.841796875,14482.3388671875,11132.5576171875,0.0,3196.3984375,8055.369140625,6141.66259765625,859.8963623046875,-8407.43359375,14433.8603515625,4823.2080078125,10615.189453125,17080.306640625,10838.5087890625,17135.142578125,7797.876953125,11453.62890625,6117.02587890625,-0.0,7170.04150390625,14096.1005859375,8513.927734375,11750.0615234375,20878.314453125,8420.9443359375,-1669.724853515625,9149.7109375,7509.39013671875,26985.009765625,7731.11962890625,14228.0263671875,-4847.0498046875,-8587.04296875,9426.2763671875,4868.50732421875,10174.115234375,7003.1484375,7165.27294921875,7538.79541015625,4390.87548828125,10582.6064453125,9878.4765625,8977.25390625,-12503.46484375,-0.0,0.0,11272.4306640625,7842.38134765625,-541.210205078125,0.0,14323.3935546875
-3342.62841796875,-8745.98828125,8015.6328125,11301.8349609375,16434.98828125,17116.0703125,14804.2041015625,14433.8603515625,14290.8095703125,10827.3818359375,19070.306640625,0.0,13750.3935546875,0.0,13937.1552734375,17679.533203125,28307.4375,13879.1396484375,9697.2783203125,7684.23095703125,5753.04052734375,16245.046875,14477.5703125,11127.7890625,0.0,3207.524658203125,8050.60107421875,6135.3046875,862.280517578125,-8417.765625,14431.4765625,4820.82373046875,10610.4208984375,17077.126953125,10832.9462890625,17131.169921875,7792.31396484375,11445.681640625,6110.66796875,-0.0,7165.27294921875,14098.4853515625,8509.1591796875,11745.2939453125,20869.57421875,8412.2021484375,-1651.446044921875,9146.53125,7504.6220703125,26984.21484375,7725.556640625,14218.4892578125,-4872.48095703125,-8592.60546875,9406.4072265625,4856.58642578125,10171.7314453125,6995.201171875,7147.7890625,7527.66943359375,4384.517578125,10576.248046875,9868.14453125,8966.1279296875,-12501.080078125,-0.0,0.0,11255.7412109375,7829.666015625,-558.6942138671875,0.0,14310.677734375
-3346.602294921875,-8734.0673828125,8039.474609375,11328.0615234375,16454.060546875,17136.732421875,14820.8935546875,14448.9599609375,14305.9091796875,10830.5615234375,19090.970703125,0.0,13769.4677734375,0.0,13955.43359375,17701.783203125,28329.69140625,13896.625,9712.37890625,7691.38330078125,5773.703125,16268.0947265625,14494.259765625,11146.86328125,0.0,3232.9560546875,8068.0849609375,6155.9677734375,877.38037109375,-8438.427734375,14450.5498046875,4841.486328125,10631.083984375,17100.17578125,10852.8134765625,17150.244140625,7809.00341796875,11460.78125,6120.205078125,-0.0,7187.525390625,14121.5322265625,8525.8486328125,11764.3671875,20883.87890625,8422.5341796875,-1620.4515380859375,9169.578125,7522.10595703125,27005.671875,7742.24609375,14236.767578125,-4862.14990234375,-8568.763671875,9445.349609375,4894.7333984375,10189.2158203125,7012.68505859375,7161.29931640625,7536.4111328125,4385.3125,10595.3212890625,9880.8603515625,8971.69140625,-12480.41796875,-0.0,0.0,11277.19921875,7842.38134765625,-558.6942138671875,0.0,14309.8828125
-3321.965576171875,-8696.7158203125,8083.9794921875,11351.9033203125,16493.796875,17167.7265625,14859.8359375,14493.4658203125,14348.0302734375,10866.32421875,19132.294921875,0.0,13809.998046875,0.0,13991.9921875,17762.98046875,28366.248046875,13932.3876953125,9752.1142578125,7734.298828125,5812.64501953125,16299.08984375,14533.2021484375,11185.009765625,0.0,3234.54541015625,8106.2314453125,6201.26708984375,904.401123046875,-8366.1083984375,14486.3125,4877.2490234375,10671.615234375,17131.169921875,10890.9609375,17184.416015625,7849.5341796875,11502.90234375,6169.47802734375,-0.0,7228.056640625,14142.990234375,8564.7900390625,11804.103515625,20923.615234375,8465.44921875,-1586.2783203125,9192.6259765625,7561.84228515625,27039.05078125,7782.77734375,14293.193359375,-4802.544921875,-8529.822265625,9501.7744140625,4944.80126953125,10221.0048828125,7059.57421875,7203.419921875,7594.4267578125,4425.84375,10631.083984375,9923.775390625,9020.1689453125,-12451.8076171875,-0.0,0.0,11334.4189453125,7875.76025390625,-501.4737243652344,0.0,14368.693359375
-3294.150146484375,-8712.609375,8056.16357421875,11328.0615234375,16477.107421875,17158.984375,14844.7353515625,14493.4658203125,14336.9033203125,10859.9658203125,19117.197265625,0.0,13791.720703125,0.0,13973.712890625,17771.720703125,28346.380859375,13918.876953125,9740.193359375,7724.76171875,5791.98193359375,16283.9892578125,14520.486328125,11175.4736328125,0.0,3208.3193359375,8089.54248046875,6201.26708984375,880.5592651367188,-8364.5185546875,14466.4453125,4855.79150390625,10650.158203125,17111.30078125,10873.4765625,17172.494140625,7835.22900390625,11495.7490234375,6148.81494140625,-0.0,7206.5986328125,14127.890625,8548.1005859375,11798.541015625,20910.8984375,8462.26953125,-1614.8885498046875,9169.578125,7536.4111328125,27031.8984375,7768.47216796875,14299.5517578125,-4813.6708984375,-8567.173828125,9480.3173828125,4923.34375,10204.3154296875,7063.5478515625,7189.90966796875,7606.34765625,4420.2802734375,10615.9853515625,9914.2392578125,9011.427734375,-12462.93359375,-0.0,0.0,11345.5458984375,7863.044921875,-489.55279541015625,0.0,14368.693359375
-3279.844970703125,-8730.888671875,8037.884765625,11307.3984375,16462.802734375,17146.26953125,14828.0458984375,14478.3662109375,14319.419921875,10854.4033203125,19094.943359375,0.0,13767.87890625,0.0,13956.2294921875,17763.7734375,28328.099609375,13901.392578125,9724.2998046875,7708.07275390625,5775.29296875,16269.68359375,14503.796875,11159.5791015625,0.0,3185.272216796875,8073.6474609375,6187.7568359375,858.306884765625,-8390.744140625,14449.755859375,4834.333984375,10632.673828125,17094.611328125,10856.7880859375,17156.6015625,7816.95068359375,11478.2646484375,6114.6416015625,-0.0,7197.85693359375,14115.9697265625,8532.2060546875,11782.646484375,20895.00390625,8444.7861328125,-1632.37255859375,9148.12109375,7522.90087890625,27015.208984375,7749.39892578125,14286.8359375,-4843.87060546875,-8598.16796875,9447.7333984375,4883.607421875,10178.8837890625,7052.42138671875,7170.04150390625,7578.53173828125,4386.10693359375,10598.5,9896.7548828125,8993.943359375,-12481.212890625,-0.0,0.0,11342.3662109375,7849.5341796875,-487.9633483886719,0.0,14358.361328125
-3280.6396484375,-8719.76171875,8029.9375,11317.7294921875,16455.650390625,17149.44921875,14828.8408203125,14475.1865234375,14322.5986328125,10856.7880859375,19089.380859375,0.0,13765.494140625,0.0,13965.765625,17759.80078125,28329.69140625,13901.392578125,9722.7099609375,7709.662109375,5768.9345703125,16272.068359375,14500.6181640625,11157.1953125,0.0,3220.240234375,8076.03173828125,6186.9619140625,863.8699951171875,-8396.3076171875,14449.755859375,4838.3076171875,10628.7001953125,17098.5859375,10854.4033203125,17156.6015625,7817.7451171875,11475.880859375,6114.6416015625,-0.0,7181.16748046875,14123.1220703125,8532.2060546875,11782.646484375,20894.208984375,8439.2236328125,-1638.7303466796875,9160.0419921875,7523.6953125,27021.56640625,7751.78271484375,14282.0673828125,-4849.43408203125,-8582.2744140625,9450.912109375,4889.17041015625,10182.857421875,7051.62646484375,7162.88916015625,7533.232421875,4386.90185546875,10597.7060546875,9895.1650390625,8999.5068359375,-12481.212890625,-0.0,0.0,11315.345703125,7847.9453125,-503.0632019042969,0.0,14357.56640625
-3271.8974609375,-8692.7412109375,8047.42138671875,11343.9560546875,16469.955078125,17158.984375,14844.7353515625,14487.107421875,14337.69921875,10871.0927734375,19116.40234375,0.0,13784.5673828125,0.0,13988.8125,17769.3359375,28347.96875,13920.466796875,9737.8095703125,7726.35107421875,5786.4189453125,16285.578125,14517.3076171875,11172.294921875,0.0,3257.592529296875,8094.310546875,6202.8564453125,890.0960083007812,-8369.2861328125,14468.0341796875,4862.14990234375,10646.9794921875,17118.453125,10870.2978515625,17170.90625,7836.0244140625,11492.5703125,6153.58349609375,-0.0,7192.29345703125,14130.2744140625,8549.6904296875,11796.1572265625,20910.8984375,8453.5283203125,-1622.8358154296875,9187.0625,7539.59033203125,27037.462890625,7773.24072265625,14291.6044921875,-4824.79736328125,-8548.1005859375,9478.728515625,4920.95947265625,10201.13671875,7069.90576171875,7177.1943359375,7541.1796875,4414.71728515625,10615.189453125,9911.8544921875,9016.990234375,-12458.1650390625,-0.0,0.0,11328.0615234375,7863.044921875,-499.08953857421875,0.0,14364.7197265625
-3293.355224609375,-8699.8935546875,8044.24267578125,11339.982421875,16465.1875,17150.244140625,14833.609375,14472.8017578125,14326.572265625,10855.9921875,19110.044921875,0.0,13775.03125,0.0,13959.408203125,17736.75390625,28343.201171875,13914.1083984375,9729.0673828125,7714.43017578125,5784.03466796875,16279.220703125,14509.3603515625,11164.34765625,0.0,3245.671630859375,8080.005859375,6183.783203125,876.5856323242188,-8367.697265625,14465.6494140625,4855.79150390625,10642.2109375,17114.48046875,10865.529296875,17165.341796875,7827.28173828125,11481.4443359375,6158.35205078125,-0.0,7192.29345703125,14124.7109375,8538.5634765625,11785.0302734375,20902.953125,8443.1962890625,-1630.7830810546875,9183.8837890625,7530.84814453125,27022.361328125,7755.75634765625,14268.5576171875,-4821.61865234375,-8549.6904296875,9466.01171875,4909.83349609375,10183.65234375,7043.6796875,7184.3466796875,7547.537109375,4405.1806640625,10611.216796875,9901.5234375,9001.095703125,-12472.470703125,-0.0,0.0,11312.9619140625,7855.09765625,-522.13671875,0.0,14345.6455078125
-3285.407958984375,-8704.662109375,8042.6533203125,11337.59765625,16464.392578125,17151.83203125,14834.404296875,14477.5703125,14332.134765625,10862.3505859375,19106.865234375,0.0,13770.2626953125,0.0,13949.87109375,17737.546875,28340.81640625,13913.3134765625,9733.041015625,7719.19873046875,5782.4453125,16280.8095703125,14509.3603515625,11166.7314453125,0.0,3243.287353515625,8076.03173828125,6183.783203125,855.1279907226562,-8371.6708984375,14465.6494140625,4852.61279296875,10639.03125,17112.890625,10863.14453125,17166.13671875,7828.076171875,11484.623046875,6153.58349609375,-0.0,7193.88330078125,14128.6845703125,8536.974609375,11785.0302734375,20906.92578125,8451.14453125,-1629.98828125,9181.4990234375,7525.28515625,27024.74609375,7754.1669921875,14269.3515625,-4823.2080078125,-8561.611328125,9456.4755859375,4914.6015625,10178.0888671875,7044.47412109375,7196.267578125,7580.12158203125,4401.20703125,10611.216796875,9904.7021484375,9004.275390625,-12488.365234375,-0.0,0.0,11340.77734375,7868.607421875,-503.0632019042969,0.0,14355.1826171875
-3297.328857421875,-8715.7890625,8041.85888671875,11329.650390625,16461.21484375,17149.44921875,14828.8408203125,14470.41796875,14320.2138671875,10844.0712890625,19103.685546875,0.0,13778.2099609375,0.0,13954.6396484375,17734.369140625,28336.048828125,13904.5712890625,9726.68359375,7705.6884765625,5776.88232421875,16273.6572265625,14503.796875,11161.16796875,0.0,3232.161376953125,8076.8271484375,6179.0146484375,865.45947265625,-8391.5400390625,14460.880859375,4845.46044921875,10635.05859375,17106.533203125,10858.376953125,17159.78125,7820.12939453125,11477.470703125,6148.81494140625,-0.0,7193.08837890625,14123.1220703125,8533.794921875,11780.26171875,20897.388671875,8440.8125,-1633.9620361328125,9172.7568359375,7526.87451171875,27023.15625,7753.3720703125,14266.173828125,-4835.12890625,-8569.55859375,9458.859375,4908.24365234375,10184.447265625,7039.70556640625,7185.14111328125,7572.96875,4392.46533203125,10603.2685546875,9895.9609375,8985.2021484375,-12485.1865234375,-0.0,0.0,11329.650390625,7855.09765625,-506.2420959472656,0.0,14348.82421875
-3303.686767578125,-8725.3251953125,8032.32177734375,11324.8828125,16452.470703125,17143.091796875,14820.0986328125,14463.265625,14305.115234375,10835.330078125,19089.380859375,0.0,13781.388671875,0.0,13945.8974609375,17728.009765625,28329.69140625,13894.240234375,9713.9677734375,7690.58837890625,5768.9345703125,16266.50390625,14495.849609375,11152.4267578125,0.0,3225.0087890625,8070.46875,6175.041015625,879.7645263671875,-8400.28125,14452.9345703125,4837.51318359375,10630.2900390625,17100.96875,10851.2236328125,17152.62890625,7809.00341796875,11467.1396484375,6141.66259765625,-0.0,7184.3466796875,14115.9697265625,8525.0537109375,11775.4931640625,20884.671875,8431.275390625,-1656.21435546875,9167.1943359375,7522.10595703125,27020.7734375,7744.63037109375,14260.609375,-4848.63916015625,-8571.1474609375,9457.2705078125,4900.296875,10182.857421875,7023.8115234375,7167.6572265625,7556.27978515625,4382.92822265625,10591.34765625,9884.0400390625,8963.744140625,-12486.775390625,-0.0,0.0,11316.140625,7830.46044921875,-512.5999755859375,0.0,14333.724609375
-3329.117919921875,-8758.7041015625,7999.73779296875,11288.3251953125,16423.861328125,17109.712890625,14795.462890625,14433.06640625,14286.8359375,10824.998046875,19048.0546875,0.0,13757.546875,0.0,13929.2080078125,17699.400390625,28300.28515625,13865.6298828125,9689.3310546875,7673.8994140625,5737.9404296875,16234.716796875,14468.0341796875,11121.4326171875,0.0,3184.4775390625,8045.83251953125,6144.841796875,849.5648803710938,-8417.765625,14421.939453125,4805.7236328125,10599.2958984375,17069.181640625,10821.0244140625,17120.837890625,7782.77734375,11440.1181640625,6105.10498046875,-0.0,7154.146484375,14081.0009765625,8500.4169921875,11744.4990234375,20860.830078125,8404.2548828125,-1685.619384765625,9130.63671875,7492.701171875,26986.599609375,7721.5830078125,14229.615234375,-4878.8388671875,-8608.5,9426.2763671875,4866.123046875,10162.1943359375,6995.201171875,7147.7890625,7527.66943359375,4351.93408203125,10561.1484375,9860.9921875,8948.6435546875,-12527.306640625,-0.0,0.0,11317.7294921875,7818.53955078125,-517.3682861328125,0.0,14318.625
-3349.781005859375,-8765.8564453125,7996.55908203125,11278.7880859375,16418.298828125,17100.96875,14790.6943359375,14429.0927734375,14286.041015625,10835.330078125,19019.4453125,0.0,13737.6787109375,0.0,13930.0029296875,17701.783203125,28291.544921875,13856.09375,9685.357421875,7677.873046875,5730.78759765625,16225.97265625,14463.265625,11114.279296875,0.0,3173.351318359375,8039.474609375,6136.89404296875,836.0545043945312,-8423.328125,14410.8134765625,4795.392578125,10591.34765625,17058.849609375,10813.8720703125,17112.890625,7778.0087890625,11436.14453125,6082.85302734375,-0.0,7148.583984375,14071.46484375,8494.0595703125,11737.3466796875,20856.857421875,8404.2548828125,-1709.461181640625,9121.89453125,7483.958984375,26971.498046875,7716.814453125,14226.4365234375,-4876.45458984375,-8628.3681640625,9423.0966796875,4854.2021484375,10156.6318359375,7007.1220703125,7143.0205078125,7532.43798828125,4345.57568359375,10551.6123046875,9860.9921875,8958.9755859375,-12540.0224609375,-0.0,0.0,11339.982421875,7812.97705078125,-496.7053527832031,0.0,14327.3671875
-3349.781005859375,-8751.5517578125,8012.4541015625,11295.4775390625,16429.423828125,17109.712890625,14798.6416015625,14430.6826171875,14288.42578125,10834.5341796875,19058.38671875,0.0,13750.3935546875,0.0,13936.3603515625,17699.400390625,28301.080078125,13865.6298828125,9689.3310546875,7678.66748046875,5744.29833984375,16236.3056640625,14469.6240234375,11119.0478515625,0.0,3190.835205078125,8049.01123046875,6140.86767578125,856.7174072265625,-8420.1494140625,14421.1455078125,4808.90283203125,10604.8583984375,17069.974609375,10824.203125,17121.6328125,7785.16162109375,11440.1181640625,6101.92626953125,-0.0,7162.88916015625,14085.76953125,8502.0068359375,11741.3203125,20862.421875,8408.228515625,-1660.1881103515625,9138.583984375,7502.23779296875,26981.03515625,7726.35107421875,14221.66796875,-4860.56005859375,-8615.6533203125,9447.7333984375,4866.91796875,10169.3466796875,7009.50634765625,7146.994140625,7531.64306640625,4359.880859375,10558.7646484375,9864.966796875,8958.1806640625,-12519.359375,-0.0,0.0,11314.5517578125,7810.5927734375,-510.21575927734375,0.0,14327.3671875
-3359.31787109375,-8755.5244140625,8004.50634765625,11293.09375,16420.68359375,17101.765625,14790.6943359375,14418.76171875,14280.478515625,10812.2822265625,19075.07421875,0.0,13733.7041015625,0.0,13926.029296875,17681.12109375,28293.927734375,13858.4775390625,9679.0,7665.9521484375,5737.14599609375,16229.9482421875,14460.880859375,11107.921875,0.0,3184.4775390625,8039.474609375,6129.74169921875,833.6702880859375,-8433.6591796875,14414.787109375,4803.33935546875,10596.1162109375,17062.029296875,10814.6669921875,17112.890625,7775.62451171875,11428.197265625,6101.13134765625,-0.0,7154.146484375,14079.4111328125,8493.2646484375,11731.7841796875,20854.47265625,8394.7177734375,-1652.24072265625,9135.4052734375,7490.31689453125,26974.677734375,7717.609375,14206.568359375,-4884.40185546875,-8610.0888671875,9416.7392578125,4862.14990234375,10156.6318359375,6992.02197265625,7142.2255859375,7509.39013671875,4354.318359375,10550.81640625,9851.4560546875,8944.6708984375,-12528.1015625,-0.0,0.0,11274.0205078125,7814.56640625,-556.3099975585938,0.0,14300.3466796875
-3323.554931640625,-8730.09375,8025.16943359375,11316.140625,16443.728515625,17129.580078125,14816.919921875,14444.9873046875,14311.47265625,10834.5341796875,19098.123046875,0.0,13753.5732421875,0.0,13948.28125,17704.962890625,28321.7421875,13887.8818359375,9708.404296875,7693.767578125,5762.5771484375,16255.37890625,14488.697265625,11137.326171875,0.0,3194.80908203125,8064.11083984375,6155.1728515625,844.0017700195312,-8404.2548828125,14440.21875,4829.5654296875,10619.9580078125,17089.84375,10840.892578125,17140.70703125,7802.64501953125,11456.0126953125,6121.79443359375,-0.0,7177.1943359375,14109.611328125,8517.9013671875,11760.39453125,20882.287109375,8419.3544921875,-1631.577880859375,9157.6572265625,7514.15869140625,26999.314453125,7743.04052734375,14232.794921875,-4864.53369140625,-8568.763671875,9435.017578125,4884.40185546875,10174.115234375,7016.65869140625,7172.42578125,7531.64306640625,4386.90185546875,10581.0166015625,9879.271484375,8970.1015625,-12509.0283203125,-0.0,0.0,11285.94140625,7847.9453125,-548.3627319335938,0.0,14318.625
-3345.807373046875,-8757.1142578125,7999.73779296875,11289.1201171875,16420.68359375,17102.560546875,14793.873046875,14415.58203125,14279.68359375,10800.361328125,19073.486328125,0.0,13748.009765625,0.0,13927.619140625,17671.5859375,28297.900390625,13864.8349609375,9679.7939453125,7658.7998046875,5736.35107421875,16232.33203125,14463.265625,11113.484375,0.0,3177.324951171875,8043.4482421875,6124.97314453125,840.0281372070312,-8432.0703125,14415.58203125,4806.5185546875,10596.9111328125,17066.001953125,10817.05078125,17116.0703125,7777.2138671875,11428.9921875,6074.1103515625,-0.0,7153.35205078125,14090.5380859375,8496.443359375,11734.962890625,20853.677734375,8388.3603515625,-1662.572265625,9130.63671875,7493.49609375,26973.8828125,7719.19873046875,14203.3896484375,-4880.42822265625,-8599.7578125,9424.6865234375,4862.9443359375,10158.2216796875,6984.86962890625,7144.60986328125,7497.46923828125,4363.85498046875,10557.96875,9850.6611328125,8930.365234375,-12513.0009765625,-0.0,0.0,11243.8203125,7816.95068359375,-587.304443359375,0.0,14278.888671875
-3356.93359375,-8761.087890625,7979.0751953125,11275.609375,16401.609375,17082.69140625,14772.4150390625,14402.072265625,14244.7158203125,10784.466796875,19044.876953125,0.0,13738.47265625,0.0,13904.5712890625,17669.201171875,28278.828125,13844.1728515625,9659.9267578125,7634.9580078125,5718.86669921875,16210.875,14441.013671875,11093.6162109375,0.0,3182.09326171875,8023.57958984375,6114.6416015625,838.4386596679688,-8449.5546875,14394.1240234375,4789.0341796875,10578.6328125,17046.927734375,10796.3876953125,17094.611328125,7756.55126953125,11411.5078125,6086.03125,-0.0,7135.8681640625,14058.7490234375,8476.5751953125,11716.68359375,20828.24609375,8373.2607421875,-1704.69287109375,9119.5107421875,7478.39599609375,26960.373046875,7695.35693359375,14196.236328125,-4896.32275390625,-8611.6787109375,9411.17578125,4870.0966796875,10140.736328125,6979.306640625,7108.84716796875,7494.291015625,4352.728515625,10538.1015625,9827.6142578125,8904.1396484375,-12510.6171875,-0.0,0.0,11267.662109375,7765.29296875,-568.23095703125,0.0,14278.0947265625
-3371.23876953125,-8796.8515625,7947.28564453125,11235.873046875,16370.615234375,17046.927734375,14739.0361328125,14369.4873046875,14207.36328125,10749.4990234375,19023.41796875,0.0,13713.8369140625,0.0,13887.087890625,17641.38671875,28243.859375,13808.41015625,9626.5478515625,7599.19482421875,5684.69384765625,16173.521484375,14407.634765625,11057.853515625,0.0,3136.7939453125,7996.55908203125,6082.85302734375,812.212646484375,-8482.9326171875,14358.361328125,4754.861328125,10546.0478515625,17011.166015625,10763.0087890625,17058.849609375,7719.19873046875,11374.9501953125,6060.60009765625,-0.0,7101.69482421875,14019.806640625,8443.9912109375,11681.7158203125,20793.279296875,8338.2919921875,-1738.0714111328125,9078.9794921875,7449.78564453125,26922.2265625,7666.74658203125,14166.037109375,-4920.95947265625,-8653.7998046875,9377.796875,4823.2080078125,10129.611328125,6949.9013671875,7067.521484375,7464.0908203125,4316.17138671875,10503.927734375,9792.6455078125,8866.787109375,-12546.3798828125,-0.0,0.0,11246.9990234375,7724.76171875,-592.8675537109375,0.0,14245.509765625
-3341.0390625,-8780.162109375,7979.86962890625,11259.71484375,16406.376953125,17081.1015625,14775.59375,14405.2509765625,14249.484375,10791.619140625,19052.82421875,0.0,13740.857421875,0.0,13930.7978515625,17681.12109375,28272.470703125,13841.7880859375,9660.720703125,7642.1103515625,5716.482421875,16204.515625,14441.8076171875,11092.0263671875,0.0,3164.609130859375,8034.7060546875,6116.2314453125,832.080810546875,-8450.3486328125,14390.1513671875,4781.8818359375,10575.4541015625,17038.98046875,10795.59375,17092.228515625,7756.55126953125,11410.712890625,6081.26318359375,-0.0,7134.27880859375,14053.185546875,8480.548828125,11715.888671875,20832.220703125,8375.64453125,-1703.8980712890625,9105.205078125,7483.958984375,26950.8359375,7705.6884765625,14204.1845703125,-4892.34912109375,-8635.5205078125,9408.7919921875,4839.10205078125,10162.9892578125,6980.89599609375,7111.2314453125,7503.82763671875,4339.21826171875,10538.8955078125,9831.587890625,8912.880859375,-12528.896484375,-0.0,0.0,11291.50390625,7770.8564453125,-541.210205078125,0.0,14286.8359375
-3352.9599609375,-8784.9306640625,7967.154296875,11249.3828125,16392.072265625,17072.359375,14766.8525390625,14398.892578125,14249.484375,10789.2353515625,19038.51953125,0.0,13721.783203125,0.0,13909.33984375,17673.173828125,28262.138671875,13832.251953125,9653.568359375,7641.3154296875,5704.5615234375,16194.185546875,14433.8603515625,11084.8740234375,0.0,3147.919921875,8018.81103515625,6109.0791015625,819.3651733398438,-8456.70703125,14380.6142578125,4774.7294921875,10563.533203125,17030.23828125,10785.26171875,17085.076171875,7749.39892578125,11402.7666015625,6067.7529296875,-0.0,7123.15234375,14041.2646484375,8469.421875,11707.9423828125,20827.451171875,8370.8759765625,-1715.8189697265625,9094.8740234375,7468.06494140625,26942.095703125,7694.5625,14196.236328125,-4893.9384765625,-8636.3154296875,9397.666015625,4831.94970703125,10144.7109375,6972.94873046875,7119.1787109375,7498.26416015625,4322.52880859375,10530.154296875,9826.0244140625,8911.2919921875,-12540.8173828125,-0.0,0.0,11274.0205078125,7779.59814453125,-549.9522094726562,0.0,14282.0673828125
-3353.754638671875,-8769.03515625,7975.1015625,11266.8671875,16398.4296875,17089.84375,14771.62109375,14410.8134765625,14262.994140625,10801.15625,19047.259765625,0.0,13715.4267578125,0.0,13900.59765625,17681.91796875,28276.443359375,13844.1728515625,9665.4892578125,7654.82568359375,5714.8935546875,16208.490234375,14444.1923828125,11097.5908203125,0.0,3164.609130859375,8018.0166015625,6125.76806640625,820.9546508789062,-8445.580078125,14394.1240234375,4785.85595703125,10575.4541015625,17043.748046875,10794.798828125,17097.791015625,7758.140625,11415.4814453125,6078.08447265625,-0.0,7131.89453125,14057.1591796875,8473.396484375,11722.2470703125,20838.580078125,8384.38671875,-1684.8245849609375,9109.9736328125,7465.6806640625,26961.9609375,7696.94677734375,14208.953125,-4888.3759765625,-8618.037109375,9400.8447265625,4848.63916015625,10133.583984375,6991.2275390625,7127.92041015625,7506.2119140625,4324.1181640625,10541.2802734375,9837.150390625,8932.75,-12536.048828125,-0.0,0.0,11264.4833984375,7797.08251953125,-554.7205810546875,0.0,14293.98828125
-3303.686767578125,-8716.5830078125,8036.2958984375,11329.650390625,16453.265625,17148.65234375,14828.0458984375,14470.41796875,14325.7783203125,10862.3505859375,19098.91796875,0.0,13763.1103515625,0.0,13956.2294921875,17740.7265625,28336.048828125,13903.77734375,9724.2998046875,7716.814453125,5775.29296875,16268.888671875,14500.6181640625,11156.3994140625,0.0,3232.161376953125,8071.26318359375,6184.578125,863.0752563476562,-8375.64453125,14454.5244140625,4839.89697265625,10635.05859375,17104.943359375,10852.8134765625,17155.01171875,7816.95068359375,11475.880859375,6132.9208984375,-0.0,7188.3203125,14120.73828125,8529.02734375,11781.8515625,20896.59375,8443.1962890625,-1626.0146484375,9171.962890625,7517.337890625,27026.333984375,7751.78271484375,14267.76171875,-4849.43408203125,-8557.6376953125,9452.501953125,4919.3701171875,10178.8837890625,7055.6005859375,7178.783203125,7561.0478515625,4392.46533203125,10598.5,9897.5498046875,9006.6591796875,-12481.212890625,-0.0,0.0,11316.935546875,7854.30224609375,-506.2420959472656,0.0,14356.7724609375
-3283.818603515625,-8680.8203125,8068.0849609375,11364.619140625,16480.287109375,17180.443359375,14858.24609375,14505.38671875,14355.9775390625,10898.11328125,19115.60546875,0.0,13786.15625,0.0,13984.83984375,17787.615234375,28366.248046875,13936.3603515625,9755.2939453125,7752.5771484375,5804.69775390625,16300.6787109375,14531.6123046875,11192.162109375,0.0,3267.129150390625,8096.69482421875,6223.52001953125,883.7382202148438,-8335.11328125,14483.9287109375,4870.0966796875,10664.462890625,17135.142578125,10882.21875,17188.390625,7847.9453125,11509.2587890625,6162.3251953125,-0.0,7215.34130859375,14154.1162109375,8556.048828125,11815.23046875,20925.203125,8480.548828125,-1604.5570068359375,9207.7255859375,7542.76904296875,27060.5078125,7779.59814453125,14308.29296875,-4821.61865234375,-8527.4384765625,9473.9599609375,4954.337890625,10205.9052734375,7100.10546875,7207.3935546875,7600.7841796875,4431.40673828125,10631.87890625,9929.33984375,9043.216796875,-12451.8076171875,-0.0,0.0,11383.6923828125,7876.5556640625,-451.4058532714844,0.0,14401.2763671875
-3325.14453125,-8722.94140625,8030.73193359375,11324.087890625,16442.140625,17139.1171875,14816.125,14460.880859375,14306.7041015625,10843.27734375,19079.05078125,0.0,13759.9306640625,0.0,13947.4873046875,17749.46875,28328.896484375,13894.240234375,9709.994140625,7700.919921875,5765.75634765625,16258.55859375,14491.0810546875,11149.2470703125,0.0,3223.419189453125,8058.5478515625,6180.6044921875,854.333251953125,-8379.6181640625,14445.78125,4833.53955078125,10628.7001953125,17095.408203125,10841.6875,17148.65234375,7805.82421875,11463.9599609375,6131.3310546875,-0.0,7177.98876953125,14113.5859375,8514.7216796875,11773.109375,20882.287109375,8432.0703125,-1639.5250244140625,9168.7841796875,7503.82763671875,27016.00390625,7738.27197265625,14266.9677734375,-4846.2548828125,-8570.353515625,9431.044921875,4901.09130859375,10178.0888671875,7050.03759765625,7164.478515625,7546.74267578125,4389.2861328125,10591.34765625,9882.4501953125,8985.2021484375,-12483.5966796875,-0.0,0.0,11330.4453125,7828.87158203125,-511.80523681640625,0.0,14343.26171875
-3351.37060546875,-8724.5302734375,8027.5537109375,11317.7294921875,16435.78125,17134.34765625,14812.9462890625,14454.5244140625,14297.9619140625,10831.3564453125,19083.0234375,0.0,13759.9306640625,0.0,13948.28125,17735.958984375,28325.716796875,13890.2666015625,9704.4306640625,7695.35693359375,5763.3720703125,16256.173828125,14485.5185546875,11143.6845703125,0.0,3217.061279296875,8056.16357421875,6171.06787109375,841.6175537109375,-8375.64453125,14442.603515625,4830.3603515625,10624.7265625,17093.0234375,10837.7138671875,17143.884765625,7798.671875,11458.396484375,6132.1259765625,-0.0,7174.81005859375,14106.4326171875,8509.953125,11765.95703125,20875.931640625,8423.328125,-1642.7039794921875,9162.42578125,7495.8798828125,27006.46875,7735.88818359375,14258.2255859375,-4854.2021484375,-8570.353515625,9426.2763671875,4885.19677734375,10173.3203125,7031.7587890625,7160.5048828125,7531.64306640625,4383.72265625,10589.7587890625,9874.5029296875,8977.25390625,-12508.2333984375,-0.0,0.0,11291.50390625,7824.89794921875,-549.157470703125,0.0,14321.009765625
-3378.391357421875,-8740.4248046875,8006.095703125,11302.630859375,16420.68359375,17116.0703125,14798.6416015625,14436.2451171875,14282.0673828125,10817.845703125,19064.744140625,0.0,13741.65234375,0.0,13941.12890625,17707.34765625,28305.849609375,13873.5771484375,9687.7412109375,7681.0517578125,5745.0927734375,16238.689453125,14468.0341796875,11124.611328125,0.0,3204.345703125,8043.4482421875,6151.994140625,828.107177734375,-8409.0234375,14423.529296875,4808.10791015625,10604.064453125,17074.744140625,10820.2294921875,17125.607421875,7783.57177734375,11441.7080078125,6114.6416015625,-0.0,7157.32568359375,14089.7431640625,8496.443359375,11746.8837890625,20860.830078125,8407.43359375,-1668.13525390625,9144.9423828125,7486.34326171875,26987.39453125,7723.1728515625,14235.1787109375,-4894.7333984375,-8587.04296875,9415.9443359375,4864.53369140625,10162.9892578125,7011.890625,7147.7890625,7518.92724609375,4355.9072265625,10573.0693359375,9859.40234375,8962.94921875,-12536.84375,-0.0,0.0,11275.609375,7816.95068359375,-561.8731079101562,0.0,14305.9091796875
-3348.19140625,-8730.888671875,8012.4541015625,11306.603515625,16431.80859375,17124.810546875,14809.767578125,14448.9599609375,14296.3720703125,10838.5087890625,19072.69140625,0.0,13738.47265625,0.0,13943.5126953125,17716.884765625,28313.001953125,13883.908203125,9700.4580078125,7695.35693359375,5753.04052734375,16246.6376953125,14478.3662109375,11136.5322265625,0.0,3204.345703125,8056.16357421875,6160.736328125,844.0017700195312,-8405.8447265625,14431.4765625,4816.85009765625,10612.8056640625,17081.896484375,10830.5615234375,17135.142578125,7797.08251953125,11452.833984375,6118.61572265625,-0.0,7164.478515625,14094.51171875,8507.5693359375,11758.009765625,20875.134765625,8422.5341796875,-1668.9300537109375,9148.9150390625,7503.03271484375,26998.51953125,7735.88818359375,14245.509765625,-4889.17041015625,-8575.916015625,9433.4287109375,4876.45458984375,10177.294921875,7026.990234375,7162.09423828125,7548.33203125,4378.16015625,10584.1953125,9872.9130859375,8976.4599609375,-12520.94921875,-0.0,0.0,11316.935546875,7832.05029296875,-516.5736083984375,0.0,14338.4931640625
-3306.071044921875,-8702.2783203125,8033.91162109375,11330.4453125,16454.85546875,17150.244140625,14836.7880859375,14471.212890625,14320.2138671875,10858.376953125,19095.740234375,0.0,13739.2685546875,0.0,13967.3544921875,17744.69921875,28337.63671875,13907.75,9726.68359375,7714.43017578125,5777.67724609375,16270.4794921875,14503.001953125,11161.16796875,0.0,3225.0087890625,8080.80029296875,6179.0146484375,868.6383666992188,-8372.4658203125,14456.11328125,4843.076171875,10635.05859375,17107.328125,10854.4033203125,17161.369140625,7823.30810546875,11475.880859375,6139.2783203125,-0.0,7187.525390625,14121.5322265625,8533.794921875,11782.646484375,20900.568359375,8443.9912109375,-1645.8829345703125,9173.552734375,7525.28515625,27022.361328125,7765.29296875,14268.5576171875,-4846.2548828125,-8555.2529296875,9454.0908203125,4913.01220703125,10203.5205078125,7046.06396484375,7201.83056640625,7569.7900390625,4409.154296875,10609.626953125,9897.5498046875,8992.3544921875,-12494.7236328125,-0.0,0.0,11342.3662109375,7842.38134765625,-500.67901611328125,0.0,14352.00390625
-3323.554931640625,-8703.8681640625,8029.1435546875,11334.4189453125,16450.0859375,17153.421875,14835.1982421875,14470.41796875,14320.2138671875,10855.9921875,19083.818359375,0.0,13771.056640625,0.0,13966.560546875,17744.69921875,28333.6640625,13904.5712890625,9724.2998046875,7713.6357421875,5774.498046875,16269.68359375,14502.2080078125,11159.5791015625,0.0,3227.392822265625,8079.21142578125,6179.8095703125,851.9490356445312,-8388.3603515625,14450.5498046875,4836.71826171875,10630.2900390625,17104.943359375,10850.4296875,17160.57421875,7822.513671875,11475.880859375,6128.94677734375,-0.0,7185.14111328125,14126.30078125,8531.4111328125,11783.4404296875,20898.9765625,8443.1962890625,-1652.24072265625,9178.3212890625,7516.54296875,27017.59375,7763.70361328125,14267.76171875,-4844.66552734375,-8556.8427734375,9431.044921875,4924.93310546875,10189.2158203125,7038.1162109375,7202.62548828125,7568.20068359375,4394.84912109375,10604.064453125,9896.7548828125,8994.73828125,-12501.8759765625,-0.0,0.0,11338.3935546875,7847.9453125,-499.8843078613281,0.0,14349.6201171875
-3371.23876953125,-8737.24609375,7993.38037109375,11298.65625,16409.5546875,17120.837890625,14794.6669921875,14439.423828125,14282.0673828125,10820.2294921875,19041.697265625,0.0,13758.341796875,0.0,13927.619140625,17714.5,28297.10546875,13865.6298828125,9685.357421875,7679.46240234375,5734.76171875,16230.7412109375,14464.060546875,11124.611328125,0.0,3194.014404296875,8040.26904296875,6154.37841796875,817.7757568359375,-8438.427734375,14411.6083984375,4797.77685546875,10591.34765625,17067.58984375,10809.103515625,17122.427734375,7781.1875,11440.9130859375,6090.00537109375,-0.0,7145.40478515625,14089.7431640625,8491.67578125,11751.6513671875,20858.4453125,8409.8173828125,-1681.645751953125,9143.3525390625,7477.6015625,26978.650390625,7721.5830078125,14238.357421875,-4884.40185546875,-8585.453125,9384.94921875,4874.865234375,10146.30078125,7003.94287109375,7150.17333984375,7532.43798828125,4351.93408203125,10566.7109375,9859.40234375,8962.154296875,-12538.4326171875,-0.0,0.0,11306.603515625,7809.7978515625,-523.7261352539062,0.0,14319.419921875
-3358.523193359375,-8741.2197265625,7993.38037109375,11282.76171875,16409.5546875,17112.890625,14795.462890625,14447.37109375,14288.42578125,10828.9716796875,19021.03515625,0.0,13744.037109375,0.0,13929.2080078125,17737.546875,28293.927734375,13864.8349609375,9689.3310546875,7689.7939453125,5733.171875,16225.1796875,14462.470703125,11126.2001953125,0.0,3205.140380859375,8038.68017578125,6169.47802734375,822.5440673828125,-8420.1494140625,14410.8134765625,4796.18701171875,10590.5537109375,17060.4375,10809.8984375,17120.837890625,7781.1875,11446.4755859375,6097.15771484375,-0.0,7143.0205078125,14081.0009765625,8490.0859375,11754.0361328125,20861.625,8417.765625,-1685.619384765625,9129.0478515625,7476.806640625,27001.69921875,7722.3779296875,14256.63671875,-4881.22314453125,-8600.552734375,9401.638671875,4862.14990234375,10155.0419921875,7027.78466796875,7142.2255859375,7543.56396484375,4346.37060546875,10568.30078125,9864.966796875,8974.0751953125,-12553.5322265625,-0.0,0.0,11316.935546875,7815.36083984375,-507.036865234375,0.0,14335.314453125
-3315.607666015625,-8718.9677734375,8021.99072265625,11329.650390625,16439.755859375,17149.44921875,14823.27734375,14484.72265625,14324.1884765625,10867.119140625,19032.955078125,0.0,13756.751953125,0.0,13953.8447265625,17772.515625,28324.921875,13899.0087890625,9721.9150390625,7728.7353515625,5765.75634765625,16260.9423828125,14494.259765625,11160.3740234375,0.0,3263.950439453125,8065.70068359375,6196.4990234375,845.5912475585938,-8394.7177734375,14443.3974609375,4827.97607421875,10622.341796875,17096.201171875,10842.482421875,17156.6015625,7811.3876953125,11479.8544921875,6121.0,-0.0,7174.81005859375,14125.5068359375,8518.6962890625,11785.8251953125,20895.00390625,8455.912109375,-1684.8245849609375,9174.3466796875,7504.6220703125,27057.330078125,7750.98779296875,14293.98828125,-4862.14990234375,-8565.5849609375,9435.8125,4895.5283203125,10176.4990234375,7068.31591796875,7171.630859375,7591.24755859375,4378.95458984375,10604.8583984375,9901.5234375,9017.78515625,-12555.9169921875,-0.0,0.0,11352.6982421875,7853.5078125,-466.50567626953125,0.0,14379.8193359375
-3300.5078125,-8720.5576171875,8033.1162109375,11331.240234375,16447.703125,17143.884765625,14822.4833984375,14472.0078125,14324.1884765625,10856.7880859375,19091.763671875,0.0,13751.9833984375,0.0,13951.4609375,17743.90625,28330.484375,13899.802734375,9721.9150390625,7721.5830078125,5771.31884765625,16260.1474609375,14495.0556640625,11156.3994140625,0.0,3231.366455078125,8065.70068359375,6178.22021484375,846.385986328125,-8382.796875,14445.78125,4836.71826171875,10627.90625,17100.96875,10848.044921875,17154.216796875,7810.5927734375,11475.0859375,6108.2841796875,-0.0,7185.14111328125,14117.55859375,8524.2587890625,11776.2880859375,20895.00390625,8447.169921875,-1658.5985107421875,9173.552734375,7514.15869140625,27030.310546875,7747.0146484375,14274.1201171875,-4850.22900390625,-8559.2265625,9455.6806640625,4916.98583984375,10176.4990234375,7051.62646484375,7177.98876953125,7576.9423828125,4390.0810546875,10604.8583984375,9895.9609375,9001.095703125,-12549.5595703125,-0.0,0.0,11328.8564453125,7862.25048828125,-509.4210510253906,0.0,14343.26171875
-3353.754638671875,-8782.5458984375,7979.0751953125,11254.9462890625,16394.45703125,17073.154296875,14770.03125,14398.892578125,14269.3515625,10785.26171875,19062.361328125,0.0,13721.783203125,0.0,13910.9296875,17665.228515625,28273.263671875,13837.01953125,9660.720703125,7654.82568359375,5710.919921875,16198.158203125,14439.423828125,11091.232421875,0.0,3146.33056640625,8021.99072265625,6104.310546875,809.8284301757812,-8430.48046875,14386.1767578125,4781.08740234375,10569.8896484375,17036.595703125,10790.8251953125,17089.048828125,7754.96142578125,11407.5341796875,6055.037109375,-0.0,7128.71533203125,14045.23828125,8471.01171875,11707.9423828125,20836.98828125,8374.8505859375,-1682.4404296875,9098.84765625,7468.859375,26947.65625,7698.5361328125,14196.236328125,-4903.47509765625,-8623.599609375,9410.380859375,4853.4072265625,10147.0947265625,6977.716796875,7127.92041015625,7482.3701171875,4338.42333984375,10543.6640625,9833.1767578125,8923.212890625,-12547.17578125,-0.0,0.0,11232.693359375,7817.7451171875,-609.5568237304688,0.0,14256.63671875
-3364.880859375,-8765.8564453125,7975.1015625,11262.8935546875,16392.865234375,17084.279296875,14771.62109375,14409.224609375,14267.76171875,10797.9775390625,19047.259765625,0.0,13720.1943359375,0.0,13909.33984375,17687.478515625,28276.443359375,13842.5830078125,9664.6943359375,7659.59423828125,5712.50927734375,16204.515625,14441.8076171875,11099.1796875,0.0,3170.17236328125,8020.40087890625,6121.0,822.5440673828125,-8424.91796875,14391.740234375,4786.650390625,10573.0693359375,17040.5703125,10790.0302734375,17096.201171875,7758.935546875,11414.6875,6076.49462890625,-0.0,7126.33154296875,14057.1591796875,8470.2177734375,11719.0673828125,20836.98828125,8383.591796875,-1681.645751953125,9106.794921875,7466.47509765625,26963.552734375,7696.15185546875,14209.7470703125,-4907.44921875,-8613.2685546875,9392.1025390625,4854.2021484375,10146.30078125,6994.40625,7120.76806640625,7491.90673828125,4340.8076171875,10546.84375,9836.3564453125,8932.75,-12523.333984375,-0.0,0.0,11269.251953125,7797.08251953125,-572.20458984375,0.0,14285.2470703125
-3356.138916015625,-8733.2724609375,8001.32763671875,11292.2978515625,16417.50390625,17112.890625,14795.462890625,14437.0390625,14285.2470703125,10820.2294921875,19063.154296875,0.0,13742.447265625,0.0,13925.234375,17711.3203125,28301.080078125,13864.8349609375,9687.7412109375,7678.66748046875,5739.5302734375,16231.537109375,14464.85546875,11123.81640625,0.0,3197.193115234375,8041.85888671875,6149.60986328125,842.4122924804688,-8402.6650390625,14417.171875,4811.287109375,10600.08984375,17066.796875,10814.6669921875,17122.427734375,7781.982421875,11439.3232421875,6108.2841796875,-0.0,7153.35205078125,14085.76953125,8494.853515625,11746.0888671875,20857.65234375,8409.0234375,-1662.572265625,9135.4052734375,7490.31689453125,26993.751953125,7716.02001953125,14234.3837890625,-4870.0966796875,-8586.2470703125,9425.48046875,4887.5810546875,10162.1943359375,7020.63232421875,7138.25244140625,7522.90087890625,4360.67578125,10570.685546875,9858.6083984375,8956.591796875,-12511.4130859375,-0.0,0.0,11299.451171875,7798.671875,-538.8259887695312,0.0,14314.6513671875
-3308.455322265625,-8699.099609375,8039.474609375,11344.75,16454.85546875,17160.57421875,14832.01953125,14482.3388671875,14317.830078125,10862.3505859375,19090.970703125,0.0,13779.00390625,0.0,13957.0234375,17756.62109375,28343.99609375,13906.9560546875,9729.8623046875,7718.404296875,5780.06103515625,16276.8359375,14504.591796875,11167.5263671875,0.0,3248.8505859375,8074.44287109375,6197.2939453125,878.9698486328125,-8358.955078125,14459.2919921875,4851.0234375,10640.62109375,17112.890625,10858.376953125,17167.7265625,7821.71923828125,11482.23828125,6148.0205078125,-0.0,7188.3203125,14137.427734375,8532.2060546875,11790.5927734375,20895.798828125,8452.7333984375,-1641.9093017578125,9190.2421875,7527.66943359375,27041.435546875,7751.78271484375,14279.68359375,-4824.0029296875,-8533.0009765625,9467.6015625,4942.4169921875,10192.39453125,7067.521484375,7170.8359375,7570.5849609375,4408.359375,10611.216796875,9897.5498046875,8995.533203125,-12469.2919921875,-0.0,0.0,11354.287109375,7824.89794921875,-495.1159362792969,0.0,14353.5927734375
-3308.455322265625,-8714.9931640625,8029.1435546875,11332.03515625,16446.11328125,17151.83203125,14822.4833984375,14475.1865234375,14313.857421875,10852.8134765625,19090.970703125,0.0,13768.6728515625,0.0,13950.6650390625,17755.03125,28335.251953125,13899.0087890625,9721.9150390625,7712.04638671875,5770.5244140625,16264.1201171875,14498.2333984375,11160.3740234375,0.0,3238.51904296875,8066.4951171875,6189.34619140625,863.0752563476562,-8366.1083984375,14451.3447265625,4839.89697265625,10630.2900390625,17104.1484375,10847.2509765625,17159.78125,7812.97705078125,11476.67578125,6141.66259765625,-0.0,7177.98876953125,14125.5068359375,8523.4638671875,11784.236328125,20887.8515625,8442.40234375,-1640.31982421875,9177.525390625,7515.74853515625,27031.8984375,7744.63037109375,14276.5048828125,-4847.0498046875,-8556.048828125,9451.70703125,4925.72802734375,10185.2421875,7060.369140625,7166.8623046875,7552.3056640625,4404.38623046875,10599.2958984375,9890.3974609375,8987.5859375,-12489.955078125,-0.0,0.0,11333.625,7829.666015625,-503.0632019042969,0.0,14348.0302734375
-3374.41748046875,-8754.73046875,7975.1015625,11271.6357421875,16395.25,17096.201171875,14771.62109375,14423.529296875,14262.994140625,10790.0302734375,19038.51953125,0.0,13724.16796875,0.0,13914.1083984375,17711.3203125,28278.033203125,13843.376953125,9666.283203125,7654.03125,5716.482421875,16207.6953125,14444.9873046875,11104.7431640625,0.0,3174.94091796875,8022.78515625,6140.86767578125,809.8284301757812,-8425.712890625,14394.1240234375,4780.29248046875,10575.4541015625,17045.33984375,10791.619140625,17101.765625,7762.1142578125,11422.6337890625,6089.21044921875,-0.0,7127.1259765625,14063.517578125,8472.6015625,11730.98828125,20836.1953125,8383.591796875,-1691.1824951171875,9114.7421875,7464.8857421875,26973.8828125,7699.33056640625,14229.615234375,-4904.27001953125,-8622.8056640625,9397.666015625,4862.14990234375,10147.0947265625,7008.71142578125,7122.35791015625,7490.31689453125,4342.39697265625,10544.458984375,9837.150390625,8928.775390625,-12564.6591796875,-0.0,0.0,11275.609375,7793.1083984375,-562.6678466796875,0.0,14286.8359375
-3357.728271484375,-8735.65625,7987.81689453125,11282.76171875,16403.994140625,17108.12109375,14780.3623046875,14435.4501953125,14269.3515625,10785.26171875,19047.259765625,0.0,13732.91015625,0.0,13921.2607421875,17722.44921875,28289.953125,13854.50390625,9675.8203125,7656.41552734375,5724.43017578125,16219.6162109375,14452.1396484375,11115.8681640625,0.0,3185.272216796875,8029.9375,6152.78857421875,817.7757568359375,-8412.9970703125,14404.4560546875,4791.41845703125,10587.375,17055.669921875,10805.1298828125,17112.09765625,7770.0615234375,11431.3759765625,6101.13134765625,-0.0,7137.45751953125,14074.6435546875,8480.548828125,11742.115234375,20843.34765625,8393.1279296875,-1686.4140625,9126.6630859375,7473.62744140625,26984.21484375,7705.6884765625,14246.3046875,-4893.14404296875,-8604.5263671875,9412.765625,4873.27587890625,10153.453125,7020.63232421875,7127.92041015625,7508.595703125,4343.986328125,10555.5849609375,9842.712890625,8935.9287109375,-12551.1484375,-0.0,0.0,11281.966796875,7790.72412109375,-567.4362182617188,0.0,14282.8623046875
-3333.091796875,-8721.3515625,7995.7646484375,11293.8876953125,16414.32421875,17115.275390625,14790.6943359375,14441.8076171875,14282.0673828125,10801.15625,19040.90234375,0.0,13747.21484375,0.0,13929.2080078125,17708.9375,28301.875,13864.8349609375,9685.357421875,7668.33642578125,5734.76171875,16229.9482421875,14462.470703125,11123.81640625,0.0,3202.756103515625,8039.474609375,6153.58349609375,837.6439208984375,-8402.6650390625,14414.787109375,4804.92919921875,10597.7060546875,17066.796875,10816.2568359375,17121.6328125,7780.39306640625,11440.1181640625,6109.0791015625,-0.0,7146.19970703125,14086.564453125,8491.67578125,11749.267578125,20853.677734375,8404.2548828125,-1703.1033935546875,9138.583984375,7487.13818359375,26990.572265625,7714.43017578125,14246.3046875,-4878.0439453125,-8584.658203125,9429.455078125,4877.2490234375,10164.578125,7015.86376953125,7139.04736328125,7524.490234375,4351.93408203125,10562.7373046875,9853.0458984375,8949.439453125,-12525.7177734375,-0.0,0.0,11258.919921875,7805.029296875,-579.357177734375,0.0,14290.8095703125
-3329.117919921875,-8724.5302734375,7996.55908203125,11302.630859375,16418.298828125,17118.453125,14794.6669921875,14446.576171875,14290.8095703125,10826.587890625,19044.876953125,0.0,13746.4208984375,0.0,13931.591796875,17708.9375,28304.2578125,13868.0146484375,9690.125,7683.43603515625,5738.7353515625,16233.1259765625,14466.4453125,11127.7890625,0.0,3210.70361328125,8045.037109375,6151.994140625,844.0017700195312,-8412.2021484375,14417.9658203125,4806.5185546875,10596.1162109375,17073.154296875,10817.845703125,17125.607421875,7785.16162109375,11445.681640625,6099.5419921875,-0.0,7150.17333984375,14095.306640625,8494.853515625,11751.6513671875,20860.830078125,8415.3818359375,-1707.871826171875,9148.12109375,7491.11181640625,26992.95703125,7719.99365234375,14244.7158203125,-4893.14404296875,-8578.30078125,9427.0703125,4878.8388671875,10168.552734375,7020.63232421875,7146.994140625,7551.51123046875,4356.7021484375,10566.7109375,9864.1708984375,8967.716796875,-12518.5654296875,-0.0,0.0,11300.24609375,7816.1552734375,-532.4681396484375,0.0,14321.009765625
-3327.52880859375,-8722.94140625,8006.89013671875,11312.1669921875,16430.21875,17128.78515625,14808.97265625,14456.908203125,14312.267578125,10856.7880859375,19071.8984375,0.0,13748.009765625,0.0,13943.5126953125,17720.857421875,28313.794921875,13881.5244140625,9705.2255859375,7707.27783203125,5748.27197265625,16243.4580078125,14480.75,11141.2998046875,0.0,3213.88232421875,8056.9580078125,6163.1201171875,850.359619140625,-8400.28125,14429.88671875,4817.64453125,10606.4482421875,17081.896484375,10828.9716796875,17136.732421875,7799.466796875,11458.396484375,6104.310546875,-0.0,7161.29931640625,14104.048828125,8507.5693359375,11763.572265625,20878.314453125,8432.865234375,-1676.0826416015625,9156.0673828125,7498.26416015625,27004.876953125,7735.09375,14253.45703125,-4899.501953125,-8565.5849609375,9429.455078125,4886.7861328125,10172.5263671875,7035.732421875,7162.09423828125,7566.61083984375,4367.03369140625,10576.248046875,9880.8603515625,8997.123046875,-12509.8232421875,-0.0,0.0,11336.0087890625,7838.40869140625,-495.91064453125,0.0,14354.388671875
-3283.02392578125,-8687.97265625,8047.42138671875,11352.6982421875,16465.1875,17171.701171875,14847.119140625,14494.259765625,14352.798828125,10898.9072265625,19113.22265625,0.0,13772.646484375,0.0,13981.66015625,17758.2109375,28351.1484375,13919.6708984375,9743.373046875,7747.80908203125,5786.4189453125,16284.7841796875,14518.1015625,11180.2412109375,0.0,3264.7451171875,8090.3369140625,6202.06201171875,868.6383666992188,-8366.90234375,14470.41796875,4855.79150390625,10646.9794921875,17120.837890625,10867.119140625,17176.470703125,7837.61328125,11498.927734375,6137.68896484375,-0.0,7197.06201171875,14146.9638671875,8544.921875,11803.3095703125,20915.666015625,8472.6015625,-1622.8358154296875,9196.5986328125,7530.84814453125,27050.97265625,7771.65087890625,14285.2470703125,-4847.0498046875,-8528.232421875,9453.296875,4926.52294921875,10196.3681640625,7077.8525390625,7189.115234375,7600.7841796875,4404.38623046875,10615.189453125,9920.5966796875,9039.2431640625,-12476.4443359375,-0.0,0.0,11366.2080078125,7873.3759765625,-462.53204345703125,0.0,14396.5078125
-3273.487060546875,-8678.4365234375,8048.216796875,11355.08203125,16467.5703125,17170.90625,14847.9150390625,14492.6708984375,14344.0556640625,10890.9609375,19102.095703125,0.0,13781.388671875,0.0,13994.3759765625,17762.18359375,28350.353515625,13917.287109375,9742.5771484375,7739.06689453125,5786.4189453125,16284.7841796875,14517.3076171875,11177.857421875,0.0,3263.950439453125,8096.69482421875,6203.6513671875,877.38037109375,-8372.4658203125,14468.0341796875,4854.2021484375,10646.9794921875,17120.837890625,10866.32421875,17175.673828125,7835.22900390625,11496.5439453125,6144.841796875,-0.0,7200.2412109375,14145.3740234375,8547.3056640625,11803.3095703125,20911.693359375,8469.421875,-1618.0673828125,9198.9833984375,7536.4111328125,27052.560546875,7774.830078125,14286.041015625,-4847.0498046875,-8524.2587890625,9467.6015625,4937.64892578125,10202.7255859375,7078.6474609375,7185.14111328125,7596.01611328125,4411.53857421875,10612.0107421875,9917.4189453125,9023.3486328125,-12473.265625,-0.0,0.0,11366.2080078125,7861.455078125,-457.763671875,0.0,14390.1513671875
-3333.886474609375,-8721.3515625,7987.81689453125,11293.8876953125,16412.734375,17106.533203125,14790.6943359375,14433.06640625,14287.630859375,10829.7666015625,19035.33984375,0.0,13739.2685546875,0.0,13940.333984375,17703.375,28293.1328125,13855.2978515625,9682.97265625,7677.873046875,5726.01953125,16222.7958984375,14459.2919921875,11115.8681640625,0.0,3184.4775390625,8043.4482421875,6144.841796875,835.259765625,-8419.3544921875,14408.4287109375,4801.75,10588.1689453125,17062.822265625,10809.103515625,17114.48046875,7777.2138671875,11436.939453125,6087.62109375,-0.0,7143.0205078125,14080.20703125,8490.8798828125,11742.9091796875,20855.267578125,8409.8173828125,-1687.208740234375,9137.7900390625,7483.16455078125,26985.009765625,7720.78857421875,14227.2314453125,-4904.27001953125,-8572.7373046875,9413.5595703125,4878.0439453125,10169.3466796875,7018.248046875,7144.60986328125,7537.2060546875,4360.67578125,10550.0224609375,9859.40234375,8958.9755859375,-12538.4326171875,-0.0,0.0,11308.9873046875,7813.771484375,-514.1893920898438,0.0,14326.572265625
-3363.29150390625,-8748.3720703125,7960.79638671875,11258.919921875,16383.3291015625,17073.94921875,14759.7001953125,14400.482421875,14252.6630859375,10791.619140625,19011.498046875,0.0,13707.478515625,0.0,13906.9560546875,17669.99609375,28262.138671875,13824.3037109375,9651.18359375,7643.69970703125,5697.4091796875,16192.5947265625,14428.2978515625,11083.28515625,0.0,3158.25146484375,8012.4541015625,6112.25732421875,790.7549438476562,-8444.7861328125,14379.0244140625,4770.755859375,10559.55859375,17031.828125,10778.109375,17083.486328125,7745.4248046875,11403.560546875,6047.88427734375,-0.0,7115.205078125,14050.0068359375,8460.6806640625,11711.9150390625,20823.478515625,8373.2607421875,-1736.4820556640625,9101.2314453125,7453.759765625,26954.80859375,7690.58837890625,14193.8525390625,-4915.39599609375,-8607.705078125,9374.6181640625,4845.46044921875,10139.9423828125,6981.69091796875,7113.61572265625,7498.26416015625,4330.47607421875,10519.02734375,9825.2294921875,8924.0078125,-12571.8115234375,-0.0,0.0,11270.0458984375,7780.39306640625,-562.6678466796875,0.0,14287.630859375
-3379.18603515625,-8763.47265625,7959.20654296875,11246.2041015625,16381.740234375,17066.796875,14758.904296875,14390.1513671875,14239.15234375,10776.51953125,19019.4453125,0.0,13711.4521484375,0.0,13906.9560546875,17654.896484375,28257.369140625,13821.919921875,9645.62109375,7630.98388671875,5695.02490234375,16185.4423828125,14425.9140625,11077.7216796875,0.0,3149.509521484375,8014.83837890625,6099.5419921875,782.8076782226562,-8440.017578125,14374.255859375,4759.6298828125,10555.5849609375,17023.8828125,10776.51953125,17076.333984375,7741.451171875,11395.61328125,6058.21630859375,-0.0,7112.0263671875,14039.67578125,8459.8857421875,11701.583984375,20817.12109375,8364.5185546875,-1721.382080078125,9089.310546875,7458.52783203125,26945.271484375,7690.58837890625,14182.7265625,-4913.80712890625,-8617.2421875,9377.796875,4837.51318359375,10143.12109375,6954.669921875,7104.87353515625,7484.75390625,4310.60791015625,10515.8486328125,9814.8984375,8911.2919921875,-12578.9638671875,-0.0,0.0,11246.9990234375,7758.140625,-587.304443359375,0.0,14269.3515625
-3403.02783203125,-8785.724609375,7944.10693359375,11233.4892578125,16367.435546875,17059.64453125,14750.1630859375,14381.408203125,14231.9990234375,10770.162109375,19006.728515625,0.0,13708.2734375,0.0,13899.0087890625,17646.947265625,28242.26953125,13807.6142578125,9633.7001953125,7625.4208984375,5682.3095703125,16171.9326171875,14413.9931640625,11068.98046875,0.0,3143.9462890625,8007.685546875,6093.97900390625,778.8340454101562,-8469.421875,14358.361328125,4742.9404296875,10538.8955078125,17009.576171875,10763.0087890625,17065.20703125,7731.11962890625,11385.28125,6052.65283203125,-0.0,7098.51611328125,14030.138671875,8447.96484375,11692.046875,20808.37890625,8354.9814453125,-1722.9715576171875,9075.80078125,7446.60693359375,26941.298828125,7682.6416015625,14174.779296875,-4916.98583984375,-8637.1103515625,9376.2080078125,4831.1552734375,10135.173828125,6941.9541015625,7106.462890625,7476.806640625,4288.35546875,10505.5166015625,9806.15625,8908.1123046875,-12586.1171875,-0.0,0.0,11240.6416015625,7753.3720703125,-593.6622314453125,0.0,14258.2255859375
-3355.343994140625,-8732.478515625,7992.5849609375,11290.7099609375,16416.70703125,17119.25,14808.97265625,14447.37109375,14305.115234375,10844.0712890625,19051.232421875,0.0,13743.2412109375,0.0,13947.4873046875,17719.26953125,28296.3125,13864.8349609375,9695.689453125,7698.5361328125,5735.55615234375,16229.15234375,14470.41796875,11128.5849609375,0.0,3198.78271484375,8057.75341796875,6157.55712890625,824.133544921875,-8402.6650390625,14413.9931640625,4796.18701171875,10591.34765625,17065.20703125,10814.6669921875,17124.017578125,7790.72412109375,11450.4501953125,6092.3896484375,-0.0,7146.19970703125,14088.154296875,8500.4169921875,11755.6259765625,20873.546875,8424.123046875,-1679.2615966796875,9134.6103515625,7486.34326171875,26997.724609375,7738.27197265625,14244.7158203125,-4882.8125,-8577.505859375,9424.6865234375,4883.607421875,10176.4990234375,7012.68505859375,7173.22021484375,7549.126953125,4351.93408203125,10561.943359375,9872.9130859375,8994.73828125,-12540.0224609375,-0.0,0.0,11318.5244140625,7832.8447265625,-512.5999755859375,0.0,14340.8779296875
-3302.097412109375,-8691.1513671875,8037.884765625,11337.59765625,16460.41796875,17161.369140625,14852.6826171875,14495.0556640625,14357.56640625,10891.7548828125,19097.328125,0.0,13759.9306640625,0.0,13984.0439453125,17777.28515625,28341.611328125,13909.33984375,9741.783203125,7746.2197265625,5780.85546875,16274.4521484375,14514.9228515625,11173.0888671875,0.0,3245.671630859375,8099.0791015625,6202.8564453125,856.7174072265625,-8365.3134765625,14462.470703125,4841.486328125,10640.62109375,17112.890625,10859.171875,17166.93359375,7836.81884765625,11496.5439453125,6130.53662109375,-0.0,7190.7041015625,14134.248046875,8544.921875,11799.3359375,20919.640625,8471.01171875,-1640.31982421875,9181.4990234375,7524.490234375,27040.640625,7781.1875,14297.16796875,-4857.38134765625,-8533.794921875,9459.6552734375,4930.49609375,10200.3408203125,7068.31591796875,7205.80419921875,7595.22119140625,4404.38623046875,10604.8583984375,9921.3916015625,9048.779296875,-12494.7236328125,-0.0,0.0,11374.15625,7884.50244140625,-464.9162292480469,0.0,14397.3037109375
-3314.81298828125,-8695.919921875,8033.91162109375,11333.625,16454.85546875,17152.62890625,14838.3779296875,14486.3125,14350.4140625,10874.271484375,19089.380859375,0.0,13755.9580078125,0.0,13964.970703125,17769.3359375,28338.431640625,13902.1875,9733.041015625,7732.70947265625,5773.703125,16268.888671875,14506.1806640625,11162.7578125,0.0,3244.082275390625,8082.3896484375,6197.2939453125,851.9490356445312,-8368.4921875,14456.11328125,4840.69189453125,10635.05859375,17108.91796875,10850.4296875,17158.984375,7825.6923828125,11485.4169921875,6129.74169921875,-0.0,7186.73095703125,14127.890625,8534.5908203125,11792.1826171875,20909.30859375,8459.0908203125,-1653.8302001953125,9177.525390625,7519.72216796875,27039.845703125,7763.70361328125,14290.015625,-4854.9970703125,-8542.5380859375,9435.017578125,4933.67529296875,10185.2421875,7066.7265625,7196.267578125,7580.916015625,4402.79638671875,10594.52734375,9910.265625,9026.52734375,-12497.90234375,-0.0,0.0,11355.08203125,7877.349609375,-493.5264587402344,0.0,14371.0771484375
-3321.965576171875,-8683.205078125,8045.83251953125,11343.1611328125,16458.03515625,17162.958984375,14844.7353515625,14497.439453125,14363.1298828125,10894.1396484375,19104.48046875,0.0,13781.388671875,0.0,13968.9443359375,17775.693359375,28347.173828125,13912.5185546875,9744.1669921875,7749.39892578125,5783.23974609375,16279.220703125,14515.7177734375,11173.884765625,0.0,3248.0556640625,8080.80029296875,6210.00927734375,870.227783203125,-8339.087890625,14465.6494140625,4851.81787109375,10643.7998046875,17118.453125,10858.376953125,17170.111328125,7836.0244140625,11497.337890625,6152.78857421875,-0.0,7194.677734375,14135.837890625,8538.5634765625,11802.513671875,20918.05078125,8473.396484375,-1639.5250244140625,9186.267578125,7520.51708984375,27047.79296875,7765.29296875,14301.140625,-4832.74462890625,-8537.76953125,9431.8388671875,4938.44384765625,10194.7783203125,7077.8525390625,7207.3935546875,7599.9892578125,4409.154296875,10605.65234375,9923.775390625,9045.6005859375,-12495.517578125,-0.0,0.0,11366.2080078125,7895.62890625,-472.863525390625,0.0,14394.9189453125
-3323.554931640625,-8707.046875,8021.99072265625,11325.6767578125,16438.166015625,17143.091796875,14822.4833984375,14475.1865234375,14335.314453125,10863.14453125,19074.28125,0.0,13762.314453125,0.0,13957.818359375,17748.673828125,28326.51171875,13890.2666015625,9720.3251953125,7721.5830078125,5760.98779296875,16256.9677734375,14491.8759765625,11151.6318359375,0.0,3229.777099609375,8064.11083984375,6188.55126953125,847.9754028320312,-8365.3134765625,14443.3974609375,4829.5654296875,10622.341796875,17096.99609375,10838.5087890625,17147.064453125,7811.3876953125,11474.2919921875,6132.9208984375,-0.0,7170.8359375,14115.173828125,8516.3115234375,11780.26171875,20894.208984375,8450.3486328125,-1641.9093017578125,9166.400390625,7502.23779296875,27024.74609375,7747.0146484375,14276.5048828125,-4859.765625,-8555.2529296875,9429.455078125,4909.83349609375,10182.0634765625,7056.39501953125,7177.98876953125,7586.47900390625,4378.95458984375,10583.400390625,9898.3447265625,9017.78515625,-12517.76953125,-0.0,0.0,11341.572265625,7857.48193359375,-484.7844543457031,0.0,14374.255859375
-3344.218017578125,-8729.298828125,7998.943359375,11302.630859375,16416.70703125,17120.837890625,14797.8466796875,14452.9345703125,14296.3720703125,10825.79296875,19049.64453125,0.0,13747.21484375,0.0,13941.923828125,17733.57421875,28302.669921875,13866.4248046875,9691.71484375,7683.43603515625,5739.5302734375,16233.1259765625,14467.2392578125,11128.5849609375,0.0,3210.70361328125,8047.42138671875,6170.27294921875,824.133544921875,-8398.6923828125,14417.9658203125,4804.13427734375,10598.5,17071.56640625,10814.6669921875,17124.810546875,7782.77734375,11448.0654296875,6102.720703125,-0.0,7150.96826171875,14092.921875,8495.6484375,11758.8046875,20864.8046875,8422.5341796875,-1667.340576171875,9144.9423828125,7484.75390625,27004.876953125,7723.96728515625,14258.2255859375,-4877.2490234375,-8578.30078125,9419.1240234375,4884.40185546875,10170.9365234375,7030.9638671875,7146.19970703125,7565.81640625,4355.11279296875,10561.943359375,9866.5556640625,8970.1015625,-12536.048828125,-0.0,0.0,11327.2666015625,7812.97705078125,-507.036865234375,0.0,14334.51953125
-3353.754638671875,-8726.1201171875,7997.353515625,11301.8349609375,16415.9140625,17121.6328125,14795.462890625,14447.37109375,14295.578125,10824.203125,19053.6171875,0.0,13747.21484375,0.0,13933.9765625,17724.037109375,28301.080078125,13869.603515625,9691.71484375,7679.46240234375,5740.32470703125,16233.1259765625,14466.4453125,11126.9951171875,0.0,3207.524658203125,8047.42138671875,6167.09375,836.0545043945312,-8412.2021484375,14417.9658203125,4802.544921875,10597.7060546875,17069.974609375,10814.6669921875,17127.1953125,7781.982421875,11447.2705078125,6095.568359375,-0.0,7150.96826171875,14093.716796875,8494.853515625,11758.009765625,20862.421875,8416.17578125,-1691.9771728515625,9142.5576171875,7486.34326171875,27007.26171875,7721.5830078125,14251.8681640625,-4867.71240234375,-8583.068359375,9422.302734375,4889.17041015625,10170.142578125,7020.63232421875,7154.146484375,7543.56396484375,4350.34423828125,10566.7109375,9864.966796875,8959.7705078125,-12533.6650390625,-0.0,0.0,11315.345703125,7823.30810546875,-519.7525024414062,0.0,14321.009765625
-3406.206787109375,-8788.9033203125,7942.51708984375,11237.4619140625,16363.462890625,17063.6171875,14750.95703125,14394.1240234375,14258.2255859375,10789.2353515625,19002.755859375,0.0,13696.3525390625,0.0,13899.802734375,17670.7890625,28242.26953125,13814.7666015625,9642.44140625,7642.90478515625,5682.3095703125,16176.7001953125,14413.9931640625,11072.1591796875,0.0,3142.35693359375,8001.32763671875,6104.310546875,778.8340454101562,-8467.833984375,14359.951171875,4741.3505859375,10541.2802734375,17012.75390625,10760.625,17066.796875,7734.298828125,11395.61328125,6035.1689453125,-0.0,7095.3369140625,14032.5234375,8447.169921875,11699.994140625,20817.12109375,8369.2861328125,-1749.992431640625,9079.7734375,7433.89111328125,26942.888671875,7681.8466796875,14196.236328125,-4944.00634765625,-8641.87890625,9348.392578125,4835.12890625,10130.4052734375,6976.12744140625,7119.1787109375,7489.5224609375,4293.12353515625,10515.0537109375,9821.255859375,8927.185546875,-12588.5009765625,-0.0,0.0,11269.251953125,7791.51904296875,-557.8994750976562,0.0,14285.2470703125
-3432.432861328125,-8831.0244140625,7905.16552734375,11200.9052734375,16326.904296875,17026.265625,14714.400390625,14359.951171875,14219.2841796875,10766.1884765625,18963.814453125,0.0,13660.58984375,0.0,13864.0400390625,17647.744140625,28204.91796875,13775.03125,9606.6787109375,7610.3212890625,5645.751953125,16139.3486328125,14378.23046875,11037.1904296875,0.0,3105.79931640625,7965.56494140625,6072.52099609375,742.2764892578125,-8498.0322265625,14322.5986328125,4704.79345703125,10503.1328125,16975.40234375,10723.2734375,17029.443359375,7696.94677734375,11361.439453125,5997.81640625,-0.0,7060.369140625,13994.3759765625,8409.8173828125,11664.2314453125,20782.947265625,8339.087890625,-1771.4500732421875,9043.216796875,7399.7177734375,26903.947265625,7646.083984375,14162.0634765625,-4991.68994140625,-8677.6416015625,9305.4775390625,4792.21337890625,10095.4375,6955.46484375,7081.03173828125,7471.2431640625,4259.7451171875,10474.5224609375,9784.6982421875,8893.0126953125,-12630.6220703125,-0.0,0.0,11277.19921875,7747.80908203125,-549.157470703125,0.0,14270.146484375
-3437.201171875,-8833.408203125,7896.42333984375,11200.1103515625,16318.9560546875,17020.703125,14700.8896484375,14348.82421875,14200.2109375,10747.115234375,18959.044921875,0.0,13652.642578125,0.0,13851.3251953125,17635.02734375,28200.9453125,13767.87890625,9595.5537109375,7590.45263671875,5640.1884765625,16132.990234375,14367.8984375,11029.2431640625,0.0,3112.1572265625,7954.43798828125,6062.984375,735.1239624023438,-8509.1591796875,14316.2412109375,4701.6142578125,10495.98046875,16969.044921875,10716.9150390625,17023.8828125,7687.40966796875,11348.724609375,5970.7958984375,-0.0,7054.8056640625,13991.1962890625,8400.28125,11656.2841796875,20768.642578125,8324.7822265625,-1794.4971923828125,9043.216796875,7390.97607421875,26899.97265625,7632.57373046875,14149.3486328125,-4994.07421875,-8685.5888671875,9315.80859375,4789.8291015625,10082.7216796875,6940.36474609375,7062.75341796875,7458.52783203125,4256.56640625,10465.78125,9770.3935546875,8868.376953125,-12647.3115234375,-0.0,0.0,11252.5625,7724.76171875,-574.5887451171875,0.0,14249.484375
-3427.66455078125,-8815.9248046875,7910.728515625,11212.826171875,16334.056640625,17031.03515625,14715.9892578125,14355.1826171875,14212.92578125,10747.115234375,18978.9140625,0.0,13670.126953125,0.0,13865.6298828125,17631.849609375,28215.25,13780.59375,9608.2685546875,7600.7841796875,5653.69921875,16144.1171875,14381.408203125,11039.57421875,0.0,3120.1044921875,7971.12744140625,6070.13720703125,754.1974487304688,-8491.67578125,14331.3408203125,4718.3037109375,10509.4912109375,16984.939453125,10729.630859375,17035.802734375,7700.919921875,11358.2607421875,6004.96923828125,-0.0,7069.11083984375,14002.3232421875,8414.5859375,11665.8212890625,20781.359375,8331.9345703125,-1781.781494140625,9055.931640625,7409.25439453125,26908.716796875,7646.87890625,14156.5009765625,-4967.0537109375,-8672.873046875,9344.4189453125,4806.5185546875,10097.0263671875,6939.56982421875,7077.05810546875,7457.7333984375,4278.0244140625,10479.291015625,9779.9296875,8885.06640625,-12629.826171875,-0.0,0.0,11222.3623046875,7741.451171875,-605.5831909179688,0.0,14243.919921875
-3362.49658203125,-8735.65625,7979.0751953125,11283.556640625,16397.634765625,17100.96875,14781.1572265625,14423.529296875,14282.0673828125,10810.6923828125,19018.650390625,0.0,13723.373046875,0.0,13919.6708984375,17698.607421875,28286.775390625,13850.529296875,9673.4365234375,7669.130859375,5720.45654296875,16215.642578125,14449.755859375,11107.126953125,0.0,3184.4775390625,8030.73193359375,6140.0732421875,827.3125,-8409.8173828125,14398.09765625,4787.4453125,10580.2216796875,17054.080078125,10797.1826171875,17104.943359375,7766.88232421875,11425.8125,6086.826171875,-0.0,7131.89453125,14071.46484375,8478.958984375,11734.962890625,20848.91015625,8397.896484375,-1693.566650390625,9125.869140625,7468.859375,26977.0625,7707.27783203125,14220.8740234375,-4893.9384765625,-8593.400390625,9404.0234375,4874.865234375,10147.0947265625,7011.890625,7139.04736328125,7517.337890625,4342.39697265625,10548.4326171875,9848.27734375,8959.7705078125,-12538.4326171875,-0.0,0.0,11275.609375,7802.64501953125,-572.20458984375,0.0,14301.140625
-3286.99755859375,-8669.6943359375,8045.037109375,11346.33984375,16464.392578125,17171.701171875,14843.9404296875,14500.6181640625,14352.00390625,10890.166015625,19075.87109375,0.0,13765.494140625,0.0,13971.3291015625,17781.2578125,28349.55859375,13916.4921875,9743.373046875,7747.0146484375,5785.6240234375,16283.193359375,14515.7177734375,11176.2685546875,0.0,3253.618896484375,8088.748046875,6213.98291015625,867.8436279296875,-8347.0341796875,14463.265625,4850.22900390625,10646.9794921875,17120.04296875,10863.14453125,17174.0859375,7835.22900390625,11498.927734375,6140.86767578125,-0.0,7197.06201171875,14139.8115234375,8543.33203125,11806.48828125,20917.2578125,8474.986328125,-1649.8565673828125,9188.65234375,7529.2587890625,27048.587890625,7768.47216796875,14301.9365234375,-4839.89697265625,-8525.8486328125,9463.6279296875,4938.44384765625,10194.7783203125,7085.80029296875,7203.419921875,7607.93701171875,4404.38623046875,10615.189453125,9922.1865234375,9041.626953125,-12478.0341796875,-0.0,0.0,11373.3603515625,7870.197265625,-468.8898620605469,0.0,14399.6875
-3278.25537109375,-8672.078125,8049.8056640625,11352.6982421875,16468.3671875,17171.701171875,14846.3251953125,14498.2333984375,14352.00390625,10879.833984375,19099.712890625,0.0,13740.0625,0.0,13978.4814453125,17777.28515625,28351.1484375,13918.876953125,9743.373046875,7743.04052734375,5790.392578125,16285.578125,14518.8974609375,11178.65234375,0.0,3256.7978515625,8094.310546875,6212.39306640625,865.45947265625,-8345.4443359375,14466.4453125,4852.61279296875,10649.36328125,17122.427734375,10866.32421875,17176.470703125,7838.40869140625,11498.927734375,6134.51025390625,-0.0,7201.83056640625,14143.7841796875,8546.51171875,11805.693359375,20918.845703125,8471.01171875,-1648.26708984375,9195.8046875,7534.82177734375,27049.3828125,7772.44580078125,14302.73046875,-4845.46044921875,-8520.28515625,9471.576171875,4939.23828125,10208.2890625,7077.05810546875,7205.80419921875,7607.14208984375,4410.74365234375,10615.9853515625,9919.802734375,9029.7060546875,-12486.775390625,-0.0,0.0,11347.134765625,7874.17138671875,-490.3475646972656,0.0,14377.4345703125
-3322.76025390625,-8708.63671875,8010.8642578125,11316.935546875,16435.78125,17140.70703125,14817.71484375,14469.6240234375,14322.5986328125,10852.8134765625,19061.564453125,0.0,13741.65234375,0.0,13953.8447265625,17756.62109375,28319.359375,13887.8818359375,9713.9677734375,7715.22509765625,5757.80859375,16252.994140625,14488.697265625,11149.2470703125,0.0,3226.59814453125,8066.4951171875,6184.578125,832.8755493164062,-8378.029296875,14433.8603515625,4819.234375,10613.6005859375,17089.048828125,10834.5341796875,17146.26953125,7808.20849609375,11470.3173828125,6114.6416015625,-0.0,7166.0673828125,14111.201171875,8516.3115234375,11778.671875,20890.236328125,8443.9912109375,-1688.0035400390625,9160.8359375,7501.443359375,27021.56640625,7747.0146484375,14276.5048828125,-4882.8125,-8547.3056640625,9424.6865234375,4913.80712890625,10183.65234375,7053.21630859375,7183.5517578125,7570.5849609375,4378.16015625,10588.1689453125,9891.1923828125,8997.123046875,-12533.6650390625,-0.0,0.0,11337.59765625,7843.1767578125,-510.21575927734375,0.0,14340.8779296875
-3350.57568359375,-8741.2197265625,7977.48583984375,11287.5302734375,16407.171875,17110.505859375,14792.283203125,14445.78125,14293.193359375,10836.1240234375,19026.59765625,0.0,13745.6259765625,0.0,13926.8232421875,17736.75390625,28287.568359375,13859.2724609375,9686.15234375,7693.767578125,5726.814453125,16223.5888671875,14460.880859375,11121.4326171875,0.0,3187.656494140625,8037.09033203125,6160.736328125,806.6495361328125,-8402.6650390625,14405.2509765625,4793.00830078125,10584.990234375,17060.4375,10804.3359375,17119.25,7781.1875,11444.8857421875,6096.36328125,-0.0,7133.48388671875,14082.5908203125,8486.111328125,11750.857421875,20863.21484375,8419.3544921875,-1693.566650390625,9128.2529296875,7474.42236328125,26992.95703125,7719.19873046875,14251.8681640625,-4901.8857421875,-8575.916015625,9392.8974609375,4884.40185546875,10147.0947265625,7031.7587890625,7160.5048828125,7536.4111328125,4350.34423828125,10564.3271484375,9866.5556640625,8982.0224609375,-12557.5068359375,-0.0,0.0,11329.650390625,7819.3349609375,-514.984130859375,0.0,14333.724609375
-3353.754638671875,-8733.2724609375,7979.86962890625,11293.8876953125,16409.5546875,17112.890625,14793.873046875,14440.21875,14292.3994140625,10822.61328125,19021.03515625,0.0,13740.0625,0.0,13931.591796875,17727.216796875,28289.953125,13861.65625,9684.5625,7685.8203125,5729.9931640625,16225.97265625,14460.880859375,11120.63671875,0.0,3173.351318359375,8042.6533203125,6157.55712890625,819.3651733398438,-8405.8447265625,14409.224609375,4795.392578125,10587.375,17063.6171875,10806.7197265625,17120.837890625,7778.80322265625,11440.9130859375,6086.826171875,-0.0,7138.25244140625,14089.7431640625,8489.291015625,11749.267578125,20860.830078125,8408.228515625,-1681.645751953125,9136.994140625,7480.7802734375,26992.95703125,7722.3779296875,14247.099609375,-4886.7861328125,-8571.9423828125,9407.9970703125,4888.3759765625,10156.6318359375,7021.42724609375,7154.94140625,7507.00634765625,4347.16552734375,10565.9169921875,9861.787109375,8977.25390625,-12546.3798828125,-0.0,0.0,11280.376953125,7820.12939453125,-554.7205810546875,0.0,14316.2412109375
-3348.19140625,-8723.7353515625,8006.095703125,11314.5517578125,16431.80859375,17139.912109375,14813.7412109375,14463.265625,14314.6513671875,10838.5087890625,19048.0546875,0.0,13758.341796875,0.0,13950.6650390625,17754.236328125,28311.41015625,13884.7041015625,9706.0205078125,7705.6884765625,5753.04052734375,16249.8154296875,14481.544921875,11144.478515625,0.0,3205.140380859375,8063.31640625,6182.19384765625,837.6439208984375,-8385.181640625,14431.4765625,4814.4658203125,10611.216796875,17084.279296875,10828.9716796875,17143.884765625,7801.8505859375,11463.9599609375,6099.5419921875,-0.0,7162.09423828125,14117.55859375,8510.7490234375,11773.904296875,20881.494140625,8426.5068359375,-1657.8038330078125,9157.6572265625,7496.6748046875,27016.00390625,7743.04052734375,14272.5302734375,-4869.30224609375,-8563.201171875,9431.044921875,4901.09130859375,10175.705078125,7046.06396484375,7172.42578125,7522.10595703125,4361.470703125,10587.375,9880.8603515625,8995.533203125,-12525.7177734375,-0.0,0.0,11308.193359375,7831.255859375,-539.6207275390625,0.0,14328.162109375
-3399.05419921875,-8785.724609375,7963.97509765625,11263.6884765625,16389.689453125,17085.87109375,14775.59375,14420.349609375,14273.326171875,10801.15625,19009.908203125,0.0,13730.5263671875,0.0,13928.4130859375,17700.990234375,28262.93359375,13838.6083984375,9664.6943359375,7661.97802734375,5706.1513671875,16198.158203125,14438.62890625,11094.4111328125,0.0,3175.7353515625,8028.34814453125,6136.89404296875,797.9075317382812,-8435.2490234375,14382.203125,4764.39794921875,10565.9169921875,17034.212890625,10786.056640625,17093.0234375,7761.31982421875,11420.25,6064.57373046875,-0.0,7119.1787109375,14059.5439453125,8471.806640625,11726.2197265625,20842.552734375,8388.3603515625,-1700.71923828125,9106.0,7456.14404296875,26967.525390625,7710.45703125,14228.0263671875,-4916.98583984375,-8619.6259765625,9392.8974609375,4855.79150390625,10152.6572265625,7004.73779296875,7145.40478515625,7499.853515625,4309.81298828125,10538.1015625,9840.3291015625,8944.6708984375,-12579.7587890625,-0.0,0.0,11300.24609375,7794.6982421875,-551.5416259765625,0.0,14292.3994140625
-3387.927978515625,-8780.162109375,7960.001953125,11266.072265625,16386.509765625,17075.5390625,14770.8251953125,14402.072265625,14261.4052734375,10793.208984375,19028.982421875,0.0,13715.4267578125,0.0,13925.234375,17666.81640625,28259.75390625,13831.4560546875,9657.5419921875,7648.4677734375,5705.3564453125,16192.5947265625,14433.06640625,11086.4638671875,0.0,3188.451171875,8025.16943359375,6116.2314453125,798.7022705078125,-8443.1962890625,14377.4345703125,4765.1923828125,10563.533203125,17033.41796875,10781.2880859375,17085.87109375,7750.98779296875,11410.712890625,6072.52099609375,-0.0,7115.99951171875,14048.4169921875,8469.421875,11713.5048828125,20834.603515625,8379.6181640625,-1695.9508056640625,9108.3837890625,7459.322265625,26961.16796875,7705.6884765625,14199.416015625,-4909.83349609375,-8615.6533203125,9385.7451171875,4854.9970703125,10151.068359375,6987.25390625,7135.0732421875,7503.03271484375,4315.37646484375,10528.564453125,9829.998046875,8929.5703125,-12582.9384765625,-0.0,0.0,11271.6357421875,7786.7509765625,-569.8204345703125,0.0,14286.8359375
-3346.602294921875,-8728.50390625,7999.73779296875,11312.1669921875,16422.271484375,17118.453125,14803.4091796875,14441.8076171875,14293.193359375,10828.177734375,19075.07421875,0.0,13743.2412109375,0.0,13950.6650390625,17712.912109375,28300.28515625,13868.80859375,9694.8935546875,7685.8203125,5741.9140625,16234.716796875,14469.6240234375,11127.7890625,0.0,3231.366455078125,8053.77978515625,6156.7626953125,815.3915405273438,-8426.5068359375,14417.9658203125,4806.5185546875,10603.2685546875,17073.94921875,10818.640625,17127.990234375,7785.16162109375,11448.8603515625,6102.720703125,-0.0,7155.736328125,14093.716796875,8502.0068359375,11755.6259765625,20866.39453125,8417.765625,-1657.0091552734375,9155.2734375,7493.49609375,27002.4921875,7735.09375,14238.357421875,-4897.91259765625,-8566.3798828125,9415.1494140625,4901.09130859375,10172.5263671875,7027.78466796875,7153.35205078125,7534.82177734375,4355.11279296875,10565.1220703125,9867.3505859375,8967.716796875,-12552.73828125,-0.0,0.0,11301.041015625,7816.95068359375,-538.8259887695312,0.0,14319.419921875
-3327.52880859375,-8708.63671875,8015.6328125,11308.9873046875,16437.373046875,17130.375,14817.71484375,14462.470703125,14313.0615234375,10848.83984375,19092.560546875,0.0,13758.341796875,0.0,13964.970703125,17743.90625,28313.001953125,13883.1142578125,9709.994140625,7706.4833984375,5755.42431640625,16243.4580078125,14483.1337890625,11143.6845703125,0.0,3220.240234375,8068.0849609375,6179.0146484375,829.6966552734375,-8390.744140625,14429.88671875,4819.234375,10615.189453125,17083.486328125,10834.5341796875,17140.70703125,7800.26123046875,11466.34375,6112.25732421875,-0.0,7172.42578125,14100.0751953125,8516.3115234375,11771.51953125,20883.083984375,8436.0439453125,-1649.8565673828125,9152.0947265625,7503.82763671875,27014.4140625,7750.98779296875,14262.19921875,-4895.5283203125,-8561.611328125,9424.6865234375,4902.6806640625,10189.2158203125,7051.62646484375,7161.29931640625,7557.869140625,4365.4443359375,10581.810546875,9887.21875,8985.99609375,-12529.6904296875,-0.0,0.0,11332.8291015625,7844.765625,-503.0632019042969,0.0,14344.0556640625
-3334.68115234375,-8707.8408203125,8010.8642578125,11309.783203125,16433.396484375,17128.78515625,14808.97265625,14455.318359375,14309.8828125,10843.27734375,19072.69140625,0.0,13751.189453125,0.0,13953.0498046875,17724.83203125,28312.20703125,13879.1396484375,9705.2255859375,7700.125,5753.8349609375,16243.4580078125,14478.3662109375,11138.916015625,0.0,3226.59814453125,8061.7265625,6173.45166015625,829.6966552734375,-8386.771484375,14427.5029296875,4816.85009765625,10611.216796875,17082.69140625,10830.5615234375,17138.322265625,7795.49267578125,11459.986328125,6111.462890625,-0.0,7167.6572265625,14104.048828125,8510.7490234375,11767.546875,20875.134765625,8429.6865234375,-1674.4931640625,9152.8896484375,7503.03271484375,27012.029296875,7739.86181640625,14254.251953125,-4897.11767578125,-8563.9951171875,9428.66015625,4906.654296875,10187.6259765625,7043.6796875,7151.7626953125,7553.1005859375,4363.06005859375,10579.4267578125,9880.8603515625,8983.6123046875,-12537.638671875,-0.0,0.0,11306.603515625,7834.4345703125,-527.6997680664062,0.0,14337.69921875
-3317.991943359375,-8703.072265625,8015.6328125,11313.755859375,16435.78125,17129.580078125,14808.177734375,14453.728515625,14308.29296875,10839.302734375,19073.486328125,0.0,13746.4208984375,0.0,13937.1552734375,17723.2421875,28317.76953125,13883.1142578125,9705.2255859375,7696.94677734375,5758.603515625,16246.6376953125,14479.955078125,11139.7099609375,0.0,3217.061279296875,8058.5478515625,6170.27294921875,846.385986328125,-8381.20703125,14433.06640625,4820.82373046875,10615.9853515625,17085.87109375,10832.9462890625,17140.70703125,7796.28759765625,11459.986328125,6120.205078125,-0.0,7170.8359375,14103.2529296875,8509.953125,11766.7509765625,20872.751953125,8427.302734375,-1664.9564208984375,9154.4794921875,7507.00634765625,27011.236328125,7732.70947265625,14251.0732421875,-4882.017578125,-8557.6376953125,9426.2763671875,4913.01220703125,10178.0888671875,7039.70556640625,7154.146484375,7545.1533203125,4369.41748046875,10584.1953125,9877.681640625,8981.2275390625,-12514.5908203125,-0.0,0.0,11302.630859375,7824.89794921875,-535.6470947265625,0.0,14336.109375
-3333.886474609375,-8717.3779296875,7997.353515625,11305.80859375,16423.861328125,17123.22265625,14799.435546875,14452.1396484375,14305.9091796875,10833.740234375,19039.3125,0.0,13721.783203125,0.0,13929.2080078125,17733.57421875,28305.849609375,13874.37109375,9698.0732421875,7692.17822265625,5743.50341796875,16237.1005859375,14470.41796875,11131.763671875,0.0,3208.3193359375,8049.01123046875,6171.06787109375,822.5440673828125,-8393.923828125,14420.349609375,4810.4921875,10602.474609375,17075.5390625,10822.61328125,17131.962890625,7790.72412109375,11452.833984375,6103.515625,-0.0,7154.146484375,14092.921875,8502.0068359375,11761.9833984375,20867.982421875,8420.9443359375,-1680.8509521484375,9149.7109375,7492.701171875,27006.46875,7724.76171875,14254.251953125,-4895.5283203125,-8563.9951171875,9400.8447265625,4903.47509765625,10154.2470703125,7040.50048828125,7154.94140625,7538.79541015625,4351.13916015625,10575.4541015625,9872.9130859375,8979.6376953125,-12543.99609375,-0.0,0.0,11306.603515625,7832.8447265625,-530.083984375,0.0,14332.9306640625
-3359.31787109375,-8738.8349609375,7976.69140625,11287.5302734375,16403.994140625,17106.533203125,14783.5419921875,14436.2451171875,14291.6044921875,10818.640625,19021.830078125,0.0,13704.2998046875,0.0,13923.64453125,17709.732421875,28289.16015625,13856.8876953125,9681.3837890625,7677.078125,5724.43017578125,16221.205078125,14452.9345703125,11115.8681640625,0.0,3197.98779296875,8033.91162109375,6156.7626953125,801.08642578125,-8417.765625,14402.072265625,4793.00830078125,10583.400390625,17057.259765625,10803.5400390625,17114.48046875,7771.65087890625,11435.349609375,6086.826171875,-0.0,7135.0732421875,14080.20703125,8483.7275390625,11746.0888671875,20852.884765625,8406.638671875,-1704.69287109375,9133.021484375,7469.654296875,26992.95703125,7712.04638671875,14237.5634765625,-4901.8857421875,-8586.2470703125,9392.8974609375,4890.759765625,10147.888671875,7024.6064453125,7143.0205078125,7528.4638671875,4334.44970703125,10557.1748046875,9856.2236328125,8958.9755859375,-12564.6591796875,-0.0,0.0,11295.4775390625,7820.12939453125,-540.4154663085938,0.0,14315.4462890625
-3348.986328125,-8738.041015625,7982.25390625,11293.09375,16407.966796875,17109.712890625,14787.5146484375,14432.271484375,14293.98828125,10817.05078125,19026.59765625,0.0,13720.9892578125,0.0,13929.2080078125,17700.1953125,28294.720703125,13859.2724609375,9682.97265625,7677.873046875,5727.609375,16225.1796875,14458.4970703125,11118.2529296875,0.0,3204.345703125,8038.68017578125,6147.22607421875,812.212646484375,-8422.5341796875,14406.83984375,4799.3662109375,10587.375,17064.412109375,10806.7197265625,17116.865234375,7774.830078125,11439.3232421875,6090.7998046875,-0.0,7139.841796875,14084.9755859375,8486.9072265625,11743.705078125,20857.65234375,8405.8447265625,-1701.513916015625,9137.7900390625,7472.8330078125,26995.33984375,7717.609375,14225.642578125,-4889.96484375,-8587.8369140625,9408.7919921875,4898.70703125,10158.2216796875,7017.45361328125,7146.19970703125,7540.384765625,4349.5498046875,10557.1748046875,9857.0185546875,8955.7958984375,-12553.5322265625,-0.0,0.0,11300.24609375,7818.53955078125,-537.2365112304688,0.0,14312.267578125
-3372.828125,-8762.6767578125,7961.5908203125,11274.814453125,16388.892578125,17088.255859375,14770.03125,14413.9931640625,14274.9150390625,10781.2880859375,19022.623046875,0.0,13715.4267578125,0.0,13914.1083984375,17688.2734375,28275.6484375,13839.404296875,9662.310546875,7649.2626953125,5707.74072265625,16204.515625,14438.62890625,11098.384765625,0.0,3179.709228515625,8022.78515625,6132.1259765625,799.4969482421875,-8438.427734375,14388.5615234375,4776.31884765625,10567.505859375,17045.33984375,10787.646484375,17094.611328125,7755.75634765625,11417.8662109375,6060.60009765625,-0.0,7121.56298828125,14063.517578125,8470.2177734375,11725.42578125,20837.783203125,8382.796875,-1718.9979248046875,9117.126953125,7457.7333984375,26974.677734375,7700.919921875,14211.3369140625,-4909.03857421875,-8602.142578125,9386.5390625,4874.07080078125,10150.2734375,7002.353515625,7131.89453125,7518.92724609375,4324.1181640625,10535.716796875,9836.3564453125,8927.185546875,-12572.6064453125,-0.0,0.0,11266.8671875,7807.41357421875,-572.20458984375,0.0,14278.0947265625
-3378.391357421875,-8761.087890625,7960.79638671875,11266.8671875,16389.689453125,17090.638671875,14770.8251953125,14417.171875,14270.94140625,10789.2353515625,19029.775390625,0.0,13718.60546875,0.0,13915.6982421875,17694.630859375,28274.05859375,13839.404296875,9663.10546875,7649.2626953125,5709.330078125,16203.7216796875,14439.423828125,11099.1796875,0.0,3165.404052734375,8024.375,6136.89404296875,821.7493896484375,-8421.73828125,14386.9716796875,4773.93505859375,10567.505859375,17043.748046875,10788.4404296875,17096.99609375,7755.75634765625,11418.66015625,6062.189453125,-0.0,7120.76806640625,14061.1337890625,8471.806640625,11728.6044921875,20836.1953125,8385.181640625,-1715.8189697265625,9109.9736328125,7460.1171875,26971.498046875,7701.71484375,14219.2841796875,-4905.06494140625,-8606.1162109375,9392.8974609375,4874.07080078125,10148.6845703125,7007.9169921875,7130.3046875,7518.1328125,4328.09228515625,10537.306640625,9837.150390625,8922.41796875,-12552.73828125,-0.0,0.0,11280.376953125,7799.466796875,-556.3099975585938,0.0,14289.2197265625
-3420.511962890625,-8811.15625,7918.67529296875,11216.7998046875,16345.1826171875,17047.724609375,14726.3212890625,14371.8720703125,14223.2578125,10753.47265625,18978.9140625,0.0,13680.4580078125,0.0,13879.1396484375,17650.126953125,28223.9921875,13791.720703125,9617.0107421875,7607.14208984375,5662.44140625,16156.83203125,14394.9189453125,11053.0849609375,0.0,3112.1572265625,7982.25390625,6090.00537109375,780.4234619140625,-8476.5751953125,14339.2880859375,4720.68798828125,10520.6171875,16993.681640625,10741.5517578125,17050.90234375,7711.251953125,11373.3603515625,6022.453125,-0.0,7076.263671875,14013.44921875,8427.302734375,11684.89453125,20789.3046875,8339.087890625,-1757.1448974609375,9058.31640625,7419.5859375,26919.841796875,7660.38916015625,14173.984375,-4963.080078125,-8662.541015625,9356.33984375,4812.08203125,10115.3056640625,6961.822265625,7081.82666015625,7464.8857421875,4284.3818359375,10488.828125,9790.26171875,8885.06640625,-12599.6279296875,-0.0,0.0,11246.2041015625,7748.60400390625,-584.12548828125,0.0,14261.4052734375
-3454.685302734375,-8837.3818359375,7894.83349609375,11189.7783203125,16316.572265625,17016.728515625,14697.7109375,14340.0830078125,14191.4677734375,10728.8359375,18945.53515625,0.0,13653.4375,0.0,13854.50390625,17623.10546875,28196.17578125,13762.314453125,9587.60546875,7576.9423828125,5633.8310546875,16126.6328125,14365.513671875,11022.8857421875,0.0,3084.341796875,7956.02783203125,6061.39501953125,738.3028564453125,-8507.5693359375,14310.677734375,4693.6669921875,10492.8017578125,16965.0703125,10711.3525390625,17019.90625,7684.23095703125,11343.1611328125,5995.4326171875,-0.0,7049.24267578125,13983.25,8399.486328125,11655.490234375,20759.900390625,8309.681640625,-1782.576171875,9031.2958984375,7391.77099609375,26886.462890625,7633.3681640625,14142.990234375,-4985.33251953125,-8693.5361328125,9326.9345703125,4769.16650390625,10090.6689453125,6929.23876953125,7044.47412109375,7429.123046875,4258.95068359375,10458.62890625,9760.0625,8855.66015625,-12642.54296875,-0.0,0.0,11242.23046875,7708.07275390625,-609.5568237304688,0.0,14228.8203125
-3437.201171875,-8797.6455078125,7931.3916015625,11231.8994140625,16350.74609375,17044.544921875,14733.4736328125,14371.8720703125,14228.8203125,10765.3935546875,18986.859375,0.0,13681.2529296875,0.0,13887.087890625,17649.33203125,28233.52734375,13798.873046875,9624.1640625,7618.2685546875,5670.388671875,16164.779296875,14401.2763671875,11056.263671875,0.0,3129.641357421875,7990.201171875,6090.7998046875,762.939453125,-8473.396484375,14348.0302734375,4731.81396484375,10530.154296875,17003.216796875,10747.9091796875,17054.876953125,7719.19873046875,11378.9248046875,6025.63232421875,-0.0,7085.80029296875,14025.3701171875,8432.865234375,11684.89453125,20797.251953125,8346.240234375,-1749.992431640625,9073.4169921875,7423.5595703125,26931.76171875,7666.74658203125,14173.984375,-4955.1328125,-8652.2099609375,9357.134765625,4818.439453125,10117.6904296875,6951.49072265625,7078.6474609375,7468.06494140625,4293.12353515625,10495.98046875,9797.4140625,8895.3974609375,-12610.7529296875,-0.0,0.0,11263.6884765625,7738.27197265625,-571.4098510742188,0.0,14266.173828125
-3401.4384765625,-8776.982421875,7936.16015625,11255.7412109375,16361.078125,17061.234375,14743.0107421875,14374.255859375,14242.3310546875,10765.3935546875,18995.603515625,0.0,13691.5849609375,0.0,13896.625,17630.2578125,28249.421875,13810.7939453125,9633.7001953125,7627.01025390625,5679.92529296875,16181.46875,14411.6083984375,11067.390625,0.0,3151.8935546875,7998.14892578125,6086.826171875,771.6814575195312,-8471.806640625,14362.3349609375,4744.52978515625,10538.8955078125,17019.90625,10759.0361328125,17068.38671875,7727.14599609375,11386.87109375,6025.63232421875,-0.0,7092.95263671875,14050.8017578125,8443.1962890625,11693.63671875,20806.7890625,8350.212890625,-1741.2503662109375,9097.2587890625,7433.09619140625,26938.916015625,7677.078125,14165.2421875,-4964.669921875,-8637.9052734375,9358.7236328125,4824.79736328125,10126.431640625,6944.33837890625,7094.5419921875,7467.27001953125,4301.8662109375,10510.28515625,9806.15625,8904.93359375,-12598.83203125,-0.0,0.0,11219.18359375,7765.29296875,-618.298828125,0.0,14253.45703125
-3356.138916015625,-8745.98828125,7953.6435546875,11268.4560546875,16381.740234375,17071.56640625,14762.083984375,14398.892578125,14260.609375,10790.8251953125,19021.03515625,0.0,13698.7373046875,0.0,13910.9296875,17664.431640625,28267.701171875,13829.8671875,9653.568359375,7648.4677734375,5699.79345703125,16192.5947265625,14430.6826171875,11085.669921875,0.0,3179.709228515625,8018.81103515625,6110.66796875,789.960205078125,-8440.8125,14379.8193359375,4768.37158203125,10557.96875,17035.0078125,10778.109375,17083.486328125,7747.80908203125,11406.7392578125,6055.83203125,-0.0,7112.8212890625,14049.212890625,8464.654296875,11711.12109375,20826.658203125,8374.8505859375,-1726.9453125,9109.1796875,7450.58056640625,26962.7578125,7695.35693359375,14192.263671875,-4936.0595703125,-8606.1162109375,9379.38671875,4856.58642578125,10137.5576171875,6978.51171875,7112.8212890625,7500.6484375,4326.50244140625,10531.7431640625,9827.6142578125,8928.775390625,-12568.6328125,-0.0,0.0,11270.0458984375,7780.39306640625,-571.4098510742188,0.0,14286.041015625
-3345.0126953125,-8726.9140625,7976.69140625,11285.94140625,16403.994140625,17098.5859375,14781.1572265625,14424.32421875,14283.6572265625,10813.8720703125,19037.72265625,0.0,13705.0947265625,0.0,13915.6982421875,17692.248046875,28289.16015625,13854.50390625,9675.8203125,7672.31005859375,5724.43017578125,16217.2314453125,14452.9345703125,11109.51171875,0.0,3205.140380859375,8036.2958984375,6140.0732421875,815.3915405273438,-8420.1494140625,14401.2763671875,4789.0341796875,10581.810546875,17056.46484375,10801.951171875,17108.12109375,7772.44580078125,11429.787109375,6085.23681640625,-0.0,7139.04736328125,14071.46484375,8483.7275390625,11736.5517578125,20850.5,8399.486328125,-1708.66650390625,9127.4580078125,7467.27001953125,26994.546875,7711.251953125,14220.8740234375,-4895.5283203125,-8581.4794921875,9398.4599609375,4874.865234375,10144.7109375,7006.3271484375,7141.43115234375,7525.28515625,4343.19140625,10555.5849609375,9851.4560546875,8955.001953125,-12543.201171875,-0.0,0.0,11297.06640625,7798.671875,-545.183837890625,0.0,14307.4990234375
-3298.91845703125,-8668.8994140625,8035.50048828125,11350.314453125,16463.59765625,17160.57421875,14836.7880859375,14484.72265625,14343.26171875,10874.271484375,19083.0234375,0.0,13766.2890625,0.0,13959.408203125,17755.826171875,28349.55859375,13914.1083984375,9734.630859375,7732.70947265625,5784.82958984375,16280.015625,14510.94921875,11171.5,0.0,3262.36083984375,8083.9794921875,6202.8564453125,851.9490356445312,-8357.365234375,14462.470703125,4847.0498046875,10639.8271484375,17118.453125,10861.5556640625,17170.90625,7831.255859375,11490.9814453125,6140.86767578125,-0.0,7203.419921875,14139.8115234375,8539.359375,11799.3359375,20909.30859375,8460.6806640625,-1654.625,9192.6259765625,7518.1328125,27046.998046875,7762.1142578125,14282.8623046875,-4840.69189453125,-8521.080078125,9431.044921875,4940.033203125,10189.2158203125,7067.521484375,7199.4462890625,7584.8896484375,4398.82275390625,10615.189453125,9913.4443359375,9017.78515625,-12493.927734375,-0.0,0.0,11357.466796875,7860.66064453125,-487.16864013671875,0.0,14370.2822265625
-3294.94482421875,-8665.720703125,8042.6533203125,11347.134765625,16465.1875,17160.57421875,14838.3779296875,14481.544921875,14341.671875,10867.9130859375,19077.458984375,0.0,13790.9248046875,0.0,13966.560546875,17750.263671875,28351.94140625,13914.90234375,9736.220703125,7726.35107421875,5786.4189453125,16280.015625,14512.5390625,11169.91015625,0.0,3256.7978515625,8083.9794921875,6201.26708984375,857.5121459960938,-8364.5185546875,14465.6494140625,4851.0234375,10643.005859375,17120.837890625,10861.5556640625,17170.90625,7829.666015625,11489.3916015625,6145.63623046875,-0.0,7206.5986328125,14138.2216796875,8541.7431640625,11799.3359375,20906.92578125,8456.70703125,-1660.1881103515625,9191.0361328125,7527.66943359375,27043.8203125,7762.9091796875,14279.68359375,-4826.38671875,-8517.1064453125,9431.044921875,4932.08544921875,10197.95703125,7062.75341796875,7194.677734375,7577.7373046875,4399.61767578125,10612.8056640625,9909.470703125,9007.4541015625,-12493.927734375,-0.0,0.0,11339.1875,7860.66064453125,-499.08953857421875,0.0,14363.1298828125
-3320.376220703125,-8696.7158203125,8006.095703125,11313.755859375,16428.62890625,17129.580078125,14810.5625,14455.318359375,14312.267578125,10836.1240234375,19050.439453125,0.0,13758.341796875,0.0,13947.4873046875,17727.216796875,28318.5625,13883.1142578125,9705.2255859375,7698.5361328125,5747.47705078125,16246.6376953125,14482.3388671875,11139.7099609375,0.0,3225.0087890625,8057.75341796875,6175.8359375,844.0017700195312,-8393.923828125,14431.4765625,4819.234375,10608.037109375,17088.255859375,10828.177734375,17139.1171875,7798.671875,11459.986328125,6101.92626953125,-0.0,7156.53076171875,14105.6376953125,8509.953125,11770.7255859375,20878.314453125,8426.5068359375,-1683.235107421875,9156.86328125,7500.6484375,27016.798828125,7739.06689453125,14254.251953125,-4850.22900390625,-8547.3056640625,9420.712890625,4906.654296875,10178.8837890625,7038.9111328125,7166.0673828125,7546.74267578125,4367.828125,10580.2216796875,9880.8603515625,8978.84375,-12527.306640625,-0.0,0.0,11301.8349609375,7830.46044921875,-532.4681396484375,0.0,14330.5458984375
-3334.68115234375,-8713.404296875,7990.201171875,11300.24609375,16412.734375,17112.09765625,14788.3095703125,14436.2451171875,14280.478515625,10806.7197265625,19039.3125,0.0,13735.2939453125,0.0,13922.0556640625,17711.3203125,28303.46484375,13867.21875,9681.3837890625,7664.3623046875,5732.37744140625,16229.9482421875,14463.265625,11119.0478515625,0.0,3200.3720703125,8037.884765625,6153.58349609375,830.4913940429688,-8409.0234375,14414.787109375,4804.92919921875,10594.52734375,17071.56640625,10812.2822265625,17120.837890625,7775.62451171875,11438.529296875,6082.05810546875,-0.0,7145.40478515625,14089.7431640625,8490.0859375,11750.857421875,20852.08984375,8402.6650390625,-1687.208740234375,9144.146484375,7484.75390625,26996.931640625,7715.22509765625,14236.767578125,-4866.123046875,-8559.2265625,9394.486328125,4895.5283203125,10163.7841796875,7024.6064453125,7138.25244140625,7529.2587890625,4357.49658203125,10561.1484375,9854.634765625,8940.6962890625,-12563.0693359375,-0.0,0.0,11289.1201171875,7789.9296875,-549.157470703125,0.0,14298.7568359375
-3366.47021484375,-8739.630859375,7977.48583984375,11284.3515625,16401.609375,17098.5859375,14776.388671875,14423.529296875,14271.736328125,10802.74609375,19011.498046875,0.0,13714.630859375,0.0,13912.5185546875,17702.580078125,28289.953125,13853.708984375,9670.2578125,7658.7998046875,5722.8408203125,16216.4365234375,14448.9599609375,11105.537109375,0.0,3190.04052734375,8025.9638671875,6141.66259765625,782.8076782226562,-8435.2490234375,14402.8662109375,4788.23974609375,10579.4267578125,17056.46484375,10799.5673828125,17108.12109375,7765.29296875,11427.40234375,6070.13720703125,-0.0,7135.0732421875,14075.4384765625,8477.3701171875,11738.9365234375,20842.552734375,8393.1279296875,-1694.361328125,9127.4580078125,7468.06494140625,26981.830078125,7704.09912109375,14227.2314453125,-4905.859375,-8578.30078125,9361.9033203125,4878.0439453125,10151.068359375,7013.4794921875,7131.89453125,7516.54296875,4342.39697265625,10550.0224609375,9845.09765625,8936.72265625,-12604.3955078125,-0.0,0.0,11302.630859375,7797.08251953125,-538.8259887695312,0.0,14302.73046875
-3371.23876953125,-8722.146484375,8000.533203125,11307.3984375,16425.451171875,17126.40234375,14800.2314453125,14448.166015625,14302.73046875,10834.5341796875,19035.33984375,0.0,13726.5517578125,0.0,13933.9765625,17720.857421875,28313.001953125,13879.1396484375,9696.4833984375,7692.17822265625,5746.6826171875,16242.662109375,14475.1865234375,11132.5576171875,0.0,3225.0087890625,8045.83251953125,6164.70947265625,782.012939453125,-8410.61328125,14426.7080078125,4807.3134765625,10601.6796875,17078.71875,10824.203125,17133.5546875,7790.72412109375,11452.0390625,6091.5947265625,-0.0,7157.32568359375,14102.458984375,8502.0068359375,11765.162109375,20870.3671875,8420.9443359375,-1659.393310546875,9150.5048828125,7487.13818359375,27005.671875,7727.94091796875,14248.6884765625,-4916.98583984375,-8569.55859375,9397.666015625,4900.296875,10164.578125,7027.78466796875,7156.53076171875,7539.59033203125,4359.880859375,10578.6328125,9872.119140625,8973.28125,-12572.6064453125,-0.0,0.0,11313.755859375,7819.3349609375,-518.1630249023438,0.0,14332.9306640625
-3394.285888671875,-8711.814453125,7991.791015625,11308.9873046875,16418.298828125,17125.607421875,14800.2314453125,14446.576171875,14305.9091796875,10834.5341796875,19034.544921875,0.0,13728.1416015625,0.0,13934.771484375,17715.294921875,28310.6171875,13877.55078125,9698.0732421875,7694.5625,5742.70849609375,16241.0732421875,14473.59765625,11131.763671875,0.0,3213.88232421875,8048.216796875,6163.1201171875,801.8811645507812,-8385.9755859375,14425.1181640625,4805.7236328125,10598.5,17078.71875,10820.2294921875,17133.5546875,7793.1083984375,11451.244140625,6090.00537109375,-0.0,7146.994140625,14096.1005859375,8500.4169921875,11761.1884765625,20869.57421875,8421.73828125,-1664.16162109375,9151.2998046875,7482.3701171875,27003.2890625,7728.7353515625,14243.919921875,-4949.56982421875,-8562.4052734375,9411.970703125,4899.501953125,10163.7841796875,7029.37451171875,7160.5048828125,7543.56396484375,4359.08642578125,10580.2216796875,9873.7080078125,8975.6650390625,-12553.5322265625,-0.0,0.0,11308.9873046875,7817.7451171875,-526.905029296875,0.0,14328.162109375
