-3242.49267578125,-8602.142578125,8106.2314453125,11752.4462890625,16596.31640625,17569.861328125,14713.6044921875,14688.96875,14413.9931640625,10892.55078125,19222.1015625,0.0,13872.7822265625,0.0,14025.3701171875,18003.783203125,28454.462890625,14145.3740234375,10029.4755859375,7901.19189453125,5913.57568359375,16408.76171875,14615.853515625,11413.8916015625,0.0,3489.6533203125,8126.89501953125,6421.4072265625,1110.23583984375,-7658.7998046875,14775.59375,5101.36279296875,10806.7197265625,17596.0859375,10964.076171875,17379.125,8150.73681640625,11719.0673828125,6295.83984375,-0.0,7454.55419921875,14470.41796875,8687.1787109375,12268.2255859375,21132.626953125,8666.515625,-1672.9036865234375,9497.8017578125,7631.77880859375,27367.2734375,7810.5927734375,14537.970703125,-4961.49072265625,-8059.34228515625,9480.3173828125,5232.4931640625,10096.232421875,7366.33935546875,7177.98876953125,7743.04052734375,4432.201171875,11098.384765625,10110.537109375,9123.484375,-12569.427734375,-0.0,0.0,11494.16015625,7700.125,-298.0232238769531,0.0,14363.9248046875
-3246.46630859375,-8615.6533203125,8103.05322265625,11754.830078125,16597.11328125,17576.216796875,14713.6044921875,14692.9423828125,14404.4560546875,10893.3447265625,19219.716796875,0.0,13871.193359375,0.0,14014.244140625,18010.935546875,28454.462890625,14149.3486328125,10028.6796875,7894.83349609375,5915.1650390625,16412.734375,14615.853515625,11419.455078125,0.0,3491.24267578125,8122.9208984375,6425.380859375,1102.28857421875,-7652.44140625,14777.9775390625,5098.978515625,10805.9248046875,17596.0859375,10966.4599609375,17383.09765625,8147.55712890625,11719.0673828125,6301.40283203125,-0.0,7455.34912109375,14479.16015625,8687.1787109375,12272.994140625,21129.44921875,8667.3095703125,-1684.8245849609375,9500.98046875,7634.1630859375,27375.220703125,7805.029296875,14544.328125,-4939.23828125,-8076.03173828125,9481.9072265625,5240.4404296875,10089.080078125,7364.75,7170.04150390625,7744.63037109375,4429.0224609375,11100.76953125,10108.947265625,9106.0,-12574.1962890625,-0.0,0.0,11506.0810546875,7674.69384765625,-295.6390380859375,0.0,14355.1826171875
-3249.645263671875,-8614.0634765625,8103.84765625,11747.677734375,16598.701171875,17586.548828125,14713.6044921875,14689.7626953125,14412.4033203125,10900.4970703125,19203.8203125,0.0,13877.55078125,0.0,14015.833984375,18003.783203125,28456.052734375,14150.9375,10028.6796875,7903.57568359375,5912.78076171875,16419.091796875,14615.853515625,11421.0439453125,0.0,3457.864013671875,8125.30517578125,6408.69140625,1091.95703125,-7650.85205078125,14777.9775390625,5099.7734375,10805.1298828125,17597.67578125,10966.4599609375,17387.072265625,8148.3525390625,11719.0673828125,6306.17138671875,-0.0,7456.9384765625,14490.287109375,8684.7939453125,12274.5830078125,21132.626953125,8669.6943359375,-1693.566650390625,9493.033203125,7631.77880859375,27386.34765625,7805.82421875,14537.970703125,-4944.80126953125,-8097.4892578125,9473.1650390625,5245.208984375,10088.2841796875,7356.0078125,7174.01513671875,7731.91455078125,4433.79052734375,11103.947265625,10111.33203125,9120.3046875,-12593.26953125,-0.0,0.0,11493.365234375,7685.8203125,-290.87066650390625,0.0,14369.4873046875
-3267.129150390625,-8591.015625,8108.61572265625,11746.8837890625,16597.11328125,17588.138671875,14712.810546875,14685.7900390625,14413.9931640625,10903.67578125,19193.490234375,0.0,13871.193359375,0.0,14015.0380859375,17992.654296875,28455.2578125,14151.732421875,10027.0908203125,7905.9599609375,5911.19140625,16419.88671875,14615.05859375,11418.66015625,0.0,3468.195556640625,8125.30517578125,6404.7177734375,1076.857177734375,-7663.56787109375,14777.18359375,5098.978515625,10805.9248046875,17595.291015625,10964.076171875,17387.8671875,8146.7626953125,11715.888671875,6299.01904296875,-0.0,7456.14404296875,14492.6708984375,8684.7939453125,12270.609375,21130.244140625,8671.2841796875,-1680.0562744140625,9490.6494140625,7634.9580078125,27373.6328125,7805.029296875,14531.6123046875,-4973.41162109375,-8087.158203125,9465.2177734375,5172.09375,10086.6953125,7352.8291015625,7174.81005859375,7723.96728515625,4445.71142578125,11105.537109375,10110.537109375,9128.2529296875,-12593.26953125,-0.0,0.0,11484.623046875,7690.58837890625,-286.102294921875,0.0,14377.4345703125
-3267.924072265625,-8608.5,8103.05322265625,11738.9365234375,16593.138671875,17552.375,14712.015625,14681.021484375,14422.734375,10912.41796875,19202.232421875,0.0,13863.24609375,0.0,14017.4228515625,17989.4765625,28447.30859375,14142.1953125,10024.70703125,7916.291015625,5904.0390625,16398.4296875,14610.291015625,11405.9453125,0.0,3524.621337890625,8126.099609375,6401.5390625,1096.7254638671875,-7670.720703125,14764.4677734375,5094.2099609375,10800.361328125,17585.75390625,10958.5126953125,17369.587890625,8146.7626953125,11711.12109375,6312.529296875,-0.0,7451.37548828125,14456.908203125,8681.615234375,12255.509765625,21131.833984375,8672.873046875,-1668.13525390625,9486.6748046875,7634.1630859375,27357.736328125,7806.619140625,14527.638671875,-4976.5908203125,-8067.29052734375,9473.1650390625,5207.8564453125,10087.490234375,7358.39208984375,7179.578125,7729.5302734375,4444.1220703125,11096.794921875,10114.5107421875,9147.326171875,-12582.9384765625,-0.0,0.0,11482.23828125,7696.15185546875,-284.5128479003906,0.0,14382.203125
-3288.5869140625,-8636.3154296875,8095.900390625,11734.962890625,16588.369140625,17546.8125,14712.015625,14680.2265625,14431.4765625,10917.1865234375,19195.080078125,0.0,13856.09375,0.0,14020.6025390625,17984.708984375,28440.953125,14139.0166015625,10025.5009765625,7925.828125,5899.2705078125,16392.072265625,14608.701171875,11402.7666015625,0.0,3503.16357421875,8122.12646484375,6393.59130859375,1111.030517578125,-7673.10498046875,14758.904296875,5085.46826171875,10794.00390625,17580.19140625,10954.5390625,17364.8203125,8145.1728515625,11713.5048828125,6282.32958984375,-0.0,7447.4013671875,14449.755859375,8678.4365234375,12253.125,21135.806640625,8672.873046875,-1687.208740234375,9481.9072265625,7624.6259765625,27352.173828125,7806.619140625,14524.4599609375,-4972.61669921875,-8089.54248046875,9467.6015625,5215.00927734375,10087.490234375,7347.265625,7185.93603515625,7732.70947265625,4436.1748046875,11091.232421875,10116.89453125,9154.4794921875,-12580.5537109375,-0.0,0.0,11467.93359375,7709.662109375,-291.6654052734375,0.0,14383.79296875
-3286.20263671875,-8656.978515625,8110.20556640625,11754.830078125,16599.49609375,17573.0390625,14722.34765625,14692.9423828125,14437.8349609375,10919.5712890625,19186.337890625,0.0,13871.193359375,0.0,14033.3173828125,18002.19140625,28456.052734375,14150.9375,10036.6279296875,7929.8017578125,5913.57568359375,16413.53125,14619.8271484375,11417.8662109375,0.0,3483.29541015625,8131.6630859375,6409.486328125,1101.493896484375,-7670.720703125,14774.7998046875,5100.568359375,10808.30859375,17598.470703125,10966.4599609375,17380.71484375,8155.50537109375,11724.630859375,6310.93994140625,-0.0,7460.1171875,14478.3662109375,8691.1513671875,12269.0205078125,21145.34375,8680.8203125,-1684.0299072265625,9500.185546875,7638.13623046875,27369.658203125,7816.95068359375,14538.7646484375,-4975.0009765625,-8157.88916015625,9473.1650390625,5222.16162109375,10099.4111328125,7359.9814453125,7195.47265625,7739.86181640625,4435.38037109375,11101.5634765625,10124.8427734375,9144.9423828125,-12576.580078125,-0.0,0.0,11476.67578125,7723.1728515625,-286.102294921875,0.0,14384.5869140625
-3278.25537109375,-8672.873046875,8115.7685546875,11776.2880859375,16605.853515625,17586.548828125,14726.3212890625,14697.7109375,14435.4501953125,10910.0341796875,19201.4375,0.0,13890.2666015625,0.0,14040.4697265625,18013.318359375,28467.177734375,14156.5009765625,10039.806640625,7922.6494140625,5923.90673828125,16426.244140625,14625.3896484375,11426.6083984375,0.0,3508.726806640625,8138.0205078125,6422.20166015625,1099.109619140625,-7665.1572265625,14784.3359375,5110.8994140625,10817.845703125,17611.98046875,10972.8173828125,17389.455078125,8157.09423828125,11727.015625,6350.67626953125,-0.0,7465.6806640625,14498.2333984375,8696.7158203125,12278.556640625,21146.138671875,8680.8203125,-1655.419677734375,9520.8486328125,7646.87890625,27385.552734375,7823.30810546875,14546.7119140625,-4971.02734375,-8165.0419921875,9492.23828125,5228.51953125,10116.1005859375,7374.28662109375,7197.06201171875,7738.27197265625,4452.8642578125,11103.947265625,10124.8427734375,9146.53125,-12578.169921875,-0.0,0.0,11491.775390625,7727.14599609375,-287.6917419433594,0.0,14371.0771484375
-3300.5078125,-8658.568359375,8119.7421875,11786.6201171875,16609.826171875,17587.34375,14730.2939453125,14703.2734375,14441.013671875,10925.9287109375,19222.1015625,0.0,13895.8291015625,0.0,14043.6484375,18020.470703125,28467.177734375,14160.4736328125,10045.369140625,7932.98046875,5925.49658203125,16426.244140625,14627.7744140625,11429.787109375,0.0,3527.00537109375,8145.1728515625,6427.7646484375,1115.7989501953125,-7644.49462890625,14788.3095703125,5107.720703125,10819.435546875,17611.98046875,10975.9970703125,17391.046875,8161.8623046875,11733.373046875,6342.72900390625,-0.0,7468.859375,14492.6708984375,8700.6884765625,12284.9150390625,21153.291015625,8688.767578125,-1658.5985107421875,9531.1806640625,7647.67333984375,27386.34765625,7826.4873046875,14552.275390625,-4967.0537109375,-8084.77392578125,9501.7744140625,5241.2353515625,10120.869140625,7383.0283203125,7198.65185546875,7748.60400390625,4452.06982421875,11107.126953125,10132.7900390625,9168.7841796875,-12582.9384765625,-0.0,0.0,11498.1337890625,7723.1728515625,-275.77081298828125,0.0,14390.1513671875
-3296.5341796875,-8565.5849609375,8126.89501953125,11760.39453125,16605.853515625,17581.78125,14723.9375,14701.68359375,14429.0927734375,10932.2861328125,19230.841796875,0.0,13883.908203125,0.0,14030.93359375,18011.728515625,28463.998046875,14157.294921875,10039.806640625,7932.18603515625,5923.1123046875,16416.70703125,14623.80078125,11425.8125,0.0,3517.46875,8137.22607421875,6424.5859375,1108.6463623046875,-7646.083984375,14783.5419921875,5109.31005859375,10818.640625,17604.033203125,10973.6123046875,17387.8671875,8157.09423828125,11730.98828125,6322.86083984375,-0.0,7468.859375,14479.16015625,8693.5361328125,12280.94140625,21146.931640625,8689.5625,-1657.0091552734375,9504.9541015625,7641.3154296875,27368.86328125,7817.7451171875,14549.095703125,-4969.43798828125,-8002.1220703125,9497.8017578125,5219.77734375,10103.384765625,7378.26025390625,7189.115234375,7753.3720703125,4459.22216796875,11103.1533203125,10130.4052734375,9157.6572265625,-12573.4013671875,-0.0,0.0,11494.9541015625,7701.71484375,-266.23406982421875,0.0,14407.634765625
-3273.487060546875,-8544.921875,8109.41015625,11731.7841796875,16589.1640625,17551.580078125,14706.4521484375,14682.6103515625,14402.8662109375,10916.392578125,19205.412109375,0.0,13863.24609375,0.0,14011.0654296875,17996.62890625,28449.693359375,14142.1953125,10023.9111328125,7907.5498046875,5908.80712890625,16397.634765625,14607.90625,11403.560546875,0.0,3501.57421875,8118.947265625,6406.30712890625,1095.9306640625,-7654.03125,14766.056640625,5096.59423828125,10802.74609375,17584.958984375,10956.923828125,17367.998046875,8138.0205078125,11711.9150390625,6319.681640625,-0.0,7455.34912109375,14460.880859375,8676.0517578125,12256.3046875,21125.474609375,8671.2841796875,-1689.593017578125,9478.728515625,7625.4208984375,27360.12109375,7797.876953125,14530.818359375,-4975.0009765625,-8023.57958984375,9475.548828125,5202.29345703125,10078.748046875,7367.92919921875,7166.0673828125,7744.63037109375,4437.7646484375,11088.0537109375,10111.33203125,9125.0732421875,-12565.453125,-0.0,0.0,11494.16015625,7674.69384765625,-268.6182556152344,0.0,14406.044921875
-3236.9296875,-8532.2060546875,8111.79443359375,11749.267578125,16593.138671875,17562.70703125,14708.0419921875,14688.173828125,14403.6611328125,10909.240234375,19207.0,0.0,13863.24609375,0.0,14015.833984375,18003.783203125,28456.845703125,14150.142578125,10026.2958984375,7903.57568359375,5911.98583984375,16406.376953125,14611.8798828125,11410.712890625,0.0,3513.4951171875,8122.12646484375,6415.04931640625,1099.109619140625,-7654.03125,14772.4150390625,5100.568359375,10805.1298828125,17591.318359375,10960.896484375,17375.9453125,8142.7890625,11715.888671875,6302.19775390625,-0.0,7457.7333984375,14475.1865234375,8680.0263671875,12262.662109375,21128.654296875,8672.873046875,-1673.698486328125,9495.41796875,7628.599609375,27376.810546875,7802.64501953125,14535.5859375,-4960.69580078125,-8032.32177734375,9469.19140625,5222.9560546875,10081.927734375,7375.08154296875,7169.24658203125,7743.83544921875,4436.1748046875,11094.4111328125,10109.7421875,9113.15234375,-12584.52734375,-0.0,0.0,11506.0810546875,7681.0517578125,-268.6182556152344,0.0,14389.35546875
-3257.592529296875,-8522.669921875,8126.89501953125,11775.4931640625,16608.23828125,17585.75390625,14719.1689453125,14700.8896484375,14415.58203125,10910.0341796875,19245.943359375,0.0,13884.7041015625,0.0,14026.958984375,18011.728515625,28476.71484375,14163.6533203125,10037.421875,7909.138671875,5927.880859375,16426.244140625,14625.3896484375,11425.8125,0.0,3530.979248046875,8135.63623046875,6430.94384765625,1119.7725830078125,-7636.546875,14792.283203125,5129.97314453125,10824.203125,17615.953125,10975.201171875,17394.224609375,8155.50537109375,11727.8095703125,6297.4296875,-0.0,7470.44873046875,14497.439453125,8692.7412109375,12282.53125,21140.576171875,8680.8203125,-1646.6776123046875,9521.6435546875,7646.083984375,27400.65234375,7814.56640625,14547.5068359375,-4935.2646484375,-8094.310546875,9492.23828125,5227.724609375,10093.8486328125,7386.20751953125,7181.16748046875,7748.60400390625,4460.8115234375,11107.126953125,10118.484375,9116.33203125,-12565.453125,-0.0,0.0,11511.6435546875,7693.767578125,-271.00244140625,0.0,14376.640625
-3275.871337890625,-8552.07421875,8143.58447265625,11783.4404296875,16620.955078125,17602.443359375,14732.6787109375,14708.8369140625,14433.06640625,10920.365234375,19253.888671875,0.0,13891.8564453125,0.0,14037.2919921875,18014.908203125,28487.83984375,14171.6005859375,10049.3427734375,7922.6494140625,5939.8017578125,16441.345703125,14637.310546875,11438.529296875,0.0,3542.10546875,8144.37890625,6437.3017578125,1118.9779052734375,-7654.03125,14804.2041015625,5138.71533203125,10839.302734375,17630.2578125,10987.91796875,17406.14453125,8166.630859375,11736.5517578125,6349.8818359375,-0.0,7485.54833984375,14513.3330078125,8703.8681640625,12294.4521484375,21151.701171875,8687.97265625,-1613.299072265625,9529.5908203125,7658.0048828125,27419.724609375,7825.6923828125,14552.275390625,-4954.337890625,-8105.4375,9500.185546875,5220.57177734375,10102.58984375,7391.77099609375,7194.677734375,7752.5771484375,4450.47998046875,11118.2529296875,10131.2001953125,9135.4052734375,-12555.9169921875,-0.0,0.0,11508.46484375,7710.45703125,-274.9761047363281,0.0,14379.0244140625
-3249.645263671875,-8551.2802734375,8115.7685546875,11752.4462890625,16597.11328125,17575.421875,14713.6044921875,14685.7900390625,14411.6083984375,10904.4716796875,19224.486328125,0.0,13871.9873046875,0.0,14020.6025390625,17995.833984375,28461.615234375,14150.142578125,10028.6796875,7907.5498046875,5915.1650390625,16419.091796875,14617.443359375,11416.2763671875,0.0,3482.500732421875,8125.30517578125,6404.7177734375,1105.4674072265625,-7654.82568359375,14781.9521484375,5105.33642578125,10814.6669921875,17603.23828125,10967.2548828125,17382.302734375,8148.3525390625,11715.888671875,6324.4501953125,-0.0,7461.70654296875,14490.287109375,8683.205078125,12267.4306640625,21132.626953125,8668.10546875,-1663.366943359375,9498.595703125,7637.341796875,27362.505859375,7807.41357421875,14530.818359375,-4979.76904296875,-8095.900390625,9482.701171875,5192.7568359375,10087.490234375,7366.33935546875,7177.1943359375,7737.4775390625,4432.99609375,11097.5908203125,10110.537109375,9122.689453125,-12556.7119140625,-0.0,0.0,11486.212890625,7688.2041015625,-286.102294921875,0.0,14378.23046875
-3213.88232421875,-8549.6904296875,8121.3310546875,11774.69921875,16608.23828125,17591.318359375,14719.1689453125,14698.505859375,14409.224609375,10914.0078125,19230.841796875,0.0,13882.3193359375,0.0,14024.5751953125,18009.34375,28476.71484375,14162.8583984375,10037.421875,7912.318359375,5926.291015625,16435.78125,14626.9794921875,11427.40234375,0.0,3528.594970703125,8133.251953125,6421.4072265625,1121.362060546875,-7651.64697265625,14795.462890625,5116.462890625,10822.61328125,17618.337890625,10976.791015625,17397.404296875,8157.88916015625,11728.6044921875,6342.72900390625,-0.0,7468.06494140625,14510.154296875,8691.1513671875,12280.146484375,21136.6015625,8678.4365234375,-1682.4404296875,9520.8486328125,7645.2890625,27379.193359375,7811.3876953125,14544.328125,-4936.0595703125,-8063.31640625,9493.033203125,5211.830078125,10094.642578125,7378.26025390625,7175.6044921875,7749.39892578125,4463.19580078125,11107.921875,10120.07421875,9133.021484375,-12542.4072265625,-0.0,0.0,11502.90234375,7677.873046875,-266.23406982421875,0.0,14394.1240234375
-3190.835205078125,-8656.1845703125,8111.0,11761.1884765625,16599.49609375,17561.1171875,14712.810546875,14686.583984375,14408.4287109375,10907.650390625,19223.689453125,0.0,13875.1669921875,0.0,14017.4228515625,17999.013671875,28462.41015625,14149.3486328125,10027.8857421875,7908.34423828125,5912.78076171875,16412.734375,14615.853515625,11412.302734375,0.0,3503.95849609375,8126.099609375,6411.07568359375,1111.030517578125,-7646.083984375,14781.1572265625,5109.31005859375,10812.2822265625,17604.033203125,10967.2548828125,17376.7421875,8149.94140625,11715.0947265625,6330.80810546875,-0.0,7460.1171875,14471.212890625,8683.205078125,12261.0732421875,21131.0390625,8671.2841796875,-1668.9300537109375,9506.54296875,7637.341796875,27360.12109375,7802.64501953125,14534.791015625,-4931.291015625,-8042.6533203125,9483.4970703125,5253.15625,10090.6689453125,7368.7236328125,7169.24658203125,7739.06689453125,4461.6064453125,11092.0263671875,10115.3056640625,9138.583984375,-12563.8642578125,-0.0,0.0,11496.5439453125,7669.92578125,-280.5391845703125,0.0,14379.0244140625
-3176.530029296875,-8758.7041015625,8118.15283203125,11782.646484375,16597.11328125,17580.19140625,14707.248046875,14684.2001953125,14388.5615234375,10889.37109375,19224.486328125,0.0,13868.0146484375,0.0,14010.2705078125,17993.44921875,28471.947265625,14153.3212890625,10023.1171875,7884.50244140625,5918.34423828125,16428.62890625,14613.46875,11416.2763671875,0.0,3507.13720703125,8119.7421875,6419.8173828125,1105.4674072265625,-7662.77294921875,14786.720703125,5118.05224609375,10818.640625,17618.337890625,10968.048828125,17388.662109375,8143.58447265625,11711.12109375,6300.6083984375,-0.0,7464.8857421875,14506.1806640625,8680.0263671875,12269.814453125,21119.9140625,8660.9521484375,-1657.0091552734375,9529.5908203125,7634.1630859375,27370.453125,7796.28759765625,14530.818359375,-4944.80126953125,-8014.04296875,9480.3173828125,5239.6455078125,10083.5166015625,7349.64990234375,7158.9150390625,7729.5302734375,4486.24267578125,11093.6162109375,10101.0009765625,9094.0791015625,-12572.6064453125,-0.0,0.0,11487.0068359375,7660.38916015625,-291.6654052734375,0.0,14363.9248046875
-3221.034912109375,-8685.5888671875,8125.30517578125,11789.00390625,16607.443359375,17605.623046875,14716.7841796875,14704.068359375,14390.9453125,10902.8818359375,19226.07421875,0.0,13876.755859375,0.0,14014.244140625,18013.318359375,28481.484375,14166.83203125,10035.83203125,7891.65478515625,5927.880859375,16443.728515625,14623.80078125,11434.5546875,0.0,3534.157958984375,8127.689453125,6454.78564453125,1118.9779052734375,-7671.51513671875,14797.0517578125,5129.1787109375,10824.998046875,17627.080078125,10977.5859375,17404.556640625,8153.12109375,11727.8095703125,6309.3505859375,-0.0,7469.654296875,14522.8701171875,8688.767578125,12296.041015625,21129.44921875,8676.8466796875,-1643.498779296875,9534.359375,7642.90478515625,27399.0625,7802.64501953125,14552.275390625,-4967.0537109375,-8057.75341796875,9489.0595703125,5230.10888671875,10093.052734375,7356.80224609375,7163.68359375,7747.0146484375,4487.03759765625,11110.3056640625,10112.1259765625,9098.84765625,-12551.1484375,-0.0,0.0,11498.1337890625,7660.38916015625,-274.9761047363281,0.0,14385.3828125
-3239.313720703125,-8511.54296875,8109.41015625,11751.6513671875,16598.701171875,17573.0390625,14710.4267578125,14692.1474609375,14394.1240234375,10909.240234375,19222.1015625,0.0,13872.7822265625,0.0,14010.2705078125,18009.34375,28460.8203125,14152.52734375,10030.26953125,7900.3974609375,5915.9599609375,16413.53125,14614.2646484375,11420.25,0.0,3520.647705078125,8123.71533203125,6418.22802734375,1112.6199951171875,-7659.59423828125,14778.7734375,5108.51513671875,10809.8984375,17600.05859375,10967.2548828125,17381.509765625,8147.55712890625,11718.2734375,6325.2451171875,-0.0,7458.52783203125,14471.212890625,8681.615234375,12272.1982421875,21129.44921875,8674.4619140625,-1658.5985107421875,9498.595703125,7636.546875,27368.068359375,7801.0556640625,14542.7392578125,-4966.2587890625,-8116.56298828125,9488.2646484375,5246.7978515625,10089.8740234375,7372.697265625,7165.27294921875,7745.4248046875,4443.32763671875,11099.974609375,10110.537109375,9115.537109375,-12551.943359375,-0.0,0.0,11497.337890625,7656.41552734375,-274.1813659667969,0.0,14390.1513671875
-3210.70361328125,-8470.2177734375,8102.2578125,11750.0615234375,16593.93359375,17553.96484375,14704.068359375,14677.0478515625,14390.9453125,10902.8818359375,19214.15234375,0.0,13869.603515625,0.0,14005.501953125,17999.806640625,28452.873046875,14146.9638671875,10020.732421875,7896.42333984375,5909.6015625,16401.609375,14608.701171875,11405.9453125,0.0,3497.6005859375,8118.947265625,6384.0546875,1107.8516845703125,-7647.67333984375,14771.62109375,5096.59423828125,10803.5400390625,17592.111328125,10960.1025390625,17369.587890625,8141.99462890625,11707.146484375,6312.529296875,-0.0,7456.14404296875,14461.6767578125,8678.4365234375,12250.7412109375,21123.08984375,8665.720703125,-1672.1090087890625,9496.2119140625,7632.57373046875,27364.888671875,7797.876953125,14529.228515625,-4947.185546875,-8109.41015625,9481.9072265625,5240.4404296875,10077.953125,7387.00244140625,7159.7099609375,7737.4775390625,4448.890625,11091.232421875,10104.9736328125,9110.7685546875,-12559.0966796875,-0.0,0.0,11504.4912109375,7654.82568359375,-274.9761047363281,0.0,14386.1767578125
-3244.082275390625,-8520.28515625,8115.7685546875,11757.21484375,16599.49609375,17562.70703125,14708.8369140625,14687.37890625,14394.1240234375,10907.650390625,19218.126953125,0.0,13869.603515625,0.0,14010.2705078125,18008.55078125,28463.205078125,14153.3212890625,10024.70703125,7899.60205078125,5917.54931640625,16410.3515625,14614.2646484375,11412.302734375,0.0,3501.57421875,8122.9208984375,6410.28076171875,1107.0570068359375,-7633.3681640625,14779.5673828125,5108.51513671875,10813.0771484375,17601.6484375,10964.8701171875,17377.53515625,8147.55712890625,11713.5048828125,6319.681640625,-0.0,7464.0908203125,14472.8017578125,8682.41015625,12261.0732421875,21126.26953125,8672.078125,-1659.393310546875,9504.1591796875,7634.1630859375,27382.373046875,7799.466796875,14538.7646484375,-4936.0595703125,-8050.60107421875,9485.880859375,5249.97705078125,10086.6953125,7390.18115234375,7162.09423828125,7745.4248046875,4468.75927734375,11099.1796875,10109.7421875,9109.1796875,-12557.5068359375,-0.0,0.0,11516.412109375,7659.59423828125,-268.6182556152344,0.0,14387.7666015625
-3248.8505859375,-8543.33203125,8130.07373046875,11760.39453125,16609.033203125,17574.62890625,14716.7841796875,14692.9423828125,14405.2509765625,10909.240234375,19226.07421875,0.0,13873.5771484375,0.0,14020.6025390625,18014.11328125,28469.5625,14162.0634765625,10033.4482421875,7907.5498046875,5928.67529296875,16419.091796875,14621.4169921875,11421.83984375,0.0,3521.4423828125,8132.45751953125,6421.4072265625,1107.8516845703125,-7638.13623046875,14786.720703125,5114.87353515625,10822.61328125,17608.0078125,10973.6123046875,17387.8671875,8154.7099609375,11720.6572265625,6298.22412109375,-0.0,7475.21728515625,14486.3125,8691.1513671875,12273.7880859375,21134.21875,8676.8466796875,-1670.51953125,9506.54296875,7644.49462890625,27391.115234375,7808.20849609375,14544.328125,-4942.4169921875,-8035.50048828125,9488.2646484375,5257.92431640625,10094.642578125,7390.97607421875,7171.630859375,7747.0146484375,4474.32177734375,11107.126953125,10116.89453125,9118.7158203125,-12561.48046875,-0.0,0.0,11514.02734375,7676.283203125,-269.4129943847656,0.0,14386.1767578125
-3246.46630859375,-8551.2802734375,8139.6103515625,11767.546875,16612.2109375,17574.62890625,14717.5791015625,14692.9423828125,14406.044921875,10910.0341796875,19224.486328125,0.0,13877.55078125,0.0,14020.6025390625,18011.728515625,28468.767578125,14162.8583984375,10034.2431640625,7909.138671875,5931.8544921875,16421.4765625,14623.80078125,11422.6337890625,0.0,3512.700439453125,8134.04736328125,6420.6123046875,1111.8253173828125,-7628.599609375,14788.3095703125,5117.2578125,10826.587890625,17608.80078125,10975.9970703125,17387.072265625,8155.50537109375,11720.6572265625,6244.9775390625,-0.0,7487.13818359375,14487.107421875,8692.7412109375,12272.994140625,21135.01171875,8675.2578125,-1672.1090087890625,9512.9013671875,7647.67333984375,27381.578125,7811.3876953125,14542.7392578125,-4951.9541015625,-8013.24853515625,9484.291015625,5239.6455078125,10097.8212890625,7384.6181640625,7172.42578125,7745.4248046875,4475.91162109375,11110.3056640625,10116.89453125,9120.3046875,-12555.1220703125,-0.0,0.0,11507.669921875,7674.69384765625,-271.79718017578125,0.0,14389.35546875
-3247.260986328125,-8564.7900390625,8122.12646484375,11769.9306640625,16604.265625,17573.833984375,14717.5791015625,14691.3525390625,14416.376953125,10909.240234375,19220.509765625,0.0,13879.935546875,0.0,14023.78125,18009.34375,28468.767578125,14158.08984375,10031.859375,7916.291015625,5923.90673828125,16419.88671875,14619.033203125,11418.66015625,0.0,3520.647705078125,8132.45751953125,6418.22802734375,1108.6463623046875,-7651.64697265625,14783.5419921875,5127.5888671875,10820.2294921875,17608.0078125,10970.43359375,17383.89453125,8154.7099609375,11720.6572265625,6322.06591796875,-0.0,7466.47509765625,14488.697265625,8690.357421875,12271.404296875,21136.6015625,8675.2578125,-1638.7303466796875,9516.080078125,7645.2890625,27379.990234375,7812.18212890625,14541.1494140625,-4940.033203125,-8033.1162109375,9490.6494140625,5238.05615234375,10101.0009765625,7375.8759765625,7181.16748046875,7739.86181640625,4494.1904296875,11103.947265625,10116.1005859375,9133.021484375,-12559.0966796875,-0.0,0.0,11491.775390625,7689.7939453125,-286.89703369140625,0.0,14382.998046875
-3218.65087890625,-8563.9951171875,8107.8212890625,11754.830078125,16596.31640625,17570.654296875,14714.400390625,14688.173828125,14421.1455078125,10910.0341796875,19220.509765625,0.0,13873.5771484375,0.0,14023.78125,18004.576171875,28461.615234375,14150.142578125,10027.8857421875,7921.85498046875,5916.75439453125,16411.939453125,14611.8798828125,11413.8916015625,0.0,3507.13720703125,8127.689453125,6414.2548828125,1099.109619140625,-7669.92578125,14776.388671875,5115.66796875,10809.8984375,17600.05859375,10963.2802734375,17378.330078125,8150.73681640625,11716.68359375,6353.06005859375,-0.0,7456.14404296875,14481.544921875,8683.205078125,12266.6357421875,21135.806640625,8672.873046875,-1640.31982421875,9500.98046875,7637.341796875,27376.017578125,7809.00341796875,14537.970703125,-4945.59619140625,-8054.57421875,9485.0859375,5226.93017578125,10096.232421875,7371.107421875,7182.7568359375,7735.88818359375,4477.5009765625,11098.384765625,10115.3056640625,9138.583984375,-12567.837890625,-0.0,0.0,11484.623046875,7697.7412109375,-292.4601135253906,0.0,14374.255859375
-3184.4775390625,-8517.1064453125,8126.89501953125,11768.3408203125,16613.802734375,17590.5234375,14723.1416015625,14702.4794921875,14413.197265625,10915.5966796875,19233.2265625,0.0,13878.345703125,0.0,14028.548828125,18022.85546875,28480.6875,14166.83203125,10038.216796875,7918.67529296875,5935.033203125,16430.21875,14626.185546875,11430.5810546875,0.0,3512.700439453125,8136.431640625,6432.533203125,1106.26220703125,-7664.3623046875,14795.462890625,5134.7412109375,10828.9716796875,17618.337890625,10980.765625,17398.19921875,8161.06787109375,11729.3994140625,6337.166015625,-0.0,7480.7802734375,14500.6181640625,8693.5361328125,12284.9150390625,21141.37109375,8683.205078125,-1641.1146240234375,9516.080078125,7647.67333984375,27396.6796875,7813.771484375,14552.275390625,-4934.4697265625,-8040.26904296875,9494.6220703125,5266.66650390625,10101.0009765625,7388.591796875,7181.16748046875,7750.193359375,4467.96435546875,11118.2529296875,10123.2529296875,9125.869140625,-12559.890625,-0.0,0.0,11506.0810546875,7688.9990234375,-271.00244140625,0.0,14390.1513671875
-3179.709228515625,-8512.337890625,8138.0205078125,11782.646484375,16624.927734375,17597.67578125,14727.91015625,14712.015625,14410.0185546875,10919.5712890625,19243.55859375,0.0,13887.087890625,0.0,14029.34375,18033.185546875,28492.609375,14175.57421875,10044.5751953125,7917.08642578125,5943.775390625,16438.9609375,14634.9267578125,11440.9130859375,0.0,3500.779296875,8142.7890625,6442.06982421875,1122.15673828125,-7615.08935546875,14804.9990234375,5149.84130859375,10841.6875,17627.875,10991.890625,17406.14453125,8167.42626953125,11736.5517578125,6342.72900390625,-0.0,7497.46923828125,14503.796875,8701.4833984375,12293.65625,21143.755859375,8691.947265625,-1632.37255859375,9529.5908203125,7658.0048828125,27395.8828125,7816.95068359375,14561.0166015625,-4900.296875,-8026.75927734375,9500.98046875,5264.2822265625,10104.9736328125,7400.5126953125,7178.783203125,7760.52490234375,4489.421875,11129.37890625,10128.021484375,9122.689453125,-12540.0224609375,-0.0,0.0,11525.154296875,7678.66748046875,-254.31314086914062,0.0,14409.224609375
-3186.06689453125,-8524.2587890625,8139.6103515625,11793.7724609375,16620.158203125,17596.880859375,14731.08984375,14714.400390625,14425.9140625,10931.4921875,19240.37890625,0.0,13897.4189453125,0.0,14034.9072265625,18030.802734375,28488.63671875,14176.369140625,10050.1376953125,7931.3916015625,5940.59619140625,16441.345703125,14636.5166015625,11442.501953125,0.0,3542.900146484375,8147.55712890625,6446.04345703125,1125.335693359375,-7627.01025390625,14803.4091796875,5139.509765625,10836.1240234375,17627.875,10990.3017578125,17406.94140625,8170.6044921875,11741.3203125,6357.82861328125,-0.0,7483.16455078125,14509.3603515625,8705.45703125,12295.24609375,21150.908203125,8695.1259765625,-1620.4515380859375,9540.716796875,7665.1572265625,27405.419921875,7824.103515625,14563.4013671875,-4913.01220703125,-8037.09033203125,9509.72265625,5247.5927734375,10110.537109375,7405.28125,7190.7041015625,7765.29296875,4513.263671875,11131.763671875,10134.37890625,9144.146484375,-12536.84375,-0.0,0.0,11521.1796875,7693.767578125,-254.31314086914062,0.0,14415.58203125
-3168.5830078125,-8522.669921875,8139.6103515625,11786.6201171875,16612.2109375,17584.166015625,14724.7314453125,14704.86328125,14421.939453125,10924.3388671875,19239.583984375,0.0,13891.060546875,0.0,14030.138671875,18018.880859375,28482.279296875,14169.2158203125,10042.9853515625,7928.21240234375,5935.033203125,16434.193359375,14628.5693359375,11433.7607421875,0.0,3547.66845703125,8140.40478515625,6436.5068359375,1118.9779052734375,-7642.1103515625,14796.2568359375,5135.5361328125,10831.3564453125,17623.90234375,10981.5595703125,17398.9921875,8162.65771484375,11730.98828125,6351.470703125,-0.0,7471.2431640625,14503.796875,8696.7158203125,12283.3251953125,21146.138671875,8687.97265625,-1630.7830810546875,9533.564453125,7655.62060546875,27400.65234375,7816.1552734375,14552.275390625,-4932.08544921875,-8025.16943359375,9508.1328125,5250.77197265625,10102.58984375,7391.77099609375,7184.3466796875,7757.345703125,4506.90625,11122.2265625,10128.8154296875,9139.37890625,-12540.8173828125,-0.0,0.0,11506.875,7685.8203125,-264.6446228027344,0.0,14403.6611328125
-3166.993408203125,-8510.7490234375,8133.251953125,11776.2880859375,16610.623046875,17577.013671875,14719.1689453125,14697.7109375,14402.8662109375,10914.802734375,19234.81640625,0.0,13884.7041015625,0.0,14019.0126953125,18013.318359375,28481.484375,14162.8583984375,10035.83203125,7913.9072265625,5932.64892578125,16429.423828125,14623.005859375,11425.8125,0.0,3517.46875,8133.251953125,6428.5595703125,1112.6199951171875,-7630.189453125,14793.873046875,5141.89404296875,10828.9716796875,17620.72265625,10978.380859375,17392.634765625,8154.7099609375,11722.2470703125,6364.1865234375,-0.0,7472.8330078125,14496.6435546875,8689.5625,12278.556640625,21135.806640625,8679.23046875,-1649.061767578125,9521.6435546875,7646.083984375,27383.962890625,7807.41357421875,14548.3017578125,-4900.296875,-7995.7646484375,9495.41796875,5233.28759765625,10095.4375,7383.0283203125,7170.8359375,7750.98779296875,4509.2900390625,11117.4580078125,10118.484375,9124.279296875,-12542.4072265625,-0.0,0.0,11503.6962890625,7660.38916015625,-269.4129943847656,0.0,14399.6875
-3166.19873046875,-8508.3642578125,8137.22607421875,11793.7724609375,16615.390625,17587.34375,14720.7578125,14700.0947265625,14402.072265625,10910.0341796875,19234.81640625,0.0,13883.1142578125,0.0,14019.806640625,18013.318359375,28488.63671875,14166.83203125,10036.6279296875,7909.138671875,5936.62255859375,16438.9609375,14625.3896484375,11429.787109375,0.0,3531.77392578125,8133.251953125,6430.94384765625,1115.004150390625,-7627.80517578125,14799.435546875,5152.2255859375,10836.1240234375,17631.0546875,10983.9443359375,17399.787109375,8155.50537109375,11725.42578125,6372.1337890625,-0.0,7480.7802734375,14509.3603515625,8691.1513671875,12284.119140625,21136.6015625,8679.23046875,-1657.8038330078125,9539.126953125,7648.4677734375,27387.9375,7809.7978515625,14548.3017578125,-4875.66015625,-7993.38037109375,9480.3173828125,5253.15625,10096.232421875,7384.6181640625,7170.04150390625,7746.2197265625,4521.2109375,11118.2529296875,10117.6904296875,9119.5107421875,-12547.9697265625,-0.0,0.0,11502.90234375,7662.77294921875,-274.9761047363281,0.0,14393.330078125
-3171.76171875,-8535.384765625,8145.96826171875,11808.8720703125,16619.36328125,17595.291015625,14723.9375,14704.068359375,14403.6611328125,10898.11328125,19233.2265625,0.0,13889.4716796875,0.0,14024.5751953125,18021.265625,28494.994140625,14170.8056640625,10039.01171875,7905.9599609375,5942.18603515625,16444.525390625,14629.3642578125,11432.96484375,0.0,3545.2841796875,8137.22607421875,6434.91748046875,1116.59375,-7627.80517578125,14804.2041015625,5155.40478515625,10841.6875,17638.20703125,10987.91796875,17404.556640625,8157.88916015625,11728.6044921875,6382.46533203125,-0.0,7487.9326171875,14519.69140625,8695.1259765625,12288.09375,21138.19140625,8677.6416015625,-1646.6776123046875,9556.611328125,7650.85205078125,27399.0625,7812.18212890625,14553.8642578125,-4881.22314453125,-8003.7119140625,9487.4697265625,5249.18212890625,10100.205078125,7383.8232421875,7171.630859375,7747.80908203125,4526.77392578125,11118.2529296875,10118.484375,9113.9482421875,-12554.328125,-0.0,0.0,11490.185546875,7673.10498046875,-287.6917419433594,0.0,14378.23046875
-3185.272216796875,-8518.6962890625,8165.83642578125,11818.4091796875,16630.4921875,17605.623046875,14732.6787109375,14719.1689453125,14410.0185546875,10908.4443359375,19234.021484375,0.0,13892.650390625,0.0,14027.7548828125,18043.517578125,28506.12109375,14181.13671875,10050.1376953125,7913.11279296875,5954.9013671875,16454.85546875,14638.1064453125,11443.2978515625,0.0,3548.463134765625,8143.58447265625,6450.81201171875,1122.9515380859375,-7633.3681640625,14816.125,5169.70947265625,10855.1982421875,17650.126953125,10997.455078125,17414.09375,8166.630859375,11740.525390625,6392.001953125,-0.0,7499.853515625,14530.0224609375,8703.8681640625,12300.80859375,21146.931640625,8691.1513671875,-1603.7623291015625,9566.943359375,7660.38916015625,27410.984375,7820.12939453125,14574.52734375,-4901.09130859375,-7998.943359375,9519.259765625,5273.02392578125,10105.76953125,7403.69189453125,7176.3994140625,7775.62451171875,4553.0,11125.4052734375,10128.021484375,9116.33203125,-12532.8701171875,-0.0,0.0,11506.875,7678.66748046875,-273.3866271972656,0.0,14384.5869140625
-3187.656494140625,-8513.927734375,8175.373046875,11809.6669921875,16632.875,17606.416015625,14735.0625,14718.373046875,14413.197265625,10921.955078125,19236.40625,0.0,13888.6767578125,0.0,14027.7548828125,18038.75,28511.681640625,14182.7265625,10052.521484375,7922.6494140625,5959.66943359375,16454.060546875,14640.490234375,11446.4755859375,0.0,3535.74755859375,8145.1728515625,6447.63330078125,1118.18310546875,-7627.80517578125,14818.5087890625,5176.8623046875,10860.7607421875,17652.51171875,10999.8388671875,17415.681640625,8169.01513671875,11742.115234375,6392.001953125,-0.0,7505.4169921875,14528.43359375,8706.251953125,12303.193359375,21150.908203125,8693.5361328125,-1600.5833740234375,9556.611328125,7665.1572265625,27410.984375,7821.71923828125,14574.52734375,-4901.09130859375,-8016.42724609375,9529.5908203125,5253.95068359375,10105.76953125,7394.94921875,7179.578125,7774.830078125,4553.0,11128.5849609375,10133.583984375,9124.279296875,-12529.6904296875,-0.0,0.0,11517.20703125,7681.0517578125,-259.0815124511719,0.0,14397.3037109375
-3188.451171875,-8478.1650390625,8183.31982421875,11816.0244140625,16641.6171875,17614.365234375,14736.65234375,14715.9892578125,14415.58203125,10929.107421875,19259.453125,0.0,13890.2666015625,0.0,14030.138671875,18025.240234375,28520.42578125,14190.673828125,10053.3173828125,7925.03369140625,5966.02783203125,16465.982421875,14643.6689453125,11450.4501953125,0.0,3542.10546875,8148.3525390625,6442.86474609375,1112.6199951171875,-7632.57373046875,14825.662109375,5188.783203125,10870.2978515625,17662.048828125,11007.7861328125,17422.833984375,8173.783203125,11743.705078125,6406.30712890625,-0.0,7512.5693359375,14543.533203125,8711.0205078125,12303.98828125,21152.49609375,8692.7412109375,-1605.351806640625,9560.5849609375,7670.720703125,27415.751953125,7823.30810546875,14568.169921875,-4870.8916015625,-8012.4541015625,9528.0009765625,5251.56640625,10106.5634765625,7386.20751953125,7183.5517578125,7758.935546875,4564.12646484375,11134.1474609375,10134.37890625,9129.841796875,-12538.4326171875,-0.0,0.0,11515.6171875,7682.6416015625,-257.4920654296875,0.0,14402.8662109375
-3138.383056640625,-8447.96484375,8178.5517578125,11824.767578125,16642.412109375,17619.927734375,14739.8310546875,14719.1689453125,14420.349609375,10930.697265625,19282.5,0.0,13895.8291015625,0.0,14031.7275390625,18030.0078125,28527.578125,14193.8525390625,10054.111328125,7929.00732421875,5968.412109375,16470.75,14650.02734375,11453.62890625,0.0,3567.53662109375,8150.73681640625,6448.427734375,1126.1304931640625,-7631.77880859375,14831.2255859375,5199.9091796875,10873.4765625,17668.40625,11010.96484375,17426.80859375,8176.962890625,11746.0888671875,6419.02294921875,-0.0,7511.7744140625,14551.48046875,8713.404296875,12307.1669921875,21156.46875,8696.7158203125,-1593.430908203125,9570.916015625,7673.10498046875,27421.31640625,7828.076171875,14567.375,-4854.9970703125,-7940.13330078125,9524.02734375,5268.255859375,10108.1533203125,7398.12841796875,7188.3203125,7758.935546875,4554.58984375,11138.916015625,10137.5576171875,9137.7900390625,-12526.51171875,-0.0,0.0,11525.9482421875,7685.02587890625,-254.31314086914062,0.0,14410.8134765625
-3063.6787109375,-8413.7919921875,8179.34716796875,11844.634765625,16646.384765625,17627.080078125,14745.39453125,14731.08984375,14423.529296875,10921.1611328125,19290.447265625,0.0,13899.802734375,0.0,14037.2919921875,18053.0546875,28533.935546875,14198.62109375,10060.4697265625,7929.00732421875,5973.974609375,16476.3125,14656.384765625,11460.78125,0.0,3606.478515625,8156.2998046875,6467.5009765625,1138.0513916015625,-7607.14208984375,14839.966796875,5209.44580078125,10875.861328125,17677.1484375,11014.9384765625,17434.755859375,8182.525390625,11754.0361328125,6415.04931640625,-0.0,7514.15869140625,14554.66015625,8717.3779296875,12319.087890625,21160.443359375,8705.45703125,-1584.6888427734375,9589.9892578125,7676.283203125,27447.54296875,7831.255859375,14584.064453125,-4835.923828125,-7863.83935546875,9527.2060546875,5313.55517578125,10113.7158203125,7410.04931640625,7191.4990234375,7783.57177734375,4579.22607421875,11142.8896484375,10142.326171875,9133.8154296875,-12508.2333984375,-0.0,0.0,11525.9482421875,7688.2041015625,-263.8498840332031,0.0,14400.482421875
-3046.989501953125,-8401.87109375,8168.220703125,11827.1513671875,16638.4375,17619.1328125,14739.8310546875,14722.34765625,14415.58203125,10909.240234375,19277.73046875,0.0,13897.4189453125,0.0,14032.5234375,18047.490234375,28525.193359375,14191.4677734375,10054.90625,7915.4970703125,5965.23291015625,16466.775390625,14647.6435546875,11453.62890625,0.0,3581.047119140625,8149.14697265625,6463.52783203125,1125.335693359375,-7619.85791015625,14828.8408203125,5203.08837890625,10866.32421875,17668.40625,11004.607421875,17426.013671875,8174.57861328125,11746.8837890625,6390.41259765625,-0.0,7508.595703125,14539.5595703125,8711.0205078125,12312.7294921875,21151.701171875,8694.3310546875,-1622.8358154296875,9574.095703125,7668.33642578125,27437.2109375,7824.89794921875,14582.474609375,-4832.74462890625,-7870.99169921875,9519.259765625,5285.73974609375,10109.7421875,7392.5654296875,7185.14111328125,7770.0615234375,4606.2470703125,11131.763671875,10131.9951171875,9116.33203125,-12516.9755859375,-0.0,0.0,11504.4912109375,7682.6416015625,-282.128662109375,0.0,14375.845703125
-3050.168212890625,-8418.5595703125,8168.220703125,11808.8720703125,16635.259765625,17615.953125,14739.0361328125,14716.7841796875,14418.76171875,10911.6240234375,19258.658203125,0.0,13885.498046875,0.0,14034.9072265625,18029.212890625,28519.630859375,14185.111328125,10052.521484375,7917.880859375,5958.080078125,16461.21484375,14644.4638671875,11448.8603515625,0.0,3544.489501953125,8146.7626953125,6455.580078125,1117.388427734375,-7624.6259765625,14823.27734375,5203.8828125,10864.734375,17660.458984375,11001.427734375,17420.451171875,8173.783203125,11741.3203125,6375.31298828125,-0.0,7504.6220703125,14530.0224609375,8709.4306640625,12306.373046875,21151.701171875,8687.1787109375,-1621.246337890625,9555.81640625,7663.56787109375,27405.419921875,7824.89794921875,14572.1435546875,-4845.46044921875,-7912.318359375,9508.927734375,5276.203125,10109.7421875,7383.0283203125,7185.93603515625,7743.83544921875,4600.68359375,11125.4052734375,10130.4052734375,9122.689453125,-12532.0751953125,-0.0,0.0,11494.16015625,7691.38330078125,-284.5128479003906,0.0,14379.0244140625
-3093.87841796875,-8392.333984375,8184.90966796875,11839.8662109375,16649.564453125,17631.849609375,14752.546875,14729.5,14437.0390625,10938.64453125,19253.888671875,0.0,13903.77734375,0.0,14049.212890625,18039.544921875,28533.935546875,14200.2109375,10067.6220703125,7936.95458984375,5971.59033203125,16478.697265625,14657.1796875,11463.1650390625,0.0,3562.768310546875,8160.2734375,6463.52783203125,1126.9251708984375,-7610.3212890625,14838.3779296875,5215.8037109375,10878.2451171875,17677.94140625,11015.732421875,17435.55078125,8188.08837890625,11756.419921875,6400.744140625,-0.0,7518.92724609375,14551.48046875,8722.94140625,12320.677734375,21169.185546875,8704.662109375,-1606.941162109375,9586.8115234375,7673.10498046875,27415.751953125,7839.9970703125,14579.2958984375,-4829.5654296875,-7954.43798828125,9519.259765625,5270.64013671875,10124.046875,7417.9970703125,7197.85693359375,7756.55126953125,4604.65771484375,11139.7099609375,10148.6845703125,9144.146484375,-12532.0751953125,-0.0,0.0,11508.46484375,7708.07275390625,-257.4920654296875,0.0,14407.634765625
-3140.767333984375,-8408.228515625,8197.625,11855.76171875,16655.126953125,17610.392578125,14756.5205078125,14720.7578125,14438.62890625,10947.38671875,19262.6328125,0.0,13909.33984375,0.0,14058.7490234375,18027.625,28538.703125,14200.2109375,10068.4169921875,7941.72265625,5979.5380859375,16476.3125,14657.974609375,11456.0126953125,0.0,3579.45751953125,8169.01513671875,6446.04345703125,1127.7198486328125,-7597.60546875,14840.76171875,5216.5986328125,10886.1923828125,17682.7109375,11018.1171875,17429.193359375,8188.8837890625,11753.2412109375,6416.638671875,-0.0,7530.0537109375,14550.685546875,8728.50390625,12304.783203125,21170.775390625,8705.45703125,-1601.3780517578125,9601.91015625,7688.9990234375,27425.2890625,7847.14990234375,14564.9912109375,-4821.61865234375,-7939.3388671875,9537.537109375,5283.35546875,10131.2001953125,7422.76513671875,7202.62548828125,7756.55126953125,4632.47314453125,11138.1220703125,10150.2734375,9148.12109375,-12529.6904296875,-0.0,0.0,11510.8486328125,7708.86767578125,-251.928955078125,0.0,14412.4033203125
-3139.97265625,-8426.5068359375,8158.68359375,11821.587890625,16626.515625,17580.19140625,14733.4736328125,14691.3525390625,14406.83984375,10917.1865234375,19243.55859375,0.0,13888.6767578125,0.0,14041.2646484375,17989.4765625,28506.12109375,14172.39453125,10040.6005859375,7913.11279296875,5948.54345703125,16446.908203125,14632.54296875,11425.0185546875,0.0,3550.847412109375,8148.3525390625,6417.43310546875,1104.6727294921875,-7636.546875,14810.5625,5183.2197265625,10853.6083984375,17652.51171875,10989.5068359375,17398.9921875,8161.06787109375,11724.630859375,6396.7705078125,-0.0,7494.291015625,14518.8974609375,8701.4833984375,12276.1728515625,21145.34375,8676.8466796875,-1600.5833740234375,9569.3271484375,7664.3623046875,27391.91015625,7828.076171875,14531.6123046875,-4869.30224609375,-7964.7705078125,9499.390625,5262.69287109375,10115.3056640625,7383.8232421875,7184.3466796875,7736.68310546875,4603.06787109375,11108.7158203125,10122.4580078125,9118.7158203125,-12547.9697265625,-0.0,0.0,11485.4169921875,7672.31005859375,-281.33392333984375,0.0,14381.408203125
-3086.725830078125,-8451.9384765625,8151.53125,11810.4619140625,16621.748046875,17584.958984375,14727.115234375,14689.7626953125,14400.482421875,10905.265625,19253.888671875,0.0,13868.0146484375,0.0,14029.34375,17991.861328125,28502.146484375,14169.2158203125,10034.2431640625,7903.57568359375,5941.39111328125,16443.728515625,14627.7744140625,11424.2236328125,0.0,3557.205078125,8134.841796875,6419.02294921875,1100.6990966796875,-7642.90478515625,14806.587890625,5181.63037109375,10845.6611328125,17647.744140625,10983.9443359375,17398.19921875,8155.50537109375,11721.4521484375,6379.2861328125,-0.0,7487.9326171875,14518.8974609375,8694.3310546875,12276.1728515625,21138.19140625,8669.6943359375,-1588.6624755859375,9557.40625,7652.44140625,27394.294921875,7818.53955078125,14531.6123046875,-4866.91796875,-7920.26513671875,9470.7802734375,5267.46142578125,10104.9736328125,7378.26025390625,7184.3466796875,7731.11962890625,4575.25244140625,11106.33203125,10116.89453125,9109.1796875,-12552.73828125,-0.0,0.0,11483.828125,7667.54150390625,-294.0495910644531,0.0,14368.693359375
-3054.14208984375,-8502.0068359375,8162.65771484375,11812.05078125,16628.107421875,17592.111328125,14728.705078125,14692.9423828125,14400.482421875,10903.67578125,19250.7109375,0.0,13881.5244140625,0.0,14029.34375,18002.986328125,28506.12109375,14173.984375,10038.216796875,7904.3701171875,5949.33837890625,16447.703125,14631.748046875,11429.787109375,0.0,3556.41064453125,8138.0205078125,6424.5859375,1105.4674072265625,-7639.72607421875,14810.5625,5180.8359375,10851.2236328125,17650.126953125,10990.3017578125,17403.76171875,8158.68359375,11723.8359375,6389.6181640625,-0.0,7500.6484375,14522.8701171875,8699.099609375,12280.94140625,21138.986328125,8669.6943359375,-1577.5362548828125,9558.9951171875,7657.2099609375,27403.83203125,7818.53955078125,14538.7646484375,-4849.43408203125,-7890.8603515625,9482.701171875,5300.83984375,10103.384765625,7380.64453125,7174.81005859375,7729.5302734375,4572.8681640625,11113.484375,10117.6904296875,9105.205078125,-12549.5595703125,-0.0,0.0,11479.8544921875,7671.51513671875,-295.6390380859375,0.0,14363.1298828125
-3039.042236328125,-8482.9326171875,8174.57861328125,11819.203125,16636.052734375,17593.703125,14732.6787109375,14698.505859375,14406.83984375,10904.4716796875,19266.60546875,0.0,13899.802734375,0.0,14038.0859375,18016.49609375,28513.2734375,14180.3427734375,10040.6005859375,7908.34423828125,5957.28564453125,16450.0859375,14635.7216796875,11433.7607421875,0.0,3542.10546875,8144.37890625,6433.328125,1103.083251953125,-7630.189453125,14815.330078125,5189.57763671875,10862.3505859375,17655.69140625,10996.6591796875,17408.529296875,8162.65771484375,11727.8095703125,6426.17578125,-0.0,7510.97998046875,14523.6650390625,8703.072265625,12285.708984375,21142.1640625,8672.873046875,-1570.3836669921875,9566.1474609375,7663.56787109375,27401.447265625,7824.89794921875,14549.095703125,-4842.28125,-7956.822265625,9506.54296875,5300.044921875,10106.5634765625,7393.3603515625,7169.24658203125,7725.556640625,4572.8681640625,11118.2529296875,10121.6630859375,9106.0,-12544.791015625,-0.0,0.0,11484.623046875,7677.873046875,-288.4864807128906,0.0,14369.4873046875
-3081.16259765625,-8440.017578125,8172.98876953125,11812.05078125,16628.107421875,17594.49609375,14733.4736328125,14702.4794921875,14410.8134765625,10909.240234375,19276.142578125,0.0,13896.625,0.0,14044.4443359375,18022.060546875,28513.2734375,14180.3427734375,10042.9853515625,7913.11279296875,5954.9013671875,16451.677734375,14634.1328125,11437.7333984375,0.0,3536.542236328125,8147.55712890625,6437.3017578125,1119.7725830078125,-7628.599609375,14815.330078125,5195.140625,10859.171875,17657.279296875,10992.6865234375,17409.32421875,8164.24658203125,11731.7841796875,6392.001953125,-0.0,7500.6484375,14524.4599609375,8700.6884765625,12290.4775390625,21144.548828125,8679.23046875,-1592.6361083984375,9560.5849609375,7662.77294921875,27400.65234375,7827.28173828125,14553.0703125,-4853.4072265625,-7978.2802734375,9524.822265625,5261.89794921875,10109.7421875,7402.89697265625,7172.42578125,7732.70947265625,4597.5048828125,11119.0478515625,10125.63671875,9112.3583984375,-12509.8232421875,-0.0,0.0,11494.9541015625,7683.43603515625,-286.89703369140625,0.0,14378.23046875
-3138.383056640625,-8405.8447265625,8172.1943359375,11809.6669921875,16632.080078125,17607.212890625,14735.8583984375,14711.220703125,14413.9931640625,10918.7763671875,19265.810546875,0.0,13886.2919921875,0.0,14045.23828125,18031.59765625,28514.861328125,14183.521484375,10048.548828125,7921.0595703125,5957.28564453125,16454.060546875,14638.1064453125,11443.2978515625,0.0,3541.310546875,8150.73681640625,6446.83837890625,1123.7462158203125,-7627.80517578125,14818.5087890625,5191.9619140625,10860.7607421875,17655.69140625,10995.0703125,17414.09375,8167.42626953125,11738.140625,6395.18115234375,-0.0,7503.03271484375,14530.0224609375,8704.662109375,12299.2197265625,21148.5234375,8687.1787109375,-1610.914794921875,9557.40625,7668.33642578125,27403.03515625,7828.87158203125,14562.6064453125,-4852.61279296875,-7929.00732421875,9514.4912109375,5266.66650390625,10111.33203125,7402.10205078125,7177.98876953125,7752.5771484375,4599.88916015625,11124.611328125,10129.611328125,9124.279296875,-12511.4130859375,-0.0,0.0,11505.2861328125,7685.8203125,-274.9761047363281,0.0,14384.5869140625
-3105.79931640625,-8364.5185546875,8178.5517578125,11819.203125,16638.4375,17614.365234375,14739.0361328125,14714.400390625,14418.76171875,10922.75,19276.9375,0.0,13891.8564453125,0.0,14043.6484375,18026.828125,28521.21875,14188.2900390625,10054.111328125,7924.2392578125,5963.6435546875,16461.21484375,14643.6689453125,11448.8603515625,0.0,3561.9736328125,8153.91552734375,6450.017578125,1121.362060546875,-7626.21533203125,14824.0732421875,5201.49853515625,10867.119140625,17660.458984375,11002.22265625,17422.041015625,8170.6044921875,11740.525390625,6432.533203125,-0.0,7512.5693359375,14541.1494140625,8711.0205078125,12303.98828125,21153.291015625,8689.5625,-1578.3310546875,9564.55859375,7677.078125,27415.751953125,7830.46044921875,14561.8125,-4840.69189453125,-7971.12744140625,9518.4638671875,5269.05078125,10110.537109375,7401.3076171875,7177.98876953125,7754.96142578125,4587.17333984375,11130.96875,10133.583984375,9130.63671875,-12517.76953125,-0.0,0.0,11509.2587890625,7688.9990234375,-271.79718017578125,0.0,14388.5615234375
-3077.189208984375,-8374.0546875,8169.01513671875,11821.587890625,16637.64453125,17615.953125,14735.8583984375,14707.248046875,14422.734375,10917.9814453125,19277.73046875,0.0,13894.240234375,0.0,14026.958984375,18012.5234375,28522.810546875,14189.083984375,10050.9326171875,7923.44384765625,5964.43798828125,16463.59765625,14642.875,11446.4755859375,0.0,3550.052734375,8146.7626953125,6439.68603515625,1122.9515380859375,-7627.01025390625,14827.2509765625,5205.47265625,10867.119140625,17666.021484375,11001.427734375,17421.24609375,8168.220703125,11736.5517578125,6426.17578125,-0.0,7510.18505859375,14550.685546875,8707.8408203125,12299.2197265625,21151.701171875,8685.5888671875,-1580.7152099609375,9569.3271484375,7673.10498046875,27424.494140625,7823.30810546875,14549.8916015625,-4845.46044921875,-7993.38037109375,9529.5908203125,5268.255859375,10105.76953125,7392.5654296875,7184.3466796875,7743.83544921875,4590.3525390625,11130.96875,10134.37890625,9129.841796875,-12520.154296875,-0.0,0.0,11501.3125,7696.94677734375,-278.9497375488281,0.0,14386.9716796875
-3112.951904296875,-8451.14453125,8163.4521484375,11800.9248046875,16628.900390625,17611.185546875,14728.705078125,14700.8896484375,14418.76171875,10906.85546875,19253.095703125,0.0,13893.4453125,0.0,14019.0126953125,18016.49609375,28513.2734375,14181.13671875,10042.9853515625,7914.70263671875,5957.28564453125,16454.060546875,14636.5166015625,11440.1181640625,0.0,3490.447998046875,8138.81591796875,6434.12255859375,1125.335693359375,-7639.72607421875,14817.71484375,5194.34619140625,10858.376953125,17654.099609375,10994.275390625,17414.09375,8160.2734375,11730.98828125,6400.744140625,-0.0,7500.6484375,14537.970703125,8699.8935546875,12294.4521484375,21146.931640625,8678.4365234375,-1618.8621826171875,9547.07421875,7662.77294921875,27411.779296875,7818.53955078125,14548.3017578125,-4836.71826171875,-7904.3701171875,9514.4912109375,5255.54052734375,10102.58984375,7382.23388671875,7183.5517578125,7729.5302734375,4588.7626953125,11122.2265625,10125.63671875,9116.33203125,-12521.744140625,-0.0,0.0,11487.8017578125,7693.767578125,-296.43377685546875,0.0,14371.8720703125
-3129.641357421875,-8457.5009765625,8160.2734375,11793.7724609375,16621.748046875,17604.828125,14723.1416015625,14696.916015625,14411.6083984375,10902.8818359375,19239.583984375,0.0,13889.4716796875,0.0,14017.4228515625,18011.728515625,28502.146484375,14177.1630859375,10038.216796875,7907.5498046875,5947.74853515625,16447.703125,14629.3642578125,11433.7607421875,0.0,3509.521484375,8136.431640625,6432.533203125,1115.7989501953125,-7655.62060546875,14809.767578125,5176.0673828125,10850.4296875,17642.1796875,10990.3017578125,17408.529296875,8154.7099609375,11727.015625,6384.0546875,-0.0,7495.08544921875,14526.0498046875,8695.1259765625,12289.68359375,21140.576171875,8671.2841796875,-1634.7567138671875,9539.126953125,7656.41552734375,27403.03515625,7811.3876953125,14545.123046875,-4831.94970703125,-7901.19189453125,9499.390625,5232.4931640625,10096.232421875,7367.13427734375,7175.6044921875,7726.35107421875,4561.7421875,11116.6640625,10119.279296875,9109.1796875,-12527.306640625,-0.0,0.0,11476.67578125,7683.43603515625,-301.9968566894531,0.0,14362.3349609375
-3095.4677734375,-8451.9384765625,8162.65771484375,11804.8984375,16627.3125,17589.7265625,14727.91015625,14703.2734375,14417.9658203125,10914.0078125,19245.943359375,0.0,13890.2666015625,0.0,14020.6025390625,18011.728515625,28503.736328125,14178.7529296875,10041.396484375,7917.880859375,5949.33837890625,16441.345703125,14632.54296875,11434.5546875,0.0,3577.0732421875,8139.6103515625,6449.22265625,1113.414794921875,-7623.03662109375,14812.15234375,5174.47802734375,10851.2236328125,17643.76953125,10995.0703125,17404.556640625,8162.65771484375,11730.98828125,6364.98095703125,-0.0,7499.05908203125,14510.94921875,8697.509765625,12288.09375,21146.138671875,8679.23046875,-1617.272705078125,9551.0478515625,7658.7998046875,27404.626953125,7814.56640625,14550.685546875,-4831.94970703125,-7951.259765625,9509.72265625,5249.97705078125,10105.76953125,7367.92919921875,7181.96240234375,7739.86181640625,4560.15234375,11121.4326171875,10125.63671875,9119.5107421875,-12529.6904296875,-0.0,0.0,11475.0859375,7686.615234375,-287.6917419433594,0.0,14374.255859375
-3086.725830078125,-8422.5341796875,8174.57861328125,11819.203125,16643.205078125,17600.85546875,14744.599609375,14722.34765625,14433.8603515625,10937.0546875,19254.68359375,0.0,13906.9560546875,0.0,14037.2919921875,18027.625,28521.21875,14194.6474609375,10057.2900390625,7938.54443359375,5966.02783203125,16453.265625,14648.4375,11449.654296875,0.0,3596.146728515625,8155.50537109375,6473.859375,1122.9515380859375,-7611.11572265625,14827.2509765625,5199.1142578125,10868.708984375,17660.458984375,11007.7861328125,17414.888671875,8176.962890625,11747.677734375,6415.04931640625,-0.0,7515.74853515625,14517.3076171875,8714.19921875,12302.3984375,21161.23828125,8700.6884765625,-1599.7886962890625,9564.55859375,7678.66748046875,27411.779296875,7830.46044921875,14568.169921875,-4817.64453125,-7932.18603515625,9535.94921875,5281.7666015625,10128.021484375,7397.33349609375,7195.47265625,7770.8564453125,4602.2734375,11138.1220703125,10143.12109375,9140.173828125,-12513.796875,-0.0,0.0,11502.1064453125,7699.33056640625,-265.4393615722656,0.0,14396.5078125
-3095.4677734375,-8374.0546875,8181.7314453125,11826.35546875,16656.716796875,17617.544921875,14757.3154296875,14727.115234375,14442.603515625,10945.0029296875,19280.91015625,0.0,13925.234375,0.0,14059.5439453125,18026.828125,28533.935546875,14204.1845703125,10066.8271484375,7949.669921875,5977.15380859375,16469.16015625,14660.3583984375,11458.396484375,0.0,3597.736328125,8171.39892578125,6455.580078125,1144.4091796875,-7619.06298828125,14839.171875,5216.5986328125,10879.0400390625,17675.55859375,11017.322265625,17429.986328125,8187.2939453125,11756.419921875,6419.8173828125,-0.0,7525.28515625,14541.1494140625,8727.7099609375,12309.55078125,21170.775390625,8707.8408203125,-1567.99951171875,9573.30078125,7692.97265625,27426.87890625,7847.14990234375,14572.1435546875,-4829.5654296875,-7894.83349609375,9553.4326171875,5284.94482421875,10148.6845703125,7425.1494140625,7202.62548828125,7782.77734375,4611.81005859375,11148.453125,10153.453125,9150.5048828125,-12505.8486328125,-0.0,0.0,11511.6435546875,7708.07275390625,-262.26043701171875,0.0,14406.044921875
-3106.593994140625,-8410.61328125,8177.75732421875,11831.919921875,16647.974609375,17610.392578125,14746.189453125,14707.248046875,14422.734375,10922.75,19282.5,0.0,13901.392578125,0.0,14053.98046875,18014.11328125,28528.37109375,14193.0576171875,10054.90625,7928.21240234375,5969.20654296875,16464.392578125,14650.02734375,11446.4755859375,0.0,3574.689208984375,8161.06787109375,6423.79150390625,1138.0513916015625,-7625.4208984375,14832.01953125,5211.830078125,10872.681640625,17670.7890625,11009.3759765625,17422.041015625,8173.783203125,11740.525390625,6389.6181640625,-0.0,7518.1328125,14541.1494140625,8716.5830078125,12296.041015625,21158.060546875,8688.767578125,-1571.178466796875,9580.453125,7680.25732421875,27423.701171875,7836.81884765625,14549.095703125,-4843.87060546875,-7906.75439453125,9509.72265625,5294.48193359375,10141.5322265625,7411.638671875,7187.525390625,7765.29296875,4595.91552734375,11134.1474609375,10136.763671875,9122.689453125,-12513.0009765625,-0.0,0.0,11499.72265625,7690.58837890625,-274.1813659667969,0.0,14387.7666015625
-3134.40966796875,-8442.40234375,8177.75732421875,11817.6142578125,16648.76953125,17604.828125,14742.21484375,14702.4794921875,14416.376953125,10910.0341796875,19276.142578125,0.0,13885.498046875,0.0,14043.6484375,18009.34375,28516.451171875,14189.083984375,10049.3427734375,7917.880859375,5964.43798828125,16455.650390625,14644.4638671875,11440.1181640625,0.0,3557.205078125,8155.50537109375,6430.94384765625,1104.6727294921875,-7656.41552734375,14824.0732421875,5189.57763671875,10867.119140625,17658.076171875,11005.4013671875,17414.888671875,8167.42626953125,11733.373046875,6416.638671875,-0.0,7522.10595703125,14528.43359375,8711.814453125,12292.0673828125,21150.908203125,8679.23046875,-1575.152099609375,9566.1474609375,7681.8466796875,27413.369140625,7829.666015625,14544.328125,-4849.43408203125,-7966.359375,9481.9072265625,5283.35546875,10120.869140625,7395.744140625,7185.14111328125,7752.5771484375,4572.0732421875,11124.611328125,10128.8154296875,9115.537109375,-12533.6650390625,-0.0,0.0,11510.0546875,7688.9990234375,-275.77081298828125,0.0,14373.4619140625
-3133.61474609375,-8486.9072265625,8163.4521484375,11790.5927734375,16632.080078125,17588.138671875,14731.8837890625,14695.3271484375,14418.76171875,10911.6240234375,19270.578125,0.0,13882.3193359375,0.0,14028.548828125,18002.19140625,28500.556640625,14175.57421875,10041.396484375,7917.880859375,5949.33837890625,16438.9609375,14633.337890625,11430.5810546875,0.0,3548.463134765625,8141.99462890625,6423.79150390625,1106.26220703125,-7648.4677734375,14809.767578125,5170.50390625,10852.01953125,17641.38671875,10991.0966796875,17401.376953125,8159.47802734375,11726.2197265625,6392.796875,-0.0,7502.23779296875,14506.9765625,8699.099609375,12280.94140625,21146.138671875,8675.2578125,-1592.6361083984375,9537.537109375,7662.77294921875,27399.0625,7820.12939453125,14539.5595703125,-4865.328125,-7983.04833984375,9508.1328125,5276.203125,10092.2587890625,7388.591796875,7185.14111328125,7745.4248046875,4549.8212890625,11109.51171875,10124.046875,9118.7158203125,-12534.458984375,-0.0,0.0,11518.001953125,7695.35693359375,-268.6182556152344,0.0,14373.4619140625
-3147.919921875,-8488.49609375,8160.2734375,11784.236328125,16628.107421875,17587.34375,14727.91015625,14689.7626953125,14415.58203125,10907.650390625,19269.78515625,0.0,13882.3193359375,0.0,14016.6279296875,17999.013671875,28494.19921875,14169.2158203125,10035.83203125,7913.11279296875,5944.56982421875,16436.576171875,14629.3642578125,11427.40234375,0.0,3514.289794921875,8134.841796875,6417.43310546875,1107.8516845703125,-7638.93115234375,14804.9990234375,5166.53076171875,10847.2509765625,17635.822265625,10985.5341796875,17396.607421875,8155.50537109375,11721.4521484375,6356.2392578125,-0.0,7503.03271484375,14503.001953125,8696.7158203125,12279.3515625,21141.37109375,8672.873046875,-1616.47802734375,9531.1806640625,7658.0048828125,27394.294921875,7814.56640625,14533.99609375,-4874.07080078125,-7959.20654296875,9523.232421875,5254.74560546875,10084.3115234375,7371.107421875,7181.96240234375,7740.65625,4558.5634765625,11101.5634765625,10121.6630859375,9116.33203125,-12540.8173828125,-0.0,0.0,11510.8486328125,7696.15185546875,-279.7444763183594,0.0,14371.8720703125
-3159.8408203125,-8471.806640625,8165.0419921875,11785.0302734375,16624.1328125,17599.263671875,14731.8837890625,14700.0947265625,14420.349609375,10919.5712890625,19273.7578125,0.0,13888.6767578125,0.0,14020.6025390625,18014.908203125,28496.583984375,14172.39453125,10042.1904296875,7921.0595703125,5947.74853515625,16442.140625,14631.748046875,11433.7607421875,0.0,3534.952880859375,8137.22607421875,6430.94384765625,1114.20947265625,-7671.51513671875,14808.97265625,5165.73583984375,10849.634765625,17635.822265625,10987.91796875,17403.76171875,8161.06787109375,11728.6044921875,6363.39208984375,-0.0,7507.80126953125,14511.744140625,8696.7158203125,12291.2724609375,21146.931640625,8683.205078125,-1640.31982421875,9534.359375,7660.38916015625,27405.419921875,7816.95068359375,14547.5068359375,-4874.07080078125,-7989.40673828125,9523.232421875,5230.90380859375,10094.642578125,7380.64453125,7183.5517578125,7756.55126953125,4537.900390625,11105.537109375,10128.021484375,9128.2529296875,-12536.84375,-0.0,0.0,11518.001953125,7697.7412109375,-269.4129943847656,0.0,14395.7138671875
-3177.324951171875,-8491.67578125,8150.73681640625,11770.7255859375,16612.2109375,17564.296875,14724.7314453125,14689.7626953125,14417.9658203125,10920.365234375,19242.763671875,0.0,13883.908203125,0.0,14021.396484375,18006.166015625,28485.45703125,14161.26953125,10033.4482421875,7918.67529296875,5936.62255859375,16423.06640625,14623.005859375,11416.2763671875,0.0,3514.289794921875,8132.45751953125,6412.6650390625,1117.388427734375,-7641.3154296875,14795.462890625,5152.2255859375,10839.302734375,17623.10546875,10977.5859375,17384.6875,8153.91552734375,11717.478515625,6378.49169921875,-0.0,7493.49609375,14487.107421875,8687.97265625,12266.6357421875,21141.37109375,8677.6416015625,-1654.625,9517.669921875,7651.64697265625,27359.328125,7812.18212890625,14536.380859375,-4889.17041015625,-8021.1953125,9504.1591796875,5225.34033203125,10097.0263671875,7367.13427734375,7181.16748046875,7752.5771484375,4522.80029296875,11095.2060546875,10122.4580078125,9134.6103515625,-12536.048828125,-0.0,0.0,11498.927734375,7698.5361328125,-270.2077331542969,0.0,14406.83984375
-3172.556640625,-8509.953125,8141.99462890625,11785.0302734375,16610.623046875,17575.421875,14723.9375,14690.55859375,14410.8134765625,10900.4970703125,19244.3515625,0.0,13889.4716796875,0.0,14019.806640625,18002.19140625,28487.83984375,14162.8583984375,10031.859375,7906.75439453125,5935.82763671875,16430.21875,14623.80078125,11421.0439453125,0.0,3538.1318359375,8132.45751953125,6419.02294921875,1117.388427734375,-7677.873046875,14797.0517578125,5152.2255859375,10835.330078125,17629.46484375,10975.9970703125,17390.251953125,8153.12109375,11717.478515625,6380.8759765625,-0.0,7474.42236328125,14500.6181640625,8687.1787109375,12272.994140625,21136.6015625,8673.66796875,-1628.39892578125,9530.384765625,7652.44140625,27386.34765625,7809.7978515625,14539.5595703125,-4884.40185546875,-8045.83251953125,9506.54296875,5254.74560546875,10097.0263671875,7361.57080078125,7176.3994140625,7755.75634765625,4517.2373046875,11096.0009765625,10116.1005859375,9117.9208984375,-12541.611328125,-0.0,0.0,11488.5966796875,7688.9990234375,-287.6917419433594,0.0,14377.4345703125
-3132.820068359375,-8489.291015625,8150.73681640625,11801.7197265625,16618.5703125,17592.90625,14728.705078125,14698.505859375,14413.9931640625,10907.650390625,19257.068359375,0.0,13900.59765625,0.0,14027.7548828125,18009.34375,28492.609375,14171.6005859375,10037.421875,7912.318359375,5942.18603515625,16442.140625,14627.7744140625,11429.787109375,0.0,3545.2841796875,8138.81591796875,6427.7646484375,1115.004150390625,-7672.31005859375,14804.2041015625,5156.19921875,10840.892578125,17639.001953125,10982.3544921875,17400.583984375,8157.09423828125,11725.42578125,6369.74951171875,-0.0,7485.54833984375,14516.5126953125,8692.7412109375,12285.708984375,21141.37109375,8678.4365234375,-1595.020263671875,9547.8701171875,7658.0048828125,27406.21484375,7816.1552734375,14548.3017578125,-4878.8388671875,-8058.5478515625,9515.28515625,5268.255859375,10101.0009765625,7373.49169921875,7181.96240234375,7759.72998046875,4535.51611328125,11103.947265625,10119.279296875,9116.33203125,-12539.2275390625,-0.0,0.0,11495.7490234375,7691.38330078125,-282.9233703613281,0.0,14374.255859375
-3135.9990234375,-8471.01171875,8142.7890625,11800.9248046875,16613.802734375,17588.93359375,14724.7314453125,14692.9423828125,14413.197265625,10908.4443359375,19239.583984375,0.0,13890.2666015625,0.0,14022.986328125,18005.37109375,28483.072265625,14162.8583984375,10031.064453125,7914.70263671875,5934.23828125,16434.98828125,14623.005859375,11422.6337890625,0.0,3506.342529296875,8134.04736328125,6416.638671875,1118.18310546875,-7658.7998046875,14796.2568359375,5145.86767578125,10832.9462890625,17628.669921875,10975.201171875,17395.01953125,8150.73681640625,11717.478515625,6356.2392578125,-0.0,7480.7802734375,14515.7177734375,8687.1787109375,12276.966796875,21137.396484375,8673.66796875,-1606.146484375,9546.2802734375,7652.44140625,27387.142578125,7812.97705078125,14541.943359375,-4878.0439453125,-8065.70068359375,9513.6953125,5263.4873046875,10100.205078125,7376.6708984375,7181.16748046875,7744.63037109375,4525.9794921875,11093.6162109375,10116.1005859375,9125.869140625,-12525.7177734375,-0.0,0.0,11502.90234375,7689.7939453125,-275.77081298828125,0.0,14391.740234375
-3155.867431640625,-8478.958984375,8141.2001953125,11789.798828125,16615.390625,17593.703125,14726.3212890625,14695.3271484375,14416.376953125,10906.85546875,19240.37890625,0.0,13887.087890625,0.0,14023.78125,18008.55078125,28483.8671875,14166.037109375,10032.654296875,7916.291015625,5933.443359375,16438.166015625,14624.595703125,11425.8125,0.0,3532.568603515625,8134.841796875,6418.22802734375,1128.5146484375,-7665.1572265625,14796.2568359375,5149.84130859375,10833.740234375,17629.46484375,10977.5859375,17396.607421875,8153.12109375,11720.6572265625,6358.62353515625,-0.0,7479.98583984375,14523.6650390625,8687.97265625,12281.7353515625,21140.576171875,8676.8466796875,-1623.6304931640625,9536.7431640625,7655.62060546875,27389.52734375,7816.1552734375,14543.533203125,-4885.19677734375,-8035.50048828125,9508.927734375,5232.4931640625,10101.0009765625,7371.107421875,7182.7568359375,7754.1669921875,4514.05859375,11093.6162109375,10117.6904296875,9129.841796875,-12519.359375,-0.0,0.0,11495.7490234375,7694.5625,-278.1549987792969,0.0,14398.09765625
-3162.22509765625,-8499.6220703125,8140.40478515625,11781.8515625,16618.5703125,17580.19140625,14732.6787109375,14698.505859375,14421.939453125,10905.265625,19255.48046875,0.0,13890.2666015625,0.0,14030.138671875,18020.470703125,28482.279296875,14163.6533203125,10036.6279296875,7913.9072265625,5932.64892578125,16430.21875,14627.7744140625,11424.2236328125,0.0,3545.2841796875,8139.6103515625,6423.79150390625,1126.9251708984375,-7653.236328125,14792.283203125,5149.84130859375,10835.330078125,17625.490234375,10978.380859375,17389.455078125,8157.88916015625,11723.0419921875,6361.802734375,-0.0,7485.54833984375,14505.38671875,8692.7412109375,12279.3515625,21143.755859375,8677.6416015625,-1633.9620361328125,9528.7958984375,7659.59423828125,27384.7578125,7820.12939453125,14551.48046875,-4888.3759765625,-7994.1748046875,9507.3388671875,5244.4140625,10104.9736328125,7376.6708984375,7188.3203125,7758.935546875,4521.2109375,11092.822265625,10123.2529296875,9123.484375,-12524.1279296875,-0.0,0.0,11487.8017578125,7703.30419921875,-288.4864807128906,0.0,14376.640625
-3163.019775390625,-8493.2646484375,8132.45751953125,11750.0615234375,16613.802734375,17565.091796875,14732.6787109375,14696.12109375,14423.529296875,10910.828125,19253.095703125,0.0,13889.4716796875,0.0,14030.93359375,18023.6484375,28472.7421875,14155.705078125,10034.2431640625,7916.291015625,5927.0859375,16412.734375,14623.80078125,11414.6875,0.0,3508.726806640625,8137.22607421875,6419.8173828125,1118.18310546875,-7652.44140625,14785.92578125,5144.27783203125,10826.587890625,17612.775390625,10972.8173828125,17379.125,8156.2998046875,11721.4521484375,6356.2392578125,-0.0,7478.39599609375,14472.0078125,8691.1513671875,12269.814453125,21144.548828125,8676.0517578125,-1640.31982421875,9496.2119140625,7655.62060546875,27368.068359375,7820.12939453125,14553.0703125,-4902.6806640625,-7952.849609375,9504.9541015625,5216.5986328125,10105.76953125,7373.49169921875,7189.90966796875,7741.451171875,4524.3896484375,11086.4638671875,10124.8427734375,9127.4580078125,-12532.0751953125,-0.0,0.0,11490.9814453125,7705.6884765625,-285.30755615234375,0.0,14379.8193359375
-3192.4248046875,-8495.6484375,8117.3583984375,11734.16796875,16602.673828125,17557.939453125,14724.7314453125,14688.96875,14418.76171875,10919.5712890625,19237.99609375,0.0,13882.3193359375,0.0,14026.1650390625,18009.34375,28457.640625,14145.3740234375,10027.8857421875,7920.26513671875,5916.75439453125,16401.609375,14615.853515625,11406.7392578125,0.0,3476.9375,8130.8681640625,6411.07568359375,1106.26220703125,-7666.74658203125,14775.59375,5120.43603515625,10813.0771484375,17597.67578125,10961.69140625,17367.998046875,8147.55712890625,11715.888671875,6331.6025390625,-0.0,7464.0908203125,14460.0869140625,8682.41015625,12258.6884765625,21139.779296875,8672.873046875,-1645.8829345703125,9479.5224609375,7644.49462890625,27354.55859375,7814.56640625,14543.533203125,-4926.52294921875,-7990.201171875,9496.2119140625,5184.80908203125,10100.205078125,7359.1865234375,7184.3466796875,7727.94091796875,4490.216796875,11080.9013671875,10120.07421875,9133.8154296875,-12540.8173828125,-0.0,0.0,11495.7490234375,7700.125,-270.2077331542969,0.0,14406.83984375
-3203.551025390625,-8502.0068359375,8129.279296875,11782.646484375,16611.41796875,17580.986328125,14727.115234375,14692.1474609375,14419.5556640625,10929.107421875,19238.791015625,0.0,13884.7041015625,0.0,14027.7548828125,18005.37109375,28471.150390625,14160.4736328125,10035.0380859375,7922.6494140625,5928.67529296875,16424.65625,14622.2119140625,11420.25,0.0,3537.337158203125,8136.431640625,6422.99658203125,1105.4674072265625,-7684.23095703125,14787.5146484375,5125.99951171875,10824.203125,17617.544921875,10972.0234375,17384.6875,8152.32568359375,11721.4521484375,6345.90771484375,-0.0,7473.62744140625,14501.412109375,8687.97265625,12273.7880859375,21142.958984375,8677.6416015625,-1638.7303466796875,9528.0009765625,7650.85205078125,27386.34765625,7817.7451171875,14539.5595703125,-4919.3701171875,-8020.40087890625,9495.41796875,5268.255859375,10104.1796875,7367.92919921875,7185.14111328125,7736.68310546875,4509.2900390625,11093.6162109375,10123.2529296875,9132.2255859375,-12536.048828125,-0.0,0.0,11498.1337890625,7697.7412109375,-264.6446228027344,0.0,14410.8134765625
-3181.298583984375,-8527.4384765625,8135.63623046875,11781.056640625,16617.775390625,17584.166015625,14731.8837890625,14696.12109375,14427.5029296875,10934.6708984375,19241.96875,0.0,13885.498046875,0.0,14031.7275390625,18007.755859375,28475.919921875,14165.2421875,10037.421875,7930.59619140625,5933.443359375,16426.244140625,14627.7744140625,11426.6083984375,0.0,3519.05810546875,8141.99462890625,6430.14892578125,1107.0570068359375,-7661.18359375,14790.6943359375,5136.3310546875,10828.177734375,17619.927734375,10976.791015625,17387.8671875,8157.88916015625,11724.630859375,6353.85498046875,-0.0,7480.7802734375,14497.439453125,8693.5361328125,12276.966796875,21149.31640625,8683.205078125,-1652.24072265625,9528.0009765625,7655.62060546875,27387.142578125,7822.513671875,14541.1494140625,-4901.8857421875,-8008.47998046875,9493.828125,5273.81884765625,10104.9736328125,7368.7236328125,7191.4990234375,7750.193359375,4525.1845703125,11098.384765625,10127.2265625,9140.96875,-12534.458984375,-0.0,0.0,11492.5703125,7703.30419921875,-267.82354736328125,0.0,14406.83984375
-3178.914306640625,-8544.1279296875,8140.40478515625,11761.9833984375,16623.337890625,17585.75390625,14738.2421875,14696.916015625,14431.4765625,10935.4658203125,19239.583984375,0.0,13898.2138671875,0.0,14038.0859375,17999.806640625,28476.71484375,14170.0107421875,10041.396484375,7934.5703125,5935.82763671875,16427.041015625,14630.9541015625,11428.9921875,0.0,3494.421630859375,8145.96826171875,6422.99658203125,1118.18310546875,-7643.69970703125,14793.078125,5141.89404296875,10830.5615234375,17619.1328125,10981.5595703125,17390.251953125,8160.2734375,11728.6044921875,6334.78173828125,-0.0,7485.54833984375,14487.90234375,8699.099609375,12279.3515625,21153.291015625,8684.7939453125,-1636.34619140625,9507.3388671875,7664.3623046875,27389.52734375,7828.87158203125,14541.1494140625,-4903.47509765625,-8027.5537109375,9500.185546875,5213.41943359375,10114.5107421875,7354.41845703125,7196.267578125,7755.75634765625,4511.67431640625,11103.1533203125,10131.2001953125,9143.3525390625,-12535.2548828125,-0.0,0.0,11494.16015625,7704.09912109375,-267.82354736328125,0.0,14404.4560546875
-3194.80908203125,-8525.8486328125,8143.58447265625,11782.646484375,16629.6953125,17605.623046875,14744.599609375,14701.68359375,14437.8349609375,10934.6708984375,19240.37890625,0.0,13926.8232421875,0.0,14048.4169921875,17999.013671875,28488.63671875,14180.3427734375,10050.1376953125,7937.7490234375,5943.775390625,16442.140625,14638.1064453125,11439.3232421875,0.0,3522.237060546875,8157.09423828125,6419.8173828125,1137.256591796875,-7667.54150390625,14804.2041015625,5149.84130859375,10839.302734375,17631.0546875,10990.3017578125,17405.3515625,8169.01513671875,11735.7568359375,6337.166015625,-0.0,7490.31689453125,14511.744140625,8707.046875,12292.8623046875,21158.060546875,8688.767578125,-1654.625,9528.0009765625,7668.33642578125,27404.626953125,7836.0244140625,14541.943359375,-4889.17041015625,-8034.7060546875,9517.669921875,5248.3876953125,10136.763671875,7357.59716796875,7201.83056640625,7757.345703125,4514.05859375,11115.8681640625,10137.5576171875,9141.7626953125,-12528.1015625,-0.0,0.0,11498.927734375,7705.6884765625,-269.4129943847656,0.0,14399.6875
-3196.3984375,-8541.7431640625,8145.1728515625,11785.8251953125,16632.080078125,17597.67578125,14745.39453125,14702.4794921875,14436.2451171875,10926.7236328125,19250.7109375,0.0,13919.6708984375,0.0,14050.8017578125,18008.55078125,28491.81640625,14181.13671875,10050.1376953125,7933.77587890625,5946.9541015625,16438.9609375,14639.6953125,11439.3232421875,0.0,3517.46875,8158.68359375,6428.5595703125,1129.309326171875,-7656.41552734375,14804.2041015625,5152.2255859375,10841.6875,17631.849609375,10991.0966796875,17404.556640625,8170.6044921875,11737.3466796875,6357.82861328125,-0.0,7493.49609375,14508.5654296875,8708.63671875,12290.4775390625,21158.853515625,8687.97265625,-1660.9827880859375,9531.974609375,7670.720703125,27376.017578125,7837.61328125,14545.91796875,-4882.017578125,-8043.4482421875,9516.875,5253.15625,10139.1474609375,7379.85009765625,7200.2412109375,7754.96142578125,4513.263671875,11117.4580078125,10135.9677734375,9136.2001953125,-12527.306640625,-0.0,0.0,11511.6435546875,7709.662109375,-271.00244140625,0.0,14389.35546875
-3210.70361328125,-8559.2265625,8145.1728515625,11777.0830078125,16619.36328125,17565.884765625,14733.4736328125,14687.37890625,14421.939453125,10902.8818359375,19243.55859375,0.0,13897.4189453125,0.0,14042.0595703125,18002.19140625,28481.484375,14166.83203125,10032.654296875,7916.291015625,5935.82763671875,16421.4765625,14626.185546875,11417.8662109375,0.0,3515.08447265625,8146.7626953125,6413.4599609375,1126.9251708984375,-7658.7998046875,14789.8984375,5145.86767578125,10831.3564453125,17618.337890625,10977.5859375,17383.09765625,8157.09423828125,11719.0673828125,6327.62890625,-0.0,7483.958984375,14487.90234375,8695.1259765625,12266.6357421875,21144.548828125,8668.8994140625,-1605.351806640625,9523.232421875,7659.59423828125,27380.78515625,7826.4873046875,14533.99609375,-4905.859375,-8064.11083984375,9500.98046875,5256.3349609375,10120.07421875,7380.64453125,7187.525390625,7735.09375,4504.52197265625,11101.5634765625,10118.484375,9124.279296875,-12530.486328125,-0.0,0.0,11491.775390625,7700.919921875,-293.2548522949219,0.0,14368.693359375
-3228.982177734375,-8556.048828125,8141.2001953125,11765.95703125,16612.2109375,17569.064453125,14724.7314453125,14687.37890625,14411.6083984375,10898.9072265625,19220.509765625,0.0,13880.7294921875,0.0,14033.3173828125,18009.34375,28474.330078125,14159.6796875,10026.2958984375,7909.138671875,5928.67529296875,16415.9140625,14618.2373046875,11415.4814453125,0.0,3510.316162109375,8136.431640625,6418.22802734375,1124.5408935546875,-7667.54150390625,14781.9521484375,5134.7412109375,10824.203125,17609.595703125,10970.43359375,17380.71484375,8148.3525390625,11714.298828125,6342.72900390625,-0.0,7479.98583984375,14484.72265625,8686.3828125,12266.6357421875,21136.6015625,8666.515625,-1610.1201171875,9511.3115234375,7650.85205078125,27381.578125,7816.95068359375,14537.1748046875,-4927.3173828125,-8089.54248046875,9477.138671875,5231.69873046875,10102.58984375,7381.439453125,7180.37255859375,7729.5302734375,4494.98486328125,11098.384765625,10112.1259765625,9113.15234375,-12543.99609375,-0.0,0.0,11480.6494140625,7695.35693359375,-298.8179626464844,0.0,14370.2822265625
-3240.1083984375,-8583.86328125,8123.71533203125,11752.4462890625,16596.31640625,17553.96484375,14708.0419921875,14669.8955078125,14392.53515625,10879.833984375,19214.15234375,0.0,13857.6826171875,0.0,14015.833984375,17993.44921875,28454.462890625,14142.1953125,10009.6064453125,7890.0654296875,5911.19140625,16400.814453125,14599.958984375,11398.7919921875,0.0,3497.6005859375,8120.53662109375,6399.15478515625,1092.7518310546875,-7670.720703125,14766.056640625,5112.4892578125,10807.5146484375,17592.111328125,10955.333984375,17364.8203125,8130.8681640625,11696.8154296875,6331.6025390625,-0.0,7468.06494140625,14473.59765625,8668.8994140625,12249.15234375,21117.529296875,8648.236328125,-1637.140869140625,9500.98046875,7637.341796875,27360.12109375,7801.8505859375,14523.6650390625,-4935.2646484375,-8089.54248046875,9475.548828125,5198.31982421875,10088.2841796875,7359.9814453125,7161.29931640625,7704.8935546875,4467.96435546875,11081.6953125,10093.052734375,9091.6953125,-12562.275390625,-0.0,0.0,11464.7548828125,7679.46240234375,-313.1230773925781,0.0,14356.7724609375
-3194.80908203125,-8560.021484375,8120.53662109375,11770.7255859375,16605.853515625,17571.44921875,14715.1943359375,14679.431640625,14390.9453125,10886.1923828125,19221.306640625,0.0,13873.5771484375,0.0,14016.6279296875,17997.423828125,28470.357421875,14156.5009765625,10019.9384765625,7894.83349609375,5923.1123046875,16417.50390625,14610.291015625,11413.09765625,0.0,3507.931884765625,8128.48388671875,6412.6650390625,1103.8780517578125,-7646.87890625,14780.3623046875,5129.97314453125,10816.2568359375,17608.0078125,10966.4599609375,17381.509765625,8141.2001953125,11707.146484375,6360.212890625,-0.0,7469.654296875,14491.8759765625,8678.4365234375,12264.251953125,21123.88671875,8656.1845703125,-1644.29345703125,9519.259765625,7647.67333984375,27376.810546875,7804.23486328125,14532.4072265625,-4911.4228515625,-8052.9853515625,9507.3388671875,5226.93017578125,10097.8212890625,7374.28662109375,7162.09423828125,7717.609375,4477.5009765625,11099.1796875,10098.6162109375,9090.1064453125,-12553.5322265625,-0.0,0.0,11478.2646484375,7663.56787109375,-301.2021484375,0.0,14363.1298828125
-3199.577392578125,-8527.4384765625,8117.3583984375,11768.3408203125,16608.23828125,17575.421875,14719.962890625,14684.9951171875,14402.072265625,10892.55078125,19221.306640625,0.0,13882.3193359375,0.0,14020.6025390625,17995.833984375,28469.5625,14162.0634765625,10026.2958984375,7908.34423828125,5924.70166015625,16420.68359375,14614.2646484375,11417.8662109375,0.0,3500.779296875,8134.04736328125,6414.2548828125,1113.414794921875,-7666.74658203125,14783.5419921875,5131.5625,10815.4609375,17610.392578125,10969.638671875,17384.6875,8146.7626953125,11712.7099609375,6337.9609375,-0.0,7464.8857421875,14495.0556640625,8683.205078125,12266.6357421875,21130.244140625,8665.720703125,-1653.0355224609375,9514.4912109375,7652.44140625,27376.017578125,7810.5927734375,14533.99609375,-4918.5751953125,-8051.3955078125,9507.3388671875,5228.51953125,10104.1796875,7373.49169921875,7169.24658203125,7739.86181640625,4483.06396484375,11107.921875,10106.5634765625,9103.6162109375,-12548.7646484375,-0.0,0.0,11487.0068359375,7674.69384765625,-291.6654052734375,0.0,14365.513671875
-3223.419189453125,-8546.51171875,8114.97412109375,11751.6513671875,16605.853515625,17567.4765625,14721.552734375,14683.40625,14413.9931640625,10902.8818359375,19230.841796875,0.0,13879.1396484375,0.0,14029.34375,17988.681640625,28462.41015625,14158.884765625,10025.5009765625,7916.291015625,5921.5224609375,16411.146484375,14615.05859375,11414.6875,0.0,3496.010986328125,8134.841796875,6409.486328125,1103.083251953125,-7695.35693359375,14777.9775390625,5123.615234375,10811.48828125,17600.05859375,10966.4599609375,17379.919921875,8146.7626953125,11711.12109375,6316.5029296875,-0.0,7465.6806640625,14480.75,8682.41015625,12262.662109375,21133.421875,8669.6943359375,-1657.8038330078125,9497.0068359375,7650.85205078125,27368.86328125,7816.1552734375,14531.6123046875,-4926.52294921875,-8083.9794921875,9496.2119140625,5224.5458984375,10102.58984375,7365.544921875,7176.3994140625,7751.78271484375,4479.88525390625,11107.921875,10112.921875,9112.3583984375,-12552.73828125,-0.0,0.0,11483.033203125,7699.33056640625,-296.43377685546875,0.0,14358.361328125
-3207.524658203125,-8555.2529296875,8127.689453125,11759.5986328125,16617.775390625,17574.62890625,14728.705078125,14687.37890625,14414.787109375,10909.240234375,19253.095703125,0.0,13882.3193359375,0.0,14037.2919921875,17994.24609375,28471.150390625,14166.037109375,10031.064453125,7919.470703125,5934.23828125,16419.091796875,14624.595703125,11422.6337890625,0.0,3508.726806640625,8143.58447265625,6415.04931640625,1113.414794921875,-7682.6416015625,14785.92578125,5131.5625,10821.8193359375,17608.80078125,10976.791015625,17387.072265625,8153.12109375,11717.478515625,6340.3447265625,-0.0,7484.75390625,14483.1337890625,8691.947265625,12269.814453125,21138.19140625,8671.2841796875,-1645.088134765625,9503.3642578125,7661.18359375,27379.990234375,7821.71923828125,14534.791015625,-4918.5751953125,-8079.21142578125,9500.98046875,5246.00341796875,10106.5634765625,7376.6708984375,7176.3994140625,7750.98779296875,4484.6533203125,11115.8681640625,10116.1005859375,9116.33203125,-12537.638671875,-0.0,0.0,11492.5703125,7693.767578125,-285.30755615234375,0.0,14371.8720703125
-3206.72998046875,-8561.611328125,8122.9208984375,11758.8046875,16612.2109375,17572.244140625,14721.552734375,14679.431640625,14407.634765625,10899.703125,19230.841796875,0.0,13875.9609375,0.0,14022.986328125,17991.06640625,28462.41015625,14162.0634765625,10027.0908203125,7909.93408203125,5928.67529296875,16414.32421875,14619.033203125,11416.2763671875,0.0,3498.395263671875,8132.45751953125,6407.896484375,1100.6990966796875,-7665.9521484375,14781.9521484375,5123.615234375,10817.845703125,17604.033203125,10972.0234375,17382.302734375,8147.55712890625,11712.7099609375,6338.75537109375,-0.0,7483.16455078125,14485.5185546875,8683.9990234375,12263.45703125,21131.833984375,8660.9521484375,-1649.061767578125,9501.7744140625,7650.05712890625,27370.453125,7815.36083984375,14528.43359375,-4928.11181640625,-8076.03173828125,9488.2646484375,5211.830078125,10101.794921875,7366.33935546875,7175.6044921875,7731.11962890625,4486.24267578125,11107.921875,10106.5634765625,9109.9736328125,-12554.328125,-0.0,0.0,11491.775390625,7694.5625,-284.5128479003906,0.0,14371.0771484375
-3216.2666015625,-8538.5634765625,8114.97412109375,11765.162109375,16600.291015625,17576.216796875,14719.962890625,14681.81640625,14415.58203125,10909.240234375,19216.537109375,0.0,13881.5244140625,0.0,14017.4228515625,17991.861328125,28460.8203125,14159.6796875,10027.0908203125,7916.291015625,5919.93310546875,16420.68359375,14615.05859375,11417.0712890625,0.0,3498.395263671875,8130.07373046875,6413.4599609375,1101.493896484375,-7678.66748046875,14781.1572265625,5122.02587890625,10811.48828125,17604.033203125,10966.4599609375,17384.6875,8149.14697265625,11714.298828125,6328.423828125,-0.0,7457.7333984375,14496.6435546875,8678.4365234375,12266.6357421875,21135.01171875,8666.515625,-1649.8565673828125,9508.927734375,7646.083984375,27368.86328125,7811.3876953125,14528.43359375,-4930.49609375,-8096.69482421875,9490.6494140625,5188.783203125,10101.0009765625,7353.6240234375,7183.5517578125,7733.50390625,4480.68017578125,11107.126953125,10111.33203125,9118.7158203125,-12554.328125,-0.0,0.0,11484.623046875,7700.125,-285.30755615234375,0.0,14375.05078125
-3226.59814453125,-8550.484375,8126.89501953125,11787.4140625,16609.033203125,17588.93359375,14731.8837890625,14700.0947265625,14421.939453125,10924.3388671875,19227.662109375,0.0,13888.6767578125,0.0,14026.958984375,18014.908203125,28468.767578125,14169.2158203125,10038.216796875,7929.8017578125,5927.880859375,16431.013671875,14625.3896484375,11429.787109375,0.0,3519.852783203125,8140.40478515625,6446.83837890625,1106.26220703125,-7663.56787109375,14790.6943359375,5124.41015625,10820.2294921875,17615.16015625,10975.9970703125,17395.01953125,8159.47802734375,11727.015625,6328.423828125,-0.0,7464.8857421875,14503.796875,8691.1513671875,12283.3251953125,21147.728515625,8682.41015625,-1658.5985107421875,9533.564453125,7654.82568359375,27383.169921875,7820.923828125,14549.095703125,-4936.85400390625,-8136.431640625,9501.7744140625,5206.26708984375,10110.537109375,7357.59716796875,7186.73095703125,7754.1669921875,4472.732421875,11115.07421875,10123.2529296875,9130.63671875,-12554.328125,-0.0,0.0,11490.9814453125,7700.125,-275.77081298828125,0.0,14391.740234375
-3218.65087890625,-8535.384765625,8139.6103515625,11785.0302734375,16618.5703125,17588.138671875,14734.2685546875,14708.8369140625,14424.32421875,10928.3134765625,19237.19921875,0.0,13895.03515625,0.0,14025.3701171875,18028.41796875,28474.330078125,14172.39453125,10044.5751953125,7935.36474609375,5934.23828125,16426.244140625,14630.9541015625,11430.5810546875,0.0,3527.80029296875,8143.58447265625,6446.04345703125,1102.28857421875,-7669.92578125,14793.873046875,5133.15185546875,10828.177734375,17617.544921875,10979.9697265625,17393.431640625,8162.65771484375,11734.16796875,6349.0869140625,-0.0,7482.3701171875,14495.849609375,8696.7158203125,12286.50390625,21151.701171875,8688.767578125,-1654.625,9529.5908203125,7659.59423828125,27394.294921875,7821.71923828125,14557.8388671875,-4927.3173828125,-8183.31982421875,9507.3388671875,5242.82470703125,10108.1533203125,7375.08154296875,7187.525390625,7762.9091796875,4473.52734375,11113.484375,10128.8154296875,9136.994140625,-12561.48046875,-0.0,0.0,11502.1064453125,7692.97265625,-268.6182556152344,0.0,14398.892578125
-3234.54541015625,-8522.669921875,8138.81591796875,11767.546875,16615.390625,17578.6015625,14727.91015625,14690.55859375,14415.58203125,10911.6240234375,19238.791015625,0.0,13887.087890625,0.0,14022.19140625,18010.138671875,28470.357421875,14163.6533203125,10035.0380859375,7924.2392578125,5931.0595703125,16419.88671875,14623.80078125,11419.455078125,0.0,3513.4951171875,8137.22607421875,6400.744140625,1107.0570068359375,-7657.2099609375,14785.92578125,5129.97314453125,10824.998046875,17611.185546875,10974.4072265625,17384.6875,8153.91552734375,11721.4521484375,6358.62353515625,-0.0,7479.98583984375,14492.6708984375,8691.947265625,12269.0205078125,21141.37109375,8675.2578125,-1635.551513671875,9511.3115234375,7656.41552734375,27386.34765625,7816.95068359375,14539.5595703125,-4933.67529296875,-8112.58984375,9497.8017578125,5240.4404296875,10101.0009765625,7387.00244140625,7180.37255859375,7746.2197265625,4469.5537109375,11102.3583984375,10117.6904296875,9125.869140625,-12574.990234375,-0.0,0.0,11497.337890625,7688.2041015625,-291.6654052734375,0.0,14375.05078125
-3226.59814453125,-8542.5380859375,8141.2001953125,11754.830078125,16619.36328125,17592.111328125,14732.6787109375,14702.4794921875,14421.939453125,10927.517578125,19245.943359375,0.0,13886.2919921875,0.0,14026.958984375,18022.85546875,28471.150390625,14167.6259765625,10041.396484375,7934.5703125,5935.82763671875,16428.62890625,14630.158203125,11430.5810546875,0.0,3511.111083984375,8140.40478515625,6421.4072265625,1121.362060546875,-7660.38916015625,14790.6943359375,5129.97314453125,10827.3818359375,17611.185546875,10978.380859375,17391.83984375,8162.65771484375,11729.3994140625,6345.11328125,-0.0,7483.16455078125,14499.0283203125,8695.919921875,12280.146484375,21146.931640625,8687.1787109375,-1620.4515380859375,9499.390625,7658.7998046875,27394.294921875,7821.71923828125,14554.66015625,-4936.85400390625,-8041.85888671875,9496.2119140625,5242.82470703125,10105.76953125,7393.3603515625,7185.14111328125,7760.52490234375,4482.26953125,11109.51171875,10128.021484375,9133.8154296875,-12558.30078125,-0.0,0.0,11517.20703125,7685.8203125,-274.1813659667969,0.0,14390.9453125
-3233.75048828125,-8547.3056640625,8126.099609375,11735.7568359375,16610.623046875,17580.986328125,14727.115234375,14693.7373046875,14407.634765625,10914.802734375,19234.021484375,0.0,13887.8818359375,0.0,14027.7548828125,18008.55078125,28461.615234375,14159.6796875,10032.654296875,7919.470703125,5923.90673828125,16415.119140625,14622.2119140625,11421.83984375,0.0,3496.010986328125,8138.81591796875,6417.43310546875,1118.18310546875,-7664.3623046875,14780.3623046875,5117.2578125,10816.2568359375,17600.85546875,10969.638671875,17382.302734375,8155.50537109375,11720.6572265625,6340.3447265625,-0.0,7472.0380859375,14483.1337890625,8688.767578125,12272.994140625,21138.986328125,8677.6416015625,-1652.24072265625,9483.4970703125,7654.03125,27381.578125,7819.3349609375,14543.533203125,-4935.2646484375,-8025.9638671875,9501.7744140625,5217.3935546875,10107.3583984375,7379.85009765625,7185.14111328125,7754.1669921875,4487.03759765625,11100.76953125,10117.6904296875,9114.7421875,-12535.2548828125,-0.0,0.0,11503.6962890625,7673.10498046875,-274.1813659667969,0.0,14391.740234375
-3244.876953125,-8543.33203125,8114.1787109375,11735.7568359375,16602.673828125,17559.529296875,14718.373046875,14679.431640625,14391.740234375,10900.4970703125,19225.279296875,0.0,13883.1142578125,0.0,14026.958984375,17989.4765625,28449.693359375,14148.552734375,10023.1171875,7900.3974609375,5915.1650390625,16402.40234375,14613.46875,11406.7392578125,0.0,3501.57421875,8130.8681640625,6404.7177734375,1117.388427734375,-7668.33642578125,14769.236328125,5106.130859375,10807.5146484375,17592.111328125,10960.1025390625,17367.205078125,8145.1728515625,11709.53125,6346.70263671875,-0.0,7464.0908203125,14464.060546875,8680.0263671875,12258.6884765625,21129.44921875,8664.92578125,-1680.0562744140625,9482.701171875,7649.2626953125,27368.068359375,7816.1552734375,14524.4599609375,-4935.2646484375,-8056.16357421875,9504.1591796875,5245.208984375,10106.5634765625,7368.7236328125,7178.783203125,7747.0146484375,4473.52734375,11084.8740234375,10102.58984375,9098.052734375,-12530.486328125,-0.0,0.0,11493.365234375,7665.9521484375,-279.7444763183594,0.0,14389.35546875
-3222.62451171875,-8564.7900390625,8118.947265625,11754.0361328125,16609.033203125,17572.244140625,14725.525390625,14687.37890625,14402.8662109375,10905.265625,19234.021484375,0.0,13878.345703125,0.0,14030.138671875,18001.3984375,28456.052734375,14154.9111328125,10030.26953125,7909.138671875,5923.1123046875,16412.734375,14619.8271484375,11413.8916015625,0.0,3511.111083984375,8136.431640625,6410.28076171875,1111.8253173828125,-7686.615234375,14777.9775390625,5110.8994140625,10813.0771484375,17601.6484375,10965.6650390625,17375.150390625,8149.94140625,11717.478515625,6339.5498046875,-0.0,7468.06494140625,14480.75,8685.5888671875,12267.4306640625,21138.19140625,8671.2841796875,-1660.1881103515625,9499.390625,7655.62060546875,27378.400390625,7820.923828125,14533.2021484375,-4924.93310546875,-8093.51611328125,9503.3642578125,5227.724609375,10108.1533203125,7366.33935546875,7179.578125,7747.80908203125,4461.6064453125,11089.642578125,10113.7158203125,9114.7421875,-12536.048828125,-0.0,0.0,11490.185546875,7681.0517578125,-274.1813659667969,0.0,14393.330078125
-3215.471923828125,-8569.55859375,8126.099609375,11753.2412109375,16615.390625,17574.62890625,14733.4736328125,14694.53125,14418.76171875,10915.5966796875,19241.96875,0.0,13887.087890625,0.0,14034.9072265625,18012.5234375,28461.615234375,14158.08984375,10037.421875,7921.0595703125,5929.47021484375,16414.32421875,14626.185546875,11419.455078125,0.0,3460.248291015625,8142.7890625,6417.43310546875,1117.388427734375,-7656.41552734375,14779.5673828125,5122.02587890625,10817.845703125,17607.212890625,10970.43359375,17378.330078125,8157.88916015625,11724.630859375,6327.62890625,-0.0,7469.654296875,14479.955078125,8691.1513671875,12272.1982421875,21144.548828125,8678.4365234375,-1641.1146240234375,9499.390625,7654.82568359375,27373.6328125,7827.28173828125,14544.328125,-4928.90673828125,-8069.67431640625,9499.390625,5214.21435546875,10110.537109375,7370.31298828125,7179.578125,7754.1669921875,4462.40087890625,11093.6162109375,10122.4580078125,9129.841796875,-12535.2548828125,-0.0,0.0,11490.185546875,7696.15185546875,-262.26043701171875,0.0,14398.892578125
-3224.2138671875,-8596.5791015625,8131.6630859375,11771.51953125,16613.005859375,17592.90625,14731.8837890625,14699.2998046875,14417.9658203125,10920.365234375,19244.3515625,0.0,13891.8564453125,0.0,14030.93359375,18015.703125,28469.5625,14163.6533203125,10037.421875,7920.26513671875,5931.8544921875,16428.62890625,14626.9794921875,11424.2236328125,0.0,3487.26904296875,8140.40478515625,6423.79150390625,1119.7725830078125,-7673.8994140625,14787.5146484375,5129.1787109375,10821.0244140625,17616.748046875,10971.228515625,17390.251953125,8160.2734375,11727.8095703125,6311.73486328125,-0.0,7476.01171875,14504.591796875,8687.97265625,12282.53125,21145.34375,8680.0263671875,-1646.6776123046875,9517.669921875,7653.236328125,27384.7578125,7824.89794921875,14546.7119140625,-4940.82763671875,-8072.05859375,9488.2646484375,5206.26708984375,10107.3583984375,7367.92919921875,7172.42578125,7754.96142578125,4479.88525390625,11094.4111328125,10124.046875,9128.2529296875,-12532.8701171875,-0.0,0.0,11491.775390625,7690.58837890625,-263.8498840332031,0.0,14402.8662109375
-3215.471923828125,-8578.30078125,8120.53662109375,11768.3408203125,16605.05859375,17575.421875,14723.9375,14690.55859375,14418.76171875,10917.1865234375,19221.306640625,0.0,13877.55078125,0.0,14020.6025390625,18002.986328125,28453.66796875,14151.732421875,10031.064453125,7920.26513671875,5918.34423828125,16416.70703125,14617.443359375,11413.8916015625,0.0,3497.6005859375,8130.8681640625,6410.28076171875,1109.441162109375,-7701.71484375,14774.7998046875,5105.33642578125,10807.5146484375,17603.23828125,10962.486328125,17376.7421875,8151.53125,11719.86328125,6294.25048828125,-0.0,7466.47509765625,14495.0556640625,8681.615234375,12271.404296875,21141.37109375,8675.2578125,-1680.0562744140625,9516.875,7646.87890625,27372.041015625,7811.3876953125,14537.1748046875,-4951.1591796875,-8065.70068359375,9463.6279296875,5210.24072265625,10095.4375,7356.0078125,7174.81005859375,7746.2197265625,4460.0166015625,11080.9013671875,10119.279296875,9135.4052734375,-12547.9697265625,-0.0,0.0,11494.16015625,7693.767578125,-278.1549987792969,0.0,14398.09765625
-3212.29296875,-8575.916015625,8124.5107421875,11759.5986328125,16610.623046875,17565.091796875,14725.525390625,14693.7373046875,14412.4033203125,10913.212890625,19221.306640625,0.0,13879.935546875,0.0,14020.6025390625,18013.318359375,28453.66796875,14154.1162109375,10031.859375,7914.70263671875,5922.3173828125,16410.3515625,14619.033203125,11413.09765625,0.0,3506.342529296875,8131.6630859375,6419.02294921875,1107.0570068359375,-7673.10498046875,14774.0048828125,5104.5419921875,10812.2822265625,17597.67578125,10965.6650390625,17371.97265625,8151.53125,11721.4521484375,6306.17138671875,-0.0,7474.42236328125,14477.5703125,8683.9990234375,12268.2255859375,21138.986328125,8676.0517578125,-1684.8245849609375,9504.1591796875,7650.05712890625,27377.60546875,7810.5927734375,14542.7392578125,-4932.88037109375,-8087.95263671875,9477.9326171875,5223.7509765625,10103.384765625,7365.544921875,7177.1943359375,7752.5771484375,4466.375,11080.9013671875,10116.89453125,9123.484375,-12551.943359375,-0.0,0.0,11503.6962890625,7687.40966796875,-274.1813659667969,0.0,14401.2763671875
-3227.392822265625,-8564.7900390625,8141.99462890625,11777.8779296875,16627.3125,17592.111328125,14735.8583984375,14710.4267578125,14405.2509765625,10907.650390625,19253.888671875,0.0,13899.0087890625,0.0,14028.548828125,18037.16015625,28475.919921875,14172.39453125,10041.396484375,7907.5498046875,5940.59619140625,16431.013671875,14631.748046875,11429.787109375,0.0,3542.10546875,8142.7890625,6447.63330078125,1118.18310546875,-7655.62060546875,14795.462890625,5131.5625,10832.150390625,17619.1328125,10981.5595703125,17395.01953125,8160.2734375,11733.373046875,6350.67626953125,-0.0,7491.90673828125,14498.2333984375,8696.7158203125,12291.2724609375,21142.958984375,8683.205078125,-1640.31982421875,9523.232421875,7663.56787109375,27419.724609375,7819.3349609375,14564.9912109375,-4903.47509765625,-8083.18408203125,9506.54296875,5250.77197265625,10113.7158203125,7387.00244140625,7175.6044921875,7759.72998046875,4492.60107421875,11098.384765625,10121.6630859375,9102.8212890625,-12542.4072265625,-0.0,0.0,11505.2861328125,7680.25732421875,-282.128662109375,0.0,14385.3828125
-3230.57177734375,-8570.353515625,8132.45751953125,11784.236328125,16622.54296875,17608.0078125,14731.8837890625,14710.4267578125,14403.6611328125,10904.4716796875,19245.1484375,0.0,13898.2138671875,0.0,14026.958984375,18035.5703125,28473.53515625,14173.984375,10042.1904296875,7904.3701171875,5939.0068359375,16437.373046875,14630.9541015625,11433.7607421875,0.0,3488.063720703125,8138.0205078125,6449.22265625,1126.1304931640625,-7683.43603515625,14797.0517578125,5125.20458984375,10826.587890625,17620.72265625,10979.17578125,17401.376953125,8158.68359375,11732.578125,6349.8818359375,-0.0,7480.7802734375,14518.1015625,8691.947265625,12296.8359375,21142.1640625,8680.0263671875,-1636.34619140625,9530.384765625,7655.62060546875,27419.724609375,7816.95068359375,14564.9912109375,-4909.03857421875,-8122.12646484375,9500.185546875,5294.48193359375,10109.7421875,7394.15478515625,7174.01513671875,7752.5771484375,4484.6533203125,11103.1533203125,10119.279296875,9098.052734375,-12524.1279296875,-0.0,0.0,11507.669921875,7679.46240234375,-282.128662109375,0.0,14374.255859375
-3223.419189453125,-8577.505859375,8118.15283203125,11750.857421875,16610.623046875,17591.318359375,14727.115234375,14696.12109375,14407.634765625,10906.060546875,19228.458984375,0.0,13890.2666015625,0.0,14026.1650390625,18011.728515625,28459.23046875,14162.8583984375,10033.4482421875,7910.728515625,5924.70166015625,16423.861328125,14623.005859375,11421.0439453125,0.0,3453.095703125,8134.04736328125,6420.6123046875,1115.004150390625,-7665.9521484375,14782.74609375,5110.8994140625,10814.6669921875,17603.23828125,10968.048828125,17387.072265625,8153.12109375,11723.0419921875,6327.62890625,-0.0,7468.859375,14499.8232421875,8685.5888671875,12277.7626953125,21141.37109375,8671.2841796875,-1637.140869140625,9496.2119140625,7645.2890625,27365.68359375,7814.56640625,14545.91796875,-4942.4169921875,-8102.2578125,9492.23828125,5203.08837890625,10104.9736328125,7383.8232421875,7180.37255859375,7733.50390625,4468.75927734375,11094.4111328125,10115.3056640625,9109.9736328125,-12544.791015625,-0.0,0.0,11504.4912109375,7688.2041015625,-281.33392333984375,0.0,14375.845703125
-3215.471923828125,-8552.869140625,8114.97412109375,11739.73046875,16602.673828125,17557.939453125,14726.3212890625,14687.37890625,14411.6083984375,10912.41796875,19227.662109375,0.0,13886.2919921875,0.0,14028.548828125,17997.423828125,28452.078125,14151.732421875,10029.4755859375,7918.67529296875,5915.9599609375,16404.787109375,14617.443359375,11408.3291015625,0.0,3534.157958984375,8133.251953125,6411.07568359375,1113.414794921875,-7654.82568359375,14771.62109375,5107.720703125,10806.7197265625,17593.703125,10959.3076171875,17369.587890625,8149.94140625,11715.888671875,6314.11865234375,-0.0,7460.912109375,14467.2392578125,8681.615234375,12258.6884765625,21140.576171875,8671.2841796875,-1638.7303466796875,9485.880859375,7642.1103515625,27358.53125,7813.771484375,14532.4072265625,-4940.82763671875,-8091.9267578125,9500.185546875,5181.63037109375,10104.1796875,7376.6708984375,7183.5517578125,7737.4775390625,4467.16943359375,11084.8740234375,10116.1005859375,9121.89453125,-12544.791015625,-0.0,0.0,11501.3125,7688.2041015625,-282.128662109375,0.0,14382.203125
-3234.54541015625,-8579.890625,8112.58984375,11749.267578125,16604.265625,17559.529296875,14728.705078125,14692.1474609375,14410.8134765625,10921.955078125,19220.509765625,0.0,13879.935546875,0.0,14027.7548828125,18000.603515625,28452.078125,14154.1162109375,10033.4482421875,7923.44384765625,5919.138671875,16406.376953125,14621.4169921875,11410.712890625,0.0,3536.542236328125,8134.04736328125,6415.84375,1110.23583984375,-7650.05712890625,14774.7998046875,5110.10498046875,10806.7197265625,17596.0859375,10964.8701171875,17371.177734375,8153.91552734375,11719.0673828125,6299.81396484375,-0.0,7462.50146484375,14471.212890625,8683.205078125,12264.251953125,21141.37109375,8678.4365234375,-1645.088134765625,9493.828125,7644.49462890625,27364.888671875,7815.36083984375,14536.380859375,-4946.390625,-8127.689453125,9493.033203125,5214.21435546875,10103.384765625,7375.08154296875,7185.14111328125,7747.80908203125,4470.34814453125,11088.0537109375,10120.07421875,9131.431640625,-12542.4072265625,-0.0,0.0,11508.46484375,7686.615234375,-274.1813659667969,0.0,14396.5078125
-3240.903076171875,-8606.1162109375,8114.97412109375,11734.962890625,16602.673828125,17559.529296875,14725.525390625,14688.173828125,14403.6611328125,10917.9814453125,19226.869140625,0.0,13880.7294921875,0.0,14028.548828125,18001.3984375,28451.28515625,14154.9111328125,10031.064453125,7916.291015625,5919.93310546875,16403.19921875,14619.8271484375,11408.3291015625,0.0,3494.421630859375,8133.251953125,6407.896484375,1109.441162109375,-7677.078125,14773.2099609375,5106.92578125,10807.5146484375,17593.703125,10964.8701171875,17369.587890625,8151.53125,11716.68359375,6317.29736328125,-0.0,7463.29638671875,14461.6767578125,8683.205078125,12262.662109375,21136.6015625,8676.0517578125,-1643.498779296875,9480.3173828125,7643.69970703125,27356.943359375,7815.36083984375,14536.380859375,-4967.84814453125,-8117.3583984375,9491.443359375,5198.31982421875,10103.384765625,7363.16064453125,7178.783203125,7747.0146484375,4472.732421875,11090.4375,10116.89453125,9125.0732421875,-12546.3798828125,-0.0,0.0,11510.0546875,7683.43603515625,-267.82354736328125,0.0,14404.4560546875
-3229.777099609375,-8569.55859375,8114.1787109375,11739.73046875,16601.880859375,17556.349609375,14723.1416015625,14690.55859375,14405.2509765625,10909.240234375,19223.689453125,0.0,13885.498046875,0.0,14026.958984375,18011.728515625,28450.48828125,14154.9111328125,10030.26953125,7913.11279296875,5919.138671875,16403.994140625,14616.6484375,11409.9189453125,0.0,3496.805908203125,8132.45751953125,6408.69140625,1107.0570068359375,-7682.6416015625,14771.62109375,5105.33642578125,10804.3359375,17589.7265625,10964.076171875,17370.3828125,8149.94140625,11716.68359375,6318.88720703125,-0.0,7460.912109375,14463.265625,8681.615234375,12259.4833984375,21137.396484375,8675.2578125,-1657.0091552734375,9485.880859375,7642.1103515625,27368.86328125,7815.36083984375,14543.533203125,-4982.1533203125,-8098.28466796875,9484.291015625,5203.8828125,10103.384765625,7365.544921875,7171.630859375,7756.55126953125,4457.63232421875,11092.822265625,10115.3056640625,9122.689453125,-12559.0966796875,-0.0,0.0,11507.669921875,7686.615234375,-268.6182556152344,0.0,14400.482421875
-3217.856201171875,-8565.5849609375,8114.97412109375,11754.0361328125,16609.033203125,17569.064453125,14732.6787109375,14701.68359375,14423.529296875,10918.7763671875,19228.458984375,0.0,13884.7041015625,0.0,14036.49609375,18029.212890625,28455.2578125,14162.8583984375,10039.806640625,7925.03369140625,5924.70166015625,16412.734375,14624.595703125,11419.455078125,0.0,3506.342529296875,8140.40478515625,6422.99658203125,1114.20947265625,-7675.48876953125,14776.388671875,5110.8994140625,10809.8984375,17598.470703125,10969.638671875,17381.509765625,8158.68359375,11727.015625,6310.93994140625,-0.0,7465.6806640625,14477.5703125,8687.1787109375,12272.994140625,21148.5234375,8684.7939453125,-1661.7774658203125,9500.185546875,7649.2626953125,27377.60546875,7824.103515625,14557.8388671875,-4956.72216796875,-8114.97412109375,9474.75390625,5213.41943359375,10109.7421875,7381.439453125,7186.73095703125,7767.67724609375,4448.890625,11104.7431640625,10127.2265625,9128.2529296875,-12556.7119140625,-0.0,0.0,11508.46484375,7713.6357421875,-266.23406982421875,0.0,14398.09765625
-3227.392822265625,-8576.7109375,8109.41015625,11743.705078125,16605.853515625,17568.26953125,14729.5,14694.53125,14428.2978515625,10917.1865234375,19213.357421875,0.0,13876.755859375,0.0,14034.9072265625,18009.34375,28448.10546875,14158.08984375,10035.0380859375,7927.41796875,5919.138671875,16408.76171875,14622.2119140625,11415.4814453125,0.0,3486.474365234375,8138.0205078125,6415.84375,1111.030517578125,-7684.23095703125,14772.4150390625,5102.95263671875,10802.74609375,17591.318359375,10963.2802734375,17378.330078125,8154.7099609375,11722.2470703125,6299.01904296875,-0.0,7460.1171875,14472.0078125,8686.3828125,12268.2255859375,21148.5234375,8677.6416015625,-1676.0826416015625,9491.443359375,7645.2890625,27372.837890625,7823.30810546875,14546.7119140625,-4940.033203125,-8124.5107421875,9459.6552734375,5203.8828125,10107.3583984375,7367.92919921875,7191.4990234375,7749.39892578125,4454.4541015625,11099.1796875,10124.046875,9133.021484375,-12555.9169921875,-0.0,0.0,11499.72265625,7720.78857421875,-275.77081298828125,0.0,14390.1513671875
-3236.9296875,-8590.2216796875,8120.53662109375,11742.115234375,16612.2109375,17577.013671875,14729.5,14692.1474609375,14426.7080078125,10920.365234375,19217.33203125,0.0,13874.37109375,0.0,14028.548828125,17994.24609375,28452.873046875,14162.0634765625,10038.216796875,7929.00732421875,5927.0859375,16412.734375,14623.80078125,11419.455078125,0.0,3494.421630859375,8138.81591796875,6411.87060546875,1101.493896484375,-7688.2041015625,14778.7734375,5104.5419921875,10809.8984375,17595.291015625,10969.638671875,17382.302734375,8153.91552734375,11721.4521484375,6308.5556640625,-0.0,7472.8330078125,14476.7763671875,8687.97265625,12270.609375,21146.931640625,8677.6416015625,-1679.2615966796875,9487.4697265625,7649.2626953125,27369.658203125,7821.71923828125,14537.1748046875,-4947.98046875,-8096.69482421875,9480.3173828125,5187.193359375,10104.9736328125,7361.57080078125,7190.7041015625,7743.04052734375,4473.52734375,11104.7431640625,10125.63671875,9132.2255859375,-12548.7646484375,-0.0,0.0,11494.9541015625,7707.27783203125,-274.1813659667969,0.0,14391.740234375
-3232.161376953125,-8596.5791015625,8133.251953125,11758.8046875,16620.158203125,17574.62890625,14730.2939453125,14692.1474609375,14416.376953125,10917.9814453125,19227.662109375,0.0,13883.1142578125,0.0,14027.7548828125,18002.986328125,28466.3828125,14170.0107421875,10038.216796875,7921.85498046875,5935.82763671875,16417.50390625,14626.185546875,11421.83984375,0.0,3511.111083984375,8141.2001953125,6418.22802734375,1111.8253173828125,-7658.7998046875,14786.720703125,5117.2578125,10823.4091796875,17605.623046875,10977.5859375,17387.072265625,8155.50537109375,11723.0419921875,6347.49755859375,-0.0,7488.7275390625,14485.5185546875,8690.357421875,12269.814453125,21142.958984375,8676.0517578125,-1650.6513671875,9503.3642578125,7658.7998046875,27370.453125,7820.12939453125,14536.380859375,-4936.0595703125,-8069.67431640625,9495.41796875,5211.830078125,10108.1533203125,7375.8759765625,7182.7568359375,7741.451171875,4479.88525390625,11112.6904296875,10122.4580078125,9117.9208984375,-12539.2275390625,-0.0,0.0,11496.5439453125,7688.9990234375,-272.5919189453125,0.0,14394.1240234375
-3233.75048828125,-8605.3212890625,8133.251953125,11770.7255859375,16618.5703125,17573.833984375,14730.2939453125,14695.3271484375,14405.2509765625,10915.5966796875,19243.55859375,0.0,13899.0087890625,0.0,14027.7548828125,18014.908203125,28471.947265625,14173.984375,10036.6279296875,7914.70263671875,5935.82763671875,16423.06640625,14626.185546875,11422.6337890625,0.0,3513.4951171875,8143.58447265625,6426.17578125,1137.256591796875,-7641.3154296875,14789.1044921875,5124.41015625,10824.998046875,17610.392578125,10978.380859375,17388.662109375,8153.91552734375,11723.0419921875,6353.85498046875,-0.0,7476.01171875,14489.4912109375,8691.1513671875,12272.1982421875,21140.576171875,8676.8466796875,-1622.0411376953125,9513.6953125,7668.33642578125,27386.34765625,7817.7451171875,14544.328125,-4920.95947265625,-8101.46337890625,9522.4384765625,5238.05615234375,10112.921875,7387.796875,7174.01513671875,7748.60400390625,4474.32177734375,11116.6640625,10118.484375,9106.794921875,-12528.1015625,-0.0,0.0,11516.412109375,7673.10498046875,-263.05517578125,0.0,14397.3037109375
-3237.724365234375,-8546.51171875,8135.63623046875,11775.4931640625,16621.748046875,17588.138671875,14732.6787109375,14703.2734375,14412.4033203125,10918.7763671875,19251.505859375,0.0,13904.5712890625,0.0,14030.93359375,18023.6484375,28476.71484375,14179.546875,10042.1904296875,7921.0595703125,5939.8017578125,16431.80859375,14630.9541015625,11431.3759765625,0.0,3523.82666015625,8145.96826171875,6432.533203125,1141.230224609375,-7645.2890625,14793.873046875,5131.5625,10828.9716796875,17617.544921875,10981.5595703125,17396.607421875,8157.88916015625,11728.6044921875,6349.0869140625,-0.0,7476.01171875,14500.6181640625,8695.1259765625,12282.53125,21146.138671875,8683.9990234375,-1619.6568603515625,9520.0537109375,7667.54150390625,27395.8828125,7820.12939453125,14553.0703125,-4924.93310546875,-8095.900390625,9526.412109375,5242.82470703125,10114.5107421875,7390.97607421875,7180.37255859375,7758.140625,4475.11669921875,11122.2265625,10123.2529296875,9113.9482421875,-12532.0751953125,-0.0,0.0,11519.591796875,7680.25732421875,-264.6446228027344,0.0,14391.740234375
-3219.445556640625,-8505.185546875,8132.45751953125,11755.6259765625,16619.36328125,17585.75390625,14732.6787109375,14704.068359375,14420.349609375,10924.3388671875,19239.583984375,0.0,13899.0087890625,0.0,14035.7021484375,18021.265625,28471.947265625,14176.369140625,10042.9853515625,7929.00732421875,5936.62255859375,16427.041015625,14630.158203125,11429.787109375,0.0,3511.111083984375,8145.96826171875,6431.73828125,1128.5146484375,-7648.4677734375,14789.8984375,5127.5888671875,10824.998046875,17611.98046875,10979.9697265625,17394.224609375,8161.06787109375,11729.3994140625,6349.0869140625,-0.0,7477.6015625,14492.6708984375,8695.1259765625,12281.7353515625,21148.5234375,8687.1787109375,-1628.39892578125,9500.98046875,7665.1572265625,27390.322265625,7822.513671875,14553.8642578125,-4925.72802734375,-8074.44287109375,9514.4912109375,5243.61962890625,10116.89453125,7385.41259765625,7185.14111328125,7759.72998046875,4494.98486328125,11120.63671875,10127.2265625,9125.869140625,-12533.6650390625,-0.0,0.0,11513.2333984375,7692.97265625,-266.23406982421875,0.0,14398.09765625
-3239.313720703125,-8564.7900390625,8119.7421875,11743.705078125,16603.470703125,17576.216796875,14718.373046875,14688.173828125,14402.8662109375,10902.0869140625,19226.869140625,0.0,13879.935546875,0.0,14026.1650390625,18010.138671875,28456.845703125,14161.26953125,10027.0908203125,7909.93408203125,5923.90673828125,16416.70703125,14615.853515625,11416.2763671875,0.0,3494.421630859375,8133.251953125,6417.43310546875,1101.493896484375,-7677.078125,14777.18359375,5114.07861328125,10809.8984375,17599.263671875,10964.8701171875,17381.509765625,8146.7626953125,11715.0947265625,6344.318359375,-0.0,7464.8857421875,14484.72265625,8678.4365234375,12269.0205078125,21130.244140625,8669.6943359375,-1648.26708984375,9490.6494140625,7650.85205078125,27379.193359375,7809.7978515625,14540.3544921875,-4934.4697265625,-8105.4375,9495.41796875,5221.36669921875,10108.947265625,7368.7236328125,7169.24658203125,7736.68310546875,4479.88525390625,11103.947265625,10109.7421875,9107.58984375,-12548.7646484375,-0.0,0.0,11488.5966796875,7681.8466796875,-294.0495910644531,0.0,14376.640625
-3249.645263671875,-8606.1162109375,8118.947265625,11757.21484375,16604.265625,17580.986328125,14719.1689453125,14691.3525390625,14406.044921875,10901.2919921875,19225.279296875,0.0,13879.935546875,0.0,14030.138671875,18015.703125,28457.640625,14162.0634765625,10030.26953125,7912.318359375,5922.3173828125,16419.091796875,14615.853515625,11418.66015625,0.0,3507.931884765625,8130.8681640625,6425.380859375,1099.9044189453125,-7681.0517578125,14777.18359375,5106.130859375,10810.6923828125,17602.443359375,10966.4599609375,17383.89453125,8148.3525390625,11717.478515625,6328.423828125,-0.0,7464.0908203125,14491.0810546875,8680.0263671875,12275.3779296875,21132.626953125,8669.6943359375,-1654.625,9504.1591796875,7649.2626953125,27386.34765625,7810.5927734375,14545.123046875,-4942.4169921875,-8141.99462890625,9497.0068359375,5216.5986328125,10104.9736328125,7375.8759765625,7173.22021484375,7736.68310546875,4452.8642578125,11103.1533203125,10112.1259765625,9112.3583984375,-12549.5595703125,-0.0,0.0,11489.3916015625,7687.40966796875,-292.4601135253906,0.0,14366.3095703125
-3259.9765625,-8590.2216796875,8116.56298828125,11760.39453125,16603.470703125,17576.216796875,14721.552734375,14692.9423828125,14415.58203125,10912.41796875,19221.306640625,0.0,13875.9609375,0.0,14025.3701171875,18012.5234375,28456.052734375,14161.26953125,10034.2431640625,7925.03369140625,5920.72802734375,16417.50390625,14618.2373046875,11417.8662109375,0.0,3511.90576171875,8131.6630859375,6422.20166015625,1103.8780517578125,-7662.77294921875,14777.18359375,5105.33642578125,10810.6923828125,17603.23828125,10966.4599609375,17382.302734375,8151.53125,11720.6572265625,6328.423828125,-0.0,7463.29638671875,14487.107421875,8679.23046875,12271.404296875,21139.779296875,8675.2578125,-1664.16162109375,9506.54296875,7644.49462890625,27381.578125,7811.3876953125,14545.91796875,-4950.36474609375,-8130.8681640625,9489.853515625,5222.9560546875,10096.232421875,7380.64453125,7180.37255859375,7743.04052734375,4463.99072265625,11100.76953125,10119.279296875,9130.63671875,-12552.73828125,-0.0,0.0,11497.337890625,7699.33056640625,-282.128662109375,0.0,14375.845703125
-3248.8505859375,-8577.505859375,8130.8681640625,11769.9306640625,16613.802734375,17587.34375,14727.91015625,14700.8896484375,14414.787109375,10919.5712890625,19234.81640625,0.0,13881.5244140625,0.0,14023.78125,18006.958984375,28467.974609375,14173.1904296875,10042.9853515625,7925.03369140625,5935.033203125,16429.423828125,14627.7744140625,11427.40234375,0.0,3504.753173828125,8136.431640625,6426.17578125,1118.9779052734375,-7647.67333984375,14792.283203125,5118.05224609375,10821.8193359375,17614.365234375,10977.5859375,17391.83984375,8157.88916015625,11727.8095703125,6336.37109375,-0.0,7477.6015625,14502.2080078125,8687.1787109375,12276.966796875,21144.548828125,8682.41015625,-1652.24072265625,9514.4912109375,7654.03125,27387.9375,7816.95068359375,14549.8916015625,-4928.90673828125,-8122.12646484375,9497.8017578125,5209.44580078125,10101.794921875,7376.6708984375,7180.37255859375,7759.72998046875,4486.24267578125,11111.1005859375,10126.431640625,9121.1005859375,-12540.8173828125,-0.0,0.0,11512.4384765625,7688.9990234375,-266.23406982421875,0.0,14394.1240234375
-3213.087890625,-8540.9482421875,8135.63623046875,11780.26171875,16621.748046875,17595.291015625,14734.2685546875,14705.658203125,14413.9931640625,10922.75,19240.37890625,0.0,13887.8818359375,0.0,14026.958984375,18015.703125,28477.509765625,14180.3427734375,10046.958984375,7925.03369140625,5943.775390625,16438.166015625,14635.7216796875,11435.349609375,0.0,3528.594970703125,8141.99462890625,6434.91748046875,1120.5673828125,-7675.48876953125,14801.025390625,5127.5888671875,10828.9716796875,17623.10546875,10984.73828125,17398.9921875,8163.4521484375,11733.373046875,6323.65576171875,-0.0,7486.34326171875,14510.94921875,8691.947265625,12287.298828125,21146.931640625,8687.97265625,-1645.088134765625,9528.7958984375,7665.1572265625,27401.447265625,7819.3349609375,14554.66015625,-4911.4228515625,-8074.44287109375,9508.927734375,5237.26123046875,10109.7421875,7375.8759765625,7181.16748046875,7770.8564453125,4483.06396484375,11118.2529296875,10129.611328125,9121.89453125,-12532.0751953125,-0.0,0.0,11511.6435546875,7683.43603515625,-259.0815124511719,0.0,14402.8662109375
