11858.1455078125,9443.759765625,22029.08203125,6410.28076171875,24919.509765625,1679.2615966796875,3422.896240234375,2770.423828125,5108.51513671875,2284.8447265625,12277.7626953125,-2683.798583984375,4771.55078125,0.0,18076.1015625,398.1590270996094,21120.70703125,12771.2890625,5910.396484375,7621.447265625,18813.609375,24766.921875,9594.7578125,14921.029296875,15943.05078125,1567.204833984375,24327.435546875,-5697.4091796875,0.0,-729.5608520507812,9954.7705078125,3311.634033203125,19452.572265625,13810.7939453125,8122.9208984375,19845.16796875,6735.32470703125,8482.138671875,3174.94091796875,-1565.6153564453125,18867.650390625,4366.2392578125,14224.052734375,5470.1171875,2693.335205078125,9005.0693359375,9744.9619140625,-1262.029052734375,3174.14599609375,-2744.992431640625,10600.08984375,209.0136260986328,3285.407958984375,-65.1677474975586,2820.49169921875,682.671875,19543.966796875,997.3843994140625,7451.37548828125,-1607.7359619140625,8672.873046875,22109.349609375,18638.76953125,14414.787109375,-0.0,-36485.1953125,15563.96484375,3369.649169921875,0.0,4491.80615234375,0.0,0.0
11847.01953125,9436.607421875,22031.46484375,6422.20166015625,24916.330078125,1679.2615966796875,3421.306640625,2772.013427734375,5112.4892578125,2284.8447265625,12278.556640625,-2679.0302734375,4760.42431640625,0.0,18076.1015625,404.516845703125,21122.296875,12766.5205078125,5909.6015625,7624.6259765625,18812.814453125,24770.89453125,9593.1689453125,14921.029296875,15935.8974609375,1562.4364013671875,24320.283203125,-5694.23046875,0.0,-734.3292236328125,9954.7705078125,3310.04443359375,19453.3671875,13813.97265625,8121.3310546875,19845.962890625,6734.52978515625,8481.34375,3179.709228515625,-1563.2310791015625,18867.650390625,4369.41748046875,14220.078125,5469.322265625,2693.335205078125,9007.4541015625,9745.7568359375,-1268.3868408203125,3168.5830078125,-2744.992431640625,10596.1162109375,210.6030731201172,3275.871337890625,-75.49921417236328,2816.51806640625,682.671875,19540.787109375,1003.7421875,7454.55419921875,-1607.7359619140625,8666.515625,22106.169921875,18637.1796875,14419.5556640625,-0.0,-36482.015625,15561.5810546875,3362.49658203125,0.0,4485.4482421875,0.0,0.0
11842.2509765625,9425.48046875,22029.08203125,6418.22802734375,24910.767578125,1673.698486328125,3414.94873046875,2769.629150390625,5117.2578125,2288.023681640625,12272.994140625,-2683.003662109375,4758.8349609375,0.0,18075.30859375,400.543212890625,21120.70703125,12763.3408203125,5905.62841796875,7625.4208984375,18808.841796875,24766.126953125,9588.400390625,14916.2607421875,15923.181640625,1560.05224609375,24315.515625,-5698.2041015625,0.0,-738.3028564453125,9950.796875,3312.4287109375,19449.392578125,13810.7939453125,8116.56298828125,19839.60546875,6729.76171875,8478.1650390625,3179.709228515625,-1565.6153564453125,18862.08984375,4366.2392578125,14214.515625,5463.7587890625,2691.745849609375,9006.6591796875,9743.373046875,-1270.77099609375,3163.814453125,-2756.11865234375,10593.7314453125,207.42416381835938,3285.407958984375,-84.2412338256836,2820.49169921875,683.4666137695312,19538.40234375,1005.3316650390625,7455.34912109375,-1610.1201171875,8661.7470703125,22102.197265625,18635.591796875,14427.5029296875,-0.0,-36487.578125,15563.96484375,3356.138916015625,0.0,4491.01123046875,0.0,0.0
11835.892578125,9415.9443359375,22032.26171875,6414.2548828125,24909.177734375,1671.314208984375,3414.94873046875,2768.039794921875,5117.2578125,2288.023681640625,12267.4306640625,-2684.59326171875,4760.42431640625,0.0,18071.33203125,402.9273986816406,21123.08984375,12764.9306640625,5904.0390625,7625.4208984375,18809.63671875,24764.537109375,9588.400390625,14916.2607421875,15925.5654296875,1560.05224609375,24313.92578125,-5698.2041015625,0.0,-735.918701171875,9951.591796875,3314.81298828125,19448.599609375,13812.3828125,8117.3583984375,19838.013671875,6727.37744140625,8477.3701171875,3186.86181640625,-1567.99951171875,18862.8828125,4367.03369140625,14212.92578125,5462.16943359375,2690.951171875,9007.4541015625,9744.1669921875,-1266.79736328125,3162.22509765625,-2758.5029296875,10592.9375,211.39781188964844,3298.12353515625,-95.367431640625,2829.23388671875,686.6455078125,19539.197265625,1006.1264038085938,7452.96484375,-1610.1201171875,8661.7470703125,22101.40234375,18634.796875,14425.9140625,-0.0,-36489.96484375,15567.9384765625,3350.57568359375,0.0,4491.80615234375,0.0,0.0
11836.6884765625,9420.712890625,22034.64453125,6416.638671875,24915.537109375,1683.235107421875,3420.511962890625,2772.80810546875,5118.8466796875,2294.38134765625,12261.8671875,-2679.0302734375,4766.7822265625,0.0,18075.30859375,409.28521728515625,21127.06640625,12771.2890625,5908.80712890625,7630.189453125,18813.609375,24771.689453125,9594.7578125,14921.029296875,15931.1298828125,1573.5626220703125,24318.6953125,-5690.2568359375,0.0,-731.1503295898438,9955.5654296875,3318.78662109375,19454.16015625,13817.1513671875,8122.9208984375,19843.578125,6732.14599609375,8482.9326171875,3202.756103515625,-1583.099365234375,18868.447265625,4374.98095703125,14217.6943359375,5467.73291015625,2692.54052734375,9011.427734375,9744.1669921875,-1277.923583984375,3164.609130859375,-2744.19775390625,10596.9111328125,219.3450927734375,3305.276123046875,-96.9568862915039,2822.081298828125,696.1822509765625,19543.171875,1006.1264038085938,7453.759765625,-1603.7623291015625,8668.8994140625,22105.375,18641.154296875,14430.6826171875,-0.0,-36489.96484375,15569.52734375,3360.112548828125,0.0,4493.3955078125,0.0,0.0
11842.2509765625,9430.2490234375,22029.08203125,6414.2548828125,24917.921875,1686.4140625,3421.306640625,2774.397705078125,5120.43603515625,2297.560546875,12257.099609375,-2681.414306640625,4768.37158203125,0.0,18077.69140625,408.4905090332031,21124.681640625,12768.904296875,5910.396484375,7629.39453125,18812.021484375,24774.07421875,9597.142578125,14922.619140625,15929.541015625,1575.94677734375,24320.283203125,-5687.87255859375,0.0,-728.76611328125,9954.7705078125,3317.197021484375,19452.572265625,13817.1513671875,8122.9208984375,19843.578125,6731.3515625,8484.5224609375,3184.4775390625,-1602.9676513671875,18865.267578125,4376.5703125,14218.4892578125,5472.50146484375,2693.335205078125,9013.8125,9744.1669921875,-1283.4866943359375,3166.993408203125,-2739.429443359375,10597.7060546875,219.3450927734375,3308.455322265625,-77.08867645263672,2821.286376953125,696.1822509765625,19543.171875,1006.921142578125,7453.759765625,-1601.3780517578125,8666.515625,22106.169921875,18641.94921875,14430.6826171875,-0.0,-36498.70703125,15570.3232421875,3359.31787109375,0.0,4498.95849609375,0.0,0.0
11839.8662109375,9434.2236328125,22026.697265625,6405.51220703125,24916.330078125,1680.0562744140625,3420.511962890625,2774.397705078125,5129.97314453125,2304.712890625,12257.099609375,-2683.798583984375,4769.16650390625,0.0,18072.923828125,410.87469482421875,21120.70703125,12766.5205078125,5911.98583984375,7638.13623046875,18810.4296875,24767.716796875,9597.142578125,14919.4404296875,15932.71875,1563.2310791015625,24318.6953125,-5691.84619140625,0.0,-739.0975952148438,9950.796875,3317.197021484375,19448.599609375,13813.97265625,8120.53662109375,19838.013671875,6732.14599609375,8486.9072265625,3174.94091796875,-1584.6888427734375,18862.08984375,4370.21240234375,14218.4892578125,5470.91162109375,2698.8984375,9016.990234375,9735.4248046875,-1272.3604736328125,3169.377685546875,-2751.350341796875,10598.5,219.3450927734375,3305.276123046875,-63.578285217285156,2820.49169921875,683.4666137695312,19540.787109375,1006.1264038085938,7455.34912109375,-1592.6361083984375,8665.720703125,22103.787109375,18645.12890625,14443.3974609375,-0.0,-36506.65234375,15571.1171875,3377.5966796875,0.0,4514.85302734375,0.0,0.0
11831.919921875,9415.9443359375,22022.724609375,6391.20703125,24909.97265625,1670.51953125,3422.101318359375,2771.218505859375,5135.5361328125,2307.09716796875,12248.3564453125,-2685.387939453125,4765.9873046875,0.0,18075.30859375,408.4905090332031,21115.9375,12757.7783203125,5909.6015625,7642.90478515625,18802.484375,24757.384765625,9593.9638671875,14913.876953125,15929.541015625,1533.031494140625,24317.900390625,-5699.79345703125,0.0,-745.4554443359375,9945.2333984375,3310.83935546875,19443.03515625,13806.025390625,8114.97412109375,19831.658203125,6732.14599609375,8481.34375,3179.709228515625,-1553.6943359375,18859.705078125,4359.08642578125,14216.10546875,5465.3486328125,2701.282470703125,9014.6064453125,9720.3251953125,-1275.5394287109375,3168.5830078125,-2764.86083984375,10599.2958984375,216.1661834716797,3295.739501953125,-82.65177154541016,2818.107666015625,683.4666137695312,19539.9921875,996.5896606445312,7458.52783203125,-1591.046630859375,8659.36328125,22098.22265625,18646.716796875,14452.1396484375,-0.0,-36509.83203125,15571.1171875,3384.749267578125,0.0,4519.62158203125,0.0,0.0
11828.740234375,9416.7392578125,22022.724609375,6399.15478515625,24909.97265625,1672.9036865234375,3422.101318359375,2772.80810546875,5141.099609375,2307.891845703125,12240.41015625,-2688.56689453125,4765.1923828125,0.0,18076.1015625,408.4905090332031,21115.14453125,12754.599609375,5910.396484375,7643.69970703125,18803.27734375,24758.1796875,9596.34765625,14917.0556640625,15923.9765625,1557.6680908203125,24317.10546875,-5696.61474609375,0.0,-739.0975952148438,9945.2333984375,3308.455322265625,19442.240234375,13805.23046875,8117.3583984375,19832.453125,6731.3515625,8482.9326171875,3182.09326171875,-1552.899658203125,18856.525390625,4361.470703125,14214.515625,5466.93798828125,2703.666748046875,9013.8125,9717.146484375,-1281.1025390625,3167.788330078125,-2760.092529296875,10600.08984375,212.19253540039062,3291.765869140625,-81.06231689453125,2816.51806640625,694.5927734375,19539.197265625,1006.1264038085938,7460.912109375,-1591.84130859375,8654.5947265625,22099.017578125,18648.306640625,14448.166015625,-0.0,-36509.03515625,15567.1435546875,3376.8017578125,0.0,4506.111328125,0.0,0.0
11824.767578125,9424.6865234375,22024.3125,6402.33349609375,24917.125,1676.8773193359375,3423.69091796875,2772.80810546875,5144.27783203125,2300.7392578125,12243.5888671875,-2681.414306640625,4768.37158203125,0.0,18074.51171875,402.1326599121094,21116.734375,12756.9833984375,5911.19140625,7642.90478515625,18806.45703125,24762.154296875,9601.1162109375,14919.4404296875,15935.8974609375,1572.767822265625,24318.6953125,-5695.02490234375,0.0,-736.71337890625,9946.0283203125,3310.83935546875,19446.21484375,13807.6142578125,8118.15283203125,19835.630859375,6733.7353515625,8483.7275390625,3185.272216796875,-1560.05224609375,18861.29296875,4369.41748046875,14218.4892578125,5470.1171875,2705.256103515625,9012.22265625,9717.94140625,-1267.592041015625,3172.556640625,-2754.529296875,10600.884765625,205.03997802734375,3302.097412109375,-74.7044906616211,2832.41259765625,693.798095703125,19539.9921875,1005.3316650390625,7460.1171875,-1600.5833740234375,8653.7998046875,22102.197265625,18648.306640625,14441.8076171875,-0.0,-36503.4765625,15567.1435546875,3367.264892578125,0.0,4492.60107421875,0.0,0.0
11827.9453125,9429.455078125,22028.287109375,6402.33349609375,24917.921875,1675.287841796875,3426.86962890625,2764.06591796875,5147.45703125,2281.665771484375,12251.5361328125,-2680.619384765625,4774.7294921875,0.0,18076.1015625,394.1853942871094,21117.529296875,12756.1884765625,5909.6015625,7635.75244140625,18805.662109375,24758.974609375,9601.91015625,14913.876953125,15942.2548828125,1569.5889892578125,24321.080078125,-5700.58837890625,0.0,-738.3028564453125,9944.4384765625,3310.83935546875,19447.0078125,13805.23046875,8118.947265625,19832.453125,6734.52978515625,8478.958984375,3183.6826171875,-1565.6153564453125,18862.8828125,4364.6494140625,14220.078125,5467.73291015625,2706.845458984375,9005.8642578125,9710.7890625,-1262.029052734375,3174.94091796875,-2757.708251953125,10601.6796875,197.88742065429688,3302.097412109375,-77.8833999633789,2825.26025390625,685.8507690429688,19542.375,997.3843994140625,7461.70654296875,-1618.8621826171875,8647.44140625,22101.40234375,18644.33203125,14436.2451171875,-0.0,-36505.0625,15569.52734375,3349.781005859375,0.0,4466.375,0.0,0.0
11844.634765625,9430.2490234375,22025.107421875,6404.7177734375,24916.330078125,1676.8773193359375,3430.048583984375,2768.039794921875,5154.60986328125,2291.997314453125,12249.9462890625,-2687.77197265625,4785.06103515625,0.0,18080.869140625,398.1590270996094,21115.9375,12757.7783203125,5914.3701171875,7640.5205078125,18805.662109375,24759.76953125,9601.91015625,14916.2607421875,15937.486328125,1566.4100341796875,24324.259765625,-5698.2041015625,0.0,-741.4818115234375,9945.2333984375,3310.83935546875,19443.03515625,13806.025390625,8120.53662109375,19832.453125,6736.11962890625,8481.34375,3177.324951171875,-1567.99951171875,18862.8828125,4363.06005859375,14222.462890625,5470.1171875,2713.203369140625,9010.6328125,9710.7890625,-1273.949951171875,3174.94091796875,-2754.529296875,10606.4482421875,204.24525451660156,3295.739501953125,-90.59906005859375,2821.286376953125,677.1087646484375,19545.5546875,993.4107055664062,7467.27001953125,-1608.5306396484375,8643.4677734375,22103.787109375,18651.486328125,14440.21875,-0.0,-36520.1640625,15571.1171875,3364.880859375,0.0,4479.09033203125,0.0,0.0
11858.1455078125,9437.4013671875,22020.33984375,6410.28076171875,24914.7421875,1678.466796875,3430.84326171875,2768.83447265625,5153.81494140625,2292.7919921875,12257.099609375,-2680.619384765625,4781.8818359375,0.0,18077.69140625,389.4170227050781,21118.322265625,12760.95703125,5915.9599609375,7637.341796875,18804.869140625,24762.94921875,9604.294921875,14919.4404296875,15927.9501953125,1566.4100341796875,24322.66796875,-5698.9990234375,0.0,-737.5081176757812,9947.6171875,3317.197021484375,19444.623046875,13808.41015625,8123.71533203125,19836.42578125,6738.50390625,8483.7275390625,3176.530029296875,-1564.02587890625,18861.29296875,4369.41748046875,14222.462890625,5470.91162109375,2715.587646484375,9010.6328125,9706.814453125,-1279.5130615234375,3171.76171875,-2752.14501953125,10608.037109375,202.65579223632812,3301.302734375,-77.8833999633789,2830.8232421875,676.3140258789062,19541.58203125,990.2318725585938,7465.6806640625,-1609.325439453125,8646.6474609375,22104.58203125,18651.486328125,14433.06640625,-0.0,-36510.62890625,15569.52734375,3371.23876953125,0.0,4484.6533203125,0.0,0.0
11839.072265625,9411.17578125,22024.3125,6411.87060546875,24913.15234375,1676.8773193359375,3432.432861328125,2769.629150390625,5160.1728515625,2292.7919921875,12258.6884765625,-2678.2353515625,4773.14013671875,0.0,18078.486328125,390.21173095703125,21120.70703125,12760.162109375,5918.34423828125,7642.90478515625,18805.662109375,24762.154296875,9605.884765625,14921.029296875,15921.5927734375,1565.6153564453125,24321.875,-5701.38330078125,0.0,-738.3028564453125,9950.001953125,3314.018310546875,19447.0078125,13809.998046875,8121.3310546875,19836.42578125,6741.6826171875,8483.7275390625,3167.788330078125,-1564.02587890625,18858.91015625,4369.41748046875,14220.8740234375,5468.52734375,2714.79296875,9011.427734375,9728.2724609375,-1277.923583984375,3167.788330078125,-2751.350341796875,10608.037109375,201.86106872558594,3302.097412109375,-76.2939453125,2828.43896484375,692.2086181640625,19540.787109375,988.642333984375,7467.27001953125,-1609.325439453125,8649.826171875,22106.169921875,18653.869140625,14444.1923828125,-0.0,-36512.21484375,15571.912109375,3363.29150390625,0.0,4483.06396484375,0.0,0.0
11821.587890625,9396.87109375,22016.3671875,6404.7177734375,24906.79296875,1667.340576171875,3426.074951171875,2762.4765625,5153.81494140625,2291.20263671875,12252.3310546875,-2689.361572265625,4760.42431640625,0.0,18076.1015625,389.4170227050781,21113.5546875,12751.419921875,5911.19140625,7642.90478515625,18799.3046875,24757.384765625,9598.732421875,14913.876953125,15915.2353515625,1566.4100341796875,24313.92578125,-5708.53564453125,0.0,-746.2501220703125,9942.849609375,3301.302734375,19440.650390625,13803.6416015625,8113.38427734375,19830.068359375,6735.32470703125,8477.3701171875,3175.7353515625,-1560.846923828125,18849.373046875,4362.26513671875,14212.92578125,5458.99072265625,2708.43505859375,9007.4541015625,9743.373046875,-1289.844482421875,3156.662109375,-2758.5029296875,10601.6796875,197.88742065429688,3287.792236328125,-89.80432891845703,2815.723388671875,682.671875,19536.017578125,979.900390625,7463.29638671875,-1611.7095947265625,8642.673828125,22100.607421875,18649.896484375,14445.78125,-0.0,-36532.87890625,15567.9384765625,3356.93359375,0.0,4483.8583984375,0.0,0.0
11822.3828125,9418.328125,22016.3671875,6400.744140625,24909.177734375,1666.5458984375,3426.074951171875,2764.06591796875,5143.4833984375,2289.613037109375,12257.099609375,-2683.798583984375,4761.21923828125,0.0,18077.69140625,393.3906555175781,21115.14453125,12755.3935546875,5912.78076171875,7640.5205078125,18801.689453125,24760.564453125,9597.9375,14915.466796875,15912.8515625,1567.204833984375,24317.900390625,-5706.94580078125,0.0,-743.865966796875,9943.64453125,3301.302734375,19443.03515625,13803.6416015625,8115.7685546875,19831.658203125,6736.9140625,8480.548828125,3193.219482421875,-1561.6417236328125,18852.552734375,4363.06005859375,14213.7216796875,5458.99072265625,2706.845458984375,9011.427734375,9745.7568359375,-1283.4866943359375,3156.662109375,-2759.297607421875,10602.474609375,201.86106872558594,3291.765869140625,-81.06231689453125,2820.49169921875,681.8771362304688,19540.787109375,987.84765625,7463.29638671875,-1611.7095947265625,8651.416015625,22104.58203125,18651.486328125,14437.0390625,-0.0,-36525.7265625,15559.1962890625,3348.986328125,0.0,4480.68017578125,0.0,0.0
11817.6142578125,9428.66015625,22023.51953125,6407.10205078125,24913.9453125,1667.340576171875,3430.048583984375,2772.80810546875,5137.92041015625,2293.586669921875,12253.9208984375,-2675.85107421875,4766.7822265625,0.0,18079.28125,408.4905090332031,21119.9140625,12762.546875,5918.34423828125,7640.5205078125,18806.45703125,24762.94921875,9601.91015625,14922.619140625,15922.3876953125,1564.02587890625,24321.080078125,-5700.58837890625,0.0,-735.1239624023438,9948.4130859375,3301.302734375,19448.599609375,13806.025390625,8120.53662109375,19836.42578125,6741.6826171875,8488.49609375,3205.140380859375,-1565.6153564453125,18859.705078125,4361.470703125,14220.078125,5465.3486328125,2707.640380859375,9016.990234375,9717.94140625,-1266.79736328125,3163.019775390625,-2759.297607421875,10608.037109375,210.6030731201172,3288.5869140625,-76.2939453125,2824.465576171875,688.2349853515625,19544.759765625,1009.3053588867188,7468.06494140625,-1605.351806640625,8656.978515625,22110.14453125,18655.458984375,14431.4765625,-0.0,-36516.984375,15552.0439453125,3353.754638671875,0.0,4478.2958984375,0.0,0.0
11827.1513671875,9431.8388671875,22023.51953125,6403.9228515625,24920.3046875,1674.4931640625,3433.2275390625,2783.139404296875,5133.15185546875,2301.533935546875,12251.5361328125,-2668.698486328125,4774.7294921875,0.0,18084.048828125,420.41143798828125,21125.474609375,12764.9306640625,5924.70166015625,7640.5205078125,18812.021484375,24770.1015625,9604.294921875,14931.361328125,15927.15625,1568.794189453125,24325.052734375,-5691.84619140625,0.0,-727.9713745117188,9953.9755859375,3306.86572265625,19450.982421875,13809.998046875,8126.099609375,19845.16796875,6747.24560546875,8495.6484375,3192.4248046875,-1568.794189453125,18865.267578125,4367.828125,14224.052734375,5472.50146484375,2709.229736328125,9024.1435546875,9718.7353515625,-1255.671142578125,3168.5830078125,-2753.734619140625,10612.0107421875,217.75563049316406,3295.739501953125,-77.08867645263672,2826.849609375,697.771728515625,19546.349609375,1022.0209350585938,7470.44873046875,-1587.072998046875,8662.541015625,22117.296875,18661.021484375,14425.1181640625,-0.0,-36509.03515625,15552.0439453125,3358.523193359375,0.0,4475.91162109375,0.0,0.0
11821.587890625,9420.712890625,22009.21484375,6395.9755859375,24912.357421875,1665.7510986328125,3423.69091796875,2772.013427734375,5120.43603515625,2291.20263671875,12232.462890625,-2678.2353515625,4768.37158203125,0.0,18076.1015625,400.543212890625,21115.14453125,12751.419921875,5917.54931640625,7632.57373046875,18804.07421875,24761.357421875,9597.142578125,14923.4130859375,15923.181640625,1560.05224609375,24317.10546875,-5704.5615234375,0.0,-739.0975952148438,9945.2333984375,3298.91845703125,19439.85546875,13799.6669921875,8118.15283203125,19837.220703125,6740.09326171875,8486.111328125,3160.6357421875,-1582.3045654296875,18854.140625,4357.49658203125,14217.6943359375,5461.375,2701.282470703125,9013.0166015625,9727.478515625,-1261.2342529296875,3161.430419921875,-2764.06591796875,10602.474609375,202.65579223632812,3286.99755859375,-85.8306884765625,2814.1337890625,689.8244018554688,19537.607421875,1005.3316650390625,7462.50146484375,-1602.9676513671875,8654.5947265625,22108.5546875,18652.28125,14416.376953125,-0.0,-36520.1640625,15542.5068359375,3352.165283203125,0.0,4466.375,0.0,0.0
11831.1240234375,9425.48046875,22017.955078125,6401.5390625,24918.71484375,1669.724853515625,3428.459228515625,2773.602783203125,5123.615234375,2297.560546875,12250.7412109375,-2679.0302734375,4769.9609375,0.0,18075.30859375,403.7221374511719,21116.734375,12757.7783203125,5920.72802734375,7641.3154296875,18808.841796875,24765.333984375,9601.91015625,14926.5927734375,15935.1025390625,1564.02587890625,24321.875,-5704.5615234375,0.0,-739.0975952148438,9948.4130859375,3297.328857421875,19443.830078125,13802.0517578125,8123.71533203125,19841.193359375,6744.86181640625,8486.9072265625,3162.22509765625,-1583.8941650390625,18862.08984375,4360.67578125,14221.66796875,5466.93798828125,2703.666748046875,9018.580078125,9739.3994140625,-1265.2078857421875,3166.993408203125,-2759.297607421875,10604.064453125,202.65579223632812,3290.17626953125,-81.06231689453125,2818.107666015625,697.771728515625,19539.197265625,998.973876953125,7460.912109375,-1608.5306396484375,8662.541015625,22114.119140625,18657.048828125,14428.2978515625,-0.0,-36527.31640625,15558.40234375,3365.67578125,0.0,4479.88525390625,0.0,0.0
11849.4033203125,9442.169921875,22033.849609375,6413.4599609375,24929.046875,1680.0562744140625,3436.406494140625,2784.72900390625,5130.767578125,2306.30224609375,12269.0205078125,-2663.93017578125,4773.93505859375,0.0,18083.25390625,416.4377746582031,21130.244140625,12774.4677734375,5928.67529296875,7651.64697265625,18821.55859375,24778.84375,9609.8583984375,14935.333984375,15939.87109375,1578.3310546875,24329.8203125,-5688.66748046875,0.0,-726.3819580078125,9961.9228515625,3310.04443359375,19458.134765625,13812.3828125,8134.841796875,19851.525390625,6754.3984375,8497.23828125,3178.11962890625,-1571.178466796875,18874.802734375,4373.3916015625,14228.8203125,5476.474609375,2711.614013671875,9027.322265625,9751.3203125,-1258.0552978515625,3173.351318359375,-2744.992431640625,10611.216796875,213.78199768066406,3295.739501953125,-67.55193328857422,2821.286376953125,708.1031494140625,19545.5546875,1016.4578857421875,7471.2431640625,-1597.404541015625,8674.4619140625,22123.65625,18668.173828125,14437.0390625,-0.0,-36513.01171875,15579.064453125,3376.007080078125,0.0,4486.24267578125,0.0,0.0
11848.609375,9450.912109375,22037.029296875,6416.638671875,24929.046875,1684.0299072265625,3433.2275390625,2782.3447265625,5125.20458984375,2301.533935546875,12272.1982421875,-2655.188232421875,4782.6767578125,0.0,18081.6640625,410.0799560546875,21132.626953125,12775.26171875,5927.0859375,7646.083984375,18824.736328125,24778.84375,9606.6787109375,14934.5400390625,15935.1025390625,1582.3045654296875,24329.8203125,-5687.078125,0.0,-717.639892578125,9963.5126953125,3314.81298828125,19460.51953125,13815.5625,8136.431640625,19852.3203125,6749.6298828125,8495.6484375,3179.709228515625,-1558.4627685546875,18877.1875,4377.365234375,14228.8203125,5476.474609375,2707.640380859375,9023.3486328125,9738.6044921875,-1254.87646484375,3174.94091796875,-2742.6083984375,10609.626953125,216.1661834716797,3277.460693359375,-56.42573165893555,2829.23388671875,707.3084716796875,19547.14453125,1024.4051513671875,7467.27001953125,-1598.19921875,8674.4619140625,22122.859375,18662.611328125,14425.9140625,-0.0,-36501.8828125,15575.091796875,3363.29150390625,0.0,4478.2958984375,0.0,0.0
11845.4296875,9455.6806640625,22037.029296875,6422.20166015625,24929.841796875,1686.4140625,3431.637939453125,2780.75537109375,5120.43603515625,2299.944580078125,12272.1982421875,-2659.161865234375,4787.4453125,0.0,18082.4609375,410.0799560546875,21133.421875,12774.4677734375,5925.49658203125,7641.3154296875,18823.146484375,24778.046875,9602.7060546875,14932.9501953125,15935.8974609375,1582.3045654296875,24332.205078125,-5690.2568359375,0.0,-716.0504760742188,9963.5126953125,3317.197021484375,19461.3125,13818.7412109375,8134.04736328125,19851.525390625,6748.04052734375,8492.4697265625,3181.298583984375,-1556.07861328125,18876.39453125,4378.95458984375,14228.8203125,5474.0908203125,2706.05078125,9020.96484375,9731.4521484375,-1250.108154296875,3178.914306640625,-2741.813720703125,10609.626953125,218.5503692626953,3287.792236328125,-53.2468147277832,2829.23388671875,708.1031494140625,19548.734375,1015.6631469726562,7461.70654296875,-1601.3780517578125,8676.0517578125,22120.4765625,18659.43359375,14422.734375,-0.0,-36507.4453125,15567.1435546875,3362.49658203125,0.0,4479.09033203125,0.0,0.0
11836.6884765625,9441.3759765625,22036.234375,6430.14892578125,24925.07421875,1682.4404296875,3428.459228515625,2775.1923828125,5115.66796875,2295.970947265625,12258.6884765625,-2674.26171875,4776.31884765625,0.0,18083.25390625,403.7221374511719,21131.0390625,12770.4931640625,5920.72802734375,7635.75244140625,18818.37890625,24776.458984375,9597.142578125,14928.181640625,15936.693359375,1578.3310546875,24329.02734375,-5696.61474609375,0.0,-727.1766357421875,9957.94921875,3314.018310546875,19459.724609375,13817.9462890625,8128.48388671875,19846.7578125,6743.2724609375,8487.701171875,3182.09326171875,-1565.6153564453125,18873.21484375,4378.16015625,14224.052734375,5469.322265625,2701.282470703125,9016.1962890625,9744.9619140625,-1254.081787109375,3174.94091796875,-2744.992431640625,10607.2421875,212.19253540039062,3302.097412109375,-61.19409942626953,2829.23388671875,703.3348388671875,19551.119140625,995.000244140625,7460.912109375,-1603.7623291015625,8672.873046875,22114.119140625,18654.6640625,14418.76171875,-0.0,-36535.26171875,15561.5810546875,3359.31787109375,0.0,4481.474609375,0.0,0.0
11837.482421875,9433.4287109375,22039.4140625,6440.48046875,24929.046875,1690.3876953125,3431.637939453125,2779.960693359375,5118.05224609375,2299.149658203125,12257.099609375,-2674.26171875,4772.34521484375,0.0,18082.4609375,410.0799560546875,21135.01171875,12771.2890625,5923.90673828125,7641.3154296875,18821.55859375,24783.611328125,9600.3212890625,14931.361328125,15941.4619140625,1590.251953125,24333.0,-5689.46240234375,0.0,-729.5608520507812,9961.1279296875,3320.376220703125,19463.697265625,13820.3310546875,8130.07373046875,19851.525390625,6746.45068359375,8491.67578125,3189.245849609375,-1561.6417236328125,18877.1875,4386.10693359375,14226.4365234375,5474.0908203125,2702.8720703125,9022.5537109375,9752.9091796875,-1257.2606201171875,3175.7353515625,-2737.83984375,10609.626953125,220.1398162841797,3315.607666015625,-54.836273193359375,2838.7705078125,708.8978881835938,19553.50390625,1005.3316650390625,7463.29638671875,-1597.404541015625,8676.0517578125,22116.501953125,18658.638671875,14423.529296875,-0.0,-36540.03125,15562.375,3368.8544921875,0.0,4486.24267578125,0.0,0.0
11844.634765625,9419.91796875,22039.4140625,6430.14892578125,24926.662109375,1688.0035400390625,3434.022216796875,2779.166015625,5130.767578125,2305.507568359375,12266.6357421875,-2663.135498046875,4775.52392578125,0.0,18085.638671875,407.6957702636719,21133.421875,12768.109375,5925.49658203125,7652.44140625,18820.76171875,24781.2265625,9601.1162109375,14930.5654296875,15939.87109375,1602.9676513671875,24333.0,-5692.640625,0.0,-729.5608520507812,9961.1279296875,3317.197021484375,19462.109375,13817.9462890625,8130.07373046875,19851.525390625,6748.04052734375,8491.67578125,3195.603515625,-1562.4364013671875,18876.39453125,4387.69677734375,14227.2314453125,5473.2958984375,2709.229736328125,9024.9375,9750.525390625,-1267.592041015625,3175.7353515625,-2745.787353515625,10613.6005859375,220.1398162841797,3316.40234375,-70.73084259033203,2838.7705078125,702.5401000976562,19548.734375,1009.3053588867188,7474.42236328125,-1594.2255859375,8671.2841796875,22117.296875,18664.201171875,14445.78125,-0.0,-36532.87890625,15578.26953125,3365.67578125,0.0,4490.216796875,0.0,0.0
11840.6611328125,9408.7919921875,22025.107421875,6403.9228515625,24915.537109375,1665.7510986328125,3426.86962890625,2763.271240234375,5131.5625,2295.970947265625,12258.6884765625,-2674.26171875,4774.7294921875,0.0,18084.048828125,392.5959167480469,21119.1171875,12749.8310546875,5911.19140625,7647.67333984375,18807.251953125,24762.94921875,9589.1953125,14913.876953125,15930.333984375,1568.794189453125,24325.052734375,-5711.71435546875,0.0,-747.0448608398438,9946.0283203125,3303.686767578125,19450.1875,13799.6669921875,8117.3583984375,19833.24609375,6737.708984375,8478.958984375,3192.4248046875,-1565.6153564453125,18862.8828125,4363.85498046875,14218.4892578125,5455.81201171875,2705.256103515625,9013.0166015625,9737.8095703125,-1289.0498046875,3166.993408203125,-2777.576416015625,10609.626953125,205.03997802734375,3300.5078125,-98.54634857177734,2825.26025390625,673.9298706054688,19547.14453125,992.6160278320312,7471.2431640625,-1608.5306396484375,8660.9521484375,22102.197265625,18656.25390625,14442.603515625,-0.0,-36544.80078125,15572.70703125,3342.62841796875,0.0,4477.5009765625,0.0,0.0
11846.224609375,9411.970703125,22025.107421875,6408.69140625,24920.3046875,1668.13525390625,3430.84326171875,2769.629150390625,5137.92041015625,2303.918212890625,12263.45703125,-2675.056396484375,4777.11328125,0.0,18090.40625,396.569580078125,21123.88671875,12753.8046875,5915.1650390625,7652.44140625,18809.63671875,24766.921875,9591.5791015625,14915.466796875,15937.486328125,1556.873291015625,24329.8203125,-5709.330078125,0.0,-735.918701171875,9950.001953125,3307.660400390625,19454.95703125,13806.025390625,8121.3310546875,19836.42578125,6742.4775390625,8482.138671875,3190.04052734375,-1568.794189453125,18866.0625,4364.6494140625,14223.2578125,5460.58056640625,2710.8193359375,9016.990234375,9737.0146484375,-1268.3868408203125,3173.351318359375,-2769.629150390625,10615.189453125,210.6030731201172,3302.097412109375,-89.80432891845703,2833.207275390625,681.0823974609375,19551.119140625,994.2054443359375,7476.01171875,-1599.7886962890625,8664.92578125,22104.58203125,18661.818359375,14438.62890625,-0.0,-36545.59375,15571.1171875,3346.602294921875,0.0,4491.01123046875,0.0,0.0
11838.27734375,9413.5595703125,22033.056640625,6406.30712890625,24921.89453125,1671.314208984375,3431.637939453125,2772.013427734375,5137.92041015625,2307.09716796875,12260.27734375,-2679.82470703125,4777.11328125,0.0,18087.228515625,398.1590270996094,21125.474609375,12756.9833984375,5918.34423828125,7655.62060546875,18812.021484375,24767.716796875,9593.9638671875,14918.64453125,15935.8974609375,1560.05224609375,24333.794921875,-5705.3564453125,0.0,-728.76611328125,9951.591796875,3308.455322265625,19456.544921875,13808.41015625,8123.71533203125,19837.220703125,6743.2724609375,8483.7275390625,3190.04052734375,-1565.6153564453125,18869.2421875,4367.828125,14224.052734375,5463.7587890625,2711.614013671875,9019.375,9738.6044921875,-1258.85009765625,3174.94091796875,-2760.88720703125,10615.9853515625,211.39781188964844,3297.328857421875,-78.67813110351562,2834.796875,689.0296630859375,19550.32421875,992.6160278320312,7472.8330078125,-1595.8150634765625,8665.720703125,22106.169921875,18662.611328125,14451.3447265625,-0.0,-36552.74609375,15567.9384765625,3351.37060546875,0.0,4497.369140625,0.0,0.0
11822.3828125,9409.5869140625,22028.287109375,6399.15478515625,24913.9453125,1659.393310546875,3423.69091796875,2757.708251953125,5125.20458984375,2285.639404296875,12255.509765625,-2694.1298828125,4771.55078125,0.0,18079.28125,384.6486511230469,21118.322265625,12748.2412109375,5907.21728515625,7637.341796875,18805.662109375,24758.974609375,9587.60546875,14907.51953125,15930.333984375,1551.3101806640625,24327.435546875,-5717.27734375,0.0,-741.4818115234375,9945.2333984375,3302.097412109375,19452.572265625,13799.6669921875,8115.7685546875,19826.09375,6733.7353515625,8471.01171875,3187.656494140625,-1564.8206787109375,18864.47265625,4356.7021484375,14216.10546875,5450.24853515625,2702.8720703125,9004.275390625,9735.4248046875,-1281.897216796875,3168.5830078125,-2772.013427734375,10608.83203125,193.11904907226562,3285.407958984375,-92.18851470947266,2825.26025390625,683.4666137695312,19543.171875,978.3109130859375,7462.50146484375,-1614.8885498046875,8648.236328125,22096.634765625,18646.716796875,14437.0390625,-0.0,-36571.8203125,15562.375,3342.62841796875,0.0,4476.7060546875,0.0,0.0
11816.0244140625,9409.5869140625,22026.697265625,6402.33349609375,24915.537109375,1659.393310546875,3426.074951171875,2759.297607421875,5123.615234375,2284.050048828125,12257.099609375,-2694.1298828125,4774.7294921875,0.0,18079.28125,386.23809814453125,21120.70703125,12749.0361328125,5907.21728515625,7631.77880859375,18807.251953125,24758.1796875,9588.400390625,14907.51953125,15932.71875,1550.5155029296875,24325.84765625,-5715.68798828125,0.0,-742.2764892578125,9945.2333984375,3307.660400390625,19450.982421875,13801.2568359375,8116.56298828125,19826.09375,6733.7353515625,8472.6015625,3178.914306640625,-1563.2310791015625,18864.47265625,4358.29150390625,14216.10546875,5451.04345703125,2700.48779296875,9005.0693359375,9730.65625,-1284.2813720703125,3171.76171875,-2776.78173828125,10607.2421875,194.70851135253906,3279.844970703125,-91.39379119873047,2824.465576171875,686.6455078125,19545.5546875,981.4898071289062,7462.50146484375,-1614.8885498046875,8631.546875,22096.634765625,18645.12890625,14424.32421875,-0.0,-36572.6171875,15568.7333984375,3347.39697265625,0.0,4477.5009765625,0.0,0.0
11816.8193359375,9423.0966796875,22033.056640625,6411.07568359375,24921.89453125,1670.51953125,3433.2275390625,2771.218505859375,5137.12548828125,2293.586669921875,12261.0732421875,-2680.619384765625,4784.26611328125,0.0,18085.638671875,398.9537658691406,21127.859375,12758.572265625,5918.34423828125,7642.90478515625,18813.609375,24766.921875,9597.142578125,14919.4404296875,15937.486328125,1560.05224609375,24332.205078125,-5704.5615234375,0.0,-727.1766357421875,9952.3857421875,3317.197021484375,19455.751953125,13811.587890625,8123.71533203125,19836.42578125,6743.2724609375,8485.3173828125,3177.324951171875,-1553.6943359375,18870.830078125,4370.21240234375,14224.8466796875,5463.7587890625,2709.229736328125,9016.1962890625,9724.2998046875,-1262.029052734375,3178.11962890625,-2773.602783203125,10613.6005859375,212.19253540039062,3284.61328125,-76.2939453125,2829.23388671875,693.0033569335938,19555.091796875,993.4107055664062,7469.654296875,-1601.3780517578125,8646.6474609375,22107.759765625,18656.25390625,14431.4765625,-0.0,-36560.6953125,15572.70703125,3354.54931640625,0.0,4483.8583984375,0.0,0.0
11818.4091796875,9420.712890625,22025.107421875,6407.896484375,24914.7421875,1668.13525390625,3430.84326171875,2764.86083984375,5141.099609375,2292.7919921875,12253.125,-2683.003662109375,4778.703125,0.0,18082.4609375,394.9801025390625,21121.501953125,12753.8046875,5912.78076171875,7642.90478515625,18805.662109375,24760.564453125,9594.7578125,14914.671875,15930.333984375,1555.283935546875,24328.232421875,-5709.330078125,0.0,-731.945068359375,9947.6171875,3312.4287109375,19447.802734375,13805.23046875,8118.15283203125,19833.24609375,6739.29833984375,8481.34375,3179.709228515625,-1565.6153564453125,18862.08984375,4363.85498046875,14219.2841796875,5458.1962890625,2708.43505859375,9011.427734375,9715.556640625,-1262.82373046875,3170.967041015625,-2768.83447265625,10612.0107421875,209.0136260986328,3290.17626953125,-80.26758575439453,2822.8759765625,686.6455078125,19548.734375,991.0265502929688,7468.859375,-1606.146484375,8655.388671875,22106.169921875,18652.28125,14437.8349609375,-0.0,-36563.875,15572.70703125,3341.0390625,0.0,4479.09033203125,0.0,0.0
11807.2822265625,9404.818359375,22016.3671875,6398.35986328125,24909.97265625,1664.9564208984375,3430.048583984375,2758.5029296875,5145.86767578125,2284.8447265625,12249.15234375,-2689.361572265625,4773.93505859375,0.0,18084.84375,391.0064697265625,21111.96484375,12749.0361328125,5909.6015625,7638.93115234375,18798.509765625,24755.001953125,9592.3740234375,14911.4921875,15926.361328125,1554.4891357421875,24325.84765625,-5712.50927734375,0.0,-738.3028564453125,9939.6708984375,3301.302734375,19441.447265625,13797.283203125,8111.79443359375,19826.09375,6735.32470703125,8475.7802734375,3160.6357421875,-1584.6888427734375,18854.9375,4358.29150390625,14216.10546875,5455.81201171875,2708.43505859375,9003.4794921875,9711.5830078125,-1275.5394287109375,3166.993408203125,-2766.4501953125,10609.626953125,204.24525451660156,3286.99755859375,-94.57270050048828,2820.49169921875,687.4402465820312,19547.939453125,985.4635009765625,7473.62744140625,-1616.47802734375,8655.388671875,22099.017578125,18649.1015625,14427.5029296875,-0.0,-36572.6171875,15574.2958984375,3319.581298828125,0.0,4463.99072265625,0.0,0.0
11823.177734375,9419.91796875,22019.544921875,6397.5654296875,24912.357421875,1672.1090087890625,3428.459228515625,2764.06591796875,5141.099609375,2286.43408203125,12255.509765625,-2682.208984375,4773.93505859375,0.0,18083.25390625,391.0064697265625,21115.9375,12753.8046875,5912.78076171875,7634.9580078125,18800.89453125,24758.974609375,9597.142578125,14917.8505859375,15926.361328125,1566.4100341796875,24325.052734375,-5706.1513671875,0.0,-731.945068359375,9942.849609375,3305.276123046875,19443.830078125,13801.2568359375,8114.97412109375,19830.861328125,6734.52978515625,8478.958984375,3170.17236328125,-1578.3310546875,18855.73046875,4362.26513671875,14218.4892578125,5463.7587890625,2709.229736328125,9007.4541015625,9720.3251953125,-1265.2078857421875,3169.377685546875,-2754.529296875,10608.037109375,208.21888732910156,3300.5078125,-86.62541961669922,2823.670654296875,702.5401000976562,19548.734375,984.668701171875,7471.2431640625,-1610.914794921875,8665.720703125,22101.40234375,18650.689453125,14421.1455078125,-0.0,-36570.23046875,15566.3486328125,3336.2705078125,0.0,4469.5537109375,0.0,0.0
11844.634765625,9452.501953125,22026.697265625,6411.87060546875,24920.3046875,1683.235107421875,3430.048583984375,2772.80810546875,5131.5625,2294.38134765625,12267.4306640625,-2663.135498046875,4781.08740234375,0.0,18075.30859375,402.1326599121094,21125.474609375,12762.546875,5919.93310546875,7630.98388671875,18808.841796875,24767.716796875,9604.294921875,14926.5927734375,15935.1025390625,1574.357421875,24328.232421875,-5696.61474609375,0.0,-719.2293701171875,9952.3857421875,3313.2236328125,19451.77734375,13810.7939453125,8122.9208984375,19841.990234375,6739.29833984375,8486.111328125,3184.4775390625,-1563.2310791015625,18865.267578125,4372.5966796875,14222.462890625,5472.50146484375,2708.43505859375,9015.4013671875,9733.8359375,-1248.5185546875,3176.530029296875,-2748.96630859375,10607.2421875,217.75563049316406,3315.607666015625,-61.98883056640625,2826.054931640625,704.9242553710938,19551.119140625,993.4107055664062,7456.14404296875,-1602.1728515625,8680.0263671875,22109.349609375,18651.486328125,14425.9140625,-0.0,-36550.36328125,15548.0703125,3348.19140625,0.0,4491.80615234375,0.0,0.0
11839.072265625,9450.1181640625,22019.544921875,6403.9228515625,24917.921875,1678.466796875,3430.048583984375,2773.602783203125,5139.509765625,2296.765625,12258.6884765625,-2667.109130859375,4772.34521484375,0.0,18078.486328125,418.0272521972656,21120.70703125,12758.572265625,5916.75439453125,7635.75244140625,18803.27734375,24765.333984375,9601.91015625,14923.4130859375,15933.513671875,1568.794189453125,24327.435546875,-5693.435546875,0.0,-722.4083251953125,9947.6171875,3304.4814453125,19444.623046875,13804.435546875,8120.53662109375,19837.220703125,6735.32470703125,8486.111328125,3178.914306640625,-1567.99951171875,18861.29296875,4368.623046875,14219.2841796875,5469.322265625,2708.43505859375,9015.4013671875,9730.65625,-1253.2869873046875,3176.530029296875,-2759.297607421875,10606.4482421875,222.5240020751953,3311.634033203125,-63.578285217285156,2806.9814453125,694.5927734375,19547.939453125,1014.868408203125,7457.7333984375,-1597.404541015625,8670.4892578125,22106.966796875,18651.486328125,14434.6552734375,-0.0,-36555.12890625,15548.0703125,3339.44970703125,0.0,4487.83251953125,0.0,0.0
11826.35546875,9442.169921875,22015.572265625,6394.38623046875,24911.5625,1675.287841796875,3428.459228515625,2768.83447265625,5151.4306640625,2296.765625,12252.3310546875,-2675.056396484375,4769.9609375,0.0,18083.25390625,410.87469482421875,21113.5546875,12750.6259765625,5913.57568359375,7642.1103515625,18799.3046875,24761.357421875,9597.9375,14917.0556640625,15930.333984375,1564.8206787109375,24324.259765625,-5695.81982421875,0.0,-727.1766357421875,9944.4384765625,3301.302734375,19439.85546875,13799.6669921875,8114.97412109375,19833.24609375,6732.9404296875,8482.9326171875,3175.7353515625,-1574.357421875,18856.525390625,4363.85498046875,14216.8994140625,5466.14306640625,2710.8193359375,9012.22265625,9722.7099609375,-1260.4395751953125,3171.76171875,-2761.681884765625,10607.2421875,220.93455505371094,3303.686767578125,-73.90975952148438,2806.9814453125,689.8244018554688,19543.966796875,1014.07373046875,7467.27001953125,-1598.993896484375,8660.9521484375,22102.990234375,18650.689453125,14446.576171875,-0.0,-36563.078125,15555.22265625,3337.0654296875,0.0,4482.26953125,0.0,0.0
11833.5087890625,9447.7333984375,22020.33984375,6403.9228515625,24912.357421875,1676.0826416015625,3430.048583984375,2767.2451171875,5159.3779296875,2294.38134765625,12253.9208984375,-2668.698486328125,4792.21337890625,0.0,18083.25390625,404.516845703125,21117.529296875,12752.2158203125,5913.57568359375,7645.2890625,18802.484375,24765.333984375,9601.1162109375,14917.8505859375,15926.361328125,1568.794189453125,24327.435546875,-5698.9990234375,0.0,-721.6135864257812,9945.2333984375,3306.071044921875,19447.0078125,13804.435546875,8117.3583984375,19835.630859375,6734.52978515625,8482.9326171875,3176.530029296875,-1567.99951171875,18858.91015625,4368.623046875,14218.4892578125,5468.52734375,2711.614013671875,9012.22265625,9720.3251953125,-1257.2606201171875,3172.556640625,-2756.913330078125,10608.83203125,216.96090698242188,3302.89208984375,-69.14138793945312,2839.565185546875,704.9242553710938,19545.5546875,1003.7421875,7472.0380859375,-1598.19921875,8664.92578125,22104.58203125,18651.486328125,14441.8076171875,-0.0,-36558.3125,15565.5546875,3353.754638671875,0.0,4475.91162109375,0.0,0.0
11827.1513671875,9432.6337890625,22017.16015625,6402.33349609375,24910.767578125,1668.9300537109375,3418.92236328125,2758.5029296875,5139.509765625,2280.87109375,12244.3837890625,-2678.2353515625,4788.23974609375,0.0,18067.359375,393.3906555175781,21113.5546875,12751.419921875,5904.0390625,7629.39453125,18798.509765625,24761.357421875,9593.9638671875,14912.2880859375,15936.693359375,1563.2310791015625,24321.875,-5709.330078125,0.0,-727.9713745117188,9942.0546875,3299.713134765625,19443.830078125,13798.873046875,8114.1787109375,19829.2734375,6726.5830078125,8473.396484375,3166.19873046875,-1575.152099609375,18857.3203125,4362.26513671875,14210.5419921875,5460.58056640625,2697.308837890625,9002.685546875,9720.3251953125,-1272.3604736328125,3170.967041015625,-2759.297607421875,10598.5,205.83470153808594,3297.328857421875,-77.08867645263672,2834.002197265625,704.9242553710938,19538.40234375,987.0529174804688,7453.759765625,-1606.941162109375,8656.978515625,22099.017578125,18641.154296875,14407.634765625,-0.0,-36574.203125,15550.4541015625,3354.54931640625,0.0,4458.42724609375,0.0,0.0
11822.3828125,9430.2490234375,22029.876953125,6411.87060546875,24922.689453125,1680.0562744140625,3429.25390625,2772.013427734375,5141.099609375,2299.149658203125,12258.6884765625,-2671.877685546875,4790.6240234375,0.0,18077.69140625,400.543212890625,21126.26953125,12762.546875,5915.9599609375,7640.5205078125,18810.4296875,24773.279296875,9601.91015625,14923.4130859375,15951.7919921875,1574.357421875,24334.58984375,-5698.2041015625,0.0,-721.6135864257812,9952.3857421875,3309.25,19454.95703125,13809.2041015625,8126.099609375,19842.783203125,6740.09326171875,8485.3173828125,3182.887939453125,-1566.4100341796875,18870.830078125,4374.98095703125,14220.078125,5469.322265625,2704.46142578125,9015.4013671875,9720.3251953125,-1266.79736328125,3179.709228515625,-2744.992431640625,10608.83203125,216.1661834716797,3291.765869140625,-70.73084259033203,2832.41259765625,708.1031494140625,19545.5546875,996.5896606445312,7465.6806640625,-1592.6361083984375,8667.3095703125,22110.939453125,18653.869140625,14429.0927734375,-0.0,-36567.84765625,15562.375,3373.622802734375,0.0,4491.01123046875,0.0,0.0
11833.5087890625,9437.4013671875,22038.6171875,6414.2548828125,24928.251953125,1686.4140625,3435.61181640625,2783.139404296875,5140.3046875,2308.6865234375,12257.099609375,-2662.3408203125,4796.98193359375,0.0,18087.228515625,422.0008850097656,21133.421875,12768.904296875,5923.90673828125,7650.05712890625,18817.583984375,24780.431640625,9606.6787109375,14931.361328125,15949.4072265625,1579.92041015625,24340.947265625,-5684.69384765625,0.0,-714.4609985351562,9958.744140625,3314.81298828125,19460.51953125,13815.5625,8133.251953125,19849.142578125,6747.24560546875,8494.853515625,3194.014404296875,-1565.6153564453125,18876.39453125,4381.33837890625,14225.642578125,5477.26953125,2709.229736328125,9027.322265625,9737.0146484375,-1259.6448974609375,3185.272216796875,-2739.429443359375,10615.189453125,229.6765594482422,3274.28173828125,-61.98883056640625,2840.35986328125,705.718994140625,19555.091796875,1018.8421020507812,7474.42236328125,-1577.5362548828125,8676.0517578125,22118.091796875,18663.40625,14445.78125,-0.0,-36555.12890625,15570.3232421875,3368.059814453125,0.0,4494.1904296875,0.0,0.0
11822.3828125,9432.6337890625,22033.849609375,6407.896484375,24918.71484375,1673.698486328125,3423.69091796875,2773.602783203125,5123.615234375,2298.35498046875,12247.5625,-2668.698486328125,4782.6767578125,0.0,18073.716796875,414.84832763671875,21123.88671875,12757.7783203125,5914.3701171875,7638.93115234375,18807.251953125,24773.279296875,9597.9375,14922.619140625,15931.9248046875,1567.204833984375,24330.615234375,-5695.81982421875,0.0,-725.5872192382812,9950.796875,3306.071044921875,19454.16015625,13807.6142578125,8122.12646484375,19839.60546875,6737.708984375,8484.5224609375,3195.603515625,-1594.2255859375,18865.267578125,4370.21240234375,14216.10546875,5465.3486328125,2696.51416015625,9016.990234375,9751.3203125,-1293.818115234375,3173.351318359375,-2755.32421875,10604.8583984375,217.75563049316406,3272.6923828125,-64.37301635742188,2832.41259765625,706.5137329101562,19546.349609375,1012.4841918945312,7460.912109375,-1588.6624755859375,8668.10546875,22109.349609375,18653.869140625,14425.9140625,-0.0,-36560.6953125,15557.6064453125,3359.31787109375,0.0,4484.6533203125,0.0,0.0
11824.767578125,9410.380859375,22029.876953125,6411.07568359375,24917.921875,1670.51953125,3421.306640625,2769.629150390625,5114.87353515625,2298.35498046875,12257.099609375,-2671.877685546875,4773.14013671875,0.0,18069.744140625,407.6957702636719,21123.08984375,12751.419921875,5911.19140625,7636.546875,18806.45703125,24771.689453125,9594.7578125,14920.234375,15935.8974609375,1564.02587890625,24329.8203125,-5702.177734375,0.0,-732.73974609375,9948.4130859375,3304.4814453125,19451.77734375,13808.41015625,8121.3310546875,19835.630859375,6736.11962890625,8479.7548828125,3174.14599609375,-1587.072998046875,18865.267578125,4369.41748046875,14214.515625,5461.375,2693.335205078125,9014.6064453125,9738.6044921875,-1300.970703125,3170.967041015625,-2758.5029296875,10602.474609375,211.39781188964844,3283.818603515625,-73.90975952148438,2826.849609375,703.3348388671875,19541.58203125,1006.1264038085938,7456.9384765625,-1595.020263671875,8656.978515625,22105.375,18650.689453125,14421.939453125,-0.0,-36567.84765625,15558.40234375,3367.264892578125,0.0,4498.95849609375,0.0,0.0
11828.740234375,9414.35546875,22032.26171875,6423.79150390625,24921.89453125,1682.4404296875,3423.69091796875,2776.78173828125,5111.6943359375,2299.944580078125,12269.814453125,-2663.93017578125,4765.9873046875,0.0,18069.744140625,422.0008850097656,21131.833984375,12755.3935546875,5915.9599609375,7637.341796875,18812.021484375,24779.638671875,9594.7578125,14925.7978515625,15939.0771484375,1580.7152099609375,24325.84765625,-5688.66748046875,0.0,-723.2030029296875,9956.359375,3313.2236328125,19458.9296875,13817.9462890625,8127.689453125,19841.990234375,6738.50390625,8486.9072265625,3179.709228515625,-1562.4364013671875,18871.625,4383.72265625,14217.6943359375,5471.70654296875,2693.335205078125,9020.1689453125,9730.65625,-1258.85009765625,3170.967041015625,-2741.813720703125,10602.474609375,220.93455505371094,3293.355224609375,-73.90975952148438,2827.644287109375,710.4873657226562,19543.966796875,1023.6104736328125,7453.759765625,-1589.4571533203125,8660.1572265625,22111.734375,18653.869140625,14428.2978515625,-0.0,-36563.875,15567.1435546875,3368.059814453125,0.0,4491.01123046875,0.0,0.0
11831.919921875,9431.8388671875,22038.6171875,6426.97021484375,24929.046875,1685.619384765625,3430.048583984375,2778.37109375,5116.462890625,2303.12353515625,12284.9150390625,-2656.777587890625,4777.908203125,0.0,18081.6640625,416.4377746582031,21139.779296875,12761.751953125,5921.5224609375,7643.69970703125,18819.173828125,24782.81640625,9600.3212890625,14930.5654296875,15947.0234375,1584.6888427734375,24333.0,-5691.05126953125,0.0,-708.1031494140625,9961.1279296875,3322.76025390625,19466.08203125,13821.919921875,8133.251953125,19846.7578125,6744.86181640625,8493.2646484375,3200.3720703125,-1558.4627685546875,18876.39453125,4386.10693359375,14223.2578125,5471.70654296875,2700.48779296875,9021.7587890625,9746.5517578125,-1239.776611328125,3180.50390625,-2742.6083984375,10611.216796875,221.72927856445312,3306.071044921875,-68.3466567993164,2837.18115234375,720.81884765625,19551.912109375,1019.6367797851562,7463.29638671875,-1588.6624755859375,8663.3369140625,22117.296875,18659.43359375,14432.271484375,-0.0,-36557.515625,15566.3486328125,3375.21240234375,0.0,4485.4482421875,0.0,0.0
11823.177734375,9432.6337890625,22033.056640625,6414.2548828125,24924.27734375,1677.6719970703125,3422.101318359375,2770.423828125,5099.7734375,2299.149658203125,12282.53125,-2665.519775390625,4780.29248046875,0.0,18075.30859375,406.9010314941406,21131.833984375,12756.9833984375,5915.1650390625,7632.57373046875,18815.19921875,24775.6640625,9596.34765625,14922.619140625,15941.4619140625,1571.178466796875,24329.02734375,-5700.58837890625,0.0,-714.4609985351562,9953.9755859375,3316.40234375,19458.9296875,13813.177734375,8127.689453125,19839.60546875,6738.50390625,8485.3173828125,3193.219482421875,-1571.97314453125,18870.03515625,4375.77587890625,14218.4892578125,5462.96435546875,2693.335205078125,9015.4013671875,9749.73046875,-1251.697509765625,3178.914306640625,-2757.708251953125,10604.064453125,216.1661834716797,3310.04443359375,-78.67813110351562,2834.002197265625,708.1031494140625,19545.5546875,1008.5106201171875,7454.55419921875,-1595.8150634765625,8650.6201171875,22110.14453125,18651.486328125,14421.1455078125,-0.0,-36568.640625,15559.9912109375,3367.264892578125,0.0,4491.01123046875,0.0,0.0
11823.9716796875,9423.8916015625,22025.904296875,6410.28076171875,24917.125,1667.340576171875,3414.94873046875,2764.86083984375,5091.03173828125,2291.997314453125,12273.7880859375,-2673.467041015625,4773.14013671875,0.0,18068.94921875,399.74847412109375,21123.08984375,12751.419921875,5907.21728515625,7624.6259765625,18807.251953125,24768.51171875,9589.1953125,14917.8505859375,15933.513671875,1561.6417236328125,24320.283203125,-5707.74072265625,0.0,-723.9977416992188,9946.8232421875,3305.276123046875,19448.599609375,13806.8203125,8121.3310546875,19833.24609375,6732.14599609375,8478.958984375,3181.298583984375,-1580.7152099609375,18863.677734375,4366.2392578125,14210.5419921875,5458.99072265625,2686.977294921875,9009.0439453125,9742.5771484375,-1254.081787109375,3165.404052734375,-2766.4501953125,10596.9111328125,208.21888732910156,3302.89208984375,-85.03595733642578,2828.43896484375,697.771728515625,19540.787109375,995.000244140625,7448.1962890625,-1602.9676513671875,8648.236328125,22104.58203125,18645.12890625,14417.171875,-0.0,-36578.97265625,15559.9912109375,3364.086181640625,0.0,4480.68017578125,0.0,0.0
11832.7138671875,9423.0966796875,22022.724609375,6414.2548828125,24914.7421875,1665.7510986328125,3419.717041015625,2764.06591796875,5102.95263671875,2293.586669921875,12271.404296875,-2677.440673828125,4771.55078125,0.0,18074.51171875,396.569580078125,21119.1171875,12749.8310546875,5911.19140625,7635.75244140625,18803.27734375,24766.126953125,9588.400390625,14917.8505859375,15935.1025390625,1562.4364013671875,24321.080078125,-5709.330078125,0.0,-729.5608520507812,9945.2333984375,3298.12353515625,19443.830078125,13803.6416015625,8121.3310546875,19831.658203125,6733.7353515625,8480.548828125,3178.11962890625,-1582.3045654296875,18863.677734375,4363.06005859375,14210.5419921875,5457.4013671875,2692.54052734375,9010.6328125,9726.68359375,-1245.3397216796875,3162.22509765625,-2764.86083984375,10602.474609375,206.6294403076172,3287.792236328125,-77.08867645263672,2829.23388671875,697.771728515625,19543.966796875,988.642333984375,7458.52783203125,-1602.1728515625,8657.7734375,22105.375,18648.306640625,14429.0927734375,-0.0,-36586.921875,15560.7861328125,3360.112548828125,0.0,4476.7060546875,0.0,0.0
11833.5087890625,9426.2763671875,22014.775390625,6400.744140625,24915.537109375,1664.9564208984375,3421.306640625,2763.271240234375,5112.4892578125,2292.7919921875,12270.609375,-2682.208984375,4769.9609375,0.0,18080.869140625,394.1853942871094,21111.96484375,12746.6513671875,5911.19140625,7644.49462890625,18798.509765625,24762.154296875,9586.8115234375,14917.8505859375,15937.486328125,1561.6417236328125,24325.052734375,-5711.71435546875,0.0,-734.3292236328125,9940.46484375,3286.99755859375,19439.85546875,13793.3095703125,8118.15283203125,19829.2734375,6734.52978515625,8477.3701171875,3155.867431640625,-1576.7415771484375,18862.8828125,4360.67578125,14212.92578125,5453.427734375,2696.51416015625,9010.6328125,9705.2255859375,-1250.108154296875,3165.404052734375,-2763.271240234375,10604.8583984375,205.83470153808594,3281.434326171875,-74.7044906616211,2823.670654296875,696.9769897460938,19545.5546875,987.0529174804688,7468.06494140625,-1606.941162109375,8666.515625,22104.58203125,18653.07421875,14441.8076171875,-0.0,-36594.8671875,15563.1708984375,3347.39697265625,0.0,4467.16943359375,0.0,0.0
11825.5615234375,9421.5078125,22010.802734375,6395.18115234375,24910.767578125,1662.572265625,3421.306640625,2763.271240234375,5117.2578125,2295.17626953125,12261.8671875,-2690.15625,4771.55078125,0.0,18079.28125,392.5959167480469,21107.197265625,12740.294921875,5910.396484375,7649.2626953125,18794.537109375,24756.58984375,9585.2216796875,14917.0556640625,15929.541015625,1557.6680908203125,24324.259765625,-5712.50927734375,0.0,-731.945068359375,9936.4921875,3284.61328125,19437.470703125,13788.541015625,8114.97412109375,19827.68359375,6734.52978515625,8478.1650390625,3152.688232421875,-1569.5889892578125,18854.9375,4356.7021484375,14211.3369140625,5451.837890625,2698.8984375,9010.6328125,9712.37890625,-1258.85009765625,3163.019775390625,-2765.655517578125,10608.037109375,205.83470153808594,3284.61328125,-81.06231689453125,2820.49169921875,683.4666137695312,19544.759765625,987.84765625,7469.654296875,-1605.351806640625,8660.1572265625,22102.990234375,18656.25390625,14445.78125,-0.0,-36597.25,15569.52734375,3348.986328125,0.0,4468.75927734375,0.0,0.0
11817.6142578125,9410.380859375,22009.21484375,6402.33349609375,24909.177734375,1666.5458984375,3415.74365234375,2762.4765625,5101.36279296875,2289.613037109375,12260.27734375,-2686.1826171875,4773.14013671875,0.0,18071.33203125,397.3642883300781,21107.9921875,12737.91015625,5908.80712890625,7634.1630859375,18796.125,24755.001953125,9586.0166015625,14917.0556640625,15927.15625,1548.13134765625,24321.080078125,-5706.1513671875,0.0,-725.5872192382812,9937.2861328125,3286.20263671875,19435.8828125,13790.9248046875,8115.7685546875,19826.888671875,6732.14599609375,8478.1650390625,3157.45654296875,-1569.5889892578125,18853.345703125,4363.06005859375,14209.7470703125,5455.01708984375,2691.745849609375,9009.0439453125,9727.478515625,-1266.002685546875,3163.019775390625,-2760.88720703125,10601.6796875,206.6294403076172,3289.3818359375,-82.65177154541016,2826.849609375,692.2086181640625,19544.759765625,993.4107055664062,7459.322265625,-1608.5306396484375,8650.6201171875,22103.787109375,18650.689453125,14410.8134765625,-0.0,-36594.8671875,15557.6064453125,3341.833740234375,0.0,4471.14306640625,0.0,0.0
11827.1513671875,9411.970703125,22023.51953125,6415.04931640625,24921.099609375,1677.6719970703125,3426.074951171875,2772.80810546875,5101.36279296875,2295.970947265625,12267.4306640625,-2664.72509765625,4781.08740234375,0.0,18075.30859375,410.0799560546875,21119.1171875,12750.6259765625,5919.138671875,7635.75244140625,18807.251953125,24767.716796875,9597.9375,14927.3876953125,15939.87109375,1556.873291015625,24330.615234375,-5693.435546875,0.0,-708.1031494140625,9949.20703125,3302.097412109375,19447.802734375,13802.845703125,8128.48388671875,19836.42578125,6740.88818359375,8487.701171875,3166.19873046875,-1557.6680908203125,18866.0625,4372.5966796875,14220.8740234375,5468.52734375,2699.69287109375,9018.580078125,9740.193359375,-1259.6448974609375,3175.7353515625,-2745.787353515625,10606.4482421875,215.37144470214844,3302.097412109375,-75.49921417236328,2834.002197265625,716.84521484375,19551.119140625,1010.1000366210938,7460.912109375,-1600.5833740234375,8650.6201171875,22114.119140625,18657.048828125,14409.224609375,-0.0,-36583.7421875,15557.6064453125,3354.54931640625,0.0,4475.91162109375,0.0,0.0
11835.892578125,9424.6865234375,22024.3125,6411.87060546875,24922.689453125,1677.6719970703125,3432.432861328125,2772.80810546875,5110.8994140625,2299.149658203125,12269.0205078125,-2660.75146484375,4785.06103515625,0.0,18083.25390625,402.9273986816406,21123.88671875,12755.3935546875,5923.1123046875,7642.1103515625,18810.4296875,24771.689453125,9601.1162109375,14927.3876953125,15939.0771484375,1578.3310546875,24336.1796875,-5698.2041015625,0.0,-719.2293701171875,9953.9755859375,3306.86572265625,19451.77734375,13806.025390625,8131.6630859375,19840.3984375,6745.65625,8488.49609375,3173.351318359375,-1557.6680908203125,18866.857421875,4372.5966796875,14224.052734375,5469.322265625,2706.845458984375,9021.7587890625,9739.3994140625,-1250.90283203125,3176.530029296875,-2746.58203125,10612.8056640625,213.78199768066406,3303.686767578125,-68.3466567993164,2831.6181640625,720.0241088867188,19549.52734375,1005.3316650390625,7472.8330078125,-1599.7886962890625,8656.978515625,22117.296875,18661.818359375,14422.734375,-0.0,-36580.5625,15561.5810546875,3356.93359375,0.0,4479.09033203125,0.0,0.0
11827.1513671875,9430.2490234375,22016.3671875,6399.94970703125,24914.7421875,1669.724853515625,3425.2802734375,2764.86083984375,5104.5419921875,2293.586669921875,12253.125,-2670.2880859375,4780.29248046875,0.0,18079.28125,394.1853942871094,21117.529296875,12748.2412109375,5916.75439453125,7633.3681640625,18803.27734375,24764.537109375,9597.142578125,14921.029296875,15929.541015625,1567.99951171875,24325.84765625,-5706.94580078125,0.0,-728.76611328125,9945.2333984375,3296.5341796875,19443.830078125,13799.6669921875,8125.30517578125,19830.861328125,6736.9140625,8480.548828125,3170.967041015625,-1562.4364013671875,18858.91015625,4365.4443359375,14215.310546875,5462.96435546875,2699.69287109375,9013.0166015625,9721.1201171875,-1246.92919921875,3168.5830078125,-2755.32421875,10604.8583984375,204.24525451660156,3287.792236328125,-69.93611907958984,2822.8759765625,704.9242553710938,19541.58203125,998.973876953125,7468.06494140625,-1603.7623291015625,8657.7734375,22109.349609375,18653.869140625,14414.787109375,-0.0,-36590.09765625,15555.22265625,3349.781005859375,0.0,4477.5009765625,0.0,0.0
11827.1513671875,9422.302734375,22018.751953125,6406.30712890625,24917.125,1675.287841796875,3422.896240234375,2769.629150390625,5110.10498046875,2297.560546875,12244.3837890625,-2675.85107421875,4776.31884765625,0.0,18072.12890625,399.74847412109375,21121.501953125,12750.6259765625,5918.34423828125,7641.3154296875,18805.662109375,24770.1015625,9597.9375,14925.7978515625,15931.9248046875,1584.6888427734375,24325.84765625,-5704.5615234375,0.0,-722.4083251953125,9947.6171875,3296.5341796875,19445.419921875,13804.435546875,8127.689453125,19834.837890625,6736.9140625,8484.5224609375,3180.50390625,-1549.720703125,18859.705078125,4373.3916015625,14214.515625,5466.14306640625,2701.282470703125,9015.4013671875,9709.19921875,-1250.108154296875,3168.5830078125,-2752.93994140625,10601.6796875,205.03997802734375,3285.407958984375,-69.14138793945312,2821.286376953125,701.745361328125,19540.787109375,1001.3580322265625,7456.9384765625,-1600.5833740234375,8658.568359375,22111.734375,18657.048828125,14429.0927734375,-0.0,-36598.84375,15558.40234375,3352.9599609375,0.0,4487.83251953125,0.0,0.0
11830.330078125,9427.865234375,22023.51953125,6420.6123046875,24922.689453125,1685.619384765625,3428.459228515625,2775.98681640625,5118.05224609375,2297.560546875,12255.509765625,-2673.467041015625,4781.8818359375,0.0,18077.69140625,410.0799560546875,21128.654296875,12760.162109375,5927.0859375,7643.69970703125,18812.021484375,24780.431640625,9602.7060546875,14932.1552734375,15939.87109375,1602.1728515625,24329.02734375,-5695.02490234375,0.0,-716.84521484375,9956.359375,3301.302734375,19450.982421875,13813.97265625,8131.6630859375,19843.578125,6743.2724609375,8493.2646484375,3170.17236328125,-1544.1575927734375,18865.267578125,4384.517578125,14218.4892578125,5474.88525390625,2707.640380859375,9019.375,9719.53125,-1239.776611328125,3174.14599609375,-2748.96630859375,10607.2421875,209.0136260986328,3293.355224609375,-63.578285217285156,2828.43896484375,719.2293701171875,19544.759765625,1010.1000366210938,7463.29638671875,-1596.6097412109375,8662.541015625,22118.88671875,18661.818359375,14432.271484375,-0.0,-36597.25,15565.5546875,3361.701904296875,0.0,4478.2958984375,0.0,0.0
11827.1513671875,9432.6337890625,22026.697265625,6423.79150390625,24921.89453125,1691.1824951171875,3431.637939453125,2775.98681640625,5125.20458984375,2299.944580078125,12259.4833984375,-2671.877685546875,4784.26611328125,0.0,18081.6640625,409.28521728515625,21131.0390625,12760.95703125,5930.26513671875,7646.87890625,18813.609375,24780.431640625,9606.6787109375,14933.7451171875,15942.2548828125,1591.046630859375,24331.412109375,-5689.46240234375,0.0,-719.2293701171875,9957.94921875,3308.455322265625,19456.544921875,13816.3564453125,8132.45751953125,19845.16796875,6745.65625,8494.0595703125,3174.14599609375,-1559.257568359375,18866.857421875,4386.90185546875,14220.8740234375,5478.85888671875,2711.614013671875,9017.78515625,9727.478515625,-1236.59765625,3177.324951171875,-2739.429443359375,10609.626953125,207.42416381835938,3293.355224609375,-70.73084259033203,2833.207275390625,723.9977416992188,19544.759765625,1013.2789306640625,7469.654296875,-1599.7886962890625,8661.7470703125,22120.4765625,18662.611328125,14445.78125,-0.0,-36600.4296875,15566.3486328125,3367.264892578125,0.0,4477.5009765625,0.0,0.0
11827.1513671875,9439.7861328125,22025.107421875,6426.97021484375,24919.509765625,1689.593017578125,3430.048583984375,2772.80810546875,5129.1787109375,2292.7919921875,12263.45703125,-2669.493408203125,4783.4716796875,0.0,18079.28125,402.1326599121094,21130.244140625,12756.9833984375,5927.0859375,7642.1103515625,18812.021484375,24778.84375,9605.884765625,14930.5654296875,15939.87109375,1578.3310546875,24331.412109375,-5689.46240234375,0.0,-717.639892578125,9957.94921875,3313.2236328125,19454.95703125,13813.177734375,8130.07373046875,19845.16796875,6744.06689453125,8491.67578125,3180.50390625,-1560.846923828125,18866.0625,4384.517578125,14220.078125,5476.474609375,2710.8193359375,9013.8125,9729.8623046875,-1250.90283203125,3177.324951171875,-2736.250732421875,10609.626953125,205.03997802734375,3291.765869140625,-77.08867645263672,2835.591552734375,713.666259765625,19545.5546875,1013.2789306640625,7468.859375,-1606.146484375,8664.130859375,22118.091796875,18659.43359375,14437.8349609375,-0.0,-36601.2265625,15557.6064453125,3360.112548828125,0.0,4471.9375,0.0,0.0
11819.9990234375,9438.9912109375,22021.9296875,6428.5595703125,24919.509765625,1688.79833984375,3433.2275390625,2772.80810546875,5131.5625,2285.639404296875,12265.0458984375,-2674.26171875,4789.8291015625,0.0,18081.6640625,403.7221374511719,21127.859375,12758.572265625,5924.70166015625,7638.93115234375,18813.609375,24779.638671875,9605.08984375,14930.5654296875,15939.0771484375,1579.125732421875,24333.794921875,-5693.435546875,0.0,-715.2557373046875,9958.744140625,3312.4287109375,19453.3671875,13812.3828125,8130.07373046875,19846.7578125,6743.2724609375,8488.49609375,3180.50390625,-1576.7415771484375,18864.47265625,4384.517578125,14219.2841796875,5475.6796875,2711.614013671875,9011.427734375,9731.4521484375,-1258.85009765625,3178.11962890625,-2741.813720703125,10611.216796875,203.4505157470703,3290.970947265625,-65.96247100830078,2833.207275390625,700.1558837890625,19547.939453125,1014.868408203125,7470.44873046875,-1608.5306396484375,8664.130859375,22115.70703125,18657.841796875,14422.734375,-0.0,-36603.609375,15563.1708984375,3360.9072265625,0.0,4469.5537109375,0.0,0.0
11822.3828125,9435.8125,22030.671875,6425.380859375,24922.689453125,1689.593017578125,3432.432861328125,2769.629150390625,5128.3837890625,2278.487060546875,12270.609375,-2674.26171875,4793.00830078125,0.0,18081.6640625,400.543212890625,21132.626953125,12762.546875,5921.5224609375,7630.189453125,18815.994140625,24782.0234375,9605.08984375,14930.5654296875,15939.87109375,1583.8941650390625,24334.58984375,-5696.61474609375,0.0,-711.2821044921875,9958.744140625,3312.4287109375,19456.544921875,13815.5625,8130.8681640625,19845.962890625,6741.6826171875,8483.7275390625,3180.50390625,-1564.02587890625,18869.2421875,4388.4912109375,14220.078125,5476.474609375,2707.640380859375,9006.6591796875,9737.0146484375,-1251.697509765625,3178.914306640625,-2744.19775390625,10610.4208984375,201.86106872558594,3290.970947265625,-58.01518630981445,2834.796875,707.3084716796875,19547.14453125,1013.2789306640625,7464.8857421875,-1614.09375,8664.92578125,22116.501953125,18654.6640625,14404.4560546875,-0.0,-36603.609375,15561.5810546875,3352.9599609375,0.0,4456.04345703125,0.0,0.0
11826.35546875,9428.66015625,22031.46484375,6413.4599609375,24920.3046875,1688.0035400390625,3426.86962890625,2767.2451171875,5120.43603515625,2275.307861328125,12267.4306640625,-2671.082763671875,4793.00830078125,0.0,18074.51171875,398.9537658691406,21129.44921875,12759.3681640625,5918.34423828125,7620.65283203125,18812.021484375,24778.84375,9603.5,14928.181640625,15939.0771484375,1579.125732421875,24328.232421875,-5695.02490234375,0.0,-716.0504760742188,9956.359375,3310.04443359375,19454.95703125,13812.3828125,8127.689453125,19842.783203125,6736.11962890625,8479.7548828125,3181.298583984375,-1576.7415771484375,18870.03515625,4383.72265625,14217.6943359375,5475.6796875,2702.0771484375,9001.095703125,9733.041015625,-1250.90283203125,3177.324951171875,-2741.813720703125,10603.2685546875,203.4505157470703,3278.25537109375,-69.14138793945312,2830.028564453125,710.4873657226562,19544.759765625,1018.8421020507812,7452.96484375,-1618.0673828125,8660.1572265625,22112.52734375,18647.51171875,14398.09765625,-0.0,-36603.609375,15549.66015625,3341.0390625,0.0,4452.8642578125,0.0,0.0
11824.767578125,9423.0966796875,22023.51953125,6402.33349609375,24917.921875,1685.619384765625,3426.86962890625,2766.4501953125,5126.79443359375,2274.51318359375,12261.8671875,-2675.056396484375,4790.6240234375,0.0,18071.33203125,406.1063232421875,21122.296875,12752.2158203125,5915.9599609375,7623.8310546875,18807.251953125,24770.89453125,9602.7060546875,14927.3876953125,15946.2294921875,1572.767822265625,24327.435546875,-5695.02490234375,0.0,-721.6135864257812,9952.3857421875,3304.4814453125,19451.77734375,13805.23046875,8122.9208984375,19837.220703125,6734.52978515625,8478.1650390625,3174.14599609375,-1587.86767578125,18865.267578125,4376.5703125,14214.515625,5471.70654296875,2701.282470703125,9001.095703125,9722.7099609375,-1252.4923095703125,3179.709228515625,-2743.403076171875,10600.884765625,208.21888732910156,3271.10302734375,-85.03595733642578,2820.49169921875,703.3348388671875,19543.966796875,1021.2262573242188,7456.14404296875,-1622.0411376953125,8647.44140625,22108.5546875,18645.921875,14405.2509765625,-0.0,-36609.96484375,15547.275390625,3321.965576171875,0.0,4453.6591796875,0.0,0.0
11828.740234375,9428.66015625,22027.4921875,6398.35986328125,24925.8671875,1684.8245849609375,3434.817138671875,2770.423828125,5137.12548828125,2285.639404296875,12272.1982421875,-2675.85107421875,4793.00830078125,0.0,18082.4609375,411.6694030761719,21124.681640625,12754.599609375,5919.93310546875,7633.3681640625,18813.609375,24772.486328125,9609.8583984375,14928.181640625,15948.6142578125,1574.357421875,24336.97265625,-5696.61474609375,0.0,-721.6135864257812,9954.7705078125,3307.660400390625,19454.16015625,13805.23046875,8128.48388671875,19841.990234375,6741.6826171875,8485.3173828125,3170.967041015625,-1565.6153564453125,18870.03515625,4377.365234375,14223.2578125,5471.70654296875,2711.614013671875,9010.6328125,9732.24609375,-1251.697509765625,3186.86181640625,-2744.992431640625,10612.0107421875,216.96090698242188,3296.5341796875,-86.62541961669922,2830.8232421875,703.3348388671875,19551.912109375,1010.894775390625,7472.8330078125,-1609.325439453125,8648.236328125,22112.52734375,18653.07421875,14417.9658203125,-0.0,-36616.32421875,15561.5810546875,3331.502197265625,0.0,4457.63232421875,0.0,0.0
11823.9716796875,9431.8388671875,22028.287109375,6403.1279296875,24927.45703125,1679.2615966796875,3433.2275390625,2771.218505859375,5136.3310546875,2294.38134765625,12270.609375,-2672.67236328125,4783.4716796875,0.0,18079.28125,406.9010314941406,21126.26953125,12754.599609375,5921.5224609375,7637.341796875,18814.40625,24773.279296875,9608.2685546875,14928.181640625,15947.0234375,1571.97314453125,24336.1796875,-5698.9990234375,0.0,-723.9977416992188,9954.7705078125,3309.25,19454.16015625,13806.025390625,8129.279296875,19842.783203125,6740.88818359375,8486.111328125,3172.556640625,-1558.4627685546875,18873.21484375,4375.77587890625,14221.66796875,5466.93798828125,2707.640380859375,9015.4013671875,9728.2724609375,-1254.87646484375,3183.6826171875,-2752.14501953125,10611.216796875,217.75563049316406,3302.89208984375,-75.49921417236328,2836.386474609375,702.5401000976562,19550.32421875,1005.3316650390625,7464.8857421875,-1594.2255859375,8656.1845703125,22113.322265625,18654.6640625,14420.349609375,-0.0,-36615.53125,15567.9384765625,3368.059814453125,0.0,4478.2958984375,0.0,0.0
11808.078125,9428.66015625,22021.134765625,6403.1279296875,24918.71484375,1667.340576171875,3422.101318359375,2763.271240234375,5119.6416015625,2288.818359375,12261.0732421875,-2678.2353515625,4776.31884765625,0.0,18071.33203125,402.1326599121094,21118.322265625,12748.2412109375,5911.98583984375,7630.189453125,18805.662109375,24767.716796875,9595.5537109375,14918.64453125,15937.486328125,1564.02587890625,24327.435546875,-5710.125,0.0,-733.5344848632812,9944.4384765625,3296.5341796875,19447.0078125,13798.0771484375,8122.12646484375,19834.041015625,6732.9404296875,8476.5751953125,3165.404052734375,-1580.7152099609375,18865.267578125,4365.4443359375,14208.953125,5455.81201171875,2695.719482421875,9007.4541015625,9708.404296875,-1267.592041015625,3170.17236328125,-2763.271240234375,10603.2685546875,210.6030731201172,3284.61328125,-69.93611907958984,2828.43896484375,697.771728515625,19547.14453125,995.000244140625,7452.96484375,-1602.1728515625,8653.7998046875,22106.169921875,18646.716796875,14420.349609375,-0.0,-36621.88671875,15561.5810546875,3362.49658203125,0.0,4474.32177734375,0.0,0.0
11792.1826171875,9407.203125,22020.33984375,6401.5390625,24910.767578125,1654.625,3413.359375,2750.5556640625,5104.5419921875,2272.923828125,12249.9462890625,-2686.977294921875,4776.31884765625,0.0,18073.716796875,387.8275451660156,21110.376953125,12739.4990234375,5900.06494140625,7620.65283203125,18799.3046875,24757.384765625,9585.2216796875,14909.1083984375,15929.541015625,1555.283935546875,24324.259765625,-5720.45654296875,0.0,-743.0712280273438,9935.6962890625,3282.229248046875,19441.447265625,13788.541015625,8112.58984375,19824.50390625,6724.19873046875,8466.244140625,3155.867431640625,-1598.19921875,18859.705078125,4355.9072265625,14202.5947265625,5445.48046875,2686.977294921875,8996.3271484375,9701.251953125,-1279.5130615234375,3163.019775390625,-2772.80810546875,10599.2958984375,197.88742065429688,3269.513427734375,-78.67813110351562,2824.465576171875,693.798095703125,19545.5546875,985.4635009765625,7452.169921875,-1618.8621826171875,8643.4677734375,22096.634765625,18639.564453125,14413.9931640625,-0.0,-36631.42578125,15552.0439453125,3328.3232421875,0.0,4447.30126953125,0.0,0.0
11792.1826171875,9392.8974609375,22014.775390625,6397.5654296875,24909.177734375,1653.8302001953125,3412.564453125,2749.760986328125,5098.18408203125,2276.102783203125,12239.615234375,-2686.977294921875,4782.6767578125,0.0,18076.1015625,388.6222839355469,21104.8125,12734.73046875,5900.85986328125,7620.65283203125,18794.537109375,24755.796875,9580.453125,14909.1083984375,15930.333984375,1556.07861328125,24323.462890625,-5720.45654296875,0.0,-747.0448608398438,9934.107421875,3276.666015625,19436.677734375,13784.5673828125,8109.41015625,19822.916015625,6723.40380859375,8465.44921875,3160.6357421875,-1595.020263671875,18855.73046875,4351.93408203125,14204.1845703125,5442.30126953125,2684.59326171875,8994.73828125,9706.814453125,-1283.4866943359375,3161.430419921875,-2772.013427734375,10600.08984375,195.50323486328125,3267.924072265625,-97.75161743164062,2820.49169921875,696.9769897460938,19545.5546875,985.4635009765625,7454.55419921875,-1619.6568603515625,8637.9052734375,22095.837890625,18639.564453125,14408.4287109375,-0.0,-36638.578125,15553.6337890625,3337.860107421875,0.0,4457.63232421875,0.0,0.0
11798.541015625,9397.666015625,22015.572265625,6400.744140625,24912.357421875,1655.419677734375,3414.154052734375,2758.5029296875,5091.826171875,2285.639404296875,12245.97265625,-2683.003662109375,4782.6767578125,0.0,18075.30859375,402.1326599121094,21107.9921875,12738.705078125,5904.0390625,7625.4208984375,18796.919921875,24758.974609375,9580.453125,14913.876953125,15935.1025390625,1556.07861328125,24327.435546875,-5714.8935546875,0.0,-743.0712280273438,9936.4921875,3282.229248046875,19440.650390625,13788.541015625,8111.79443359375,19826.888671875,6726.5830078125,8471.01171875,3158.25146484375,-1594.2255859375,18857.3203125,4354.318359375,14208.1572265625,5447.86474609375,2684.59326171875,9003.4794921875,9713.1728515625,-1273.949951171875,3163.814453125,-2768.039794921875,10602.474609375,205.03997802734375,3275.07666015625,-94.57270050048828,2826.054931640625,693.0033569335938,19547.939453125,995.000244140625,7452.96484375,-1609.325439453125,8643.4677734375,22099.8125,18644.33203125,14406.044921875,-0.0,-36636.19140625,15556.017578125,3352.9599609375,0.0,4472.732421875,0.0,0.0
11800.1298828125,9401.638671875,22014.775390625,6396.7705078125,24911.5625,1654.625,3412.564453125,2758.5029296875,5086.26318359375,2289.613037109375,12252.3310546875,-2682.208984375,4776.31884765625,0.0,18073.716796875,395.77484130859375,21107.197265625,12737.115234375,5903.244140625,7628.599609375,18795.33203125,24755.001953125,9577.2744140625,14912.2880859375,15935.8974609375,1552.10498046875,24327.435546875,-5717.27734375,0.0,-738.3028564453125,9930.9287109375,3280.6396484375,19438.267578125,13785.3623046875,8111.0,19824.50390625,6725.7880859375,8470.2177734375,3151.8935546875,-1587.86767578125,18856.525390625,4349.5498046875,14204.978515625,5445.48046875,2683.798583984375,9005.8642578125,9709.994140625,-1272.3604736328125,3163.019775390625,-2768.039794921875,10600.884765625,205.03997802734375,3271.8974609375,-92.18851470947266,2827.644287109375,685.8507690429688,19547.939453125,994.2054443359375,7452.169921875,-1604.5570068359375,8643.4677734375,22097.4296875,18643.537109375,14410.8134765625,-0.0,-36629.0390625,15554.427734375,3348.986328125,0.0,4468.75927734375,0.0,0.0
11804.103515625,9395.2822265625,22017.955078125,6395.18115234375,24911.5625,1656.21435546875,3414.94873046875,2761.681884765625,5097.38916015625,2300.7392578125,12254.71484375,-2681.414306640625,4775.52392578125,0.0,18079.28125,394.1853942871094,21105.607421875,12733.9365234375,5908.01220703125,7641.3154296875,18794.537109375,24755.001953125,9576.4794921875,14913.08203125,15937.486328125,1552.10498046875,24328.232421875,-5718.072265625,0.0,-738.3028564453125,9932.517578125,3279.050048828125,19437.470703125,13785.3623046875,8114.1787109375,19825.30078125,6731.3515625,8471.806640625,3155.072509765625,-1584.6888427734375,18856.525390625,4351.13916015625,14208.953125,5447.06982421875,2689.361572265625,9009.837890625,9711.5830078125,-1278.7183837890625,3164.609130859375,-2770.423828125,10605.65234375,205.83470153808594,3269.513427734375,-108.08309173583984,2828.43896484375,685.8507690429688,19549.52734375,996.5896606445312,7465.6806640625,-1598.993896484375,8640.2890625,22099.8125,18650.689453125,14421.939453125,-0.0,-36631.42578125,15569.52734375,3346.602294921875,0.0,4471.9375,0.0,0.0
11800.9248046875,9381.771484375,22007.623046875,6386.43896484375,24908.384765625,1649.8565673828125,3415.74365234375,2762.4765625,5103.7470703125,2302.328857421875,12245.97265625,-2684.59326171875,4774.7294921875,0.0,18083.25390625,394.9801025390625,21101.6328125,12733.9365234375,5908.01220703125,7647.67333984375,18790.564453125,24752.6171875,9574.095703125,14911.4921875,15931.1298828125,1548.13134765625,24329.02734375,-5719.66162109375,0.0,-744.6607055664062,9929.33984375,3272.6923828125,19431.11328125,13779.00390625,8111.0,19823.708984375,6729.76171875,8470.2177734375,3156.662109375,-1593.430908203125,18850.9609375,4347.9599609375,14207.36328125,5443.89111328125,2693.335205078125,9009.0439453125,9704.4306640625,-1279.5130615234375,3162.22509765625,-2774.397705078125,10608.037109375,203.4505157470703,3268.71875,-115.23564910888672,2815.723388671875,687.4402465820312,19548.734375,998.1790771484375,7476.01171875,-1598.993896484375,8622.8056640625,22099.8125,18653.07421875,14429.0927734375,-0.0,-36641.7578125,15572.70703125,3341.0390625,0.0,4472.732421875,0.0,0.0
11800.1298828125,9393.6923828125,22006.830078125,6384.849609375,24906.79296875,1651.446044921875,3417.3330078125,2764.06591796875,5093.41552734375,2302.328857421875,12252.3310546875,-2688.56689453125,4776.31884765625,0.0,18079.28125,400.543212890625,21104.8125,12736.3203125,5910.396484375,7643.69970703125,18792.15234375,24753.412109375,9574.095703125,14913.876953125,15926.361328125,1548.926025390625,24329.02734375,-5716.482421875,0.0,-747.0448608398438,9930.1337890625,3277.460693359375,19433.498046875,13781.388671875,8112.58984375,19825.30078125,6730.556640625,8472.6015625,3152.688232421875,-1594.2255859375,18849.373046875,4346.37060546875,14208.1572265625,5446.275390625,2690.15625,9009.837890625,9717.94140625,-1282.69189453125,3162.22509765625,-2772.013427734375,10606.4482421875,203.4505157470703,3281.434326171875,-92.98324584960938,2822.081298828125,686.6455078125,19549.52734375,997.3843994140625,7470.44873046875,-1598.19921875,8627.57421875,22101.40234375,18653.869140625,14430.6826171875,-0.0,-36651.29296875,15563.96484375,3347.39697265625,0.0,4490.216796875,0.0,0.0
11812.845703125,9412.765625,22022.724609375,6396.7705078125,24918.71484375,1664.16162109375,3422.101318359375,2775.1923828125,5085.46826171875,2317.4287109375,12236.435546875,-2682.208984375,4787.4453125,0.0,18077.69140625,414.0535888671875,21115.9375,12743.47265625,5919.138671875,7646.87890625,18803.27734375,24764.537109375,9583.6328125,14925.0029296875,15938.2822265625,1560.846923828125,24335.384765625,-5705.3564453125,0.0,-739.0975952148438,9938.8759765625,3288.5869140625,19445.419921875,13791.720703125,8122.12646484375,19834.837890625,6738.50390625,8482.9326171875,3155.072509765625,-1581.5098876953125,18862.8828125,4359.08642578125,14216.10546875,5458.1962890625,2694.1298828125,9020.96484375,9736.220703125,-1293.818115234375,3171.76171875,-2759.297607421875,10608.037109375,215.37144470214844,3289.3818359375,-72.32030487060547,2835.591552734375,691.4138793945312,19553.50390625,1003.7421875,7461.70654296875,-1579.92041015625,8649.826171875,22110.939453125,18660.2265625,14428.2978515625,-0.0,-36646.52734375,15559.9912109375,3360.112548828125,0.0,4520.416015625,0.0,0.0
11807.2822265625,9407.203125,22016.3671875,6392.796875,24915.537109375,1657.8038330078125,3421.306640625,2768.039794921875,5089.44189453125,2307.891845703125,12234.0517578125,-2691.745849609375,4782.6767578125,0.0,18082.4609375,405.31158447265625,21108.78515625,12733.9365234375,5915.1650390625,7646.083984375,18796.919921875,24756.58984375,9578.8642578125,14918.64453125,15935.8974609375,1556.07861328125,24333.0,-5712.50927734375,0.0,-746.2501220703125,9934.107421875,3279.844970703125,19438.267578125,13786.9521484375,8116.56298828125,19827.68359375,6736.11962890625,8478.1650390625,3151.8935546875,-1587.072998046875,18857.3203125,4352.728515625,14212.1318359375,5451.837890625,2692.54052734375,9016.1962890625,9723.50390625,-1290.6392822265625,3172.556640625,-2764.06591796875,10610.4208984375,207.42416381835938,3280.6396484375,-83.44650268554688,2829.23388671875,677.9035034179688,19550.32421875,991.8212890625,7470.44873046875,-1589.4571533203125,8643.4677734375,22106.169921875,18657.048828125,14425.1181640625,-0.0,-36663.21484375,15566.3486328125,3358.523193359375,0.0,4507.70068359375,0.0,0.0
11796.1572265625,9407.9970703125,22009.21484375,6385.64453125,24909.177734375,1648.26708984375,3416.538330078125,2755.32421875,5081.49462890625,2294.38134765625,12268.2255859375,-2696.51416015625,4777.11328125,0.0,18078.486328125,391.80120849609375,21101.6328125,12730.7578125,5905.62841796875,7637.341796875,18790.564453125,24748.64453125,9574.095703125,14909.9033203125,15932.71875,1548.13134765625,24325.84765625,-5726.814453125,0.0,-751.813232421875,9928.5439453125,3272.6923828125,19432.703125,13779.00390625,8111.0,19819.736328125,6727.37744140625,8468.6279296875,3153.483154296875,-1596.6097412109375,18851.7578125,4343.19140625,14205.7734375,5442.30126953125,2684.59326171875,9003.4794921875,9715.556640625,-1273.1552734375,3167.788330078125,-2777.576416015625,10603.2685546875,197.0926971435547,3271.10302734375,-94.57270050048828,2818.90234375,674.724609375,19547.14453125,979.900390625,7463.29638671875,-1606.146484375,8639.4951171875,22099.017578125,18648.306640625,14423.529296875,-0.0,-36670.3671875,15567.1435546875,3342.62841796875,0.0,4485.4482421875,0.0,0.0
11802.513671875,9411.17578125,22012.392578125,6391.20703125,24909.177734375,1648.26708984375,3412.564453125,2752.93994140625,5069.57373046875,2278.487060546875,12276.1728515625,-2690.15625,4784.26611328125,0.0,18072.12890625,390.21173095703125,21104.017578125,12730.7578125,5902.44921875,7624.6259765625,18790.564453125,24749.4375,9571.7119140625,14906.7236328125,15932.71875,1551.3101806640625,24323.462890625,-5728.40380859375,0.0,-747.839599609375,9927.75,3275.871337890625,19435.8828125,13779.00390625,8109.41015625,19819.736328125,6724.9931640625,8467.0380859375,3154.27783203125,-1608.5306396484375,18852.552734375,4343.986328125,14204.1845703125,5440.7119140625,2679.82470703125,8997.9169921875,9726.68359375,-1263.618408203125,3165.404052734375,-2780.75537109375,10598.5,193.11904907226562,3276.666015625,-89.80432891845703,2822.081298828125,686.6455078125,19544.759765625,981.4898071289062,7454.55419921875,-1618.0673828125,8641.87890625,22098.22265625,18642.744140625,14410.0185546875,-0.0,-36663.21484375,15565.5546875,3337.0654296875,0.0,4460.0166015625,0.0,0.0
11808.8720703125,9412.765625,22019.544921875,6397.5654296875,24913.9453125,1659.393310546875,3414.94873046875,2760.092529296875,5075.931640625,2285.639404296875,12272.1982421875,-2686.1826171875,4796.98193359375,0.0,18075.30859375,397.3642883300781,21110.376953125,12734.73046875,5910.396484375,7629.39453125,18796.919921875,24755.001953125,9577.2744140625,14913.876953125,15933.513671875,1563.2310791015625,24327.435546875,-5715.68798828125,0.0,-740.6870727539062,9933.3125,3283.818603515625,19441.447265625,13787.74609375,8114.97412109375,19826.09375,6728.96728515625,8474.1904296875,3160.6357421875,-1587.072998046875,18858.91015625,4352.728515625,14209.7470703125,5451.04345703125,2686.1826171875,9005.8642578125,9729.8623046875,-1266.002685546875,3170.17236328125,-2767.2451171875,10602.474609375,202.65579223632812,3283.818603515625,-85.03595733642578,2828.43896484375,696.9769897460938,19547.939453125,995.000244140625,7458.52783203125,-1609.325439453125,8645.8525390625,22103.787109375,18646.716796875,14413.9931640625,-0.0,-36660.83203125,15560.7861328125,3345.807373046875,0.0,4467.96435546875,0.0,0.0
11810.4619140625,9409.5869140625,22022.724609375,6391.20703125,24916.330078125,1660.9827880859375,3415.74365234375,2762.4765625,5075.13671875,2283.25537109375,12272.994140625,-2681.414306640625,4790.6240234375,0.0,18073.716796875,397.3642883300781,21112.759765625,12733.1416015625,5910.396484375,7625.4208984375,18800.89453125,24756.58984375,9578.8642578125,14914.671875,15935.1025390625,1565.6153564453125,24329.8203125,-5714.8935546875,0.0,-736.71337890625,9937.2861328125,3288.5869140625,19444.623046875,13788.541015625,8118.15283203125,19826.09375,6730.556640625,8473.396484375,3169.377685546875,-1579.125732421875,18859.705078125,4356.7021484375,14209.7470703125,5451.837890625,2686.1826171875,9005.0693359375,9728.2724609375,-1273.949951171875,3173.351318359375,-2765.655517578125,10601.6796875,205.83470153808594,3288.5869140625,-85.03595733642578,2829.23388671875,690.619140625,19550.32421875,998.1790771484375,7455.34912109375,-1608.5306396484375,8646.6474609375,22103.787109375,18647.51171875,14401.2763671875,-0.0,-36656.85546875,15554.427734375,3341.833740234375,0.0,4468.75927734375,0.0,0.0
11815.23046875,9410.380859375,22028.287109375,6395.9755859375,24921.89453125,1663.366943359375,3421.306640625,2764.06591796875,5082.2890625,2286.43408203125,12276.1728515625,-2678.2353515625,4782.6767578125,0.0,18078.486328125,398.1590270996094,21116.734375,12732.3466796875,5913.57568359375,7631.77880859375,18805.662109375,24759.76953125,9581.248046875,14918.64453125,15944.6396484375,1564.8206787109375,24334.58984375,-5716.482421875,0.0,-735.1239624023438,9942.849609375,3294.150146484375,19450.1875,13793.3095703125,8122.12646484375,19829.2734375,6735.32470703125,8476.5751953125,3176.530029296875,-1578.3310546875,18866.0625,4361.470703125,14213.7216796875,5455.01708984375,2691.745849609375,9009.0439453125,9735.4248046875,-1281.1025390625,3176.530029296875,-2766.4501953125,10607.2421875,207.42416381835938,3297.328857421875,-78.67813110351562,2837.975830078125,689.8244018554688,19551.912109375,996.5896606445312,7464.0908203125,-1605.351806640625,8648.236328125,22106.966796875,18653.869140625,14406.044921875,-0.0,-36652.8828125,15563.96484375,3346.602294921875,0.0,4465.580078125,0.0,0.0
11813.640625,9408.7919921875,22023.51953125,6390.41259765625,24914.7421875,1660.1881103515625,3415.74365234375,2754.529296875,5079.9052734375,2273.718505859375,12265.841796875,-2683.798583984375,4775.52392578125,0.0,18072.923828125,386.23809814453125,21111.96484375,12729.16796875,5908.01220703125,7623.8310546875,18798.509765625,24755.001953125,9577.2744140625,14912.2880859375,15939.87109375,1562.4364013671875,24328.232421875,-5718.86669921875,0.0,-741.4818115234375,9935.6962890625,3291.765869140625,19443.830078125,13787.74609375,8115.7685546875,19822.916015625,6729.76171875,8470.2177734375,3182.09326171875,-1585.4835205078125,18861.29296875,4357.49658203125,14208.1572265625,5448.6591796875,2687.77197265625,9001.095703125,9731.4521484375,-1285.870849609375,3168.5830078125,-2762.4765625,10601.6796875,199.4768829345703,3290.970947265625,-84.2412338256836,2833.207275390625,687.4402465820312,19546.349609375,986.2581787109375,7460.1171875,-1621.246337890625,8645.8525390625,22100.607421875,18645.921875,14400.482421875,-0.0,-36666.39453125,15564.7587890625,3334.68115234375,0.0,4448.890625,0.0,0.0
11818.4091796875,9416.7392578125,22021.134765625,6392.001953125,24914.7421875,1663.366943359375,3419.717041015625,2758.5029296875,5084.67333984375,2275.307861328125,12261.0732421875,-2677.440673828125,4786.650390625,0.0,18076.896484375,395.77484130859375,21111.96484375,12734.73046875,5910.396484375,7626.21533203125,18799.3046875,24756.58984375,9581.248046875,14915.466796875,15938.2822265625,1561.6417236328125,24332.205078125,-5710.125,0.0,-738.3028564453125,9936.4921875,3293.355224609375,19442.240234375,13788.541015625,8115.7685546875,19824.50390625,6732.9404296875,8472.6015625,3178.914306640625,-1583.8941650390625,18862.8828125,4359.08642578125,14210.5419921875,5454.22216796875,2691.745849609375,9002.685546875,9716.3515625,-1269.181640625,3171.76171875,-2752.93994140625,10604.8583984375,206.6294403076172,3288.5869140625,-82.65177154541016,2829.23388671875,694.5927734375,19554.296875,999.7686157226562,7462.50146484375,-1619.6568603515625,8654.5947265625,22102.990234375,18648.306640625,14402.072265625,-0.0,-36667.984375,15563.96484375,3325.14453125,0.0,4446.50634765625,0.0,0.0
11810.4619140625,9416.7392578125,22016.3671875,6395.9755859375,24912.357421875,1657.8038330078125,3421.306640625,2758.5029296875,5091.03173828125,2279.28173828125,12250.7412109375,-2674.26171875,4782.6767578125,0.0,18080.076171875,402.9273986816406,21109.580078125,12733.1416015625,5909.6015625,7630.189453125,18795.33203125,24752.6171875,9582.04296875,14913.876953125,15937.486328125,1550.5155029296875,24327.435546875,-5714.0986328125,0.0,-742.2764892578125,9934.90234375,3287.792236328125,19439.85546875,13786.9521484375,8114.1787109375,19821.326171875,6731.3515625,8471.01171875,3142.35693359375,-1587.86767578125,18858.91015625,4350.34423828125,14208.953125,5452.6328125,2694.1298828125,9004.275390625,9699.662109375,-1256.4659423828125,3167.788330078125,-2767.2451171875,10604.8583984375,209.0136260986328,3286.99755859375,-85.8306884765625,2824.465576171875,689.0296630859375,19552.70703125,1008.5106201171875,7465.6806640625,-1615.6832275390625,8651.416015625,22100.607421875,18651.486328125,14409.224609375,-0.0,-36662.41796875,15564.7587890625,3335.475830078125,0.0,4459.22216796875,0.0,0.0
11809.6669921875,9411.970703125,22011.59765625,6401.5390625,24910.767578125,1659.393310546875,3418.92236328125,2759.297607421875,5094.2099609375,2276.8974609375,12253.9208984375,-2681.414306640625,4771.55078125,0.0,18072.12890625,402.9273986816406,21107.9921875,12734.73046875,5910.396484375,7627.80517578125,18795.33203125,24753.412109375,9582.04296875,14913.08203125,15938.2822265625,1549.720703125,24320.283203125,-5717.27734375,0.0,-746.2501220703125,9933.3125,3286.99755859375,19437.470703125,13787.74609375,8114.1787109375,19822.12109375,6728.17236328125,8471.01171875,3154.27783203125,-1605.351806640625,18855.73046875,4353.5234375,14208.1572265625,5452.6328125,2692.54052734375,9002.685546875,9698.0732421875,-1258.85009765625,3164.609130859375,-2774.397705078125,10600.08984375,207.42416381835938,3284.61328125,-92.98324584960938,2824.465576171875,684.2613525390625,19545.5546875,1003.7421875,7458.52783203125,-1613.299072265625,8650.6201171875,22099.017578125,18649.1015625,14406.044921875,-0.0,-36661.625,15566.3486328125,3339.44970703125,0.0,4452.06982421875,0.0,0.0
11805.693359375,9401.638671875,22005.240234375,6398.35986328125,24904.41015625,1660.1881103515625,3411.769775390625,2751.350341796875,5093.41552734375,2272.129150390625,12256.3046875,-2689.361572265625,4764.39794921875,0.0,18065.771484375,383.0591735839844,21101.6328125,12729.16796875,5904.0390625,7621.447265625,18788.1796875,24751.822265625,9580.453125,14906.7236328125,15928.7451171875,1550.5155029296875,24313.130859375,-5722.0458984375,0.0,-751.813232421875,9930.9287109375,3281.434326171875,19431.91015625,13783.7724609375,8108.61572265625,19820.53125,6721.01953125,8465.44921875,3155.072509765625,-1602.1728515625,18848.578125,4355.9072265625,14200.2109375,5450.24853515625,2686.977294921875,8994.73828125,9698.0732421875,-1273.1552734375,3158.25146484375,-2773.602783203125,10593.7314453125,195.50323486328125,3277.460693359375,-112.8514633178711,2814.9287109375,683.4666137695312,19537.607421875,995.794921875,7452.96484375,-1620.4515380859375,8643.4677734375,22094.25,18642.744140625,14398.892578125,-0.0,-36670.3671875,15562.375,3336.2705078125,0.0,4446.50634765625,0.0,0.0
11808.8720703125,9407.9970703125,22010.802734375,6399.94970703125,24904.41015625,1668.9300537109375,3414.94873046875,2756.913330078125,5110.10498046875,2276.102783203125,12261.8671875,-2682.208984375,4774.7294921875,0.0,18071.33203125,391.0064697265625,21106.40234375,12735.5263671875,5908.01220703125,7627.80517578125,18789.767578125,24755.001953125,9582.8369140625,14911.4921875,15923.9765625,1569.5889892578125,24317.10546875,-5716.482421875,0.0,-750.2238159179688,9934.107421875,3286.99755859375,19433.498046875,13788.541015625,8112.58984375,19825.30078125,6724.19873046875,8468.6279296875,3159.046142578125,-1582.3045654296875,18850.16796875,4367.828125,14202.5947265625,5458.1962890625,2693.335205078125,8998.7119140625,9709.19921875,-1267.592041015625,3159.046142578125,-2760.88720703125,10596.9111328125,201.0663299560547,3276.666015625,-112.05673217773438,2814.1337890625,696.1822509765625,19539.197265625,996.5896606445312,7460.912109375,-1614.09375,8645.0576171875,22098.22265625,18645.12890625,14409.224609375,-0.0,-36668.77734375,15560.7861328125,3334.68115234375,0.0,4450.47998046875,0.0,0.0
11800.9248046875,9407.9970703125,22010.802734375,6399.94970703125,24902.8203125,1672.9036865234375,3416.538330078125,2757.708251953125,5120.43603515625,2273.718505859375,12257.8935546875,-2682.208984375,4782.6767578125,0.0,18074.51171875,398.1590270996094,21104.017578125,12733.9365234375,5908.80712890625,7630.98388671875,18790.564453125,24755.796875,9586.0166015625,14913.08203125,15920.00390625,1583.8941650390625,24317.900390625,-5714.8935546875,0.0,-747.839599609375,9935.6962890625,3290.970947265625,19433.498046875,13789.3359375,8111.79443359375,19825.30078125,6724.19873046875,8468.6279296875,3158.25146484375,-1591.046630859375,18848.578125,4370.21240234375,14203.3896484375,5457.4013671875,2695.719482421875,8999.5068359375,9713.9677734375,-1266.79736328125,3160.6357421875,-2758.5029296875,10597.7060546875,205.83470153808594,3271.10302734375,-101.72525787353516,2813.33935546875,697.771728515625,19540.787109375,1003.7421875,7463.29638671875,-1612.50439453125,8630.7529296875,22099.8125,18644.33203125,14413.9931640625,-0.0,-36671.95703125,15549.66015625,3323.554931640625,0.0,4445.71142578125,0.0,0.0
11789.798828125,9400.0498046875,22006.830078125,6395.18115234375,24898.052734375,1666.5458984375,3415.74365234375,2752.93994140625,5125.99951171875,2272.923828125,12246.767578125,-2690.15625,4773.14013671875,0.0,18072.923828125,389.4170227050781,21100.83984375,12728.373046875,5905.62841796875,7630.189453125,18786.587890625,24752.6171875,9585.2216796875,14906.7236328125,15915.2353515625,1558.4627685546875,24316.310546875,-5718.86669921875,0.0,-746.2501220703125,9931.7236328125,3286.99755859375,19431.11328125,13783.7724609375,8107.8212890625,19819.736328125,6718.6357421875,8462.26953125,3148.71484375,-1594.2255859375,18844.60546875,4360.67578125,14200.2109375,5452.6328125,2695.719482421875,8995.533203125,9713.1728515625,-1274.74462890625,3158.25146484375,-2765.655517578125,10597.7060546875,200.2716064453125,3263.15576171875,-96.9568862915039,2810.955078125,681.0823974609375,19538.40234375,991.8212890625,7463.29638671875,-1618.8621826171875,8610.0888671875,22095.837890625,18640.359375,14418.76171875,-0.0,-36683.08203125,15555.22265625,3332.297119140625,0.0,4446.50634765625,0.0,0.0
11812.05078125,9410.380859375,22025.904296875,6410.28076171875,24915.537109375,1676.8773193359375,3425.2802734375,2764.86083984375,5135.5361328125,2289.613037109375,12264.251953125,-2670.2880859375,4776.31884765625,0.0,18076.1015625,394.1853942871094,21117.529296875,12748.2412109375,5918.34423828125,7639.72607421875,18802.484375,24766.921875,9598.732421875,14921.82421875,15931.9248046875,1560.846923828125,24326.642578125,-5703.76708984375,0.0,-725.5872192382812,9945.2333984375,3303.686767578125,19447.802734375,13799.6669921875,8121.3310546875,19834.041015625,6732.9404296875,8475.7802734375,3164.609130859375,-1572.767822265625,18862.8828125,4370.21240234375,14210.5419921875,5466.93798828125,2706.05078125,9008.248046875,9730.65625,-1250.108154296875,3171.76171875,-2759.297607421875,10606.4482421875,212.9872589111328,3279.844970703125,-83.44650268554688,2826.054931640625,689.0296630859375,19547.939453125,1003.7421875,7464.8857421875,-1606.146484375,8641.083984375,22111.734375,18652.28125,14434.6552734375,-0.0,-36660.03515625,15563.96484375,3360.112548828125,0.0,4473.52734375,0.0,0.0
11816.8193359375,9410.380859375,22027.4921875,6409.486328125,24916.330078125,1680.0562744140625,3426.86962890625,2767.2451171875,5128.3837890625,2289.613037109375,12266.6357421875,-2663.93017578125,4776.31884765625,0.0,18074.51171875,400.543212890625,21118.322265625,12749.8310546875,5918.34423828125,7634.1630859375,18802.484375,24767.716796875,9601.91015625,14924.208984375,15931.9248046875,1567.99951171875,24328.232421875,-5698.2041015625,0.0,-727.1766357421875,9946.0283203125,3302.097412109375,19448.599609375,13799.6669921875,8123.71533203125,19838.810546875,6735.32470703125,8478.958984375,3166.993408203125,-1574.357421875,18862.8828125,4374.18603515625,14211.3369140625,5468.52734375,2704.46142578125,9011.427734375,9729.8623046875,-1246.1343994140625,3172.556640625,-2755.32421875,10605.65234375,216.1661834716797,3283.02392578125,-96.9568862915039,2824.465576171875,694.5927734375,19551.912109375,1017.2525634765625,7460.1171875,-1604.5570068359375,8660.1572265625,22113.322265625,18653.869140625,14427.5029296875,-0.0,-36657.6484375,15557.6064453125,3350.57568359375,0.0,4475.91162109375,0.0,0.0
11820.79296875,9426.2763671875,22033.056640625,6416.638671875,24925.07421875,1683.235107421875,3434.022216796875,2775.98681640625,5134.7412109375,2297.560546875,12269.814453125,-2657.572509765625,4793.00830078125,0.0,18080.076171875,418.0272521972656,21126.26953125,12754.599609375,5927.0859375,7641.3154296875,18810.4296875,24775.6640625,9609.8583984375,14930.5654296875,15939.0771484375,1575.152099609375,24336.1796875,-5693.435546875,0.0,-726.3819580078125,9953.9755859375,3308.455322265625,19456.544921875,13806.025390625,8129.279296875,19845.16796875,6744.06689453125,8487.701171875,3175.7353515625,-1573.5626220703125,18869.2421875,4379.74951171875,14218.4892578125,5471.70654296875,2710.024658203125,9020.96484375,9732.24609375,-1244.544921875,3180.50390625,-2752.93994140625,10612.0107421875,222.5240020751953,3292.560546875,-87.4201431274414,2832.41259765625,696.9769897460938,19549.52734375,1021.2262573242188,7468.06494140625,-1594.2255859375,8667.3095703125,22120.4765625,18661.818359375,14432.271484375,-0.0,-36655.265625,15572.70703125,3358.523193359375,0.0,4484.6533203125,0.0,0.0
11811.2568359375,9413.5595703125,22024.3125,6413.4599609375,24917.125,1673.698486328125,3425.2802734375,2767.2451171875,5126.79443359375,2293.586669921875,12263.45703125,-2664.72509765625,4785.85595703125,0.0,18074.51171875,410.87469482421875,21119.1171875,12746.6513671875,5918.34423828125,7639.72607421875,18805.662109375,24771.689453125,9601.1162109375,14925.0029296875,15933.513671875,1569.5889892578125,24326.642578125,-5704.5615234375,0.0,-731.1503295898438,9946.0283203125,3298.12353515625,19448.599609375,13800.4619140625,8123.71533203125,19839.60546875,6737.708984375,8482.138671875,3164.609130859375,-1577.5362548828125,18863.677734375,4372.5966796875,14210.5419921875,5462.16943359375,2702.0771484375,9014.6064453125,9721.1201171875,-1256.4659423828125,3170.17236328125,-2760.88720703125,10605.65234375,213.78199768066406,3285.407958984375,-86.62541961669922,2830.028564453125,697.771728515625,19542.375,1012.4841918945312,7463.29638671875,-1601.3780517578125,8656.978515625,22115.70703125,18658.638671875,14428.2978515625,-0.0,-36666.39453125,15572.70703125,3356.138916015625,0.0,4478.2958984375,0.0,0.0
11813.640625,9406.4072265625,22023.51953125,6414.2548828125,24913.9453125,1670.51953125,3422.896240234375,2764.06591796875,5118.05224609375,2290.407958984375,12261.8671875,-2663.135498046875,4773.93505859375,0.0,18072.12890625,402.1326599121094,21119.1171875,12746.6513671875,5916.75439453125,7638.13623046875,18804.07421875,24769.306640625,9596.34765625,14925.0029296875,15932.71875,1567.99951171875,24324.259765625,-5705.3564453125,0.0,-728.76611328125,9945.2333984375,3293.355224609375,19450.1875,13798.873046875,8121.3310546875,19840.3984375,6735.32470703125,8478.958984375,3162.22509765625,-1570.3836669921875,18862.8828125,4371.00732421875,14206.568359375,5459.78564453125,2697.308837890625,9012.22265625,9720.3251953125,-1253.2869873046875,3163.019775390625,-2757.708251953125,10603.2685546875,209.808349609375,3274.28173828125,-77.8833999633789,2824.465576171875,695.3875122070312,19547.14453125,1009.3053588867188,7459.322265625,-1605.351806640625,8658.568359375,22113.322265625,18655.458984375,14425.9140625,-0.0,-36668.77734375,15567.9384765625,3353.754638671875,0.0,4471.9375,0.0,0.0
11806.48828125,9404.0234375,22026.697265625,6404.7177734375,24917.125,1669.724853515625,3422.896240234375,2760.88720703125,5115.66796875,2291.20263671875,12262.662109375,-2666.314453125,4772.34521484375,0.0,18076.1015625,396.569580078125,21121.501953125,12745.0625,5918.34423828125,7638.13623046875,18807.251953125,24771.689453125,9596.34765625,14925.0029296875,15936.693359375,1564.02587890625,24325.84765625,-5710.919921875,0.0,-728.76611328125,9946.0283203125,3292.560546875,19451.77734375,13800.4619140625,8124.5107421875,19841.193359375,6736.9140625,8478.958984375,3162.22509765625,-1575.152099609375,18868.447265625,4371.8017578125,14209.7470703125,5456.6064453125,2698.103759765625,9009.0439453125,9725.888671875,-1258.0552978515625,3165.404052734375,-2760.092529296875,10604.8583984375,205.03997802734375,3267.129150390625,-73.90975952148438,2823.670654296875,689.8244018554688,19547.939453125,1004.5369873046875,7463.29638671875,-1606.146484375,8663.3369140625,22114.119140625,18655.458984375,14432.271484375,-0.0,-36679.109375,15570.3232421875,3352.165283203125,0.0,4469.5537109375,0.0,0.0
11786.6201171875,9404.818359375,22028.287109375,6404.7177734375,24921.099609375,1662.572265625,3424.4853515625,2757.708251953125,5118.05224609375,2287.228759765625,12265.0458984375,-2671.877685546875,4777.11328125,0.0,18080.076171875,392.5959167480469,21119.1171875,12739.4990234375,5915.9599609375,7640.5205078125,18809.63671875,24770.1015625,9594.7578125,14921.82421875,15944.6396484375,1556.07861328125,24329.8203125,-5716.482421875,0.0,-735.918701171875,9943.64453125,3291.765869140625,19452.572265625,13795.693359375,8124.5107421875,19836.42578125,6736.11962890625,8475.7802734375,3166.993408203125,-1597.404541015625,18872.419921875,4365.4443359375,14212.1318359375,5451.837890625,2698.8984375,9004.275390625,9716.3515625,-1275.5394287109375,3169.377685546875,-2768.039794921875,10608.037109375,200.2716064453125,3267.924072265625,-81.06231689453125,2831.6181640625,687.4402465820312,19550.32421875,998.973876953125,7472.8330078125,-1612.50439453125,8659.36328125,22113.322265625,18656.25390625,14430.6826171875,-0.0,-36683.875,15571.1171875,3336.2705078125,0.0,4460.8115234375,0.0,0.0
11800.1298828125,9401.638671875,22022.724609375,6408.69140625,24921.89453125,1666.5458984375,3424.4853515625,2760.88720703125,5111.6943359375,2290.407958984375,12263.45703125,-2669.493408203125,4778.703125,0.0,18082.4609375,402.9273986816406,21120.70703125,12742.6787109375,5916.75439453125,7639.72607421875,18808.046875,24768.51171875,9594.7578125,14922.619140625,15947.0234375,1560.846923828125,24332.205078125,-5711.71435546875,0.0,-738.3028564453125,9946.8232421875,3298.91845703125,19454.95703125,13798.0771484375,8125.30517578125,19836.42578125,6736.9140625,8478.1650390625,3178.11962890625,-1600.5833740234375,18870.03515625,4365.4443359375,14213.7216796875,5455.81201171875,2698.103759765625,9007.4541015625,9708.404296875,-1270.77099609375,3170.967041015625,-2762.4765625,10610.4208984375,205.03997802734375,3278.25537109375,-83.44650268554688,2833.207275390625,692.2086181640625,19551.119140625,1005.3316650390625,7474.42236328125,-1606.941162109375,8647.44140625,22113.322265625,18656.25390625,14418.76171875,-0.0,-36679.90625,15570.3232421875,3333.886474609375,0.0,4463.19580078125,0.0,0.0
11818.4091796875,9396.87109375,22031.46484375,6414.2548828125,24925.07421875,1668.9300537109375,3426.86962890625,2764.86083984375,5101.36279296875,2292.7919921875,12253.125,-2663.93017578125,4781.8818359375,0.0,18078.486328125,406.9010314941406,21127.06640625,12749.8310546875,5919.138671875,7638.13623046875,18812.814453125,24771.689453125,9594.7578125,14926.5927734375,15948.6142578125,1564.8206787109375,24333.794921875,-5708.53564453125,0.0,-734.3292236328125,9950.001953125,3302.097412109375,19457.33984375,13803.6416015625,8126.89501953125,19839.60546875,6739.29833984375,8480.548828125,3176.530029296875,-1576.7415771484375,18874.009765625,4367.03369140625,14215.310546875,5458.99072265625,2696.51416015625,9009.837890625,9719.53125,-1256.4659423828125,3174.94091796875,-2756.913330078125,10608.83203125,207.42416381835938,3283.02392578125,-81.06231689453125,2834.796875,688.2349853515625,19551.912109375,1007.7158203125,7468.06494140625,-1602.1728515625,8646.6474609375,22114.119140625,18656.25390625,14416.376953125,-0.0,-36675.9296875,15567.9384765625,3345.807373046875,0.0,4470.34814453125,0.0,0.0
11823.177734375,9409.5869140625,22035.44140625,6411.87060546875,24929.841796875,1671.314208984375,3428.459228515625,2768.83447265625,5099.7734375,2295.970947265625,12251.5361328125,-2665.519775390625,4789.0341796875,0.0,18081.6640625,404.516845703125,21129.44921875,12752.2158203125,5922.3173828125,7641.3154296875,18815.19921875,24774.07421875,9594.7578125,14926.5927734375,15950.998046875,1566.4100341796875,24335.384765625,-5706.1513671875,0.0,-732.73974609375,9950.796875,3302.097412109375,19459.724609375,13805.23046875,8130.07373046875,19843.578125,6739.29833984375,8484.5224609375,3168.5830078125,-1566.4100341796875,18878.779296875,4370.21240234375,14218.4892578125,5460.58056640625,2698.8984375,9015.4013671875,9714.7626953125,-1255.671142578125,3180.50390625,-2753.734619140625,10610.4208984375,209.0136260986328,3289.3818359375,-84.2412338256836,2829.23388671875,684.2613525390625,19556.681640625,1008.5106201171875,7467.27001953125,-1598.19921875,8652.2099609375,22114.912109375,18657.048828125,14425.1181640625,-0.0,-36680.69921875,15569.52734375,3351.37060546875,0.0,4472.732421875,0.0,0.0
11821.587890625,9421.5078125,22029.876953125,6409.486328125,24929.841796875,1670.51953125,3431.637939453125,2770.423828125,5110.10498046875,2298.35498046875,12260.27734375,-2669.493408203125,4790.6240234375,0.0,18091.201171875,402.9273986816406,21126.26953125,12746.6513671875,5923.90673828125,7648.4677734375,18815.19921875,24773.279296875,9594.7578125,14926.5927734375,15947.818359375,1564.02587890625,24342.537109375,-5706.1513671875,0.0,-733.5344848632812,9950.001953125,3301.302734375,19456.544921875,13802.0517578125,8130.07373046875,19842.783203125,6741.6826171875,8487.701171875,3179.709228515625,-1572.767822265625,18877.982421875,4368.623046875,14221.66796875,5460.58056640625,2705.256103515625,9016.1962890625,9703.6357421875,-1257.2606201171875,3182.09326171875,-2757.708251953125,10619.9580078125,208.21888732910156,3290.970947265625,-86.62541961669922,2826.054931640625,689.8244018554688,19560.65625,1007.7158203125,7477.6015625,-1601.3780517578125,8658.568359375,22117.296875,18662.611328125,14431.4765625,-0.0,-36683.875,15572.70703125,3347.39697265625,0.0,4467.16943359375,0.0,0.0
11801.7197265625,9405.61328125,22016.3671875,6397.5654296875,24917.921875,1660.1881103515625,3426.86962890625,2760.092529296875,5116.462890625,2284.8447265625,12253.9208984375,-2683.003662109375,4781.8818359375,0.0,18091.201171875,394.1853942871094,21109.580078125,12733.9365234375,5914.3701171875,7651.64697265625,18800.89453125,24761.357421875,9586.8115234375,14917.0556640625,15937.486328125,1544.952392578125,24336.97265625,-5717.27734375,0.0,-747.839599609375,9936.4921875,3286.99755859375,19442.240234375,13788.541015625,8119.7421875,19830.068359375,6736.11962890625,8477.3701171875,3161.430419921875,-1601.3780517578125,18864.47265625,4357.49658203125,14212.92578125,5452.6328125,2701.282470703125,9006.6591796875,9698.0732421875,-1271.5657958984375,3172.556640625,-2767.2451171875,10616.779296875,196.29795837402344,3278.25537109375,-96.9568862915039,2817.31298828125,677.9035034179688,19554.296875,997.3843994140625,7483.16455078125,-1617.272705078125,8646.6474609375,22107.759765625,18657.048828125,14437.0390625,-0.0,-36694.2109375,15568.7333984375,3323.554931640625,0.0,4437.7646484375,0.0,0.0
11783.4404296875,9399.2548828125,22018.751953125,6393.59130859375,24916.330078125,1660.1881103515625,3428.459228515625,2761.681884765625,5137.12548828125,2287.228759765625,12253.9208984375,-2683.798583984375,4771.55078125,0.0,18097.55859375,398.1590270996094,21105.607421875,12731.5517578125,5916.75439453125,7667.54150390625,18796.919921875,24756.58984375,9586.0166015625,14917.0556640625,15935.1025390625,1525.0841064453125,24333.794921875,-5717.27734375,0.0,-750.2238159179688,9934.90234375,3277.460693359375,19439.0625,13785.3623046875,8115.7685546875,19830.068359375,6739.29833984375,8478.958984375,3143.151611328125,-1626.0146484375,18861.29296875,4354.318359375,14212.1318359375,5453.427734375,2707.640380859375,9009.837890625,9702.841796875,-1278.7183837890625,3168.5830078125,-2768.039794921875,10620.7529296875,199.4768829345703,3265.539794921875,-99.34107208251953,2810.955078125,681.8771362304688,19552.70703125,1002.9474487304688,7497.46923828125,-1617.272705078125,8641.87890625,22107.759765625,18662.611328125,14449.755859375,-0.0,-36697.38671875,15577.4755859375,3323.554931640625,0.0,4422.66455078125,0.0,0.0
11796.951171875,9399.2548828125,22021.9296875,6402.33349609375,24919.509765625,1667.340576171875,3431.637939453125,2772.013427734375,5132.35693359375,2302.328857421875,12256.3046875,-2676.64599609375,4780.29248046875,0.0,18096.765625,406.1063232421875,21111.96484375,12737.91015625,5925.49658203125,7668.33642578125,18803.27734375,24765.333984375,9592.3740234375,14924.208984375,15937.486328125,1560.05224609375,24339.357421875,-5707.74072265625,0.0,-745.4554443359375,9942.0546875,3279.844970703125,19442.240234375,13793.3095703125,8121.3310546875,19837.220703125,6742.4775390625,8486.9072265625,3151.098876953125,-1603.7623291015625,18864.47265625,4363.85498046875,14214.515625,5461.375,2712.40869140625,9020.1689453125,9713.1728515625,-1278.7183837890625,3172.556640625,-2761.681884765625,10621.5478515625,209.808349609375,3257.592529296875,-98.54634857177734,2816.51806640625,683.4666137695312,19555.88671875,1014.07373046875,7497.46923828125,-1597.404541015625,8631.546875,22114.119140625,18669.763671875,14439.423828125,-0.0,-36692.62109375,15580.654296875,3347.39697265625,0.0,4455.24853515625,0.0,0.0
11816.0244140625,9401.638671875,22026.697265625,6409.486328125,24922.689453125,1677.6719970703125,3427.66455078125,2779.960693359375,5101.36279296875,2307.891845703125,12261.8671875,-2665.519775390625,4796.98193359375,0.0,18086.43359375,412.4641418457031,21121.501953125,12745.857421875,5926.291015625,7647.67333984375,18808.841796875,24775.6640625,9596.34765625,14932.1552734375,15941.4619140625,1576.7415771484375,24340.15234375,-5698.2041015625,0.0,-736.71337890625,9947.6171875,3294.150146484375,19451.77734375,13802.845703125,8125.30517578125,19845.962890625,6741.6826171875,8492.4697265625,3163.814453125,-1586.2783203125,18868.447265625,4375.77587890625,14216.10546875,5469.322265625,2703.666748046875,9024.9375,9730.65625,-1273.949951171875,3176.530029296875,-2748.96630859375,10613.6005859375,217.75563049316406,3265.539794921875,-96.16216278076172,2821.286376953125,684.2613525390625,19556.681640625,1016.4578857421875,7472.0380859375,-1585.4835205078125,8643.4677734375,22119.6796875,18666.5859375,14410.0185546875,-0.0,-36685.46484375,15571.1171875,3362.49658203125,0.0,4486.24267578125,0.0,0.0
11830.330078125,9419.1240234375,22037.029296875,6425.380859375,24927.45703125,1691.9771728515625,3424.4853515625,2784.72900390625,5082.2890625,2303.12353515625,12265.841796875,-2648.830322265625,4797.77685546875,0.0,18075.30859375,422.7956237792969,21132.626953125,12752.2158203125,5927.880859375,7634.1630859375,18814.40625,24785.19921875,9598.732421875,14940.1025390625,15950.998046875,1588.6624755859375,24337.76953125,-5684.69384765625,0.0,-720.81884765625,9955.5654296875,3305.276123046875,19460.51953125,13813.177734375,8131.6630859375,19853.91015625,6743.2724609375,8497.23828125,3167.788330078125,-1580.7152099609375,18875.599609375,4389.2861328125,14216.10546875,5479.65380859375,2695.719482421875,9025.7333984375,9736.220703125,-1267.592041015625,3181.298583984375,-2729.892822265625,10606.4482421875,227.29237365722656,3282.229248046875,-84.2412338256836,2830.8232421875,708.1031494140625,19554.296875,1025.99462890625,7449.78564453125,-1583.8941650390625,8665.720703125,22123.65625,18664.201171875,14394.1240234375,-0.0,-36668.77734375,15554.427734375,3363.29150390625,0.0,4486.24267578125,0.0,0.0
11831.1240234375,9423.0966796875,22030.671875,6425.380859375,24921.89453125,1689.593017578125,3423.69091796875,2783.139404296875,5084.67333984375,2301.533935546875,12267.4306640625,-2652.00927734375,4783.4716796875,0.0,18074.51171875,423.59033203125,21129.44921875,12747.447265625,5926.291015625,7635.75244140625,18810.4296875,24782.0234375,9595.5537109375,14939.30859375,15947.818359375,1589.4571533203125,24333.0,-5686.283203125,0.0,-724.79248046875,9952.3857421875,3304.4814453125,19457.33984375,13811.587890625,8129.279296875,19849.935546875,6740.88818359375,8496.443359375,3165.404052734375,-1596.6097412109375,18870.830078125,4388.4912109375,14212.1318359375,5479.65380859375,2694.924560546875,9025.7333984375,9730.65625,-1258.85009765625,3177.324951171875,-2729.892822265625,10605.65234375,228.0871124267578,3288.5869140625,-85.8306884765625,2830.8232421875,704.1295166015625,19548.734375,1022.815673828125,7449.78564453125,-1584.6888427734375,8670.4892578125,22119.6796875,18660.2265625,14405.2509765625,-0.0,-36674.33984375,15552.0439453125,3355.343994140625,0.0,4483.06396484375,0.0,0.0
11821.587890625,9419.91796875,22021.9296875,6407.10205078125,24912.357421875,1676.0826416015625,3420.511962890625,2775.98681640625,5091.826171875,2299.149658203125,12256.3046875,-2659.956787109375,4777.11328125,0.0,18078.486328125,410.87469482421875,21120.70703125,12738.705078125,5920.72802734375,7640.5205078125,18800.89453125,24770.1015625,9589.1953125,14927.3876953125,15942.2548828125,1574.357421875,24329.02734375,-5698.2041015625,0.0,-734.3292236328125,9942.0546875,3297.328857421875,19450.1875,13801.2568359375,8120.53662109375,19839.60546875,6734.52978515625,8486.9072265625,3161.430419921875,-1593.430908203125,18862.08984375,4377.365234375,14204.978515625,5467.73291015625,2694.1298828125,9019.375,9720.3251953125,-1256.4659423828125,3167.788330078125,-2750.5556640625,10605.65234375,221.72927856445312,3283.818603515625,-83.44650268554688,2824.465576171875,685.8507690429688,19549.52734375,1009.3053588867188,7459.322265625,-1590.251953125,8660.9521484375,22112.52734375,18657.841796875,14423.529296875,-0.0,-36688.64453125,15557.6064453125,3351.37060546875,0.0,4483.06396484375,0.0,0.0
11812.05078125,9417.5341796875,22017.955078125,6399.94970703125,24908.384765625,1670.51953125,3418.92236328125,2774.397705078125,5096.59423828125,2303.12353515625,12247.5625,-2664.72509765625,4779.49755859375,0.0,18076.896484375,413.2588806152344,21117.529296875,12731.5517578125,5917.54931640625,7647.67333984375,18794.537109375,24765.333984375,9585.2216796875,14925.0029296875,15939.87109375,1564.8206787109375,24325.84765625,-5702.97265625,0.0,-733.5344848632812,9938.0810546875,3292.560546875,19445.419921875,13798.873046875,8114.97412109375,19834.837890625,6733.7353515625,8486.111328125,3163.019775390625,-1582.3045654296875,18858.91015625,4371.8017578125,14203.3896484375,5462.96435546875,2694.924560546875,9020.1689453125,9706.814453125,-1257.2606201171875,3163.814453125,-2758.5029296875,10603.2685546875,222.5240020751953,3275.07666015625,-77.08867645263672,2819.697021484375,679.492919921875,19546.349609375,1011.6895141601562,7460.912109375,-1590.251953125,8653.0048828125,22109.349609375,18658.638671875,14440.21875,-0.0,-36694.2109375,15559.9912109375,3350.57568359375,0.0,4486.24267578125,0.0,0.0
11824.767578125,9423.0966796875,22032.26171875,6404.7177734375,24918.71484375,1680.8509521484375,3429.25390625,2783.139404296875,5106.92578125,2315.839111328125,12266.6357421875,-2659.161865234375,4799.3662109375,0.0,18082.4609375,423.59033203125,21124.681640625,12737.91015625,5929.47021484375,7656.41552734375,18805.662109375,24773.279296875,9595.5537109375,14935.333984375,15947.818359375,1572.767822265625,24337.76953125,-5694.23046875,0.0,-735.918701171875,9946.8232421875,3302.097412109375,19453.3671875,13807.6142578125,8123.71533203125,19842.783203125,6744.86181640625,8494.0595703125,3178.914306640625,-1571.97314453125,18869.2421875,4381.33837890625,14214.515625,5472.50146484375,2705.256103515625,9029.7060546875,9717.146484375,-1257.2606201171875,3177.324951171875,-2751.350341796875,10614.3955078125,230.47129821777344,3281.434326171875,-67.55193328857422,2830.8232421875,681.0823974609375,19554.296875,1024.4051513671875,7466.47509765625,-1577.5362548828125,8660.1572265625,22118.88671875,18668.970703125,14442.603515625,-0.0,-36691.02734375,15567.9384765625,3367.264892578125,0.0,4498.16357421875,0.0,0.0
11825.5615234375,9415.9443359375,22031.46484375,6405.51220703125,24917.921875,1682.4404296875,3432.432861328125,2783.139404296875,5106.92578125,2315.04443359375,12272.994140625,-2661.5458984375,4801.75,0.0,18088.818359375,425.1798095703125,21122.296875,12741.0888671875,5930.26513671875,7649.2626953125,18806.45703125,24772.486328125,9601.1162109375,14933.7451171875,15943.845703125,1570.3836669921875,24340.15234375,-5692.640625,0.0,-744.6607055664062,9946.8232421875,3303.686767578125,19453.3671875,13806.025390625,8125.30517578125,19841.990234375,6744.86181640625,8490.8798828125,3167.788330078125,-1576.7415771484375,18869.2421875,4378.95458984375,14215.310546875,5473.2958984375,2707.640380859375,9028.1171875,9726.68359375,-1257.2606201171875,3181.298583984375,-2752.14501953125,10617.57421875,231.26602172851562,3290.17626953125,-71.52557373046875,2837.18115234375,681.8771362304688,19557.4765625,1025.99462890625,7471.2431640625,-1578.3310546875,8657.7734375,22118.88671875,18668.970703125,14421.1455078125,-0.0,-36698.9765625,15562.375,3364.086181640625,0.0,4502.93212890625,0.0,0.0
