14210.5419921875,13801.2568359375,31998.951171875,11212.03125,27662.912109375,5738.7353515625,7545.9482421875,8577.505859375,8322.3984375,6132.1259765625,15759.4677734375,-1059.373291015625,8363.7236328125,0.0,22094.25,5552.7685546875,24277.369140625,19416.80859375,9077.3896484375,10961.69140625,22570.291015625,28860.568359375,20585.060546875,18881.95703125,20581.880859375,6308.5556640625,28250.216796875,-240.80276489257812,0.0,1102.28857421875,13434.88671875,6113.84716796875,25080.83984375,15856.4248046875,14455.318359375,23818.015625,8781.7509765625,13444.423828125,8029.9375,3228.982177734375,22332.66796875,8797.6455078125,16204.515625,11114.279296875,8164.24658203125,11501.3125,11495.7490234375,1629.98828125,9363.4921875,2624.19384765625,15896.955078125,5804.69775390625,7520.51708984375,1699.1297607421875,10306.041015625,3756.68212890625,23290.31640625,3564.357666015625,16707.578125,3107.388671875,9271.3037109375,25842.189453125,20697.1171875,12034.5751953125,-0.0,-44682.8203125,18878.779296875,4060.268310546875,0.0,7048.4482421875,0.0,0.0
14208.953125,13797.283203125,32002.92578125,11198.5205078125,27662.912109375,5737.9404296875,7545.9482421875,8574.326171875,8331.1396484375,6133.71533203125,15760.263671875,-1065.7310791015625,8360.544921875,0.0,22099.8125,5544.02685546875,24275.779296875,19415.220703125,9076.595703125,10964.076171875,22571.0859375,28862.953125,20589.033203125,18878.779296875,20583.470703125,6307.7607421875,28250.216796875,-247.16058349609375,0.0,1087.188720703125,13434.0927734375,6112.25732421875,25082.4296875,15854.8359375,14455.318359375,23819.60546875,8780.162109375,13443.62890625,8033.1162109375,3218.65087890625,22335.052734375,8798.4404296875,16204.515625,11111.8955078125,8168.220703125,11500.517578125,11499.72265625,1622.8358154296875,9365.08203125,2619.425537109375,15899.33984375,5803.9033203125,7519.72216796875,1699.9244384765625,10313.193359375,3744.76123046875,23293.49609375,3552.436767578125,16708.375,3106.593994140625,9271.3037109375,25842.189453125,20697.912109375,12045.701171875,-0.0,-44695.5390625,18883.546875,4051.526611328125,0.0,7054.0107421875,0.0,0.0
14203.3896484375,13797.283203125,31994.98046875,11196.13671875,27657.349609375,5733.171875,7543.56396484375,8571.1474609375,8337.498046875,6132.9208984375,15742.7783203125,-1072.883544921875,8359.75,0.0,22097.4296875,5540.84765625,24271.01171875,19409.65625,9074.2109375,10964.076171875,22565.5234375,28858.98046875,20584.265625,18874.009765625,20569.166015625,6302.9921875,28247.037109375,-255.10787963867188,0.0,1080.8309326171875,13430.1181640625,6109.0791015625,25075.27734375,15851.65625,14449.755859375,23815.6328125,8776.982421875,13439.6552734375,8029.1435546875,3213.087890625,22326.310546875,8794.466796875,16201.337890625,11107.126953125,8166.630859375,11498.927734375,11492.5703125,1614.8885498046875,9357.134765625,2613.8623046875,15896.955078125,5799.92919921875,7510.18505859375,1695.1561279296875,10303.65625,3737.608642578125,23291.90625,3542.10546875,16708.375,3104.2099609375,9261.767578125,25838.216796875,20697.1171875,12051.2646484375,-0.0,-44702.69140625,18885.134765625,4045.16845703125,0.0,7055.6005859375,0.0,0.0
14199.416015625,13804.435546875,31994.181640625,11204.0830078125,27660.52734375,5735.55615234375,7545.1533203125,8574.326171875,8343.85546875,6132.9208984375,15737.21484375,-1071.294189453125,8362.9296875,0.0,22095.837890625,5550.384765625,24271.806640625,19412.8359375,9075.005859375,10967.2548828125,22567.11328125,28858.98046875,20587.443359375,18876.39453125,20569.958984375,6305.37646484375,28249.421875,-251.928955078125,0.0,1085.5992431640625,13432.5029296875,6109.87353515625,25076.0703125,15853.2470703125,14452.9345703125,23817.220703125,8777.77734375,13440.4501953125,8029.1435546875,3218.65087890625,22327.900390625,8798.4404296875,16202.9267578125,11109.51171875,8168.220703125,11501.3125,11495.7490234375,1612.50439453125,9361.9033203125,2617.8359375,15896.955078125,5803.1083984375,7503.82763671875,1698.3350830078125,10301.2724609375,3742.376953125,23292.69921875,3544.489501953125,16709.169921875,3105.79931640625,9258.587890625,25838.216796875,20697.912109375,12052.0595703125,-0.0,-44702.69140625,18885.931640625,4050.731689453125,0.0,7054.0107421875,0.0,0.0
14203.3896484375,13813.97265625,32000.541015625,11216.7998046875,27666.091796875,5742.70849609375,7549.92138671875,8581.4794921875,8348.6240234375,6136.09912109375,15747.546875,-1062.5521240234375,8369.2861328125,0.0,22097.4296875,5557.537109375,24276.57421875,19420.78125,9079.7734375,10969.638671875,22571.0859375,28863.748046875,20593.80078125,18883.546875,20577.908203125,6311.73486328125,28250.216796875,-243.98167419433594,0.0,1094.34130859375,13436.4765625,6113.84716796875,25081.634765625,15860.3994140625,14457.703125,23824.373046875,8781.7509765625,13444.423828125,8031.52734375,3221.82958984375,22332.66796875,8806.3876953125,16207.6953125,11115.07421875,8172.1943359375,11508.46484375,11506.0810546875,1620.4515380859375,9366.671875,2625.783203125,15901.7236328125,5812.64501953125,7506.2119140625,1706.2822265625,10310.8095703125,3747.93994140625,23294.291015625,3555.61572265625,16712.34765625,3116.130859375,9263.3564453125,25844.57421875,20702.6796875,12052.0595703125,-0.0,-44699.5078125,18881.162109375,4066.6259765625,0.0,7050.03759765625,0.0,0.0
14209.7470703125,13811.587890625,32003.71875,11221.568359375,27664.50390625,5746.6826171875,7549.126953125,8579.890625,8346.240234375,6133.71533203125,15757.083984375,-1067.3204345703125,8373.2607421875,0.0,22096.634765625,5550.384765625,24278.1640625,19421.578125,9081.36328125,10966.4599609375,22571.8828125,28866.1328125,20596.185546875,18882.751953125,20584.265625,6319.681640625,28251.013671875,-243.18695068359375,0.0,1087.9835205078125,13438.0654296875,6117.82080078125,25083.22265625,15861.1923828125,14457.703125,23825.96484375,8783.3408203125,13445.2177734375,8037.884765625,3208.3193359375,22334.2578125,8808.7724609375,16206.8994140625,11117.4580078125,8172.1943359375,11506.0810546875,11510.8486328125,1622.0411376953125,9364.287109375,2627.372802734375,15900.134765625,5811.85009765625,7514.15869140625,1707.0770263671875,10318.755859375,3743.171630859375,23290.31640625,3552.436767578125,16709.962890625,3116.130859375,9270.5087890625,25847.75390625,20701.884765625,12044.90625,-0.0,-44702.69140625,18874.009765625,4061.063232421875,0.0,7046.8583984375,0.0,0.0
14204.978515625,13809.998046875,32002.92578125,11214.416015625,27664.50390625,5741.9140625,7551.51123046875,8579.0947265625,8347.0341796875,6134.51025390625,15760.263671875,-1061.7574462890625,8382.0029296875,0.0,22099.8125,5550.384765625,24278.1640625,19420.78125,9084.5419921875,10967.2548828125,22571.0859375,28865.337890625,20596.185546875,18883.546875,20585.85546875,6311.73486328125,28254.986328125,-244.77639770507812,0.0,1101.493896484375,13438.0654296875,6118.61572265625,25082.4296875,15858.0146484375,14459.2919921875,23823.580078125,8786.51953125,13446.8076171875,8025.16943359375,3204.345703125,22331.873046875,8802.4140625,16209.2841796875,11115.8681640625,8172.98876953125,11508.46484375,11516.412109375,1615.6832275390625,9365.8759765625,2624.19384765625,15903.314453125,5813.43994140625,7515.74853515625,1712.64013671875,10318.755859375,3751.913818359375,23289.521484375,3552.436767578125,16711.552734375,3112.951904296875,9268.125,25849.341796875,20703.474609375,12045.701171875,-0.0,-44695.5390625,18875.599609375,4061.857666015625,0.0,7046.8583984375,0.0,0.0
14199.416015625,13813.177734375,32002.92578125,11216.00390625,27667.681640625,5738.7353515625,7555.48486328125,8581.4794921875,8345.4443359375,6136.09912109375,15763.44140625,-1050.6312255859375,8382.796875,0.0,22102.197265625,5551.17919921875,24278.958984375,19423.166015625,9086.9267578125,10969.638671875,22571.8828125,28866.92578125,20596.185546875,18885.931640625,20587.443359375,6314.11865234375,28258.958984375,-242.39222717285156,0.0,1107.8516845703125,13438.0654296875,6118.61572265625,25082.4296875,15858.0146484375,14460.880859375,23824.373046875,8789.6982421875,13449.986328125,8026.75927734375,3223.419189453125,22333.462890625,8800.82421875,16213.2587890625,11116.6640625,8172.98876953125,11508.46484375,11518.7958984375,1613.299072265625,9370.64453125,2628.16748046875,15906.4921875,5814.234375,7520.51708984375,1718.9979248046875,10313.9873046875,3759.06640625,23291.90625,3557.205078125,16714.73046875,3111.362548828125,9268.919921875,25852.521484375,20706.654296875,12044.1123046875,-0.0,-44678.05078125,18877.982421875,4063.447509765625,0.0,7047.6533203125,0.0,0.0
14191.4677734375,13810.7939453125,32000.541015625,11220.7724609375,27664.50390625,5741.119140625,7553.8955078125,8582.2744140625,8337.498046875,6133.71533203125,15756.2880859375,-1053.015380859375,8370.08203125,0.0,22099.8125,5553.5634765625,24277.369140625,19421.578125,9086.9267578125,10967.2548828125,22568.703125,28866.92578125,20593.0078125,18885.931640625,20581.880859375,6317.29736328125,28257.369140625,-240.80276489257812,0.0,1105.4674072265625,13436.4765625,6117.02587890625,25081.634765625,15858.0146484375,14457.703125,23825.16796875,8789.6982421875,13448.3974609375,8031.52734375,3228.982177734375,22331.873046875,8804.7978515625,16210.875,11117.4580078125,8167.42626953125,11506.875,11510.0546875,1622.8358154296875,9367.4658203125,2632.935791015625,15904.1083984375,5812.64501953125,7506.2119140625,1720.58740234375,10306.8349609375,3757.476806640625,23291.111328125,3556.41064453125,16711.552734375,3112.1572265625,9264.9462890625,25854.111328125,20706.654296875,12035.3701171875,-0.0,-44679.640625,18874.802734375,4059.4736328125,0.0,7042.884765625,0.0,0.0
14193.8525390625,13799.6669921875,31994.98046875,11214.416015625,27656.5546875,5735.55615234375,7545.1533203125,8577.505859375,8321.6025390625,6128.15234375,15751.5205078125,-1058.5784912109375,8360.544921875,0.0,22091.865234375,5551.9736328125,24271.01171875,19413.62890625,9078.9794921875,10960.1025390625,22559.9609375,28862.953125,20583.470703125,18881.162109375,20569.958984375,6315.7080078125,28246.244140625,-245.57113647460938,0.0,1099.109619140625,13430.1181640625,6109.0791015625,25074.482421875,15851.65625,14450.5498046875,23818.810546875,8783.3408203125,13442.0390625,8025.16943359375,3215.471923828125,22323.130859375,8799.2353515625,16204.515625,11109.51171875,8157.88916015625,11502.1064453125,11507.669921875,1625.219970703125,9359.5185546875,2632.935791015625,15898.5458984375,5806.287109375,7496.6748046875,1707.871826171875,10301.2724609375,3755.092529296875,23291.111328125,3553.2314453125,16705.990234375,3106.593994140625,9255.4091796875,25848.546875,20701.08984375,12026.6279296875,-0.0,-44684.41015625,18868.447265625,4063.447509765625,0.0,7035.732421875,0.0,0.0
14195.4423828125,13794.8994140625,31992.595703125,11211.236328125,27658.14453125,5731.58251953125,7544.35888671875,8575.1220703125,8310.4775390625,6127.357421875,15752.3154296875,-1060.16796875,8358.955078125,0.0,22091.0703125,5544.8212890625,24271.01171875,19411.24609375,9075.80078125,10956.923828125,22560.75390625,28859.7734375,20577.111328125,18879.572265625,20573.138671875,6311.73486328125,28247.833984375,-247.955322265625,0.0,1099.109619140625,13427.734375,6107.4892578125,25072.892578125,15849.271484375,14449.755859375,23817.220703125,8780.9560546875,13440.4501953125,8024.375,3215.471923828125,22323.130859375,8794.466796875,16204.515625,11107.126953125,8152.32568359375,11499.72265625,11511.6435546875,1629.98828125,9358.7236328125,2633.730712890625,15896.162109375,5803.1083984375,7501.443359375,1699.1297607421875,10301.2724609375,3750.32421875,23293.49609375,3550.847412109375,16702.017578125,3101.82568359375,9256.2041015625,25847.75390625,20699.501953125,12018.6806640625,-0.0,-44682.02734375,18860.498046875,4062.652587890625,0.0,7031.7587890625,0.0,0.0
14204.1845703125,13806.025390625,32005.310546875,11219.18359375,27671.65625,5741.119140625,7555.48486328125,8583.068359375,8311.271484375,6135.3046875,15767.416015625,-1046.6575927734375,8374.0546875,0.0,22101.40234375,5553.5634765625,24282.931640625,19423.9609375,9086.9267578125,10964.076171875,22571.8828125,28868.517578125,20584.265625,18887.51953125,20593.0078125,6318.88720703125,28259.75390625,-240.00804138183594,0.0,1107.0570068359375,13436.4765625,6120.205078125,25084.01953125,15856.4248046875,14460.880859375,23825.96484375,8791.287109375,13450.7822265625,8044.24267578125,3237.724365234375,22338.232421875,8800.029296875,16217.2314453125,11115.8681640625,8159.47802734375,11507.669921875,11523.564453125,1640.31982421875,9371.439453125,2644.06201171875,15906.4921875,5812.64501953125,7522.10595703125,1711.845458984375,10312.3984375,3758.271484375,23301.443359375,3560.384033203125,16712.34765625,3110.56787109375,9272.0986328125,25854.90625,20708.2421875,12021.859375,-0.0,-44666.92578125,18870.03515625,4069.01025390625,0.0,7036.52734375,0.0,0.0
14209.7470703125,13805.23046875,32009.28515625,11231.1044921875,27675.62890625,5750.65625,7561.84228515625,8590.2216796875,8313.65625,6139.2783203125,15776.953125,-1037.120849609375,8380.4130859375,0.0,22106.966796875,5563.89453125,24286.111328125,19430.318359375,9093.2841796875,10968.8447265625,22577.443359375,28872.490234375,20591.41796875,18895.466796875,20594.59765625,6326.03955078125,28265.318359375,-232.0607452392578,0.0,1113.414794921875,13441.2451171875,6124.17822265625,25088.787109375,15863.5771484375,14465.6494140625,23832.3203125,8799.2353515625,13459.5234375,8057.75341796875,3237.724365234375,22339.8203125,8807.1826171875,16222.0,11124.611328125,8165.0419921875,11514.02734375,11526.744140625,1645.8829345703125,9375.4130859375,2646.4462890625,15911.2607421875,5819.00244140625,7533.232421875,1715.0242919921875,10328.29296875,3770.9873046875,23304.62109375,3573.89453125,16717.115234375,3118.51513671875,9275.27734375,25862.05859375,20713.01171875,12024.2431640625,-0.0,-44656.59375,18876.39453125,4073.778564453125,0.0,7040.50048828125,0.0,0.0
14204.978515625,13794.1044921875,32003.71875,11230.3095703125,27670.064453125,5752.24560546875,7560.2529296875,8588.6318359375,8310.4775390625,6136.89404296875,15776.1572265625,-1038.710205078125,8375.64453125,0.0,22103.787109375,5559.92138671875,24281.34375,19427.140625,9092.490234375,10966.4599609375,22571.0859375,28873.28515625,20588.240234375,18894.671875,20579.49609375,6324.4501953125,28262.138671875,-232.85548400878906,0.0,1111.8253173828125,13438.0654296875,6117.02587890625,25084.01953125,15863.5771484375,14462.470703125,23831.525390625,8796.8515625,13457.9345703125,8033.1162109375,3228.1875,22332.66796875,8805.5927734375,16218.02734375,11125.4052734375,8165.0419921875,11514.02734375,11525.154296875,1643.498779296875,9369.8505859375,2640.08837890625,15908.8759765625,5815.82421875,7530.0537109375,1703.8980712890625,10331.4716796875,3771.781982421875,23299.8515625,3573.099853515625,16716.322265625,3116.130859375,9267.330078125,25861.263671875,20710.626953125,12020.2705078125,-0.0,-44661.36328125,18877.982421875,4069.01025390625,0.0,7034.14306640625,0.0,0.0
14204.978515625,13794.1044921875,31999.748046875,11227.92578125,27667.681640625,5749.861328125,7559.45849609375,8589.4267578125,8309.681640625,6137.68896484375,15765.0322265625,-1039.5050048828125,8373.2607421875,0.0,22102.197265625,5562.3056640625,24282.13671875,19423.9609375,9093.2841796875,10967.2548828125,22569.498046875,28874.078125,20585.85546875,18893.876953125,20574.728515625,6323.65576171875,28258.166015625,-232.85548400878906,0.0,1116.59375,13439.6552734375,6116.2314453125,25082.4296875,15865.16796875,14460.880859375,23832.3203125,8796.8515625,13456.3447265625,8025.16943359375,3228.982177734375,22331.873046875,8805.5927734375,16217.2314453125,11124.611328125,8163.4521484375,11510.8486328125,11515.6171875,1644.29345703125,9368.2607421875,2640.88330078125,15906.4921875,5813.43994140625,7521.3115234375,1708.66650390625,10322.73046875,3771.781982421875,23295.87890625,3574.689208984375,16715.52734375,3115.336181640625,9266.5361328125,25860.46875,20709.833984375,12021.859375,-0.0,-44668.515625,18878.779296875,4070.60009765625,0.0,7037.32177734375,0.0,0.0
14202.5947265625,13797.283203125,31998.951171875,11228.720703125,27668.4765625,5745.8876953125,7555.48486328125,8587.8369140625,8304.119140625,6134.51025390625,15750.7265625,-1041.094482421875,8376.439453125,0.0,22099.017578125,5563.10009765625,24281.34375,19420.78125,9088.5166015625,10962.486328125,22570.291015625,28872.490234375,20581.880859375,18893.083984375,20584.265625,6326.03955078125,28255.78125,-232.85548400878906,0.0,1117.388427734375,13439.6552734375,6116.2314453125,25080.83984375,15865.16796875,14460.0869140625,23830.732421875,8793.671875,13455.5498046875,8026.75927734375,3229.777099609375,22333.462890625,8806.3876953125,16216.4365234375,11123.81640625,8158.68359375,11508.46484375,11506.875,1645.088134765625,9369.8505859375,2641.677734375,15902.51953125,5812.64501953125,7517.337890625,1711.845458984375,10321.140625,3775.755615234375,23295.87890625,3577.0732421875,16711.552734375,3112.951904296875,9265.740234375,25858.87890625,20707.44921875,12013.1181640625,-0.0,-44670.10546875,18872.419921875,4070.60009765625,0.0,7035.732421875,0.0,0.0
14213.7216796875,13806.025390625,32005.310546875,11231.1044921875,27672.44921875,5746.6826171875,7555.48486328125,8589.4267578125,8296.171875,6132.9208984375,15746.751953125,-1038.710205078125,8375.64453125,0.0,22097.4296875,5561.5107421875,24287.701171875,19423.9609375,9086.9267578125,10960.1025390625,22575.060546875,28875.669921875,20582.67578125,18893.083984375,20589.033203125,6329.21826171875,28258.166015625,-232.0607452392578,0.0,1120.5673828125,13442.0390625,6123.3837890625,25085.607421875,15866.7568359375,14462.470703125,23833.1171875,8792.0830078125,13456.3447265625,8043.4482421875,3233.75048828125,22337.4375,8808.7724609375,16216.4365234375,11124.611328125,8156.2998046875,11508.46484375,11509.2587890625,1647.472412109375,9370.64453125,2645.651611328125,15904.1083984375,5812.64501953125,7526.07958984375,1712.64013671875,10325.1142578125,3780.52392578125,23294.291015625,3576.27880859375,16708.375,3111.362548828125,9272.892578125,25858.87890625,20705.857421875,12007.5537109375,-0.0,-44667.72265625,18870.830078125,4065.83154296875,0.0,7030.1689453125,0.0,0.0
14210.5419921875,13806.025390625,32002.92578125,11228.720703125,27671.65625,5744.29833984375,7553.8955078125,8587.04296875,8289.814453125,6129.74169921875,15751.5205078125,-1039.5050048828125,8369.2861328125,0.0,22095.837890625,5559.12646484375,24283.728515625,19421.578125,9084.5419921875,10956.923828125,22574.265625,28874.078125,20578.703125,18889.109375,20591.41796875,6327.62890625,28256.57421875,-234.44493103027344,0.0,1115.7989501953125,13438.861328125,6118.61572265625,25084.01953125,15865.16796875,14461.6767578125,23831.525390625,8789.6982421875,13453.166015625,8016.42724609375,3229.777099609375,22336.640625,8807.1826171875,16215.642578125,11120.63671875,8150.73681640625,11505.2861328125,11508.46484375,1640.31982421875,9366.671875,2641.677734375,15900.9306640625,5811.85009765625,7526.07958984375,1711.0506591796875,10319.55078125,3779.729248046875,23293.49609375,3571.51025390625,16706.78515625,3110.56787109375,9270.5087890625,25855.69921875,20703.474609375,12004.375,-0.0,-44666.12890625,18871.625,4062.652587890625,0.0,7026.990234375,0.0,0.0
14197.0322265625,13800.4619140625,31992.595703125,11227.92578125,27671.65625,5741.119140625,7552.3056640625,8584.658203125,8289.01953125,6131.3310546875,15749.931640625,-1045.86279296875,8358.955078125,0.0,22095.837890625,5558.33203125,24278.958984375,19416.013671875,9082.953125,10958.5126953125,22567.908203125,28871.6953125,20577.111328125,18885.134765625,20580.291015625,6322.06591796875,28256.57421875,-238.4185791015625,0.0,1113.414794921875,13434.88671875,6111.462890625,25080.044921875,15860.3994140625,14456.11328125,23828.34765625,8788.9033203125,13449.986328125,8016.42724609375,3225.0087890625,22329.48828125,8804.00390625,16214.84765625,11115.07421875,8149.14697265625,11505.2861328125,11497.337890625,1636.34619140625,9356.33984375,2638.4990234375,15900.9306640625,5811.0556640625,7507.00634765625,1716.61376953125,10301.2724609375,3778.139892578125,23291.111328125,3569.9208984375,16708.375,3108.18359375,9264.1513671875,25853.314453125,20702.6796875,12002.7861328125,-0.0,-44676.46484375,18872.419921875,4065.036865234375,0.0,7028.57958984375,0.0,0.0
14203.3896484375,13807.6142578125,31998.158203125,11236.66796875,27679.6015625,5753.04052734375,7557.869140625,8594.990234375,8295.376953125,6139.2783203125,15764.236328125,-1033.147216796875,8362.9296875,0.0,22099.8125,5570.2529296875,24286.111328125,19425.55078125,9090.900390625,10966.4599609375,22575.060546875,28880.4375,20584.265625,18897.8515625,20573.93359375,6332.3974609375,28259.75390625,-227.29237365722656,0.0,1122.9515380859375,13444.423828125,6119.41015625,25085.607421875,15870.7294921875,14462.470703125,23838.677734375,8794.466796875,13458.728515625,8029.9375,3235.340087890625,22336.640625,8817.513671875,16220.4111328125,11125.4052734375,8157.88916015625,11513.2333984375,11498.1337890625,1642.7039794921875,9356.33984375,2650.419921875,15905.69921875,5822.9765625,7506.2119140625,1728.53466796875,10307.6298828125,3785.29248046875,23293.49609375,3583.43115234375,16713.9375,3119.3095703125,9267.330078125,25862.05859375,20709.037109375,12013.1181640625,-0.0,-44665.3359375,18876.39453125,4075.368408203125,0.0,7037.32177734375,0.0,0.0
14204.978515625,13807.6142578125,32001.3359375,11241.435546875,27670.064453125,5757.013671875,7553.1005859375,8597.3740234375,8293.7880859375,6139.2783203125,15769.7998046875,-1030.7630615234375,8370.08203125,0.0,22097.4296875,5573.431640625,24288.49609375,19427.140625,9090.1064453125,10964.8701171875,22575.85546875,28883.615234375,20581.880859375,18900.236328125,20580.291015625,6336.37109375,28254.19140625,-222.5240020751953,0.0,1133.282958984375,13446.8076171875,6123.3837890625,25088.787109375,15872.3203125,14461.6767578125,23839.474609375,8792.876953125,13459.5234375,8033.1162109375,3239.313720703125,22335.052734375,8821.4873046875,16214.84765625,11128.5849609375,8157.88916015625,11512.4384765625,11512.4384765625,1651.446044921875,9367.4658203125,2654.3935546875,15903.314453125,5823.77099609375,7503.03271484375,1730.9189453125,10313.193359375,3786.0869140625,23293.49609375,3586.610107421875,16712.34765625,3120.899169921875,9269.71484375,25862.8515625,20706.654296875,12016.296875,-0.0,-44653.4140625,18874.009765625,4071.39453125,0.0,7039.70556640625,0.0,0.0
14198.62109375,13801.2568359375,31998.158203125,11235.078125,27663.70703125,5753.8349609375,7549.92138671875,8592.60546875,8291.4033203125,6133.71533203125,15762.6474609375,-1033.147216796875,8374.8505859375,0.0,22095.837890625,5575.021484375,24285.31640625,19423.9609375,9086.1318359375,10960.1025390625,22568.703125,28876.462890625,20577.908203125,18895.466796875,20575.5234375,6332.3974609375,28249.421875,-225.7029266357422,0.0,1126.1304931640625,13442.0390625,6119.41015625,25083.22265625,15865.9609375,14457.703125,23835.5,8788.1083984375,13454.7548828125,8027.5537109375,3233.75048828125,22329.48828125,8815.9248046875,16209.2841796875,11125.4052734375,8153.91552734375,11510.0546875,11520.3857421875,1645.8829345703125,9368.2607421875,2652.80419921875,15900.134765625,5822.9765625,7500.6484375,1719.792724609375,10304.451171875,3784.49755859375,23293.49609375,3582.636474609375,16709.962890625,3114.541259765625,9264.9462890625,25857.291015625,20701.08984375,12009.9384765625,-0.0,-44655.0078125,18874.802734375,4071.39453125,0.0,7035.732421875,0.0,0.0
14192.263671875,13799.6669921875,31991.798828125,11227.92578125,27656.5546875,5752.24560546875,7543.56396484375,8585.453125,8292.9921875,6128.94677734375,15752.3154296875,-1039.5050048828125,8364.5185546875,0.0,22091.865234375,5569.4580078125,24274.984375,19415.220703125,9079.7734375,10954.5390625,22559.9609375,28868.517578125,20572.34375,18889.109375,20566.78125,6326.833984375,28244.654296875,-229.6765594482422,0.0,1118.18310546875,13434.0927734375,6110.66796875,25075.27734375,15859.603515625,14449.755859375,23827.552734375,8780.162109375,13449.1923828125,8018.81103515625,3223.419189453125,22320.748046875,8809.56640625,16205.310546875,11122.2265625,8151.53125,11502.1064453125,11514.8232421875,1638.7303466796875,9355.544921875,2650.419921875,15895.3662109375,5818.2080078125,7497.46923828125,1711.0506591796875,10302.861328125,3778.9345703125,23287.138671875,3579.45751953125,16706.78515625,3110.56787109375,9257.79296875,25849.341796875,20696.322265625,12005.169921875,-0.0,-44662.16015625,18871.625,4071.39453125,0.0,7029.37451171875,0.0,0.0
14194.6474609375,13803.6416015625,31992.595703125,11231.1044921875,27654.966796875,5753.8349609375,7545.9482421875,8586.2470703125,8304.119140625,6132.1259765625,15752.3154296875,-1037.120849609375,8363.7236328125,0.0,22093.455078125,5567.86865234375,24274.984375,19416.80859375,9080.5693359375,10960.896484375,22563.138671875,28872.490234375,20574.728515625,18890.69921875,20567.576171875,6330.80810546875,28243.064453125,-227.29237365722656,0.0,1122.15673828125,13434.0927734375,6112.25732421875,25076.865234375,15861.1923828125,14450.5498046875,23829.142578125,8784.134765625,13450.7822265625,8017.22216796875,3224.2138671875,22322.3359375,8811.951171875,16205.310546875,11124.611328125,8155.50537109375,11504.4912109375,11514.8232421875,1641.9093017578125,9348.392578125,2651.214599609375,15897.7509765625,5819.79736328125,7501.443359375,1717.4085693359375,10306.8349609375,3781.318603515625,23287.931640625,3582.636474609375,16711.552734375,3116.130859375,9260.9716796875,25850.138671875,20699.501953125,12016.296875,-0.0,-44665.3359375,18870.03515625,4073.778564453125,0.0,7033.34814453125,0.0,0.0
14193.0576171875,13801.2568359375,31988.62109375,11231.8994140625,27655.759765625,5750.65625,7545.9482421875,8583.86328125,8308.0927734375,6131.3310546875,15749.931640625,-1037.91552734375,8363.7236328125,0.0,22095.837890625,5565.484375,24273.396484375,19416.013671875,9079.7734375,10957.7177734375,22561.55078125,28870.10546875,20576.318359375,18889.109375,20565.986328125,6330.80810546875,28245.44921875,-231.26602172851562,0.0,1118.18310546875,13433.296875,6111.462890625,25075.27734375,15859.603515625,14451.3447265625,23827.552734375,8784.134765625,13448.3974609375,8014.83837890625,3217.856201171875,22320.748046875,8812.7451171875,16205.310546875,11121.4326171875,8157.88916015625,11506.0810546875,11508.46484375,1637.140869140625,9351.5712890625,2647.240966796875,15900.134765625,5816.61865234375,7503.03271484375,1718.9979248046875,10301.2724609375,3782.908203125,23289.521484375,3582.636474609375,16712.34765625,3112.951904296875,9258.587890625,25850.138671875,20699.501953125,12011.5283203125,-0.0,-44664.54296875,18873.21484375,4067.4208984375,0.0,7026.990234375,0.0,0.0
14189.8798828125,13802.0517578125,31990.2109375,11245.41015625,27658.939453125,5756.21923828125,7548.33203125,8586.2470703125,8312.06640625,6131.3310546875,15749.1357421875,-1037.91552734375,8360.544921875,0.0,22096.634765625,5563.89453125,24275.779296875,19416.80859375,9081.36328125,10955.333984375,22563.93359375,28871.6953125,20577.908203125,18889.109375,20567.576171875,6335.57666015625,28246.244140625,-229.6765594482422,0.0,1121.362060546875,13434.88671875,6113.05224609375,25076.0703125,15863.5771484375,14451.3447265625,23829.142578125,8784.9306640625,13449.1923828125,8016.42724609375,3216.2666015625,22322.3359375,8815.9248046875,16209.2841796875,11122.2265625,8160.2734375,11506.875,11502.90234375,1640.31982421875,9356.33984375,2651.214599609375,15900.9306640625,5815.82421875,7503.82763671875,1722.1768798828125,10301.2724609375,3789.265869140625,23290.31640625,3581.841796875,16712.34765625,3110.56787109375,9256.2041015625,25854.111328125,20700.296875,12003.5810546875,-0.0,-44655.80078125,18877.1875,4064.241943359375,0.0,7023.8115234375,0.0,0.0
14187.4951171875,13804.435546875,31992.595703125,11246.2041015625,27660.52734375,5759.39794921875,7551.51123046875,8590.2216796875,8316.0400390625,6136.09912109375,15749.931640625,-1036.3260498046875,8362.9296875,0.0,22094.25,5567.86865234375,24277.369140625,19419.193359375,9084.5419921875,10956.923828125,22566.318359375,28875.669921875,20582.67578125,18893.083984375,20569.958984375,6341.13916015625,28247.833984375,-223.31874084472656,0.0,1125.335693359375,13438.0654296875,6115.4365234375,25076.865234375,15867.5517578125,14455.318359375,23832.3203125,8785.724609375,13453.166015625,8017.22216796875,3217.856201171875,22323.927734375,8820.693359375,16210.875,11127.7890625,8163.4521484375,11509.2587890625,11506.875,1647.472412109375,9357.9296875,2659.161865234375,15902.51953125,5819.00244140625,7503.82763671875,1723.766357421875,10300.4765625,3789.265869140625,23287.931640625,3583.43115234375,16709.962890625,3114.541259765625,9255.4091796875,25857.291015625,20701.08984375,12009.1435546875,-0.0,-44657.390625,18874.009765625,4071.39453125,0.0,7030.1689453125,0.0,0.0
14177.1630859375,13800.4619140625,31991.005859375,11235.873046875,27658.14453125,5753.8349609375,7548.33203125,8586.2470703125,8314.4501953125,6132.1259765625,15753.904296875,-1045.86279296875,8361.33984375,0.0,22092.66015625,5563.89453125,24272.599609375,19416.80859375,9078.9794921875,10954.5390625,22562.345703125,28870.10546875,20580.291015625,18888.314453125,20572.34375,6335.57666015625,28243.859375,-228.0871124267578,0.0,1116.59375,13433.296875,6110.66796875,25073.6875,15862.783203125,14451.3447265625,23829.142578125,8782.5458984375,13449.986328125,8016.42724609375,3215.471923828125,22322.3359375,8814.3349609375,16209.2841796875,11123.81640625,8161.06787109375,11504.4912109375,11512.4384765625,1643.498779296875,9357.9296875,2655.188232421875,15899.33984375,5817.4130859375,7505.4169921875,1718.2032470703125,10298.0927734375,3776.55029296875,23286.341796875,3577.8681640625,16706.78515625,3112.1572265625,9251.435546875,25853.314453125,20697.1171875,12006.759765625,-0.0,-44670.8984375,18864.47265625,4069.80517578125,0.0,7026.1953125,0.0,0.0
14185.111328125,13802.845703125,31993.388671875,11238.2578125,27659.734375,5754.62939453125,7551.51123046875,8587.8369140625,8324.7822265625,6132.9208984375,15756.2880859375,-1045.86279296875,8363.7236328125,0.0,22096.634765625,5559.92138671875,24274.19140625,19417.603515625,9082.953125,10958.5126953125,22563.138671875,28870.10546875,20581.880859375,18885.931640625,20574.728515625,6333.1923828125,28247.037109375,-228.8818359375,0.0,1118.9779052734375,13435.681640625,6113.05224609375,25076.0703125,15864.3720703125,14452.1396484375,23829.142578125,8785.724609375,13452.37109375,8015.6328125,3217.856201171875,22323.927734375,8811.15625,16212.462890625,11123.81640625,8165.83642578125,11506.875,11511.6435546875,1643.498779296875,9361.107421875,2652.80419921875,15902.51953125,5816.61865234375,7506.2119140625,1716.61376953125,10297.298828125,3774.166015625,23290.31640625,3577.8681640625,16712.34765625,3108.978271484375,9258.587890625,25854.111328125,20698.705078125,12013.1181640625,-0.0,-44670.8984375,18869.2421875,4061.857666015625,0.0,7022.22216796875,0.0,0.0
14192.263671875,13804.435546875,31992.595703125,11234.283203125,27662.912109375,5755.42431640625,7554.68994140625,8591.015625,8337.498046875,6135.3046875,15741.9833984375,-1037.91552734375,8369.2861328125,0.0,22099.017578125,5566.27880859375,24275.779296875,19421.578125,9086.9267578125,10964.8701171875,22564.73046875,28870.10546875,20586.6484375,18889.904296875,20573.138671875,6333.1923828125,28251.806640625,-225.7029266357422,0.0,1125.335693359375,13438.861328125,6113.84716796875,25075.27734375,15865.9609375,14453.728515625,23829.142578125,8790.4931640625,13456.3447265625,8013.24853515625,3220.240234375,22323.927734375,8812.7451171875,16213.2587890625,11127.7890625,8172.1943359375,11511.6435546875,11499.72265625,1647.472412109375,9361.107421875,2648.830322265625,15905.69921875,5819.79736328125,7494.291015625,1705.487548828125,10307.6298828125,3782.11328125,23291.90625,3582.636474609375,16717.115234375,3115.336181640625,9260.177734375,25858.083984375,20704.26953125,12017.8857421875,-0.0,-44662.953125,18875.599609375,4069.01025390625,0.0,7026.990234375,0.0,0.0
14194.6474609375,13801.2568359375,31993.388671875,11229.5146484375,27661.32421875,5751.451171875,7553.8955078125,8590.2216796875,8339.087890625,6136.89404296875,15746.751953125,-1034.736572265625,8369.2861328125,0.0,22098.22265625,5567.86865234375,24275.779296875,19421.578125,9087.7216796875,10965.6650390625,22564.73046875,28869.310546875,20588.240234375,18891.4921875,20568.37109375,6326.03955078125,28251.013671875,-225.7029266357422,0.0,1117.388427734375,13436.4765625,6112.25732421875,25074.482421875,15864.3720703125,14452.1396484375,23827.552734375,8789.6982421875,13457.138671875,8009.2744140625,3222.62451171875,22323.927734375,8810.361328125,16212.462890625,11126.2001953125,8171.39892578125,11513.2333984375,11495.7490234375,1640.31982421875,9357.134765625,2642.472412109375,15907.287109375,5822.181640625,7495.8798828125,1695.1561279296875,10303.65625,3787.676513671875,23290.31640625,3586.610107421875,16717.115234375,3117.720458984375,9253.8193359375,25857.291015625,20705.064453125,12015.501953125,-0.0,-44659.7734375,18870.830078125,4074.573486328125,0.0,7030.1689453125,0.0,0.0
14201.0048828125,13802.0517578125,31996.56640625,11239.8466796875,27668.4765625,5757.013671875,7559.45849609375,8597.3740234375,8339.8818359375,6142.45751953125,15753.111328125,-1029.96826171875,8374.8505859375,0.0,22099.8125,5572.63720703125,24282.13671875,19425.55078125,9090.900390625,10965.6650390625,22571.8828125,28873.28515625,20592.212890625,18894.671875,20576.318359375,6332.3974609375,28254.986328125,-216.96090698242188,0.0,1122.15673828125,13442.0390625,6118.61572265625,25080.044921875,15871.5244140625,14460.0869140625,23833.91015625,8794.466796875,13460.318359375,8018.0166015625,3230.57177734375,22333.462890625,8815.9248046875,16218.02734375,11133.353515625,8174.57861328125,11516.412109375,11498.927734375,1640.31982421875,9366.671875,2651.214599609375,15908.8759765625,5828.53955078125,7503.82763671875,1709.461181640625,10313.193359375,3793.239501953125,23292.69921875,3594.5576171875,16715.52734375,3120.899169921875,9258.587890625,25862.8515625,20709.037109375,12018.6806640625,-0.0,-44652.62109375,18869.2421875,4076.957763671875,0.0,7037.32177734375,0.0,0.0
14201.0048828125,13798.0771484375,31994.181640625,11243.025390625,27668.4765625,5757.80859375,7557.07421875,8595.7841796875,8333.5234375,6137.68896484375,15741.1904296875,-1031.5577392578125,8364.5185546875,0.0,22095.044921875,5572.63720703125,24281.34375,19422.373046875,9087.7216796875,10958.5126953125,22571.0859375,28874.875,20591.41796875,18895.466796875,20573.93359375,6334.78173828125,28254.19140625,-217.75563049316406,0.0,1126.1304931640625,13442.833984375,6116.2314453125,25079.25,15871.5244140625,14460.880859375,23836.294921875,8792.0830078125,13457.9345703125,8014.04296875,3231.366455078125,22333.462890625,8816.71875,16217.2314453125,11133.353515625,8169.01513671875,11514.02734375,11500.517578125,1638.7303466796875,9368.2607421875,2654.3935546875,15905.69921875,5825.36083984375,7503.82763671875,1715.0242919921875,10313.9873046875,3790.060791015625,23287.931640625,3592.17333984375,16709.962890625,3123.283447265625,9260.177734375,25860.46875,20704.26953125,12006.759765625,-0.0,-44658.18359375,18862.08984375,4078.547119140625,0.0,7032.55322265625,0.0,0.0
14197.826171875,13794.1044921875,31993.388671875,11242.23046875,27666.88671875,5757.013671875,7557.869140625,8596.5791015625,8339.087890625,6140.86767578125,15741.9833984375,-1030.7630615234375,8348.6240234375,0.0,22097.4296875,5576.6103515625,24282.13671875,19423.166015625,9089.310546875,10965.6650390625,22568.703125,28876.462890625,20591.41796875,18895.466796875,20570.755859375,6333.98681640625,28258.958984375,-217.75563049316406,0.0,1125.335693359375,13442.0390625,6116.2314453125,25078.455078125,15871.5244140625,14458.4970703125,23833.91015625,8792.876953125,13459.5234375,8021.1953125,3229.777099609375,22327.900390625,8819.8974609375,16219.6162109375,11130.96875,8171.39892578125,11514.8232421875,11514.8232421875,1637.9356689453125,9364.287109375,2654.3935546875,15906.4921875,5826.1552734375,7507.80126953125,1712.64013671875,10306.8349609375,3787.676513671875,23287.138671875,3592.968017578125,16714.73046875,3123.283447265625,9258.587890625,25859.673828125,20707.44921875,12022.654296875,-0.0,-44658.18359375,18865.267578125,4074.573486328125,0.0,7032.55322265625,0.0,0.0
14196.236328125,13787.74609375,31988.62109375,11242.23046875,27662.119140625,5755.42431640625,7555.48486328125,8594.1953125,8340.6767578125,6140.86767578125,15741.1904296875,-1038.710205078125,8358.1611328125,0.0,22097.4296875,5573.431640625,24277.369140625,19417.603515625,9085.337890625,10968.8447265625,22564.73046875,28874.078125,20586.6484375,18894.671875,20568.37109375,6334.78173828125,28265.318359375,-222.5240020751953,0.0,1115.7989501953125,13438.861328125,6114.6416015625,25076.0703125,15870.7294921875,14452.9345703125,23833.1171875,8789.6982421875,13456.3447265625,8021.99072265625,3215.471923828125,22319.158203125,8819.103515625,16217.2314453125,11127.7890625,8168.220703125,11514.8232421875,11508.46484375,1639.5250244140625,9362.697265625,2652.80419921875,15908.8759765625,5823.77099609375,7505.4169921875,1707.0770263671875,10300.4765625,3774.960693359375,23289.521484375,3588.994384765625,16717.115234375,3117.720458984375,9259.3828125,25858.083984375,20705.064453125,12032.19140625,-0.0,-44666.12890625,18868.447265625,4071.39453125,0.0,7028.57958984375,0.0,0.0
14197.826171875,13790.130859375,31994.98046875,11248.5888671875,27666.091796875,5760.98779296875,7557.07421875,8595.7841796875,8330.3447265625,6144.841796875,15748.3427734375,-1041.094482421875,8363.7236328125,0.0,22099.017578125,5575.81591796875,24282.931640625,19419.193359375,9087.7216796875,10966.4599609375,22569.498046875,28882.02734375,20589.033203125,18896.26171875,20572.34375,6341.93408203125,28270.0859375,-222.5240020751953,0.0,1118.9779052734375,13442.0390625,6116.2314453125,25081.634765625,15877.0888671875,14457.703125,23838.677734375,8790.4931640625,13458.728515625,8025.16943359375,3220.240234375,22325.515625,8824.666015625,16220.4111328125,11130.96875,8166.630859375,11515.6171875,11510.0546875,1651.446044921875,9364.287109375,2659.956787109375,15910.466796875,5823.77099609375,7505.4169921875,1712.64013671875,10300.4765625,3782.908203125,23291.111328125,3589.7890625,16715.52734375,3124.078125,9261.767578125,25862.05859375,20705.064453125,12021.064453125,-0.0,-44666.12890625,18874.009765625,4084.905029296875,0.0,7042.08984375,0.0,0.0
14204.978515625,13798.0771484375,32004.515625,11249.3828125,27668.4765625,5756.21923828125,7554.68994140625,8594.990234375,8326.37109375,6143.251953125,15761.056640625,-1028.3787841796875,8373.2607421875,0.0,22095.837890625,5578.19970703125,24289.2890625,19421.578125,9086.9267578125,10962.486328125,22574.265625,28882.822265625,20587.443359375,18894.671875,20578.703125,6342.72900390625,28254.19140625,-220.93455505371094,0.0,1137.256591796875,13446.013671875,6121.79443359375,25085.607421875,15877.8818359375,14458.4970703125,23839.474609375,8790.4931640625,13459.5234375,8029.1435546875,3241.697998046875,22331.873046875,8821.4873046875,16217.2314453125,11130.96875,8163.4521484375,11518.001953125,11518.001953125,1660.1881103515625,9358.7236328125,2659.161865234375,15904.9033203125,5824.56591796875,7509.39013671875,1720.58740234375,10306.8349609375,3804.365966796875,23291.90625,3592.968017578125,16712.34765625,3124.078125,9262.5615234375,25859.673828125,20703.474609375,12013.912109375,-0.0,-44651.82421875,18877.1875,4088.083740234375,0.0,7042.884765625,0.0,0.0
14200.2109375,13798.873046875,32002.1328125,11255.7412109375,27668.4765625,5757.013671875,7553.8955078125,8594.990234375,8334.3193359375,6144.841796875,15756.2880859375,-1025.99462890625,8376.439453125,0.0,22098.22265625,5578.19970703125,24290.083984375,19423.166015625,9086.9267578125,10968.048828125,22574.265625,28883.615234375,20586.6484375,18894.671875,20577.908203125,6345.90771484375,28243.064453125,-217.75563049316406,0.0,1136.4619140625,13444.423828125,6121.79443359375,25085.607421875,15878.677734375,14458.4970703125,23841.0625,8789.6982421875,13460.318359375,8025.9638671875,3241.697998046875,22332.66796875,8826.255859375,16214.84765625,11133.353515625,8166.630859375,11518.001953125,11512.4384765625,1661.7774658203125,9360.3134765625,2662.3408203125,15904.1083984375,5824.56591796875,7502.23779296875,1716.61376953125,10308.4248046875,3798.008056640625,23293.49609375,3593.7626953125,16717.91015625,3124.872802734375,9260.9716796875,25859.673828125,20704.26953125,12025.8330078125,-0.0,-44651.03125,18879.572265625,4084.905029296875,0.0,7035.732421875,0.0,0.0
14200.2109375,13809.998046875,31998.951171875,11257.3310546875,27666.88671875,5760.19287109375,7550.71630859375,8594.1953125,8331.9345703125,6142.45751953125,15745.9580078125,-1022.815673828125,8376.439453125,0.0,22099.8125,5577.4052734375,24286.111328125,19419.193359375,9085.337890625,10964.8701171875,22571.8828125,28882.822265625,20585.85546875,18894.671875,20573.93359375,6346.70263671875,28244.654296875,-216.1661834716797,0.0,1136.4619140625,13443.62890625,6121.79443359375,25083.22265625,15876.29296875,14456.908203125,23839.474609375,8789.6982421875,13457.9345703125,8021.1953125,3230.57177734375,22331.080078125,8828.6396484375,16214.84765625,11134.1474609375,8165.83642578125,11516.412109375,11508.46484375,1660.1881103515625,9360.3134765625,2664.72509765625,15904.9033203125,5820.59228515625,7496.6748046875,1715.0242919921875,10298.0927734375,3798.008056640625,23291.111328125,3596.146728515625,16717.115234375,3122.48876953125,9262.5615234375,25858.083984375,20703.474609375,12019.474609375,-0.0,-44653.4140625,18878.779296875,4084.1103515625,0.0,7031.7587890625,0.0,0.0
14202.5947265625,13809.998046875,32001.3359375,11256.53515625,27670.859375,5760.19287109375,7554.68994140625,8594.1953125,8336.703125,6142.45751953125,15740.39453125,-1022.0209350585938,8383.591796875,0.0,22102.990234375,5581.37890625,24285.31640625,19419.98828125,9086.1318359375,10965.6650390625,22574.265625,28883.615234375,20589.033203125,18895.466796875,20579.49609375,6346.70263671875,28252.6015625,-215.37144470214844,0.0,1134.8724365234375,13446.013671875,6119.41015625,25084.01953125,15877.0888671875,14460.0869140625,23840.26953125,8792.0830078125,13457.9345703125,8019.6064453125,3231.366455078125,22331.873046875,8829.4345703125,16219.6162109375,11135.7373046875,8169.01513671875,11516.412109375,11513.2333984375,1657.8038330078125,9366.671875,2663.93017578125,15908.0830078125,5820.59228515625,7499.853515625,1713.434814453125,10290.9404296875,3805.955078125,23289.521484375,3602.504638671875,16720.294921875,3120.899169921875,9260.9716796875,25859.673828125,20706.654296875,12019.474609375,-0.0,-44649.44140625,18880.3671875,4084.905029296875,0.0,7029.37451171875,0.0,0.0
14208.953125,13808.41015625,32012.462890625,11266.8671875,27688.345703125,5771.31884765625,7565.81640625,8602.9365234375,8342.265625,6148.81494140625,15750.7265625,-1011.6895141601562,8391.5400390625,0.0,22106.966796875,5589.326171875,24296.44140625,19433.498046875,9096.462890625,10970.43359375,22588.572265625,28894.7421875,20602.544921875,18903.4140625,20604.9296875,6357.82861328125,28263.7265625,-203.4505157470703,0.0,1145.2039794921875,13457.138671875,6129.74169921875,25096.734375,15889.802734375,14472.0078125,23851.39453125,8803.2080078125,13466.67578125,8029.9375,3250.43994140625,22349.357421875,8840.560546875,16231.537109375,11144.478515625,8177.75732421875,11522.76953125,11531.5126953125,1664.9564208984375,9385.7451171875,2673.467041015625,15916.029296875,5830.12890625,7507.80126953125,1723.766357421875,10309.2197265625,3816.286865234375,23291.90625,3612.04150390625,16722.6796875,3128.846435546875,9268.919921875,25870.80078125,20713.806640625,12024.2431640625,-0.0,-44632.75,18875.599609375,4093.64697265625,0.0,7033.34814453125,0.0,0.0
14198.62109375,13810.7939453125,32008.48828125,11262.8935546875,27682.78125,5769.7294921875,7567.40576171875,8603.732421875,8343.85546875,6148.81494140625,15755.4951171875,-1010.894775390625,8378.029296875,0.0,22107.759765625,5586.9423828125,24294.05859375,19433.498046875,9097.2587890625,10973.6123046875,22583.0078125,28891.5625,20600.953125,18903.4140625,20589.033203125,6359.41845703125,28265.318359375,-205.83470153808594,0.0,1146.7933349609375,13454.7548828125,6128.15234375,25093.5546875,15886.625,14471.212890625,23850.599609375,8801.619140625,13465.0869140625,8028.34814453125,3249.645263671875,22343.79296875,8840.560546875,16231.537109375,11142.8896484375,8180.1416015625,11523.564453125,11526.744140625,1662.572265625,9377.796875,2671.877685546875,15919.208984375,5829.33447265625,7502.23779296875,1726.9453125,10314.7822265625,3816.286865234375,23295.083984375,3611.246826171875,16725.0625,3128.846435546875,9260.9716796875,25870.80078125,20716.986328125,12026.6279296875,-0.0,-44634.34375,18877.982421875,4092.0576171875,0.0,7034.14306640625,0.0,0.0
14185.9052734375,13817.9462890625,32000.541015625,11258.919921875,27674.833984375,5766.55078125,7562.63720703125,8598.16796875,8335.11328125,6143.251953125,15741.9833984375,-1009.3053588867188,8374.0546875,0.0,22106.169921875,5584.55810546875,24288.49609375,19427.140625,9091.6953125,10961.69140625,22578.240234375,28886.0,20596.185546875,18899.44140625,20576.318359375,6357.0341796875,28262.93359375,-207.42416381835938,0.0,1146.7933349609375,13449.986328125,6122.5888671875,25084.814453125,15883.4453125,14464.060546875,23846.626953125,8796.0556640625,13460.318359375,8021.1953125,3241.697998046875,22334.2578125,8838.1767578125,16227.5634765625,11138.916015625,8176.962890625,11518.7958984375,11507.669921875,1663.366943359375,9369.0556640625,2668.698486328125,15916.82421875,5826.9501953125,7492.701171875,1728.53466796875,10306.041015625,3815.491943359375,23299.05859375,3609.6572265625,16721.08984375,3124.078125,9254.615234375,25866.826171875,20711.421875,12009.9384765625,-0.0,-44634.34375,18881.95703125,4088.083740234375,0.0,7030.1689453125,0.0,0.0
14189.8798828125,13821.125,31994.98046875,11259.71484375,27670.064453125,5762.5771484375,7555.48486328125,8593.400390625,8327.1669921875,6136.09912109375,15730.0625,-1023.6104736328125,8370.8759765625,0.0,22102.197265625,5580.583984375,24284.521484375,19425.55078125,9086.1318359375,10954.5390625,22572.67578125,28882.822265625,20592.212890625,18894.671875,20578.703125,6345.90771484375,28254.19140625,-211.39781188964844,0.0,1143.6143798828125,13446.8076171875,6122.5888671875,25080.83984375,15881.8564453125,14460.880859375,23841.857421875,8790.4931640625,13456.3447265625,8022.78515625,3236.9296875,22331.080078125,8831.818359375,16222.7958984375,11136.5322265625,8169.01513671875,11512.4384765625,11493.365234375,1666.5458984375,9362.697265625,2667.109130859375,15908.8759765625,5823.77099609375,7483.958984375,1729.3294677734375,10296.50390625,3808.33935546875,23297.46875,3608.06787109375,16714.73046875,3116.130859375,9257.79296875,25862.05859375,20704.26953125,11997.22265625,-0.0,-44641.49609375,18875.599609375,4084.905029296875,0.0,7020.63232421875,0.0,0.0
14182.7265625,13822.71484375,31985.443359375,11260.509765625,27668.4765625,5763.3720703125,7555.48486328125,8595.7841796875,8332.7294921875,6138.4833984375,15736.421875,-1024.4051513671875,8375.64453125,0.0,22101.40234375,5584.55810546875,24285.31640625,19426.345703125,9085.337890625,10956.1279296875,22569.498046875,28881.23046875,20591.41796875,18895.466796875,20573.138671875,6345.90771484375,28251.013671875,-207.42416381835938,0.0,1143.6143798828125,13444.423828125,6122.5888671875,25078.455078125,15879.47265625,14461.6767578125,23841.0625,8792.876953125,13457.138671875,8020.40087890625,3232.161376953125,22326.310546875,8828.6396484375,16221.205078125,11138.1220703125,8168.220703125,11514.02734375,11487.0068359375,1660.9827880859375,9360.3134765625,2671.082763671875,15908.0830078125,5830.12890625,7490.31689453125,1732.50830078125,10305.2451171875,3806.75,23297.46875,3614.42578125,16715.52734375,3120.899169921875,9261.767578125,25862.8515625,20706.654296875,11999.607421875,-0.0,-44641.49609375,18875.599609375,4091.2626953125,0.0,7022.22216796875,0.0,0.0
14177.1630859375,13819.53515625,31991.798828125,11264.4833984375,27673.244140625,5772.11376953125,7561.84228515625,8605.3212890625,8338.2919921875,6145.63623046875,15745.9580078125,-1018.04736328125,8373.2607421875,0.0,22102.990234375,5600.45263671875,24287.701171875,19430.318359375,9091.6953125,10961.69140625,22575.060546875,28885.20703125,20596.98046875,18901.82421875,20578.703125,6357.0341796875,28255.78125,-196.29795837402344,0.0,1153.151123046875,13449.1923828125,6120.205078125,25082.4296875,15881.8564453125,14465.6494140625,23848.21484375,8796.8515625,13465.880859375,8008.47998046875,3230.57177734375,22333.462890625,8834.203125,16227.5634765625,11146.86328125,8174.57861328125,11521.9755859375,11487.8017578125,1667.340576171875,9367.4658203125,2681.414306640625,15912.8515625,5843.63916015625,7499.853515625,1728.53466796875,10308.4248046875,3810.7236328125,23298.263671875,3630.3203125,16719.5,3130.43603515625,9262.5615234375,25869.2109375,20712.216796875,12007.5537109375,-0.0,-44630.3671875,18874.009765625,4098.41552734375,0.0,7035.732421875,0.0,0.0
14188.2900390625,13815.5625,31994.98046875,11259.71484375,27673.244140625,5770.5244140625,7562.63720703125,8604.5263671875,8339.087890625,6147.22607421875,15751.5205078125,-1018.8421020507812,8370.08203125,0.0,22104.58203125,5599.65771484375,24285.31640625,19427.935546875,9091.6953125,10963.2802734375,22576.650390625,28882.822265625,20599.365234375,18902.62109375,20586.6484375,6355.4443359375,28258.166015625,-198.68214416503906,0.0,1145.9986572265625,13448.3974609375,6117.02587890625,25084.814453125,15880.2666015625,14465.6494140625,23846.626953125,8796.8515625,13465.0869140625,7989.40673828125,3231.366455078125,22333.462890625,8830.2294921875,16227.5634765625,11144.478515625,8176.16748046875,11521.9755859375,11494.9541015625,1662.572265625,9370.64453125,2676.64599609375,15912.0556640625,5844.43408203125,7501.443359375,1717.4085693359375,10303.65625,3807.544677734375,23299.05859375,3626.3466796875,16718.70703125,3128.846435546875,9259.3828125,25870.00390625,20709.833984375,12010.7333984375,-0.0,-44631.1640625,18874.009765625,4092.0576171875,0.0,7040.50048828125,0.0,0.0
14191.4677734375,13819.53515625,31996.56640625,11261.3037109375,27674.0390625,5766.55078125,7562.63720703125,8601.34765625,8343.060546875,6150.404296875,15757.083984375,-1020.4315185546875,8375.64453125,0.0,22105.375,5586.9423828125,24284.521484375,19428.73046875,9090.1064453125,10968.048828125,22576.650390625,28883.615234375,20598.5703125,18901.029296875,20589.033203125,6353.85498046875,28259.75390625,-205.83470153808594,0.0,1142.8197021484375,13449.986328125,6117.82080078125,25085.607421875,15884.2412109375,14464.85546875,23845.037109375,8795.26171875,13461.9072265625,7993.38037109375,3230.57177734375,22334.2578125,8831.0244140625,16226.7685546875,11141.2998046875,8175.373046875,11521.1796875,11504.4912109375,1656.21435546875,9373.82421875,2668.698486328125,15913.64453125,5837.28173828125,7500.6484375,1720.58740234375,10312.3984375,3808.33935546875,23301.443359375,3612.04150390625,16719.5,3130.43603515625,9257.79296875,25869.2109375,20707.44921875,12021.859375,-0.0,-44642.2890625,18873.21484375,4088.878662109375,0.0,7053.21630859375,0.0,0.0
14184.3154296875,13813.177734375,31985.443359375,11246.9990234375,27661.32421875,5750.65625,7552.3056640625,8591.015625,8343.85546875,6144.841796875,15741.9833984375,-1036.3260498046875,8371.6708984375,0.0,22101.40234375,5571.84228515625,24272.599609375,19419.193359375,9081.36328125,10965.6650390625,22563.93359375,28870.10546875,20587.443359375,18888.314453125,20568.37109375,6337.166015625,28251.806640625,-221.72927856445312,0.0,1125.335693359375,13436.4765625,6108.2841796875,25073.6875,15869.935546875,14451.3447265625,23831.525390625,8785.724609375,13450.7822265625,7996.55908203125,3223.419189453125,22323.130859375,8815.12890625,16216.4365234375,11127.7890625,8169.01513671875,11513.2333984375,11498.1337890625,1645.8829345703125,9362.697265625,2651.214599609375,15908.0830078125,5826.1552734375,7494.291015625,1704.69287109375,10305.2451171875,3794.8291015625,23295.083984375,3587.405029296875,16716.322265625,3121.69384765625,9248.2568359375,25855.69921875,20701.08984375,12032.9853515625,-0.0,-44669.3125,18869.2421875,4071.39453125,0.0,7046.8583984375,0.0,0.0
14189.8798828125,13807.6142578125,31987.029296875,11235.873046875,27655.759765625,5743.50341796875,7546.74267578125,8587.8369140625,8335.908203125,6140.0732421875,15746.751953125,-1041.88916015625,8369.2861328125,0.0,22096.634765625,5571.84228515625,24270.216796875,19410.451171875,9077.3896484375,10955.333984375,22559.9609375,28862.953125,20580.291015625,18882.751953125,20554.861328125,6329.21826171875,28251.806640625,-225.7029266357422,0.0,1120.5673828125,13430.1181640625,6108.2841796875,25071.302734375,15863.5771484375,14444.9873046875,23825.16796875,8780.162109375,13446.8076171875,7996.55908203125,3230.57177734375,22315.978515625,8804.7978515625,16211.66796875,11122.2265625,8162.65771484375,11510.8486328125,11510.0546875,1644.29345703125,9360.3134765625,2646.4462890625,15902.51953125,5826.1552734375,7491.90673828125,1698.3350830078125,10298.888671875,3787.676513671875,23289.521484375,3581.841796875,16710.7578125,3120.1044921875,9248.2568359375,25849.341796875,20695.52734375,12020.2705078125,-0.0,-44676.46484375,18867.650390625,4072.189453125,0.0,7042.08984375,0.0,0.0
14189.083984375,13800.4619140625,31994.181640625,11239.8466796875,27664.50390625,5746.6826171875,7551.51123046875,8592.60546875,8336.703125,6146.43115234375,15755.4951171875,-1039.5050048828125,8374.0546875,0.0,22101.40234375,5580.583984375,24274.19140625,19412.8359375,9078.9794921875,10958.5126953125,22566.318359375,28867.720703125,20583.470703125,18888.314453125,20569.958984375,6332.3974609375,28258.166015625,-220.93455505371094,0.0,1125.335693359375,13434.88671875,6109.87353515625,25075.27734375,15865.9609375,14449.755859375,23828.34765625,8784.134765625,13451.576171875,7995.7646484375,3228.1875,22326.310546875,8809.56640625,16218.8203125,11125.4052734375,8165.83642578125,11517.20703125,11516.412109375,1648.26708984375,9370.64453125,2652.00927734375,15906.4921875,5829.33447265625,7481.5751953125,1704.69287109375,10310.013671875,3786.0869140625,23295.87890625,3587.405029296875,16715.52734375,3127.257080078125,9246.6669921875,25854.90625,20699.501953125,12019.474609375,-0.0,-44673.28125,18872.419921875,4088.083740234375,0.0,7051.62646484375,0.0,0.0
14181.931640625,13794.8994140625,31987.029296875,11246.2041015625,27663.70703125,5746.6826171875,7549.126953125,8590.2216796875,8335.908203125,6144.046875,15759.4677734375,-1042.6839599609375,8374.8505859375,0.0,22106.169921875,5579.78955078125,24271.806640625,19412.8359375,9076.595703125,10961.69140625,22564.73046875,28866.92578125,20578.703125,18885.134765625,20572.34375,6334.78173828125,28256.57421875,-221.72927856445312,0.0,1122.9515380859375,13431.7080078125,6106.69482421875,25075.27734375,15865.9609375,14448.9599609375,23827.552734375,8783.3408203125,13450.7822265625,7999.73779296875,3218.65087890625,22324.720703125,8811.15625,16216.4365234375,11124.611328125,8165.0419921875,11514.02734375,11516.412109375,1647.472412109375,9368.2607421875,2654.3935546875,15908.0830078125,5825.36083984375,7479.19091796875,1703.8980712890625,10310.013671875,3790.060791015625,23298.263671875,3588.19970703125,16718.70703125,3126.462158203125,9243.48828125,25853.314453125,20697.1171875,12025.0390625,-0.0,-44674.875,18868.447265625,4083.3154296875,0.0,7041.29541015625,0.0,0.0
14163.6533203125,13782.18359375,31976.69921875,11235.873046875,27650.197265625,5733.171875,7538.00048828125,8576.7109375,8327.1669921875,6133.71533203125,15746.751953125,-1054.6048583984375,8367.697265625,0.0,22099.017578125,5563.89453125,24259.08984375,19398.53125,9063.0849609375,10950.5654296875,22553.6015625,28853.416015625,20564.3984375,18872.419921875,20564.3984375,6323.65576171875,28244.654296875,-232.85548400878906,0.0,1111.030517578125,13419.787109375,6093.97900390625,25063.35546875,15854.0400390625,14435.4501953125,23814.04296875,8769.830078125,13438.0654296875,7990.201171875,3199.577392578125,22312.798828125,8797.6455078125,16202.9267578125,11111.1005859375,8152.32568359375,11500.517578125,11504.4912109375,1622.8358154296875,9352.3662109375,2643.267333984375,15898.5458984375,5811.0556640625,7471.2431640625,1685.619384765625,10301.2724609375,3777.344970703125,23293.49609375,3578.662841796875,16710.7578125,3113.74658203125,9233.951171875,25840.6015625,20685.1953125,12022.654296875,-0.0,-44686.79296875,18858.91015625,4065.83154296875,0.0,7028.57958984375,0.0,0.0
14177.9580078125,13798.0771484375,31989.4140625,11237.4619140625,27658.939453125,5739.5302734375,7543.56396484375,8579.890625,8327.9609375,6138.4833984375,15750.7265625,-1042.6839599609375,8375.64453125,0.0,22101.40234375,5564.689453125,24267.83203125,19404.888671875,9067.05859375,10953.744140625,22559.9609375,28861.365234375,20569.958984375,18876.39453125,20572.34375,6331.6025390625,28250.216796875,-228.0871124267578,0.0,1115.7989501953125,13427.734375,6105.10498046875,25071.302734375,15860.3994140625,14441.8076171875,23821.1953125,8773.009765625,13442.0390625,7997.353515625,3198.78271484375,22321.54296875,8805.5927734375,16206.8994140625,11115.8681640625,8155.50537109375,11502.1064453125,11515.6171875,1629.98828125,9358.7236328125,2649.625,15902.51953125,5812.64501953125,7488.7275390625,1696.7454833984375,10309.2197265625,3782.11328125,23298.263671875,3583.43115234375,16712.34765625,3113.74658203125,9247.4619140625,25842.984375,20689.16796875,12017.0908203125,-0.0,-44672.48828125,18866.857421875,4061.063232421875,0.0,7034.14306640625,0.0,0.0
14200.2109375,13814.7666015625,32006.900390625,11249.3828125,27674.0390625,5753.04052734375,7549.126953125,8590.2216796875,8326.37109375,6140.86767578125,15773.7734375,-1025.99462890625,8388.3603515625,0.0,22104.58203125,5580.583984375,24282.931640625,19418.3984375,9073.4169921875,10952.94921875,22574.265625,28874.078125,20579.49609375,18885.931640625,20592.212890625,6345.90771484375,28259.75390625,-215.37144470214844,0.0,1130.8988037109375,13441.2451171875,6121.0,25087.19921875,15873.11328125,14455.318359375,23833.1171875,8780.9560546875,13449.986328125,8006.89013671875,3218.65087890625,22338.232421875,8818.30859375,16218.02734375,11126.2001953125,8161.06787109375,11508.46484375,11535.4853515625,1653.8302001953125,9374.6181640625,2667.90380859375,15908.0830078125,5822.9765625,7513.3642578125,1711.0506591796875,10325.908203125,3795.623779296875,23303.828125,3596.941650390625,16717.115234375,3120.899169921875,9259.3828125,25852.521484375,20693.14453125,12003.5810546875,-0.0,-44654.2109375,18870.830078125,4077.752685546875,0.0,7042.08984375,0.0,0.0
14199.416015625,13815.5625,32001.3359375,11254.1513671875,27672.44921875,5753.8349609375,7546.74267578125,8587.04296875,8318.423828125,6134.51025390625,15765.0322265625,-1029.1734619140625,8384.38671875,0.0,22098.22265625,5579.78955078125,24283.728515625,19419.193359375,9071.8271484375,10946.591796875,22574.265625,28873.28515625,20576.318359375,18884.33984375,20585.060546875,6348.2919921875,28256.57421875,-216.1661834716797,0.0,1132.48828125,13442.833984375,6121.79443359375,25087.19921875,15875.498046875,14455.318359375,23832.3203125,8779.3662109375,13447.6025390625,8005.30126953125,3224.2138671875,22336.640625,8819.103515625,16214.84765625,11126.9951171875,8156.2998046875,11506.0810546875,11516.412109375,1657.8038330078125,9373.82421875,2675.056396484375,15904.9033203125,5819.79736328125,7507.80126953125,1712.64013671875,10320.345703125,3797.21337890625,23299.05859375,3594.5576171875,16711.552734375,3118.51513671875,9252.23046875,25852.521484375,20689.96484375,11994.0439453125,-0.0,-44662.16015625,18866.857421875,4081.72607421875,0.0,7034.14306640625,0.0,0.0
14191.4677734375,13806.025390625,31993.388671875,11254.9462890625,27666.88671875,5750.65625,7541.974609375,8581.4794921875,8311.271484375,6128.94677734375,15749.931640625,-1034.736572265625,8379.6181640625,0.0,22095.837890625,5566.27880859375,24280.548828125,19415.220703125,9067.8525390625,10941.8232421875,22568.703125,28872.490234375,20572.34375,18877.1875,20577.111328125,6343.5234375,28251.013671875,-222.5240020751953,0.0,1127.7198486328125,13438.0654296875,6117.82080078125,25081.634765625,15873.9091796875,14451.3447265625,23829.142578125,8774.59765625,13442.833984375,7998.14892578125,3221.034912109375,22331.873046875,8815.12890625,16212.462890625,11122.2265625,8149.94140625,11502.90234375,11497.337890625,1656.21435546875,9366.671875,2671.877685546875,15899.33984375,5809.4658203125,7498.26416015625,1712.64013671875,10312.3984375,3796.41845703125,23295.083984375,3587.405029296875,16706.78515625,3112.951904296875,9245.078125,25848.546875,20685.9921875,11989.2763671875,-0.0,-44668.515625,18865.267578125,4088.083740234375,0.0,7030.9638671875,0.0,0.0
14190.673828125,13803.6416015625,31987.828125,11253.357421875,27662.119140625,5745.8876953125,7537.2060546875,8579.0947265625,8307.2978515625,6124.17822265625,15745.9580078125,-1039.5050048828125,8374.8505859375,0.0,22091.0703125,5559.92138671875,24276.57421875,19408.861328125,9061.49609375,10935.4658203125,22566.318359375,28868.517578125,20566.78125,18872.419921875,20573.93359375,6337.166015625,28245.44921875,-228.0871124267578,0.0,1124.5408935546875,13433.296875,6116.2314453125,25078.455078125,15872.3203125,14445.78125,23825.96484375,8769.03515625,13437.271484375,8001.32763671875,3223.419189453125,22324.720703125,8811.15625,16209.2841796875,11116.6640625,8145.1728515625,11494.9541015625,11499.72265625,1653.0355224609375,9361.9033203125,2662.3408203125,15893.7783203125,5803.1083984375,7499.05908203125,1711.0506591796875,10310.8095703125,3796.41845703125,23290.31640625,3581.841796875,16702.017578125,3108.18359375,9241.8984375,25842.189453125,20680.427734375,11986.0966796875,-0.0,-44670.10546875,18861.29296875,4084.905029296875,0.0,7026.990234375,0.0,0.0
14187.4951171875,13808.41015625,31996.56640625,11250.97265625,27667.681640625,5746.6826171875,7541.1796875,8581.4794921875,8315.24609375,6131.3310546875,15751.5205078125,-1037.91552734375,8377.234375,0.0,22096.634765625,5567.86865234375,24277.369140625,19410.451171875,9063.8798828125,10945.796875,22569.498046875,28871.6953125,20570.755859375,18875.599609375,20577.908203125,6337.166015625,28251.806640625,-225.7029266357422,0.0,1123.7462158203125,13435.681640625,6113.84716796875,25078.455078125,15872.3203125,14449.755859375,23828.34765625,8773.8037109375,13440.4501953125,7998.14892578125,3225.803466796875,22331.080078125,8814.3349609375,16213.2587890625,11118.2529296875,8150.73681640625,11501.3125,11510.0546875,1648.26708984375,9368.2607421875,2655.98291015625,15898.5458984375,5807.87646484375,7494.291015625,1707.871826171875,10311.603515625,3796.41845703125,23294.291015625,3589.7890625,16707.578125,3111.362548828125,9249.05078125,25846.958984375,20686.78515625,12003.5810546875,-0.0,-44669.3125,18866.857421875,4082.52099609375,0.0,7034.14306640625,0.0,0.0
14189.083984375,13810.7939453125,32002.1328125,11254.9462890625,27673.244140625,5750.65625,7549.92138671875,8586.2470703125,8324.7822265625,6139.2783203125,15771.388671875,-1037.120849609375,8374.8505859375,0.0,22101.40234375,5572.63720703125,24280.548828125,19415.220703125,9071.0322265625,10956.923828125,22573.470703125,28874.078125,20577.908203125,18881.162109375,20585.060546875,6341.13916015625,28262.93359375,-222.5240020751953,0.0,1123.7462158203125,13438.0654296875,6113.05224609375,25081.634765625,15873.9091796875,14456.11328125,23833.91015625,8780.9560546875,13446.8076171875,8001.32763671875,3226.59814453125,22339.025390625,8817.513671875,16220.4111328125,11123.021484375,8155.50537109375,11509.2587890625,11523.564453125,1653.8302001953125,9369.0556640625,2660.75146484375,15907.287109375,5812.64501953125,7494.291015625,1707.0770263671875,10314.7822265625,3798.008056640625,23291.90625,3593.7626953125,16717.91015625,3116.130859375,9256.9990234375,25851.7265625,20696.322265625,12017.0908203125,-0.0,-44668.515625,18871.625,4068.2158203125,0.0,7036.52734375,0.0,0.0
14178.7529296875,13799.6669921875,31998.158203125,11253.357421875,27673.244140625,5744.29833984375,7551.51123046875,8584.658203125,8322.3984375,6143.251953125,15773.7734375,-1044.2734375,8369.2861328125,0.0,22101.40234375,5566.27880859375,24277.369140625,19411.24609375,9070.2373046875,10959.3076171875,22571.0859375,28871.6953125,20577.111328125,18877.982421875,20581.880859375,6337.9609375,28267.701171875,-229.6765594482422,0.0,1116.59375,13434.88671875,6109.87353515625,25078.455078125,15871.5244140625,14452.1396484375,23829.9375,8780.9560546875,13442.833984375,8001.32763671875,3217.061279296875,22334.2578125,8811.951171875,16222.7958984375,11119.0478515625,8153.91552734375,11508.46484375,11526.744140625,1655.419677734375,9360.3134765625,2652.00927734375,15909.671875,5808.67138671875,7493.49609375,1693.566650390625,10308.4248046875,3783.702880859375,23287.931640625,3584.225830078125,16720.294921875,3119.3095703125,9253.025390625,25850.931640625,20694.732421875,12014.70703125,-0.0,-44680.43359375,18870.830078125,4065.036865234375,0.0,7042.884765625,0.0,0.0
14166.83203125,13791.720703125,31991.005859375,11251.767578125,27674.0390625,5740.32470703125,7553.8955078125,8582.2744140625,8315.24609375,6140.86767578125,15758.6728515625,-1049.8365478515625,8366.90234375,0.0,22102.990234375,5563.10009765625,24271.806640625,19406.4765625,9069.4423828125,10954.5390625,22565.5234375,28869.310546875,20574.728515625,18875.599609375,20580.291015625,6330.80810546875,28267.701171875,-236.03439331054688,0.0,1109.441162109375,13432.5029296875,6102.720703125,25074.482421875,15867.5517578125,14450.5498046875,23827.552734375,8780.9560546875,13442.0390625,7994.96923828125,3213.087890625,22328.6953125,8805.5927734375,16226.7685546875,11115.8681640625,8153.12109375,11508.46484375,11516.412109375,1649.8565673828125,9356.33984375,2644.06201171875,15912.8515625,5804.69775390625,7480.7802734375,1684.0299072265625,10304.451171875,3780.52392578125,23292.69921875,3582.636474609375,16718.70703125,3116.925537109375,9246.6669921875,25849.341796875,20694.732421875,12005.169921875,-0.0,-44692.35546875,18869.2421875,4067.4208984375,0.0,7039.70556640625,0.0,0.0
14171.6005859375,13790.9248046875,31991.005859375,11251.767578125,27673.244140625,5737.9404296875,7552.3056640625,8582.2744140625,8308.8876953125,6138.4833984375,15764.236328125,-1051.4259033203125,8372.4658203125,0.0,22100.607421875,5565.484375,24271.01171875,19408.068359375,9071.0322265625,10952.1552734375,22565.5234375,28869.310546875,20573.138671875,18874.802734375,20580.291015625,6325.2451171875,28251.806640625,-234.44493103027344,0.0,1101.493896484375,13430.9130859375,6104.310546875,25074.482421875,15866.7568359375,14450.5498046875,23827.552734375,8779.3662109375,13442.0390625,7991.791015625,3213.087890625,22327.900390625,8804.7978515625,16225.1796875,11115.07421875,8151.53125,11510.0546875,11514.8232421875,1644.29345703125,9361.9033203125,2644.06201171875,15909.671875,5807.87646484375,7491.11181640625,1692.77197265625,10315.5771484375,3778.9345703125,23295.083984375,3586.610107421875,16716.322265625,3120.1044921875,9248.2568359375,25848.546875,20694.732421875,12001.9912109375,-0.0,-44689.1796875,18872.419921875,4076.957763671875,0.0,7033.34814453125,0.0,0.0
14169.2158203125,13787.74609375,31985.443359375,11252.5625,27664.50390625,5738.7353515625,7540.384765625,8585.453125,8306.5029296875,6140.86767578125,15757.083984375,-1045.068115234375,8382.796875,0.0,22097.4296875,5572.63720703125,24270.216796875,19408.068359375,9070.2373046875,10952.1552734375,22560.75390625,28865.337890625,20566.78125,18874.802734375,20569.958984375,6325.2451171875,28245.44921875,-232.0607452392578,0.0,1109.441162109375,13426.9404296875,6100.33642578125,25069.712890625,15865.9609375,14445.78125,23825.16796875,8776.1875,13442.833984375,7987.81689453125,3209.114013671875,22322.3359375,8805.5927734375,16211.66796875,11116.6640625,8148.3525390625,11512.4384765625,11510.8486328125,1641.1146240234375,9373.0283203125,2648.03564453125,15896.955078125,5814.234375,7496.6748046875,1691.9771728515625,10321.140625,3784.49755859375,23302.236328125,3593.7626953125,16710.7578125,3123.283447265625,9246.6669921875,25846.162109375,20693.14453125,11998.017578125,-0.0,-44677.2578125,18869.2421875,4091.2626953125,0.0,7038.9111328125,0.0,0.0
14169.2158203125,13794.8994140625,31987.828125,11258.125,27670.064453125,5747.47705078125,7544.35888671875,8592.60546875,8309.681640625,6148.0205078125,15757.87890625,-1033.94189453125,8386.771484375,0.0,22097.4296875,5586.1474609375,24272.599609375,19412.8359375,9076.595703125,10956.1279296875,22564.73046875,28870.10546875,20571.55078125,18880.3671875,20569.958984375,6334.78173828125,28258.166015625,-220.1398162841797,0.0,1117.388427734375,13429.32421875,6103.515625,25072.09765625,15869.140625,14448.9599609375,23831.525390625,8781.7509765625,13449.986328125,7990.99658203125,3213.087890625,22325.515625,8812.7451171875,16219.6162109375,11123.021484375,8153.91552734375,11520.3857421875,11512.4384765625,1644.29345703125,9371.439453125,2657.572509765625,15900.9306640625,5824.56591796875,7501.443359375,1691.9771728515625,10309.2197265625,3795.623779296875,23302.236328125,3606.478515625,16709.962890625,3128.846435546875,9245.8720703125,25851.7265625,20698.705078125,12001.9912109375,-0.0,-44662.953125,18866.0625,4099.21044921875,0.0,7047.6533203125,0.0,0.0
14173.984375,13801.2568359375,31988.62109375,11261.3037109375,27671.65625,5753.04052734375,7546.74267578125,8594.990234375,8305.708984375,6148.0205078125,15759.4677734375,-1033.94189453125,8391.5400390625,0.0,22096.634765625,5590.91552734375,24274.19140625,19413.62890625,9078.185546875,10954.5390625,22567.908203125,28873.28515625,20573.138671875,18885.931640625,20573.93359375,6345.11328125,28258.166015625,-213.78199768066406,0.0,1123.7462158203125,13434.0927734375,6106.69482421875,25075.27734375,15873.11328125,14451.3447265625,23836.294921875,8782.5458984375,13452.37109375,7990.201171875,3217.061279296875,22328.6953125,8819.8974609375,16222.0,11126.9951171875,8153.12109375,11519.591796875,11512.4384765625,1657.8038330078125,9363.4921875,2664.72509765625,15903.314453125,5827.7451171875,7501.443359375,1702.30859375,10311.603515625,3805.16064453125,23300.6484375,3611.246826171875,16705.990234375,3132.025390625,9248.2568359375,25854.90625,20698.705078125,12001.197265625,-0.0,-44659.7734375,18862.08984375,4101.59423828125,0.0,7046.8583984375,0.0,0.0
14166.83203125,13790.130859375,31981.46875,11250.1787109375,27656.5546875,5745.8876953125,7544.35888671875,8591.015625,8310.4775390625,6147.22607421875,15749.1357421875,-1037.91552734375,8385.181640625,0.0,22099.017578125,5586.1474609375,24266.2421875,19405.68359375,9073.4169921875,10957.7177734375,22558.37109375,28865.337890625,20565.19140625,18880.3671875,20574.728515625,6336.37109375,28247.833984375,-221.72927856445312,0.0,1107.0570068359375,13426.14453125,6097.15771484375,25066.533203125,15863.5771484375,14443.3974609375,23829.9375,8776.982421875,13449.1923828125,7980.6640625,3203.551025390625,22321.54296875,8808.7724609375,16210.875,11121.4326171875,8152.32568359375,11514.8232421875,11500.517578125,1641.9093017578125,9365.8759765625,2657.572509765625,15900.134765625,5824.56591796875,7492.701171875,1688.79833984375,10306.8349609375,3794.0341796875,23297.46875,3604.888916015625,16709.962890625,3130.43603515625,9240.3095703125,25849.341796875,20697.1171875,12006.759765625,-0.0,-44667.72265625,18869.2421875,4092.0576171875,0.0,7043.6796875,0.0,0.0
14166.037109375,13785.3623046875,31981.46875,11244.6142578125,27660.52734375,5742.70849609375,7547.537109375,8589.4267578125,8318.423828125,6151.19921875,15746.751953125,-1040.2998046875,8379.6181640625,0.0,22102.197265625,5581.37890625,24263.859375,19404.09375,9073.4169921875,10964.8701171875,22559.166015625,28862.953125,20565.19140625,18878.779296875,20581.087890625,6327.62890625,28248.62890625,-225.7029266357422,0.0,1101.493896484375,13425.3505859375,6094.77392578125,25064.9453125,15860.3994140625,14444.1923828125,23827.552734375,8780.162109375,13446.8076171875,7979.86962890625,3206.72998046875,22323.130859375,8804.00390625,16214.84765625,11120.63671875,8155.50537109375,11515.6171875,11499.72265625,1629.193603515625,9370.64453125,2652.80419921875,15902.51953125,5822.181640625,7488.7275390625,1686.4140625,10308.4248046875,3782.11328125,23298.263671875,3595.35205078125,16717.91015625,3129.641357421875,9237.92578125,25849.341796875,20698.705078125,12013.1181640625,-0.0,-44674.875,18873.21484375,4075.368408203125,0.0,7043.6796875,0.0,0.0
14170.0107421875,13786.15625,31985.443359375,11254.1513671875,27668.4765625,5753.04052734375,7550.71630859375,8596.5791015625,8322.3984375,6156.7626953125,15753.904296875,-1042.6839599609375,8385.181640625,0.0,22106.169921875,5590.12060546875,24267.83203125,19410.451171875,9078.9794921875,10965.6650390625,22565.5234375,28870.900390625,20571.55078125,18883.546875,20582.67578125,6340.3447265625,28253.396484375,-217.75563049316406,0.0,1102.28857421875,13432.5029296875,6101.13134765625,25070.509765625,15865.9609375,14448.9599609375,23833.91015625,8785.724609375,13453.166015625,7986.22802734375,3216.2666015625,22326.310546875,8815.12890625,16219.6162109375,11126.9951171875,8161.06787109375,11522.76953125,11506.0810546875,1637.9356689453125,9371.439453125,2660.75146484375,15906.4921875,5829.33447265625,7488.7275390625,1689.593017578125,10321.140625,3788.47119140625,23299.8515625,3604.09423828125,16721.8828125,3135.204345703125,9237.92578125,25854.90625,20704.26953125,12008.349609375,-0.0,-44674.875,18877.1875,4087.289306640625,0.0,7049.24267578125,0.0,0.0
14168.421875,13782.18359375,31979.876953125,11248.5888671875,27659.734375,5740.32470703125,7543.56396484375,8590.2216796875,8320.013671875,6147.22607421875,15749.931640625,-1045.86279296875,8382.0029296875,0.0,22099.8125,5583.76318359375,24261.474609375,19404.09375,9071.0322265625,10957.7177734375,22556.78125,28864.54296875,20564.3984375,18877.1875,20569.166015625,6335.57666015625,28247.037109375,-224.11346435546875,0.0,1102.28857421875,13425.3505859375,6094.77392578125,25064.9453125,15858.80859375,14443.3974609375,23826.7578125,8777.77734375,13445.2177734375,7980.6640625,3211.498291015625,22319.158203125,8807.1826171875,16212.462890625,11120.63671875,8155.50537109375,11514.8232421875,11502.90234375,1634.7567138671875,9360.3134765625,2652.80419921875,15903.314453125,5822.181640625,7479.19091796875,1686.4140625,10315.5771484375,3790.85546875,23295.87890625,3597.736328125,16717.115234375,3128.0517578125,9229.9775390625,25849.341796875,20697.912109375,12001.9912109375,-0.0,-44673.28125,18871.625,4096.03125,0.0,7041.29541015625,0.0,0.0
14164.4482421875,13782.18359375,31977.494140625,11246.2041015625,27653.375,5726.01953125,7540.384765625,8582.2744140625,8323.1923828125,6140.86767578125,15746.751953125,-1046.6575927734375,8377.234375,0.0,22098.22265625,5576.6103515625,24259.08984375,19400.119140625,9067.05859375,10960.1025390625,22553.6015625,28855.80078125,20559.62890625,18870.03515625,20565.986328125,6324.4501953125,28245.44921875,-231.26602172851562,0.0,1105.4674072265625,13420.58203125,6092.3896484375,25061.765625,15853.2470703125,14438.62890625,23819.60546875,8772.2138671875,13439.6552734375,7976.69140625,3201.166748046875,22312.798828125,8794.466796875,16209.2841796875,11111.8955078125,8153.12109375,11508.46484375,11499.72265625,1629.98828125,9355.544921875,2642.472412109375,15899.33984375,5815.82421875,7478.39599609375,1686.4140625,10306.041015625,3793.239501953125,23294.291015625,3592.17333984375,16718.70703125,3123.283447265625,9229.18359375,25843.779296875,20692.34765625,12010.7333984375,-0.0,-44681.234375,18868.447265625,4094.44189453125,0.0,7031.7587890625,0.0,0.0
14164.4482421875,13781.388671875,31979.083984375,11253.357421875,27651.787109375,5733.966796875,7539.59033203125,8583.86328125,8315.24609375,6141.66259765625,15747.546875,-1042.6839599609375,8378.029296875,0.0,22092.66015625,5582.173828125,24262.26953125,19401.708984375,9067.8525390625,10952.1552734375,22553.6015625,28858.98046875,20559.62890625,18870.03515625,20565.986328125,6330.80810546875,28244.654296875,-227.29237365722656,0.0,1107.8516845703125,13422.9658203125,6093.97900390625,25062.560546875,15858.0146484375,14437.0390625,23821.98828125,8771.419921875,13440.4501953125,7978.2802734375,3205.140380859375,22315.18359375,8802.4140625,16205.310546875,11113.484375,8150.73681640625,11510.0546875,11496.5439453125,1632.37255859375,9356.33984375,2648.03564453125,15893.7783203125,5819.79736328125,7483.958984375,1689.593017578125,10305.2451171875,3794.8291015625,23293.49609375,3599.325927734375,16708.375,3126.462158203125,9233.1572265625,25842.189453125,20689.16796875,12002.7861328125,-0.0,-44680.43359375,18865.267578125,4099.21044921875,0.0,7038.9111328125,0.0,0.0
14170.8056640625,13775.8251953125,31979.083984375,11260.509765625,27652.58203125,5735.55615234375,7535.6162109375,8583.068359375,8306.5029296875,6137.68896484375,15748.3427734375,-1040.2998046875,8376.439453125,0.0,22087.09765625,5583.76318359375,24263.0625,19400.119140625,9066.263671875,10942.6181640625,22552.80859375,28858.185546875,20559.62890625,18869.2421875,20566.78125,6331.6025390625,28241.4765625,-226.49765014648438,0.0,1108.6463623046875,13422.9658203125,6097.15771484375,25060.97265625,15859.603515625,14436.2451171875,23821.1953125,8770.625,13439.6552734375,7980.6640625,3209.90869140625,22315.18359375,8803.2080078125,16203.7216796875,11113.484375,8147.55712890625,11507.669921875,11496.5439453125,1630.7830810546875,9355.544921875,2652.00927734375,15891.3935546875,5822.9765625,7486.34326171875,1684.8245849609375,10309.2197265625,3785.29248046875,23290.31640625,3599.325927734375,16700.42578125,3129.641357421875,9235.541015625,25840.6015625,20685.1953125,11986.8916015625,-0.0,-44674.875,18858.91015625,4100.7998046875,0.0,7034.9375,0.0,0.0
14170.0107421875,13780.59375,31978.291015625,11256.53515625,27649.40234375,5736.35107421875,7534.82177734375,8583.068359375,8314.4501953125,6143.251953125,15745.9580078125,-1044.2734375,8372.4658203125,0.0,22091.865234375,5584.55810546875,24262.26953125,19398.53125,9066.263671875,10951.359375,22552.013671875,28858.185546875,20558.0390625,18869.2421875,20565.19140625,6336.37109375,28239.884765625,-223.31874084472656,0.0,1113.414794921875,13422.171875,6098.7470703125,25061.765625,15858.80859375,14434.6552734375,23819.60546875,8770.625,13442.0390625,7981.45947265625,3214.677001953125,22312.798828125,8803.2080078125,16204.515625,11114.279296875,8151.53125,11508.46484375,11500.517578125,1637.140869140625,9353.955078125,2657.572509765625,15892.982421875,5822.181640625,7479.19091796875,1687.208740234375,10302.861328125,3790.060791015625,23290.31640625,3599.325927734375,16707.578125,3128.0517578125,9237.92578125,25842.189453125,20689.16796875,12005.169921875,-0.0,-44676.46484375,18858.91015625,4100.0048828125,0.0,7038.1162109375,0.0,0.0
14173.984375,13790.9248046875,31985.443359375,11255.7412109375,27657.349609375,5745.0927734375,7541.1796875,8589.4267578125,8323.9873046875,6149.60986328125,15747.546875,-1036.3260498046875,8371.6708984375,0.0,22095.837890625,5591.71044921875,24269.421875,19404.09375,9072.62109375,10960.896484375,22558.37109375,28865.337890625,20564.3984375,18875.599609375,20573.138671875,6347.49755859375,28243.064453125,-216.1661834716797,0.0,1118.18310546875,13428.5283203125,6104.310546875,25070.509765625,15867.5517578125,14441.8076171875,23827.552734375,8776.982421875,13449.1923828125,7989.40673828125,3221.034912109375,22321.54296875,8811.951171875,16210.0791015625,11121.4326171875,8157.09423828125,11514.8232421875,11508.46484375,1647.472412109375,9357.134765625,2669.493408203125,15900.9306640625,5828.53955078125,7484.75390625,1699.9244384765625,10302.06640625,3805.955078125,23292.69921875,3608.06787109375,16714.73046875,3130.43603515625,9245.8720703125,25849.341796875,20697.1171875,12017.0908203125,-0.0,-44669.3125,18872.419921875,4101.59423828125,0.0,7046.06396484375,0.0,0.0
14166.83203125,13786.9521484375,31981.46875,11251.767578125,27655.759765625,5736.35107421875,7539.59033203125,8581.4794921875,8327.1669921875,6143.251953125,15737.21484375,-1040.2998046875,8367.697265625,0.0,22095.044921875,5581.37890625,24263.859375,19396.146484375,9066.263671875,10960.896484375,22554.3984375,28859.7734375,20558.833984375,18870.03515625,20574.728515625,6341.13916015625,28236.70703125,-228.8818359375,0.0,1104.6727294921875,13422.171875,6097.9521484375,25067.330078125,15860.3994140625,14436.2451171875,23820.400390625,8772.2138671875,13442.0390625,7983.04833984375,3214.677001953125,22318.36328125,8802.4140625,16206.8994140625,11111.8955078125,8154.7099609375,11512.4384765625,11499.72265625,1637.140869140625,9356.33984375,2654.3935546875,15896.955078125,5819.00244140625,7477.6015625,1695.1561279296875,10297.298828125,3798.802734375,23287.138671875,3596.146728515625,16717.91015625,3121.69384765625,9237.92578125,25842.189453125,20693.9375,12017.0908203125,-0.0,-44672.48828125,18870.830078125,4089.673583984375,0.0,7032.55322265625,0.0,0.0
14153.3212890625,13779.7998046875,31976.69921875,11243.025390625,27649.40234375,5726.01953125,7538.00048828125,8578.30078125,8328.755859375,6143.251953125,15734.037109375,-1049.8365478515625,8363.7236328125,0.0,22098.22265625,5579.78955078125,24257.501953125,19388.19921875,9063.0849609375,10965.6650390625,22549.62890625,28854.2109375,20551.681640625,18863.677734375,20560.423828125,6314.11865234375,28235.912109375,-237.6238555908203,0.0,1093.5465087890625,13414.2236328125,6089.21044921875,25058.587890625,15855.630859375,14430.6826171875,23813.248046875,8769.830078125,13437.271484375,7971.12744140625,3211.498291015625,22312.005859375,8792.876953125,16201.337890625,11102.3583984375,8153.12109375,11508.46484375,11495.7490234375,1629.98828125,9348.392578125,2637.7041015625,15897.7509765625,5814.234375,7468.859375,1676.8773193359375,10297.298828125,3783.702880859375,23286.341796875,3592.968017578125,16721.08984375,3122.48876953125,9229.9775390625,25837.421875,20694.732421875,12013.912109375,-0.0,-44683.6171875,18874.802734375,4089.673583984375,0.0,7030.9638671875,0.0,0.0
14158.08984375,13782.18359375,31979.876953125,11249.3828125,27652.58203125,5724.43017578125,7540.384765625,8582.2744140625,8316.833984375,6148.81494140625,15737.21484375,-1043.4786376953125,8366.90234375,0.0,22098.22265625,5588.53125,24260.6796875,19391.37890625,9065.46875,10962.486328125,22552.013671875,28855.005859375,20551.681640625,18866.0625,20558.0390625,6306.96630859375,28239.091796875,-232.0607452392578,0.0,1105.4674072265625,13415.8134765625,6093.18408203125,25061.765625,15858.0146484375,14431.4765625,23816.427734375,8773.009765625,13440.4501953125,7972.71728515625,3213.88232421875,22315.978515625,8790.4931640625,16204.515625,11106.33203125,8150.73681640625,11513.2333984375,11499.72265625,1637.140869140625,9347.59765625,2644.856689453125,15897.7509765625,5818.2080078125,7470.44873046875,1677.6719970703125,10301.2724609375,3792.44482421875,23288.7265625,3604.09423828125,16718.70703125,3129.641357421875,9230.7734375,25839.8046875,20696.322265625,11998.017578125,-0.0,-44677.2578125,18874.802734375,4092.85205078125,0.0,7045.26904296875,0.0,0.0
14163.6533203125,13779.7998046875,31987.029296875,11260.509765625,27658.939453125,5731.58251953125,7541.974609375,8586.2470703125,8310.4775390625,6153.58349609375,15741.9833984375,-1037.91552734375,8365.3134765625,0.0,22098.22265625,5592.5048828125,24267.0390625,19399.32421875,9070.2373046875,10962.486328125,22558.37109375,28861.365234375,20554.861328125,18869.2421875,20573.93359375,6330.80810546875,28240.681640625,-225.7029266357422,0.0,1113.414794921875,13422.9658203125,6099.5419921875,25071.302734375,15864.3720703125,14439.423828125,23822.78515625,8777.77734375,13445.2177734375,7982.25390625,3223.419189453125,22324.720703125,8799.2353515625,16210.0791015625,11111.8955078125,8150.73681640625,11516.412109375,11509.2587890625,1646.6776123046875,9353.1611328125,2652.00927734375,15899.33984375,5820.59228515625,7479.98583984375,1691.1824951171875,10297.298828125,3798.802734375,23288.7265625,3609.6572265625,16719.5,3133.61474609375,9231.5673828125,25846.162109375,20697.912109375,12001.197265625,-0.0,-44668.515625,18873.21484375,4098.41552734375,0.0,7056.39501953125,0.0,0.0
14156.5009765625,13771.8515625,31984.646484375,11259.71484375,27657.349609375,5732.37744140625,7541.1796875,8585.453125,8312.06640625,6152.78857421875,15737.21484375,-1041.094482421875,8367.697265625,0.0,22096.634765625,5590.12060546875,24264.654296875,19397.736328125,9068.6484375,10966.4599609375,22555.193359375,28860.568359375,20552.4765625,18866.857421875,20580.291015625,6333.98681640625,28240.681640625,-228.8818359375,0.0,1110.23583984375,13420.58203125,6097.9521484375,25068.125,15864.3720703125,14437.0390625,23822.78515625,8777.77734375,13442.833984375,7981.45947265625,3223.419189453125,22316.7734375,8800.029296875,16210.0791015625,11111.1005859375,8151.53125,11514.02734375,11501.3125,1645.088134765625,9353.955078125,2652.80419921875,15899.33984375,5817.4130859375,7470.44873046875,1684.8245849609375,10301.2724609375,3793.239501953125,23288.7265625,3605.68359375,16720.294921875,3132.025390625,9227.59375,25845.369140625,20699.501953125,12013.1181640625,-0.0,-44673.28125,18873.21484375,4098.41552734375,0.0,7047.6533203125,0.0,0.0
14157.294921875,13775.03125,31983.05859375,11262.099609375,27656.5546875,5734.76171875,7544.35888671875,8589.4267578125,8315.24609375,6155.1728515625,15734.8310546875,-1046.6575927734375,8366.90234375,0.0,22099.8125,5590.12060546875,24266.2421875,19396.146484375,9072.62109375,10969.638671875,22554.3984375,28861.365234375,20552.4765625,18868.447265625,20572.34375,6340.3447265625,28242.26953125,-228.8818359375,0.0,1110.23583984375,13422.171875,6100.33642578125,25067.330078125,15865.9609375,14436.2451171875,23824.373046875,8781.7509765625,13446.013671875,7983.04833984375,3221.82958984375,22313.595703125,8802.4140625,16213.2587890625,11113.484375,8156.2998046875,11515.6171875,11494.16015625,1648.26708984375,9353.1611328125,2655.188232421875,15903.314453125,5820.59228515625,7464.0908203125,1682.4404296875,10292.5302734375,3785.29248046875,23287.931640625,3604.888916015625,16726.65234375,3136.7939453125,9229.18359375,25847.75390625,20704.26953125,12005.96484375,-0.0,-44673.28125,18876.39453125,4096.03125,0.0,7050.83203125,0.0,0.0
14154.9111328125,13778.2099609375,31976.69921875,11258.125,27650.9921875,5731.58251953125,7542.76904296875,8583.86328125,8300.1455078125,6150.404296875,15741.9833984375,-1049.041748046875,8367.697265625,0.0,22094.25,5586.1474609375,24261.474609375,19392.171875,9070.2373046875,10954.5390625,22549.62890625,28857.388671875,20550.88671875,18867.650390625,20560.423828125,6334.78173828125,28241.4765625,-232.0607452392578,0.0,1103.8780517578125,13418.9921875,6094.77392578125,25061.765625,15861.98828125,14434.6552734375,23820.400390625,8777.77734375,13442.833984375,7963.97509765625,3213.88232421875,22311.2109375,8796.8515625,16209.2841796875,11110.3056640625,8149.94140625,11512.4384765625,11494.9541015625,1641.9093017578125,9351.5712890625,2652.00927734375,15898.5458984375,5818.2080078125,7468.06494140625,1684.0299072265625,10282.19921875,3790.85546875,23285.546875,3600.915283203125,16717.115234375,3134.40966796875,9227.59375,25845.369140625,20697.1171875,11984.5078125,-0.0,-44684.41015625,18871.625,4094.44189453125,0.0,7051.62646484375,0.0,0.0
14163.6533203125,13781.388671875,31967.95703125,11254.9462890625,27650.197265625,5728.40380859375,7542.76904296875,8579.890625,8292.9921875,6148.81494140625,15741.1904296875,-1047.4522705078125,8381.20703125,0.0,22093.455078125,5579.78955078125,24259.88671875,19396.146484375,9067.8525390625,10949.7705078125,22547.244140625,28856.595703125,20552.4765625,18867.650390625,20554.06640625,6330.01318359375,28247.037109375,-234.44493103027344,0.0,1095.135986328125,13416.607421875,6090.7998046875,25060.177734375,15858.80859375,14433.06640625,23818.810546875,8776.1875,13442.0390625,7983.84375,3206.72998046875,22307.23828125,8794.466796875,16210.0791015625,11108.7158203125,8148.3525390625,11510.0546875,11492.5703125,1637.140869140625,9353.955078125,2648.830322265625,15899.33984375,5813.43994140625,7478.39599609375,1681.645751953125,10290.1455078125,3792.44482421875,23288.7265625,3595.35205078125,16712.34765625,3128.0517578125,9233.1572265625,25844.57421875,20696.322265625,11987.6865234375,-0.0,-44688.38671875,18870.03515625,4090.468017578125,0.0,7048.4482421875,0.0,0.0
14161.26953125,13784.5673828125,31969.546875,11258.125,27650.9921875,5729.1982421875,7543.56396484375,8581.4794921875,8296.171875,6148.81494140625,15737.21484375,-1054.6048583984375,8373.2607421875,0.0,22095.044921875,5580.583984375,24259.08984375,19400.916015625,9069.4423828125,10949.7705078125,22548.041015625,28858.185546875,20554.861328125,18870.03515625,20551.681640625,6333.98681640625,28247.037109375,-232.0607452392578,0.0,1097.520263671875,13417.4033203125,6089.21044921875,25060.177734375,15859.603515625,14435.4501953125,23821.1953125,8778.572265625,13442.0390625,7975.1015625,3204.345703125,22308.03125,8797.6455078125,16212.462890625,11111.1005859375,8149.94140625,11512.4384765625,11498.1337890625,1640.31982421875,9351.5712890625,2650.419921875,15899.33984375,5815.029296875,7483.16455078125,1684.8245849609375,10291.7353515625,3791.650146484375,23291.111328125,3596.941650390625,16714.73046875,3126.462158203125,9233.1572265625,25846.958984375,20697.912109375,11986.0966796875,-0.0,-44689.97265625,18870.830078125,4081.72607421875,0.0,7043.6796875,0.0,0.0
14160.4736328125,13782.18359375,31973.521484375,11258.919921875,27653.375,5729.1982421875,7544.35888671875,8582.2744140625,8297.7607421875,6148.0205078125,15741.9833984375,-1051.4259033203125,8369.2861328125,0.0,22093.455078125,5579.78955078125,24259.08984375,19399.32421875,9069.4423828125,10951.359375,22551.21875,28858.98046875,20555.654296875,18869.2421875,20558.833984375,6331.6025390625,28240.681640625,-229.6765594482422,0.0,1096.7254638671875,13419.787109375,6089.21044921875,25062.560546875,15858.80859375,14437.8349609375,23821.1953125,8779.3662109375,13442.833984375,7964.7705078125,3211.498291015625,22313.595703125,8798.4404296875,16214.0517578125,11112.6904296875,8149.94140625,11512.4384765625,11494.9541015625,1637.140869140625,9351.5712890625,2652.00927734375,15899.33984375,5815.029296875,7477.6015625,1688.0035400390625,10296.50390625,3789.265869140625,23288.7265625,3597.736328125,16715.52734375,3126.462158203125,9226.798828125,25848.546875,20697.1171875,11984.5078125,-0.0,-44682.02734375,18870.830078125,4076.162841796875,0.0,7041.29541015625,0.0,0.0
14162.0634765625,13786.9521484375,31979.876953125,11260.509765625,27659.734375,5733.966796875,7548.33203125,8587.04296875,8297.7607421875,6154.37841796875,15736.421875,-1042.6839599609375,8373.2607421875,0.0,22095.837890625,5587.73681640625,24263.859375,19404.888671875,9074.2109375,10956.1279296875,22557.576171875,28862.953125,20559.62890625,18874.802734375,20568.37109375,6331.6025390625,28243.859375,-224.90818786621094,0.0,1092.7518310546875,13425.3505859375,6093.18408203125,25067.330078125,15861.98828125,14444.1923828125,23826.7578125,8783.3408203125,13448.3974609375,7972.71728515625,3220.240234375,22321.54296875,8802.4140625,16219.6162109375,11118.2529296875,8152.32568359375,11516.412109375,11496.5439453125,1637.140869140625,9357.134765625,2654.3935546875,15901.7236328125,5821.38671875,7473.62744140625,1691.1824951171875,10301.2724609375,3792.44482421875,23287.931640625,3603.29931640625,16714.73046875,3132.820068359375,9229.9775390625,25854.111328125,20701.08984375,11991.66015625,-0.0,-44675.66796875,18867.650390625,4092.85205078125,0.0,7051.62646484375,0.0,0.0
14148.552734375,13781.388671875,31975.109375,11258.125,27660.52734375,5733.966796875,7548.33203125,8587.8369140625,8302.529296875,6155.9677734375,15726.08984375,-1046.6575927734375,8371.6708984375,0.0,22100.607421875,5586.9423828125,24261.474609375,19407.271484375,9076.595703125,10960.896484375,22555.986328125,28862.158203125,20559.62890625,18875.599609375,20568.37109375,6331.6025390625,28247.037109375,-225.7029266357422,0.0,1088.7781982421875,13423.7607421875,6090.7998046875,25064.9453125,15861.1923828125,14442.603515625,23824.373046875,8785.724609375,13447.6025390625,7970.3330078125,3222.62451171875,22319.158203125,8800.82421875,16219.6162109375,11115.8681640625,8153.12109375,11516.412109375,11496.5439453125,1633.9620361328125,9357.134765625,2653.598876953125,15904.9033203125,5818.2080078125,7463.29638671875,1685.619384765625,10297.298828125,3791.650146484375,23291.111328125,3598.531005859375,16719.5,3132.025390625,9226.798828125,25853.314453125,20701.884765625,11998.017578125,-0.0,-44679.640625,18869.2421875,4095.236328125,0.0,7053.21630859375,0.0,0.0
14148.552734375,13773.44140625,31981.46875,11266.072265625,27663.70703125,5738.7353515625,7553.8955078125,8592.60546875,8304.119140625,6157.55712890625,15734.037109375,-1047.4522705078125,8371.6708984375,0.0,22102.990234375,5592.5048828125,24264.654296875,19406.4765625,9079.7734375,10962.486328125,22556.78125,28866.1328125,20562.013671875,18877.1875,20571.55078125,6333.98681640625,28252.6015625,-221.72927856445312,0.0,1090.36767578125,13426.9404296875,6090.00537109375,25067.330078125,15864.3720703125,14443.3974609375,23826.7578125,8788.9033203125,13450.7822265625,7970.3330078125,3215.471923828125,22320.748046875,8803.2080078125,16222.7958984375,11119.0478515625,8157.09423828125,11518.7958984375,11504.4912109375,1635.551513671875,9361.9033203125,2659.956787109375,15907.287109375,5822.181640625,7468.06494140625,1679.2615966796875,10294.1201171875,3791.650146484375,23295.083984375,3600.915283203125,16721.8828125,3136.7939453125,9226.798828125,25855.69921875,20704.26953125,11998.017578125,-0.0,-44683.6171875,18872.419921875,4096.03125,0.0,7053.21630859375,0.0,0.0
14164.4482421875,13781.388671875,31990.2109375,11279.5830078125,27674.0390625,5752.24560546875,7561.0478515625,8602.142578125,8311.271484375,6163.9150390625,15750.7265625,-1034.736572265625,8376.439453125,0.0,22107.759765625,5603.63134765625,24271.806640625,19413.62890625,9087.7216796875,10968.048828125,22565.5234375,28876.462890625,20572.34375,18888.314453125,20581.087890625,6349.0869140625,28262.93359375,-209.0136260986328,0.0,1104.6727294921875,13436.4765625,6101.13134765625,25076.865234375,15874.7041015625,14453.728515625,23838.677734375,8794.466796875,13461.11328125,7983.04833984375,3223.419189453125,22328.6953125,8815.9248046875,16231.537109375,11131.763671875,8163.4521484375,11527.5380859375,11515.6171875,1648.26708984375,9369.8505859375,2675.056396484375,15914.4404296875,5832.51318359375,7486.34326171875,1691.1824951171875,10300.4765625,3803.571044921875,23299.8515625,3616.01513671875,16726.65234375,3143.9462890625,9237.1298828125,25865.236328125,20711.421875,11999.607421875,-0.0,-44670.8984375,18870.03515625,4100.0048828125,0.0,7059.57421875,0.0,0.0
14157.294921875,13775.8251953125,31981.46875,11270.8408203125,27666.091796875,5745.0927734375,7551.51123046875,8591.8115234375,8304.9130859375,6153.58349609375,15740.39453125,-1049.8365478515625,8370.08203125,0.0,22101.40234375,5588.53125,24263.0625,19403.298828125,9078.9794921875,10960.1025390625,22555.193359375,28869.310546875,20566.78125,18879.572265625,20573.93359375,6344.318359375,28255.78125,-218.5503692626953,0.0,1097.520263671875,13426.9404296875,6091.5947265625,25068.91796875,15865.16796875,14444.1923828125,23829.9375,8785.724609375,13450.7822265625,7973.51171875,3219.445556640625,22321.54296875,8808.7724609375,16225.1796875,11123.81640625,8155.50537109375,11517.20703125,11506.875,1643.498779296875,9365.8759765625,2671.877685546875,15908.8759765625,5825.36083984375,7481.5751953125,1685.619384765625,10288.5556640625,3795.623779296875,23293.49609375,3605.68359375,16719.5,3129.641357421875,9229.18359375,25857.291015625,20701.08984375,11988.48046875,-0.0,-44685.203125,18854.9375,4092.85205078125,0.0,7041.29541015625,0.0,0.0
14154.1162109375,13782.18359375,31977.494140625,11264.4833984375,27659.734375,5741.9140625,7545.1533203125,8587.8369140625,8304.119140625,6145.63623046875,15727.6787109375,-1051.4259033203125,8365.3134765625,0.0,22096.634765625,5582.173828125,24259.88671875,19398.53125,9071.8271484375,10951.359375,22550.423828125,28861.365234375,20562.013671875,18873.21484375,20571.55078125,6342.72900390625,28247.037109375,-222.5240020751953,0.0,1105.4674072265625,13422.171875,6090.00537109375,25063.35546875,15860.3994140625,14439.423828125,23825.16796875,8781.7509765625,13446.8076171875,7967.154296875,3224.2138671875,22317.568359375,8804.00390625,16220.4111328125,11121.4326171875,8152.32568359375,11511.6435546875,11498.1337890625,1642.7039794921875,9361.107421875,2671.082763671875,15904.1083984375,5819.00244140625,7476.806640625,1690.3876953125,10282.9931640625,3794.8291015625,23290.31640625,3601.7099609375,16717.115234375,3121.69384765625,9222.0302734375,25850.138671875,20697.1171875,11976.5595703125,-0.0,-44681.234375,18859.705078125,4094.44189453125,0.0,7026.1953125,0.0,0.0
14170.0107421875,13806.8203125,31987.828125,11281.1728515625,27670.859375,5756.21923828125,7553.1005859375,8599.7578125,8304.9130859375,6152.78857421875,15744.3671875,-1029.1734619140625,8379.6181640625,0.0,22101.40234375,5597.2734375,24274.19140625,19413.62890625,9082.158203125,10952.94921875,22566.318359375,28876.462890625,20572.34375,18887.51953125,20583.470703125,6358.62353515625,28252.6015625,-206.6294403076172,0.0,1122.9515380859375,13438.0654296875,6103.515625,25076.0703125,15876.29296875,14452.1396484375,23838.677734375,8792.0830078125,13457.138671875,7984.63818359375,3241.697998046875,22330.283203125,8821.4873046875,16229.15234375,11134.1474609375,8158.68359375,11520.3857421875,11510.8486328125,1653.0355224609375,9369.0556640625,2685.387939453125,15908.8759765625,5833.3076171875,7493.49609375,1707.871826171875,10302.861328125,3809.928955078125,23299.8515625,3620.783447265625,16717.115234375,3133.61474609375,9240.3095703125,25862.05859375,20708.2421875,11966.228515625,-0.0,-44659.7734375,18863.677734375,4107.9521484375,0.0,7035.732421875,0.0,0.0
14166.83203125,13799.6669921875,31985.443359375,11280.376953125,27669.271484375,5753.8349609375,7551.51123046875,8598.9638671875,8300.9404296875,6155.1728515625,15742.7783203125,-1030.7630615234375,8375.64453125,0.0,22098.22265625,5602.04150390625,24271.806640625,19414.42578125,9082.953125,10952.94921875,22563.93359375,28874.078125,20570.755859375,18885.931640625,20577.908203125,6354.64990234375,28250.216796875,-205.03997802734375,0.0,1116.59375,13436.4765625,6101.13134765625,25072.09765625,15874.7041015625,14449.755859375,23837.08984375,8789.6982421875,13457.138671875,7979.86962890625,3235.340087890625,22327.900390625,8819.8974609375,16226.7685546875,11133.353515625,8157.09423828125,11524.359375,11506.875,1641.9093017578125,9362.697265625,2677.440673828125,15907.287109375,5835.69189453125,7486.34326171875,1707.871826171875,10299.6826171875,3814.697265625,23296.673828125,3630.3203125,16713.142578125,3138.383056640625,9238.7197265625,25862.8515625,20706.654296875,11970.2021484375,-0.0,-44661.36328125,18864.47265625,4112.720703125,0.0,7043.6796875,0.0,0.0
14167.6259765625,13786.9521484375,31991.005859375,11282.76171875,27672.44921875,5757.80859375,7555.48486328125,8604.5263671875,8310.4775390625,6161.53076171875,15749.931640625,-1033.147216796875,8374.8505859375,0.0,22102.197265625,5609.9892578125,24275.779296875,19421.578125,9085.337890625,10960.1025390625,22567.908203125,28878.84765625,20574.728515625,18889.904296875,20578.703125,6357.0341796875,28254.19140625,-197.88742065429688,0.0,1118.18310546875,13440.4501953125,6105.10498046875,25076.865234375,15877.0888671875,14454.5244140625,23841.0625,8792.876953125,13461.11328125,7982.25390625,3232.9560546875,22332.66796875,8822.2822265625,16229.9482421875,11137.326171875,8163.4521484375,11529.9228515625,11512.4384765625,1646.6776123046875,9365.8759765625,2681.414306640625,15908.8759765625,5842.8447265625,7484.75390625,1703.1033935546875,10300.4765625,3821.05517578125,23297.46875,3639.85693359375,16720.294921875,3145.53564453125,9233.951171875,25865.236328125,20711.421875,11983.7119140625,-0.0,-44658.9765625,18870.830078125,4116.69384765625,0.0,7054.0107421875,0.0,0.0
14173.1904296875,13782.18359375,31993.388671875,11286.7353515625,27673.244140625,5757.80859375,7557.07421875,8606.9111328125,8319.21875,6165.50439453125,15744.3671875,-1035.5313720703125,8373.2607421875,0.0,22104.58203125,5610.7841796875,24278.958984375,19422.373046875,9086.1318359375,10963.2802734375,22568.703125,28881.23046875,20577.908203125,18890.69921875,20580.291015625,6358.62353515625,28254.19140625,-197.88742065429688,0.0,1117.388427734375,13441.2451171875,6106.69482421875,25078.455078125,15878.677734375,14456.908203125,23842.65234375,8793.671875,13462.703125,7984.63818359375,3230.57177734375,22334.2578125,8824.666015625,16231.537109375,11138.1220703125,8165.83642578125,11532.306640625,11510.8486328125,1653.0355224609375,9366.671875,2682.208984375,15912.0556640625,5844.43408203125,7485.54833984375,1691.9771728515625,10297.298828125,3815.491943359375,23295.87890625,3636.677978515625,16725.0625,3145.53564453125,9233.1572265625,25867.62109375,20712.216796875,11990.0703125,-0.0,-44663.74609375,18874.009765625,4107.9521484375,0.0,7058.779296875,0.0,0.0
14169.2158203125,13783.7724609375,31993.388671875,11283.556640625,27676.423828125,5749.861328125,7557.07421875,8602.9365234375,8321.6025390625,6165.50439453125,15740.39453125,-1039.5050048828125,8375.64453125,0.0,22103.787109375,5600.45263671875,24274.984375,19419.193359375,9082.953125,10964.8701171875,22568.703125,28876.462890625,20578.703125,18887.51953125,20586.6484375,6347.49755859375,28256.57421875,-208.21888732910156,0.0,1113.414794921875,13440.4501953125,6103.515625,25079.25,15877.8818359375,14456.908203125,23839.474609375,8792.876953125,13460.318359375,7983.04833984375,3226.59814453125,22335.84765625,8819.8974609375,16233.1259765625,11132.5576171875,8169.01513671875,11529.9228515625,11509.2587890625,1652.24072265625,9372.234375,2670.2880859375,15912.8515625,5837.28173828125,7483.16455078125,1689.593017578125,10308.4248046875,3804.365966796875,23295.87890625,3616.809814453125,16723.474609375,3143.151611328125,9232.361328125,25865.236328125,20710.626953125,11997.22265625,-0.0,-44677.2578125,18872.419921875,4094.44189453125,0.0,7065.13720703125,0.0,0.0
14163.6533203125,13782.978515625,31986.236328125,11274.814453125,27668.4765625,5739.5302734375,7549.92138671875,8592.60546875,8321.6025390625,6159.14697265625,15745.9580078125,-1048.2469482421875,8374.0546875,0.0,22099.017578125,5583.76318359375,24267.0390625,19412.8359375,9078.185546875,10960.896484375,22561.55078125,28869.310546875,20573.138671875,18878.779296875,20573.93359375,6333.98681640625,28249.421875,-223.31874084472656,0.0,1103.8780517578125,13434.0927734375,6097.9521484375,25072.892578125,15871.5244140625,14450.5498046875,23829.9375,8786.51953125,13449.986328125,7980.6640625,3220.240234375,22328.6953125,8809.56640625,16226.7685546875,11121.4326171875,8162.65771484375,11518.7958984375,11506.0810546875,1641.1146240234375,9362.697265625,2655.188232421875,15907.287109375,5824.56591796875,7485.54833984375,1687.208740234375,10309.2197265625,3793.239501953125,23291.111328125,3596.146728515625,16717.91015625,3136.7939453125,9228.388671875,25858.083984375,20701.884765625,11996.4287109375,-0.0,-44696.33203125,18869.2421875,4083.3154296875,0.0,7061.16357421875,0.0,0.0
14157.294921875,13786.9521484375,31982.26171875,11275.609375,27663.70703125,5741.9140625,7548.33203125,8591.8115234375,8320.80859375,6156.7626953125,15739.599609375,-1047.4522705078125,8370.8759765625,0.0,22097.4296875,5582.173828125,24269.421875,19411.24609375,9078.185546875,10958.5126953125,22561.55078125,28871.6953125,20573.93359375,18878.779296875,20561.21875,6338.75537109375,28246.244140625,-224.11346435546875,0.0,1107.0570068359375,13433.296875,6100.33642578125,25073.6875,15873.11328125,14449.755859375,23830.732421875,8786.51953125,13451.576171875,7979.86962890625,3221.82958984375,22323.927734375,8811.15625,16224.384765625,11119.8427734375,8161.8623046875,11517.20703125,11500.517578125,1645.8829345703125,9355.544921875,2658.3671875,15905.69921875,5822.9765625,7482.3701171875,1695.9508056640625,10297.298828125,3788.47119140625,23290.31640625,3597.736328125,16716.322265625,3134.40966796875,9229.18359375,25858.87890625,20701.884765625,11998.017578125,-0.0,-44692.35546875,18872.419921875,4086.494384765625,0.0,7056.39501953125,0.0,0.0
14157.294921875,13777.4150390625,31986.236328125,11271.6357421875,27668.4765625,5745.0927734375,7556.27978515625,8597.3740234375,8327.9609375,6161.53076171875,15737.21484375,-1041.88916015625,8372.4658203125,0.0,22102.197265625,5593.2998046875,24274.19140625,19414.42578125,9084.5419921875,10964.8701171875,22566.318359375,28875.669921875,20581.087890625,18885.931640625,20568.37109375,6344.318359375,28250.216796875,-216.1661834716797,0.0,1108.6463623046875,13437.271484375,6101.92626953125,25078.455078125,15875.498046875,14453.728515625,23834.705078125,8790.4931640625,13456.3447265625,7981.45947265625,3229.777099609375,22328.6953125,8814.3349609375,16229.15234375,11126.2001953125,8168.220703125,11523.564453125,11501.3125,1649.061767578125,9362.697265625,2667.109130859375,15911.2607421875,5829.33447265625,7477.6015625,1700.71923828125,10294.9140625,3793.239501953125,23292.69921875,3611.246826171875,16721.8828125,3140.767333984375,9229.18359375,25865.236328125,20710.626953125,12003.5810546875,-0.0,-44682.02734375,18874.009765625,4096.826171875,0.0,7059.57421875,0.0,0.0
14156.5009765625,13759.1357421875,31983.8515625,11269.251953125,27666.091796875,5740.32470703125,7554.68994140625,8594.1953125,8328.755859375,6161.53076171875,15733.2421875,-1045.068115234375,8366.90234375,0.0,22100.607421875,5592.5048828125,24269.421875,19409.65625,9080.5693359375,10966.4599609375,22562.345703125,28870.900390625,20577.111328125,18881.162109375,20565.986328125,6341.13916015625,28248.62890625,-216.96090698242188,0.0,1110.23583984375,13434.0927734375,6094.77392578125,25072.09765625,15869.140625,14448.9599609375,23830.732421875,8790.4931640625,13453.9599609375,7970.3330078125,3217.856201171875,22325.515625,8809.56640625,16223.5888671875,11123.81640625,8163.4521484375,11521.1796875,11494.9541015625,1649.8565673828125,9357.134765625,2666.314453125,15908.0830078125,5825.36083984375,7472.8330078125,1685.619384765625,10288.5556640625,3798.802734375,23290.31640625,3611.246826171875,16722.6796875,3137.58837890625,9222.8251953125,25862.8515625,20709.037109375,12005.169921875,-0.0,-44685.203125,18871.625,4096.826171875,0.0,7057.18994140625,0.0,0.0
14154.1162109375,13765.494140625,31982.26171875,11276.404296875,27664.50390625,5737.9404296875,7553.1005859375,8593.400390625,8326.37109375,6159.94140625,15728.4736328125,-1046.6575927734375,8366.1083984375,0.0,22102.197265625,5592.5048828125,24265.447265625,19408.861328125,9078.9794921875,10965.6650390625,22560.75390625,28867.720703125,20571.55078125,18877.1875,20566.78125,6334.78173828125,28250.216796875,-221.72927856445312,0.0,1107.0570068359375,13431.7080078125,6092.3896484375,25069.712890625,15867.5517578125,14448.9599609375,23828.34765625,8788.1083984375,13452.37109375,7962.38623046875,3205.140380859375,22323.927734375,8807.1826171875,16223.5888671875,11119.8427734375,8162.65771484375,11521.1796875,11496.5439453125,1646.6776123046875,9355.544921875,2662.3408203125,15910.466796875,5822.9765625,7475.21728515625,1680.8509521484375,10290.1455078125,3798.008056640625,23292.69921875,3611.246826171875,16724.267578125,3134.40966796875,9226.0048828125,25862.8515625,20705.857421875,12001.9912109375,-0.0,-44686.0,18873.21484375,4096.03125,0.0,7050.03759765625,0.0,0.0
14154.1162109375,13771.8515625,31977.494140625,11276.404296875,27662.119140625,5737.9404296875,7553.8955078125,8592.60546875,8322.3984375,6160.736328125,15716.552734375,-1048.2469482421875,8365.3134765625,0.0,22102.990234375,5593.2998046875,24264.654296875,19408.068359375,9078.9794921875,10965.6650390625,22558.37109375,28867.720703125,20568.37109375,18875.599609375,20562.806640625,6334.78173828125,28247.833984375,-222.5240020751953,0.0,1099.9044189453125,13428.5283203125,6090.7998046875,25067.330078125,15866.7568359375,14448.9599609375,23828.34765625,8786.51953125,13453.166015625,7960.001953125,3213.087890625,22322.3359375,8807.1826171875,16222.0,11119.0478515625,8160.2734375,11521.1796875,11492.5703125,1639.5250244140625,9353.955078125,2662.3408203125,15910.466796875,5822.9765625,7473.62744140625,1681.645751953125,10285.3779296875,3796.41845703125,23291.90625,3610.451904296875,16724.267578125,3135.9990234375,9226.0048828125,25859.673828125,20706.654296875,11998.8125,-0.0,-44688.38671875,18873.21484375,4107.1572265625,0.0,7057.18994140625,0.0,0.0
14155.705078125,13771.8515625,31979.876953125,11276.404296875,27663.70703125,5737.14599609375,7550.71630859375,8590.2216796875,8310.4775390625,6158.35205078125,15725.2939453125,-1056.1943359375,8365.3134765625,0.0,22099.017578125,5590.91552734375,24264.654296875,19404.888671875,9075.80078125,10961.69140625,22557.576171875,28867.720703125,20565.19140625,18874.009765625,20567.576171875,6333.98681640625,28248.62890625,-224.90818786621094,0.0,1088.7781982421875,13428.5283203125,6090.00537109375,25068.125,15865.9609375,14447.37109375,23827.552734375,8784.9306640625,13449.986328125,7958.412109375,3222.62451171875,22323.130859375,8805.5927734375,16219.6162109375,11119.0478515625,8154.7099609375,11520.3857421875,11499.72265625,1637.9356689453125,9356.33984375,2661.5458984375,15907.287109375,5816.61865234375,7465.6806640625,1681.645751953125,10288.5556640625,3792.44482421875,23291.90625,3608.06787109375,16720.294921875,3134.40966796875,9221.236328125,25856.494140625,20703.474609375,11994.0439453125,-0.0,-44695.5390625,18868.447265625,4107.9521484375,0.0,7057.18994140625,0.0,0.0
14151.732421875,13770.2626953125,31977.494140625,11268.4560546875,27661.32421875,5726.814453125,7544.35888671875,8587.8369140625,8296.966796875,6154.37841796875,15726.884765625,-1052.220703125,8370.08203125,0.0,22096.634765625,5592.5048828125,24260.6796875,19397.736328125,9071.8271484375,10954.5390625,22553.6015625,28862.158203125,20559.62890625,18870.830078125,20569.958984375,6325.2451171875,28249.421875,-228.8818359375,0.0,1094.34130859375,13423.7607421875,6086.03125,25064.9453125,15860.3994140625,14441.8076171875,23821.98828125,8780.9560546875,13445.2177734375,7958.412109375,3219.445556640625,22318.36328125,8793.671875,16219.6162109375,11114.279296875,8149.14697265625,11516.412109375,11498.927734375,1631.577880859375,9357.134765625,2655.188232421875,15903.314453125,5813.43994140625,7457.7333984375,1682.4404296875,10291.7353515625,3795.623779296875,23291.90625,3608.862548828125,16714.73046875,3132.820068359375,9214.8779296875,25853.314453125,20697.1171875,11992.4541015625,-0.0,-44693.15234375,18869.2421875,4110.33642578125,0.0,7054.0107421875,0.0,0.0
14147.7587890625,13765.494140625,31971.931640625,11267.662109375,27654.171875,5726.01953125,7541.1796875,8584.658203125,8291.4033203125,6150.404296875,15722.91015625,-1051.4259033203125,8374.8505859375,0.0,22095.837890625,5589.326171875,24256.70703125,19392.171875,9067.05859375,10952.1552734375,22547.244140625,28861.365234375,20553.26953125,18867.650390625,20564.3984375,6328.423828125,28245.44921875,-229.6765594482422,0.0,1089.5728759765625,13419.787109375,6080.46875,25059.380859375,15857.2197265625,14435.4501953125,23819.60546875,8775.3935546875,13441.2451171875,7956.02783203125,3213.087890625,22312.005859375,8796.0556640625,16214.0517578125,11111.1005859375,8143.58447265625,11511.6435546875,11492.5703125,1629.98828125,9352.3662109375,2655.188232421875,15899.33984375,5808.67138671875,7456.14404296875,1678.466796875,10289.3515625,3791.650146484375,23289.521484375,3608.06787109375,16713.142578125,3128.846435546875,9210.904296875,25849.341796875,20692.34765625,11989.2763671875,-0.0,-44693.15234375,18867.650390625,4107.1572265625,0.0,7046.06396484375,0.0,0.0
14148.552734375,13767.0830078125,31971.138671875,11278.7880859375,27655.759765625,5730.78759765625,7541.974609375,8582.2744140625,8295.376953125,6149.60986328125,15726.884765625,-1053.81005859375,8375.64453125,0.0,22098.22265625,5590.12060546875,24258.294921875,19390.583984375,9066.263671875,10955.333984375,22550.423828125,28862.953125,20553.26953125,18866.857421875,20566.78125,6336.37109375,28243.859375,-228.8818359375,0.0,1092.7518310546875,13420.58203125,6085.23681640625,25061.765625,15861.1923828125,14436.2451171875,23821.1953125,8776.1875,13440.4501953125,7958.412109375,3213.087890625,22314.390625,8800.029296875,16214.0517578125,11112.6904296875,8142.7890625,11512.4384765625,11493.365234375,1634.7567138671875,9354.7509765625,2657.572509765625,15904.1083984375,5807.87646484375,7456.9384765625,1684.0299072265625,10290.9404296875,3786.881591796875,23291.111328125,3607.273193359375,16717.91015625,3129.641357421875,9213.2880859375,25850.931640625,20690.759765625,11987.6865234375,-0.0,-44696.33203125,18870.830078125,4103.978515625,0.0,7044.47412109375,0.0,0.0
14138.2216796875,13757.546875,31968.75390625,11268.4560546875,27651.787109375,5725.22509765625,7535.6162109375,8578.30078125,8291.4033203125,6144.841796875,15726.884765625,-1063.346923828125,8366.1083984375,0.0,22095.044921875,5582.96826171875,24252.732421875,19384.2265625,9059.111328125,10949.7705078125,22544.06640625,28854.2109375,20546.9140625,18859.705078125,20564.3984375,6330.80810546875,28240.681640625,-237.6238555908203,0.0,1087.9835205078125,13413.4296875,6080.46875,25056.203125,15854.8359375,14429.88671875,23813.248046875,8770.625,13435.681640625,7952.849609375,3207.524658203125,22311.2109375,8792.876953125,16209.2841796875,11106.33203125,8138.0205078125,11505.2861328125,11494.16015625,1621.246337890625,9350.7763671875,2651.214599609375,15898.5458984375,5804.69775390625,7451.37548828125,1678.466796875,10290.1455078125,3775.755615234375,23289.521484375,3596.941650390625,16715.52734375,3124.078125,9207.7255859375,25844.57421875,20685.9921875,11986.8916015625,-0.0,-44709.046875,18867.650390625,4092.0576171875,0.0,7038.1162109375,0.0,0.0
14135.837890625,13751.9833984375,31962.39453125,11261.3037109375,27640.662109375,5722.0458984375,7527.66943359375,8573.5322265625,8281.0712890625,6139.2783203125,15719.732421875,-1064.936279296875,8354.9814453125,0.0,22090.27734375,5579.78955078125,24247.96484375,19381.046875,9053.5478515625,10941.0283203125,22537.708984375,28849.443359375,20540.556640625,18854.9375,20551.681640625,6327.62890625,28233.52734375,-238.4185791015625,0.0,1088.7781982421875,13409.455078125,6075.7001953125,25049.845703125,15852.451171875,14423.529296875,23806.890625,8762.6767578125,13430.1181640625,7948.0810546875,3210.70361328125,22301.673828125,8789.6982421875,16201.337890625,11104.7431640625,8133.251953125,11498.927734375,11486.212890625,1618.0673828125,9342.0341796875,2650.419921875,15889.802734375,5803.1083984375,7456.14404296875,1670.51953125,10276.634765625,3774.960693359375,23283.958984375,3592.17333984375,16705.1953125,3121.69384765625,9204.546875,25837.421875,20678.04296875,11973.380859375,-0.0,-44708.25,18865.267578125,4086.494384765625,0.0,7035.732421875,0.0,0.0
14140.60546875,13759.9306640625,31963.986328125,11268.4560546875,27643.044921875,5730.78759765625,7526.07958984375,8576.7109375,8277.892578125,6139.2783203125,15723.705078125,-1057.78369140625,8350.212890625,0.0,22086.302734375,5585.3525390625,24251.142578125,19383.4296875,9054.3427734375,10937.0546875,22540.091796875,28854.2109375,20541.349609375,18857.3203125,20548.501953125,6335.57666015625,28235.1171875,-231.26602172851562,0.0,1101.493896484375,13412.634765625,6082.05810546875,25053.8203125,15856.4248046875,14426.7080078125,23809.275390625,8761.8828125,13431.7080078125,7952.05419921875,3213.88232421875,22301.673828125,8794.466796875,16201.337890625,11109.51171875,8133.251953125,11500.517578125,11483.828125,1632.37255859375,9341.240234375,2660.75146484375,15887.4189453125,5808.67138671875,7465.6806640625,1677.6719970703125,10279.814453125,3782.11328125,23279.986328125,3604.888916015625,16700.42578125,3122.48876953125,9206.1357421875,25838.216796875,20677.248046875,11965.43359375,-0.0,-44697.921875,18859.705078125,4094.44189453125,0.0,7030.9638671875,0.0,0.0
14134.248046875,13759.9306640625,31961.6015625,11265.2783203125,27645.4296875,5726.814453125,7529.2587890625,8575.1220703125,8286.6357421875,6138.4833984375,15722.91015625,-1058.5784912109375,8346.240234375,0.0,22087.892578125,5585.3525390625,24251.9375,19381.841796875,9051.958984375,10941.8232421875,22536.912109375,28851.033203125,20542.939453125,18856.525390625,20543.734375,6331.6025390625,28243.859375,-232.0607452392578,0.0,1104.6727294921875,13410.2509765625,6083.6474609375,25052.228515625,15854.0400390625,14426.7080078125,23808.478515625,8761.087890625,13430.1181640625,7945.69677734375,3206.72998046875,22301.673828125,8791.287109375,16206.1064453125,11105.537109375,8136.431640625,11502.1064453125,11483.828125,1636.34619140625,9338.85546875,2658.3671875,15891.3935546875,5809.4658203125,7460.1171875,1675.287841796875,10283.7880859375,3783.702880859375,23273.626953125,3607.273193359375,16705.990234375,3120.899169921875,9196.5986328125,25836.626953125,20679.6328125,11974.17578125,-0.0,-44701.89453125,18860.498046875,4093.64697265625,0.0,7029.37451171875,0.0,0.0
14131.0693359375,13753.5732421875,31957.626953125,11259.71484375,27649.40234375,5717.27734375,7531.64306640625,8569.55859375,8284.2509765625,6134.51025390625,15714.9638671875,-1066.5257568359375,8343.85546875,0.0,22092.66015625,5576.6103515625,24245.580078125,19378.662109375,9048.779296875,10937.0546875,22535.32421875,28844.67578125,20542.14453125,18851.7578125,20546.9140625,6318.88720703125,28256.57421875,-240.80276489257812,0.0,1093.5465087890625,13407.0712890625,6076.49462890625,25048.255859375,15848.478515625,14424.32421875,23802.123046875,8760.29296875,13424.5556640625,7940.92822265625,3200.3720703125,22301.673828125,8781.7509765625,16212.462890625,11096.794921875,8136.431640625,11498.1337890625,11481.4443359375,1630.7830810546875,9338.0615234375,2647.240966796875,15896.955078125,5803.1083984375,7456.14404296875,1666.5458984375,10272.662109375,3776.55029296875,23278.39453125,3596.941650390625,16708.375,3118.51513671875,9190.2421875,25832.65234375,20675.66015625,11966.228515625,-0.0,-44710.63671875,18858.11328125,4084.1103515625,0.0,7028.57958984375,0.0,0.0
14128.6845703125,13754.3681640625,31956.03515625,11254.9462890625,27647.814453125,5711.71435546875,7531.64306640625,8565.5849609375,8277.0986328125,6132.9208984375,15710.9892578125,-1071.294189453125,8347.8291015625,0.0,22091.0703125,5573.431640625,24243.990234375,19375.482421875,9046.3955078125,10930.697265625,22533.734375,28840.69921875,20540.556640625,18847.783203125,20553.26953125,6310.93994140625,28248.62890625,-245.57113647460938,0.0,1080.0361328125,13403.892578125,6071.7265625,25046.66796875,15844.5029296875,14424.32421875,23798.146484375,8761.087890625,13421.3759765625,7940.13330078125,3193.219482421875,22300.87890625,8775.3935546875,16214.0517578125,11092.822265625,8132.45751953125,11494.9541015625,11480.6494140625,1622.0411376953125,9330.11328125,2642.472412109375,15896.955078125,5799.134765625,7455.34912109375,1661.7774658203125,10264.7138671875,3770.1923828125,23284.75390625,3588.994384765625,16705.990234375,3117.720458984375,9192.6259765625,25833.44921875,20671.685546875,11954.3076171875,-0.0,-44716.19921875,18861.29296875,4078.547119140625,0.0,7035.732421875,0.0,0.0
