15726.884765625,15182.4951171875,33658.34375,12248.3564453125,29077.529296875,6942.7490234375,8818.30859375,9614.626953125,8874.734375,6305.37646484375,18099.943359375,-96.9568862915039,8842.9453125,0.0,23312.568359375,6962.6171875,25804.837890625,20832.220703125,10364.0556640625,11297.8623046875,24029.4140625,30477.841796875,22445.51953125,20321.2109375,21946.4296875,6972.94873046875,29768.943359375,944.1375732421875,0.0,1441.6376953125,14749.3681640625,6966.5908203125,26636.123046875,17339.388671875,15851.65625,25449.59375,9729.0673828125,14732.6787109375,8985.99609375,4072.189453125,23783.841796875,10076.36328125,17624.697265625,12226.1044921875,9332.498046875,12717.2470703125,12022.654296875,2076.625732421875,10503.1328125,3336.2705078125,17049.3125,6960.2333984375,8540.1533203125,3533.36328125,11530.716796875,4529.158203125,24491.9453125,3705.024658203125,17704.962890625,3743.96630859375,10383.12890625,27180.513671875,22019.544921875,12686.2529296875,-0.0,-44883.88671875,19792.71484375,4649.162109375,0.0,7119.9736328125,0.0,0.0
15731.6533203125,15224.6162109375,33684.5703125,12265.0458984375,29099.783203125,6961.822265625,8835.79296875,9630.5205078125,8884.2705078125,6322.86083984375,18122.1953125,-85.03595733642578,8866.787109375,0.0,23325.28515625,6976.92236328125,25824.705078125,20850.5,10380.7451171875,11312.9619140625,24051.666015625,30498.50390625,22462.208984375,20339.48828125,21972.65625,6993.61181640625,29787.22265625,958.4426879882812,0.0,1448.7901611328125,14769.236328125,6992.81689453125,26660.76171875,17356.078125,15870.7294921875,25469.4609375,9744.1669921875,14749.3681640625,9044.806640625,4061.857666015625,23808.478515625,10097.0263671875,17644.564453125,12242.0,9347.59765625,12731.5517578125,12053.6494140625,2081.394287109375,10523.7958984375,3358.523193359375,17064.412109375,6974.5380859375,8556.048828125,3542.900146484375,11545.0224609375,4554.58984375,24497.509765625,3714.5615234375,17716.884765625,3759.861083984375,10438.759765625,27197.99609375,22036.234375,12694.19921875,-0.0,-44878.32421875,19800.662109375,4677.7724609375,0.0,7139.04736328125,0.0,0.0
15718.9365234375,15245.2783203125,33691.72265625,12288.09375,29107.728515625,6967.3857421875,8842.9453125,9636.87890625,8887.4501953125,6332.3974609375,18128.552734375,-69.93611907958984,8865.9921875,0.0,23329.2578125,6980.89599609375,25832.65234375,20856.0625,10387.8974609375,11318.5244140625,24058.818359375,30502.478515625,22466.18359375,20345.845703125,21978.220703125,6997.58544921875,29795.169921875,962.4163208007812,0.0,1466.2742919921875,14775.59375,6996.79052734375,26665.529296875,17365.61328125,15876.29296875,25478.205078125,9750.525390625,14757.3154296875,9047.9853515625,4053.91064453125,23813.248046875,10099.4111328125,17650.126953125,12248.3564453125,9353.1611328125,12737.115234375,12062.390625,2115.5673828125,10533.3330078125,3360.112548828125,17069.974609375,6980.10107421875,8567.173828125,3572.304931640625,11525.9482421875,4564.9208984375,24495.919921875,3715.356201171875,17721.65234375,3767.013671875,10473.728515625,27205.943359375,22041.796875,12698.9677734375,-0.0,-44869.58203125,19799.8671875,4689.693359375,0.0,7150.96826171875,0.0,0.0
15743.57421875,15257.19921875,33686.16015625,12272.994140625,29106.140625,6956.25927734375,8840.560546875,9631.31640625,8882.681640625,6326.03955078125,18117.427734375,-69.93611907958984,8848.5078125,0.0,23326.873046875,6975.33251953125,25826.294921875,20851.29296875,10383.923828125,11314.5517578125,24054.05078125,30495.32421875,22462.208984375,20337.900390625,21977.423828125,6981.69091796875,29795.169921875,956.8532104492188,0.0,1475.81103515625,14769.236328125,6984.86962890625,26659.169921875,17359.255859375,15871.5244140625,25471.052734375,9744.9619140625,14751.751953125,9020.1689453125,4093.64697265625,23807.68359375,10083.5166015625,17646.947265625,12239.615234375,9347.59765625,12733.1416015625,12065.5703125,2142.58837890625,10530.154296875,3342.62841796875,17068.38671875,6972.94873046875,8547.3056640625,3610.451904296875,11523.564453125,4564.12646484375,24493.53515625,3709.79296875,17717.6796875,3759.06640625,10460.2177734375,27200.380859375,22037.82421875,12694.9951171875,-0.0,-44871.96875,19790.330078125,4676.18310546875,0.0,7140.63623046875,0.0,0.0
15786.4892578125,15261.1728515625,33690.9296875,12243.5888671875,29111.703125,6955.46484375,8844.53515625,9633.7001953125,8882.681640625,6324.4501953125,18124.580078125,-74.7044906616211,8854.8662109375,0.0,23332.4375,6978.51171875,25825.5,20854.47265625,10385.513671875,11315.345703125,24057.23046875,30492.146484375,22463.00390625,20341.078125,21981.3984375,6980.89599609375,29802.322265625,958.4426879882812,0.0,1478.1951904296875,14770.8251953125,6972.94873046875,26660.76171875,17356.078125,15873.11328125,25470.255859375,9745.7568359375,14751.751953125,9016.1962890625,4119.873046875,23817.220703125,10081.1318359375,17650.921875,12242.0,9350.7763671875,12733.9365234375,12079.080078125,2156.0986328125,10534.9228515625,3343.423095703125,17073.154296875,6972.154296875,8549.6904296875,3636.677978515625,11572.04296875,4562.53662109375,24499.892578125,3714.5615234375,17722.44921875,3756.68212890625,10449.88671875,27201.970703125,22040.208984375,12696.583984375,-0.0,-44870.375,19793.509765625,4670.6201171875,0.0,7129.51025390625,0.0,0.0
15796.8193359375,15267.53125,33683.77734375,12248.3564453125,29103.755859375,6963.41162109375,8845.3291015625,9636.0849609375,8885.06640625,6330.01318359375,18120.607421875,-69.14138793945312,8852.4814453125,0.0,23333.23046875,6980.10107421875,25827.08984375,20855.267578125,10388.6923828125,11320.1142578125,24054.05078125,30496.12109375,22460.619140625,20344.2578125,21966.298828125,6995.99609375,29795.96484375,964.0057983398438,0.0,1487.73193359375,14771.62109375,6970.564453125,26660.76171875,17356.873046875,15870.7294921875,25475.025390625,9746.5517578125,14754.931640625,9051.1640625,4111.92578125,23809.275390625,10091.4638671875,17648.5390625,12246.767578125,9352.3662109375,12737.91015625,12067.9541015625,2160.072265625,10522.2060546875,3356.138916015625,17073.154296875,6976.92236328125,8575.1220703125,3639.062255859375,11563.30078125,4567.30517578125,24496.712890625,3720.12451171875,17724.037109375,3761.450439453125,10458.62890625,27203.560546875,22043.38671875,12699.763671875,-0.0,-44860.83984375,19798.279296875,4677.7724609375,0.0,7131.099609375,0.0,0.0
15788.8740234375,15265.1474609375,33667.8828125,12261.8671875,29093.423828125,6957.84912109375,8838.970703125,9636.0849609375,8880.2978515625,6333.1923828125,18111.86328125,-61.98883056640625,8848.5078125,0.0,23326.078125,6981.69091796875,25819.9375,20850.5,10385.513671875,11316.935546875,24046.8984375,30496.12109375,22455.056640625,20340.28515625,21944.046875,6999.9697265625,29786.427734375,966.3899536132812,0.0,1498.858154296875,14766.056640625,6965.00146484375,26652.017578125,17354.48828125,15864.3720703125,25471.845703125,9741.783203125,14754.1357421875,9051.1640625,4080.93115234375,23794.96875,10090.6689453125,17639.794921875,12245.177734375,9348.392578125,12736.3203125,12036.9599609375,2152.125,10508.6962890625,3363.29150390625,17065.20703125,6981.69091796875,8580.6845703125,3636.677978515625,11554.55859375,4579.22607421875,24492.740234375,3724.892822265625,17717.6796875,3766.218994140625,10475.318359375,27201.17578125,22042.59375,12694.19921875,-0.0,-44853.6875,19795.099609375,4688.10400390625,0.0,7143.0205078125,0.0,0.0
15778.5419921875,15253.2265625,33675.03515625,12261.8671875,29096.603515625,6955.46484375,8836.5869140625,9634.4951171875,8874.734375,6333.98681640625,18126.169921875,-65.1677474975586,8845.3291015625,0.0,23318.92578125,6980.89599609375,25820.732421875,20848.115234375,10381.5390625,11311.3720703125,24048.486328125,30496.12109375,22454.26171875,20340.28515625,21954.37890625,7002.353515625,29788.017578125,964.800537109375,0.0,1500.4476318359375,14765.2626953125,6958.6435546875,26654.40234375,17356.873046875,15865.9609375,25469.4609375,9738.6044921875,14752.546875,9056.7275390625,4106.36279296875,23798.943359375,10092.2587890625,17639.001953125,12244.3837890625,9345.2138671875,12735.5263671875,12062.390625,2149.740966796875,10512.669921875,3362.49658203125,17062.029296875,6979.306640625,8605.3212890625,3637.472900390625,11561.7109375,4576.04736328125,24490.35546875,3720.91943359375,17709.732421875,3767.013671875,10492.8017578125,27200.380859375,22037.82421875,12689.431640625,-0.0,-44859.25,19787.947265625,4686.51416015625,0.0,7144.60986328125,0.0,0.0
15788.8740234375,15269.1201171875,33683.77734375,12271.404296875,29101.37109375,6964.20654296875,8842.9453125,9644.826171875,8883.4765625,6339.5498046875,18133.322265625,-58.01518630981445,8846.9189453125,0.0,23322.10546875,6989.6376953125,25824.705078125,20856.0625,10390.28125,11320.1142578125,24054.05078125,30500.09375,22460.619140625,20349.025390625,21965.50390625,7003.1484375,29791.990234375,969.5689086914062,0.0,1486.1424560546875,14771.62109375,6961.822265625,26659.96484375,17359.255859375,15871.5244140625,25475.8203125,9744.1669921875,14760.494140625,9036.064453125,4111.92578125,23803.7109375,10097.8212890625,17647.744140625,12251.5361328125,9352.3662109375,12743.47265625,12072.72265625,2148.946044921875,10519.02734375,3364.086181640625,17068.38671875,6988.04833984375,8616.447265625,3635.088623046875,11556.943359375,4576.841796875,24492.740234375,3725.687744140625,17711.3203125,3774.960693359375,10499.16015625,27209.91796875,22044.181640625,12697.37890625,-0.0,-44853.6875,19785.5625,4697.64111328125,0.0,7154.94140625,0.0,0.0
15817.484375,15290.578125,33681.39453125,12278.556640625,29104.55078125,6969.77001953125,8849.3037109375,9653.568359375,8900.166015625,6356.2392578125,18115.04296875,-63.578285217285156,8845.3291015625,0.0,23328.462890625,6998.38037109375,25826.294921875,20864.009765625,10395.8447265625,11334.4189453125,24058.0234375,30504.068359375,22468.56640625,20354.58984375,21959.146484375,6994.40625,29796.7578125,978.3109130859375,0.0,1480.579345703125,14775.59375,6968.97509765625,26659.96484375,17360.845703125,15875.498046875,25481.3828125,9750.525390625,14767.646484375,9024.9375,4080.13671875,23806.095703125,10103.384765625,17650.921875,12257.8935546875,9361.107421875,12753.8046875,12068.748046875,2142.58837890625,10519.02734375,3371.23876953125,17075.5390625,7000.76416015625,8608.5,3616.01513671875,11541.84375,4580.81591796875,24493.53515625,3730.4560546875,17724.83203125,3790.060791015625,10485.6494140625,27213.892578125,22054.513671875,12708.5048828125,-0.0,-44856.86328125,19794.306640625,4709.56201171875,0.0,7173.22021484375,0.0,0.0
15833.3779296875,15277.068359375,33673.4453125,12261.8671875,29109.3203125,6965.00146484375,8850.09765625,9647.2099609375,8902.5498046875,6345.90771484375,18115.83984375,-69.93611907958984,8838.1767578125,0.0,23330.052734375,6992.02197265625,25825.5,20861.625,10393.4599609375,11328.8564453125,24056.435546875,30502.478515625,22468.56640625,20352.205078125,21961.53125,6996.79052734375,29802.322265625,975.1319580078125,0.0,1480.579345703125,14773.2099609375,6971.359375,26656.78515625,17360.845703125,15873.11328125,25478.205078125,9748.1416015625,14764.4677734375,9024.9375,4077.752685546875,23806.095703125,10098.6162109375,17654.099609375,12255.509765625,9360.3134765625,12747.447265625,12060.005859375,2137.025146484375,10519.02734375,3374.41748046875,17077.126953125,6993.61181640625,8594.990234375,3601.7099609375,11530.716796875,4584.7890625,24491.9453125,3727.277099609375,17727.216796875,3782.908203125,10485.6494140625,27213.095703125,22050.5390625,12698.173828125,-0.0,-44867.9921875,19799.8671875,4703.20361328125,0.0,7161.29931640625,0.0,0.0
15811.919921875,15252.4306640625,33671.85546875,12265.0458984375,29112.498046875,6965.7958984375,8848.5078125,9641.6474609375,8894.6025390625,6326.833984375,18116.6328125,-72.32030487060547,8844.53515625,0.0,23330.84765625,6985.66455078125,25826.294921875,20860.037109375,10390.28125,11310.5771484375,24056.435546875,30505.65625,22468.56640625,20350.615234375,21971.068359375,7016.65869140625,29808.6796875,969.5689086914062,0.0,1482.963623046875,14775.59375,6968.97509765625,26659.169921875,17362.435546875,15876.29296875,25479.79296875,9744.9619140625,14759.7001953125,9025.7333984375,4080.93115234375,23804.505859375,10104.9736328125,17657.279296875,12251.5361328125,9357.9296875,12737.91015625,12056.8271484375,2141.79345703125,10525.3857421875,3378.391357421875,17077.126953125,6984.0751953125,8586.2470703125,3615.22021484375,11535.4853515625,4580.81591796875,24495.919921875,3727.277099609375,17721.65234375,3767.013671875,10500.7490234375,27212.30078125,22043.38671875,12676.7158203125,-0.0,-44866.40234375,19803.841796875,4699.22998046875,0.0,7142.2255859375,0.0,0.0
15803.1787109375,15254.8154296875,33680.59765625,12271.404296875,29107.728515625,6973.74365234375,8847.7138671875,9644.03125,8891.4228515625,6327.62890625,18119.8125,-71.52557373046875,8846.9189453125,0.0,23330.84765625,6990.4326171875,25829.47265625,20864.009765625,10391.076171875,11309.783203125,24058.818359375,30509.630859375,22467.771484375,20353.794921875,21978.220703125,7026.990234375,29808.6796875,976.721435546875,0.0,1487.73193359375,14777.9775390625,6963.41162109375,26662.349609375,17365.61328125,15874.7041015625,25484.5625,9742.5771484375,14762.083984375,9025.7333984375,4087.289306640625,23804.505859375,10116.89453125,17653.306640625,12253.125,9357.134765625,12740.294921875,12073.5166015625,2135.435791015625,10531.7431640625,3384.749267578125,17077.126953125,6986.45947265625,8607.705078125,3647.009521484375,11551.3798828125,4587.17333984375,24502.27734375,3736.813720703125,17719.26953125,3767.80810546875,10503.1328125,27215.48046875,22045.771484375,12681.484375,-0.0,-44853.6875,19799.07421875,4703.99853515625,0.0,7144.60986328125,0.0,0.0
15788.078125,15246.0732421875,33684.5703125,12275.3779296875,29096.603515625,6971.359375,8842.150390625,9642.44140625,8888.244140625,6328.423828125,18119.8125,-60.39937210083008,8836.5869140625,0.0,23324.490234375,6990.4326171875,25827.884765625,20860.037109375,10387.103515625,11306.603515625,24054.845703125,30508.041015625,22460.619140625,20349.8203125,21966.298828125,7025.40087890625,29795.169921875,976.721435546875,0.0,1471.0426025390625,14774.7998046875,6958.6435546875,26660.76171875,17363.23046875,15868.345703125,25481.3828125,9737.0146484375,14758.904296875,9009.837890625,4106.36279296875,23802.123046875,10110.537109375,17644.564453125,12249.15234375,9351.5712890625,12735.5263671875,12080.6689453125,2127.48828125,10514.259765625,3382.364990234375,17069.974609375,6988.04833984375,8613.2685546875,3662.904052734375,11543.43359375,4587.17333984375,24495.125,3736.01904296875,17712.1171875,3767.013671875,10495.185546875,27210.712890625,22042.59375,12680.689453125,-0.0,-44854.48046875,19789.537109375,4708.76708984375,0.0,7146.19970703125,0.0,0.0
15780.130859375,15260.37890625,33690.13671875,12281.7353515625,29104.55078125,6976.92236328125,8845.3291015625,9644.826171875,8891.4228515625,6334.78173828125,18130.14453125,-51.6573600769043,8842.9453125,0.0,23326.078125,6995.99609375,25832.65234375,20864.009765625,10391.87109375,11312.9619140625,24059.61328125,30513.60546875,22465.38671875,20355.3828125,21967.888671875,7032.55322265625,29798.349609375,979.900390625,0.0,1478.1951904296875,14779.5673828125,6966.5908203125,26667.1171875,17366.41015625,15875.498046875,25485.357421875,9742.5771484375,14762.083984375,9024.1435546875,4138.9462890625,23808.478515625,10112.1259765625,17650.126953125,12257.099609375,9353.955078125,12741.0888671875,12083.84765625,2150.53564453125,10519.822265625,3385.5439453125,17071.56640625,6993.61181640625,8604.5263671875,3658.930419921875,11536.2802734375,4590.3525390625,24494.330078125,3736.01904296875,17714.5,3773.371337890625,10492.8017578125,27214.685546875,22047.361328125,12686.2529296875,-0.0,-44848.125,19790.330078125,4714.330078125,0.0,7146.994140625,0.0,0.0
15779.3369140625,15280.2470703125,33692.51953125,12297.6298828125,29116.47265625,6976.12744140625,8850.09765625,9645.62109375,8900.9599609375,6333.1923828125,18122.1953125,-69.93611907958984,8854.8662109375,0.0,23330.84765625,6992.81689453125,25840.6015625,20867.189453125,10394.255859375,11317.7294921875,24065.17578125,30519.962890625,22469.361328125,20358.5625,21986.166015625,7032.55322265625,29803.1171875,979.1055908203125,0.0,1480.579345703125,14784.3359375,6980.10107421875,26672.681640625,17373.5625,15880.2666015625,25487.7421875,9744.9619140625,14765.2626953125,9037.654296875,4123.05224609375,23815.6328125,10119.279296875,17654.896484375,12258.6884765625,9359.5185546875,12741.0888671875,12089.412109375,2160.866943359375,10542.869140625,3377.5966796875,17077.126953125,6994.40625,8581.4794921875,3636.677978515625,11545.0224609375,4587.17333984375,24501.482421875,3728.072021484375,17721.65234375,3769.397705078125,10494.3916015625,27217.0703125,22049.74609375,12690.2265625,-0.0,-44850.5078125,19792.71484375,4710.3564453125,0.0,7136.6630859375,0.0,0.0
15814.3046875,15270.7099609375,33686.953125,12296.8359375,29114.087890625,6971.359375,8849.3037109375,9645.62109375,8902.5498046875,6333.1923828125,18108.685546875,-66.7572021484375,8863.6083984375,0.0,23331.642578125,6992.81689453125,25839.8046875,20864.009765625,10391.87109375,11316.935546875,24062.791015625,30515.193359375,22466.978515625,20353.794921875,21987.755859375,7022.22216796875,29806.294921875,980.6951293945312,0.0,1477.400390625,14783.5419921875,6988.04833984375,26667.9140625,17373.5625,15876.29296875,25483.765625,9741.783203125,14762.87890625,9067.05859375,4086.494384765625,23814.04296875,10112.921875,17654.099609375,12257.8935546875,9359.5185546875,12740.294921875,12069.54296875,2156.8935546875,10538.8955078125,3373.622802734375,17077.126953125,6995.201171875,8554.458984375,3615.22021484375,11546.611328125,4584.7890625,24503.072265625,3727.277099609375,17720.857421875,3767.80810546875,10500.7490234375,27213.892578125,22048.154296875,12688.63671875,-0.0,-44848.91796875,19790.330078125,4708.76708984375,0.0,7136.6630859375,0.0,0.0
15815.099609375,15254.0205078125,33680.59765625,12296.041015625,29098.98828125,6968.97509765625,8842.150390625,9640.0576171875,8890.62890625,6329.21826171875,18110.275390625,-73.11502838134766,8858.044921875,0.0,23324.490234375,6990.4326171875,25832.65234375,20856.0625,10383.12890625,11305.0146484375,24054.845703125,30510.42578125,22458.234375,20349.025390625,21975.041015625,7019.04296875,29796.7578125,975.9266967773438,0.0,1472.632080078125,14775.59375,6976.12744140625,26661.5546875,17366.41015625,15867.5517578125,25477.41015625,9733.041015625,14757.3154296875,9033.6796875,4119.873046875,23804.505859375,10104.9736328125,17643.76953125,12257.8935546875,9353.1611328125,12735.5263671875,12065.5703125,2156.8935546875,10518.2333984375,3375.21240234375,17067.58984375,6993.61181640625,8563.201171875,3600.915283203125,11552.1748046875,4576.841796875,24495.919921875,3729.6611328125,17711.3203125,3765.424072265625,10472.93359375,27206.740234375,22038.6171875,12673.537109375,-0.0,-44853.6875,19787.15234375,4706.3828125,0.0,7139.04736328125,0.0,0.0
15788.8740234375,15260.37890625,33673.4453125,12289.68359375,29095.013671875,6965.00146484375,8836.5869140625,9632.1103515625,8889.833984375,6324.4501953125,18090.40625,-64.37301635742188,8849.3037109375,0.0,23320.515625,6986.45947265625,25828.6796875,20847.3203125,10377.56640625,11302.630859375,24050.078125,30502.478515625,22451.876953125,20341.873046875,21968.68359375,7020.63232421875,29792.78515625,967.9794311523438,0.0,1471.83740234375,14770.8251953125,6961.822265625,26659.96484375,17360.845703125,15861.1923828125,25473.435546875,9726.68359375,14750.95703125,9018.580078125,4107.9521484375,23798.943359375,10102.58984375,17638.20703125,12248.3564453125,9347.59765625,12728.373046875,12073.5166015625,2153.71435546875,10512.669921875,3376.007080078125,17066.001953125,6980.10107421875,8566.3798828125,3597.736328125,11545.8173828125,4591.94189453125,24482.408203125,3734.4296875,17709.732421875,3759.06640625,10453.8603515625,27200.380859375,22033.056640625,12666.384765625,-0.0,-44852.09765625,19783.974609375,4703.20361328125,0.0,7131.89453125,0.0,0.0
15753.111328125,15261.1728515625,33676.625,12285.708984375,29093.423828125,6965.00146484375,8836.5869140625,9628.931640625,8892.21875,6322.06591796875,18098.353515625,-62.78356170654297,8840.560546875,0.0,23324.490234375,6985.66455078125,25824.705078125,20843.34765625,10375.1826171875,11304.2197265625,24046.8984375,30501.68359375,22450.2890625,20337.900390625,21957.556640625,7020.63232421875,29799.142578125,971.9530639648438,0.0,1475.0162353515625,14768.44140625,6953.875,26659.96484375,17357.66796875,15857.2197265625,25470.255859375,9724.2998046875,14746.9833984375,9043.216796875,4102.388671875,23796.55859375,10100.205078125,17636.6171875,12240.41015625,9348.392578125,12727.578125,12073.5166015625,2151.330322265625,10504.72265625,3379.980712890625,17071.56640625,6977.716796875,8563.9951171875,3589.7890625,11535.4853515625,4595.91552734375,24476.84765625,3736.813720703125,17712.912109375,3758.271484375,10459.4228515625,27197.99609375,22034.64453125,12663.205078125,-0.0,-44851.3046875,19783.177734375,4707.177734375,0.0,7127.92041015625,0.0,0.0
15759.4677734375,15255.6103515625,33691.72265625,12282.53125,29103.755859375,6972.94873046875,8848.5078125,9638.46875,8896.9873046875,6335.57666015625,18142.859375,-57.220458984375,8857.25,0.0,23330.052734375,6993.61181640625,25831.857421875,20853.677734375,10384.71875,11313.755859375,24058.818359375,30511.220703125,22458.234375,20348.23046875,21974.244140625,7029.37451171875,29803.912109375,980.6951293945312,0.0,1482.1688232421875,14778.7734375,6955.46484375,26670.296875,17364.8203125,15868.345703125,25481.3828125,9733.8359375,14755.7255859375,9059.111328125,4128.61474609375,23810.86328125,10112.921875,17646.947265625,12251.5361328125,9357.134765625,12740.294921875,12071.9267578125,2140.2041015625,10514.259765625,3385.5439453125,17083.486328125,6991.2275390625,8587.8369140625,3616.809814453125,11547.40625,4599.88916015625,24489.560546875,3743.171630859375,17719.26953125,3771.781982421875,10473.728515625,27208.328125,22043.38671875,12669.5634765625,-0.0,-44843.35546875,19791.126953125,4719.0986328125,0.0,7143.8154296875,0.0,0.0
15776.953125,15214.2841796875,33695.69921875,12277.7626953125,29103.755859375,6959.4384765625,8835.79296875,9635.2890625,8883.4765625,6334.78173828125,18146.037109375,-63.578285217285156,8868.376953125,0.0,23322.900390625,6995.201171875,25832.65234375,20852.884765625,10379.1552734375,11307.3984375,24058.818359375,30511.220703125,22450.2890625,20342.66796875,21988.55078125,7019.837890625,29791.990234375,975.9266967773438,0.0,1477.400390625,14776.388671875,6964.20654296875,26667.1171875,17363.23046875,15865.16796875,25476.61328125,9724.2998046875,14751.751953125,9027.322265625,4108.7470703125,23810.86328125,10106.5634765625,17639.001953125,12244.3837890625,9344.4189453125,12734.73046875,12067.1591796875,2140.998779296875,10520.6171875,3387.13330078125,17062.029296875,6990.4326171875,8588.6318359375,3622.372802734375,11548.99609375,4597.5048828125,24502.27734375,3739.992919921875,17707.34765625,3770.1923828125,10437.9658203125,27201.17578125,22035.44140625,12665.5888671875,-0.0,-44849.7109375,19786.357421875,4719.89306640625,0.0,7147.7890625,0.0,0.0
15772.1845703125,15199.1845703125,33682.1875,12280.94140625,29094.21875,6949.10693359375,8823.8720703125,9627.341796875,8879.501953125,6329.21826171875,18134.1171875,-69.14138793945312,8862.8134765625,0.0,23316.541015625,6986.45947265625,25827.884765625,20848.91015625,10369.6181640625,11303.4248046875,24050.078125,30504.068359375,22438.3671875,20335.515625,21967.091796875,7012.68505859375,29784.837890625,968.774169921875,0.0,1471.83740234375,14767.646484375,6961.02783203125,26659.169921875,17357.66796875,15856.4248046875,25467.078125,9714.7626953125,14743.0107421875,9030.5009765625,4108.7470703125,23800.53125,10091.4638671875,17626.28515625,12235.6416015625,9334.8818359375,12727.578125,12063.185546875,2157.688232421875,10510.28515625,3382.364990234375,17047.724609375,6984.0751953125,8560.021484375,3616.01513671875,11546.611328125,4591.94189453125,24496.712890625,3729.6611328125,17701.783203125,3763.039794921875,10409.35546875,27193.228515625,22027.4921875,12664.0009765625,-0.0,-44852.09765625,19780.0,4710.3564453125,0.0,7139.04736328125,0.0,0.0
15789.6669921875,15251.63671875,33687.75,12302.3984375,29101.37109375,6961.822265625,8836.5869140625,9635.2890625,8892.21875,6333.1923828125,18138.884765625,-54.04154586791992,8858.044921875,0.0,23326.078125,6992.81689453125,25838.216796875,20856.857421875,10379.1552734375,11313.755859375,24058.0234375,30514.3984375,22447.904296875,20346.640625,21960.734375,7027.78466796875,29797.5546875,977.5161743164062,0.0,1486.9371337890625,14777.9775390625,6972.154296875,26667.1171875,17370.3828125,15865.9609375,25477.41015625,9724.2998046875,14752.546875,9041.626953125,4124.6416015625,23803.7109375,10101.794921875,17637.41015625,12245.177734375,9348.392578125,12735.5263671875,12077.4912109375,2184.708740234375,10513.46484375,3387.927978515625,17062.822265625,6990.4326171875,8575.916015625,3633.4990234375,11555.3544921875,4602.2734375,24496.712890625,3741.582275390625,17712.912109375,3766.218994140625,10467.3701171875,27205.1484375,22037.82421875,12679.099609375,-0.0,-44840.97265625,19787.15234375,4708.76708984375,0.0,7135.8681640625,0.0,0.0
15802.3837890625,15285.8095703125,33681.39453125,12300.80859375,29106.935546875,6970.564453125,8844.53515625,9641.6474609375,8903.34375,6334.78173828125,18134.1171875,-54.836273193359375,8854.0712890625,0.0,23330.84765625,6996.79052734375,25838.216796875,20858.4453125,10385.513671875,11320.908203125,24063.587890625,30519.166015625,22456.646484375,20352.998046875,21967.091796875,7040.50048828125,29807.88671875,985.4635009765625,0.0,1494.884521484375,14781.9521484375,6972.154296875,26668.70703125,17371.97265625,15872.3203125,25484.5625,9728.2724609375,14758.904296875,9006.6591796875,4123.8466796875,23807.68359375,10112.1259765625,17646.947265625,12250.7412109375,9353.955078125,12738.705078125,12071.9267578125,2188.6826171875,10517.4375,3391.10693359375,17072.359375,6994.40625,8595.7841796875,3634.293701171875,11564.095703125,4608.63134765625,24491.9453125,3743.171630859375,17720.857421875,3767.80810546875,10499.9541015625,27212.30078125,22043.38671875,12691.8154296875,-0.0,-44836.99609375,19790.330078125,4707.97216796875,0.0,7134.27880859375,0.0,0.0
15802.3837890625,15276.2724609375,33665.49609375,12300.80859375,29105.345703125,6962.6171875,8846.1240234375,9636.87890625,8901.7548828125,6333.98681640625,18124.580078125,-65.96247100830078,8847.7138671875,0.0,23329.2578125,6988.04833984375,25831.064453125,20854.47265625,10383.12890625,11320.1142578125,24058.0234375,30516.783203125,22455.056640625,20347.4375,21961.53125,7034.14306640625,29815.0390625,979.900390625,0.0,1478.989990234375,14775.59375,6951.49072265625,26661.5546875,17364.8203125,15865.9609375,25478.998046875,9728.2724609375,14753.341796875,9007.4541015625,4115.8994140625,23798.943359375,10107.3583984375,17646.947265625,12242.7939453125,9352.3662109375,12735.5263671875,12063.185546875,2169.609130859375,10511.0810546875,3372.828125,17074.744140625,6988.04833984375,8596.5791015625,3619.98876953125,11559.3271484375,4602.2734375,24488.767578125,3732.84033203125,17720.857421875,3768.60302734375,10473.728515625,27208.328125,22041.001953125,12685.4580078125,-0.0,-44841.765625,19790.330078125,4703.20361328125,0.0,7134.27880859375,0.0,0.0
15795.23046875,15254.0205078125,33665.49609375,12315.1142578125,29106.140625,6950.6962890625,8846.1240234375,9636.0849609375,8894.6025390625,6342.72900390625,18118.22265625,-65.1677474975586,8849.3037109375,0.0,23330.052734375,6988.84326171875,25824.705078125,20852.08984375,10383.12890625,11321.7041015625,24054.845703125,30511.220703125,22452.673828125,20345.052734375,21962.32421875,7023.8115234375,29810.26953125,974.3372802734375,0.0,1462.3006591796875,14772.4150390625,6939.56982421875,26655.197265625,17359.255859375,15865.16796875,25473.435546875,9726.68359375,14751.751953125,9011.427734375,4085.699462890625,23797.353515625,10101.0009765625,17647.744140625,12238.8203125,9350.7763671875,12737.91015625,12064.7744140625,2148.946044921875,10508.6962890625,3371.23876953125,17076.333984375,6987.25390625,8586.2470703125,3606.478515625,11554.55859375,4603.86279296875,24492.740234375,3729.6611328125,17719.26953125,3777.344970703125,10453.064453125,27207.533203125,22041.001953125,12683.8681640625,-0.0,-44852.89453125,19790.330078125,4701.6142578125,0.0,7148.583984375,0.0,0.0
15786.4892578125,15233.357421875,33668.6796875,12319.8828125,29102.9609375,6947.517578125,8839.7666015625,9634.4951171875,8888.244140625,6349.8818359375,18117.427734375,-81.06231689453125,8856.4560546875,0.0,23324.490234375,6993.61181640625,25823.912109375,20853.677734375,10382.3349609375,11324.8828125,24053.255859375,30509.630859375,22445.51953125,20342.66796875,21972.65625,7025.40087890625,29795.96484375,970.3636474609375,0.0,1444.816650390625,14770.8251953125,6938.775390625,26653.607421875,17357.66796875,15866.7568359375,25472.640625,9723.50390625,14749.3681640625,8989.9697265625,4092.85205078125,23799.73828125,10101.794921875,17641.38671875,12235.6416015625,9346.0078125,12737.91015625,12073.5166015625,2136.23046875,10519.02734375,3376.007080078125,17066.796875,6988.04833984375,8575.916015625,3572.304931640625,11556.1484375,4595.91552734375,24495.125,3727.277099609375,17712.912109375,3780.52392578125,10451.4765625,27205.943359375,22041.001953125,12687.046875,-0.0,-44871.96875,19784.76953125,4706.3828125,0.0,7164.478515625,0.0,0.0
15775.3623046875,15207.9267578125,33669.47265625,12297.6298828125,29102.16796875,6937.98046875,8833.408203125,9628.13671875,8884.2705078125,6348.2919921875,18121.400390625,-108.08309173583984,8865.9921875,0.0,23325.28515625,6989.6376953125,25814.375,20844.935546875,10374.38671875,11323.29296875,24049.28125,30502.478515625,22438.3671875,20333.130859375,21983.78125,7015.86376953125,29801.52734375,959.2374267578125,0.0,1430.511474609375,14763.6728515625,6927.64892578125,26648.83984375,17345.74609375,15861.98828125,25463.900390625,9716.3515625,14743.8046875,8985.99609375,4095.236328125,23802.123046875,10090.6689453125,17635.02734375,12226.1044921875,9338.85546875,12729.9619140625,12074.3115234375,2133.051513671875,10533.3330078125,3364.086181640625,17059.64453125,6980.10107421875,8563.9951171875,3555.61572265625,11574.427734375,4580.02099609375,24497.509765625,3721.714111328125,17710.52734375,3775.755615234375,10422.8662109375,27197.99609375,22037.029296875,12675.1259765625,-0.0,-44888.65625,19780.794921875,4713.53515625,0.0,7166.0673828125,0.0,0.0
15772.9775390625,15204.7470703125,33663.91015625,12269.814453125,29094.21875,6930.828125,8830.2294921875,9617.8056640625,8874.734375,6325.2451171875,18118.22265625,-107.28836059570312,8850.8916015625,0.0,23322.900390625,6976.92236328125,25811.1953125,20837.783203125,10366.439453125,11307.3984375,24043.71875,30494.53125,22432.0078125,20325.978515625,21961.53125,7005.53271484375,29795.96484375,951.2901611328125,0.0,1437.6640625,14758.904296875,6924.47021484375,26646.455078125,17337.798828125,15852.451171875,25458.3359375,9709.994140625,14734.2685546875,8978.84375,4096.826171875,23790.994140625,10079.54296875,17631.0546875,12218.9521484375,9334.0869140625,12718.8369140625,12077.4912109375,2129.077880859375,10515.8486328125,3356.138916015625,17059.64453125,6971.359375,8556.8427734375,3574.689208984375,11558.533203125,4584.7890625,24482.408203125,3714.5615234375,17709.732421875,3758.271484375,10418.8916015625,27192.43359375,22027.4921875,12656.84765625,-0.0,-44880.70703125,19783.974609375,4705.587890625,0.0,7137.45751953125,0.0,0.0
15765.8251953125,15202.36328125,33657.55078125,12260.27734375,29089.451171875,6930.033203125,8826.255859375,9608.2685546875,8865.197265625,6301.40283203125,18110.275390625,-94.57270050048828,8849.3037109375,0.0,23321.310546875,6970.564453125,25806.427734375,20835.400390625,10360.876953125,11293.09375,24038.15625,30490.556640625,22426.447265625,20323.595703125,21949.609375,7010.30126953125,29795.96484375,949.70068359375,0.0,1433.6904296875,14754.931640625,6924.47021484375,26642.48046875,17333.03125,15846.09375,25454.36328125,9706.0205078125,14727.91015625,8987.5859375,4086.494384765625,23784.63671875,10084.3115234375,17627.875,12215.7734375,9327.7294921875,12709.2998046875,12067.1591796875,2094.10986328125,10510.28515625,3356.138916015625,17058.0546875,6961.822265625,8552.07421875,3571.51025390625,11540.25390625,4580.81591796875,24482.408203125,3712.971923828125,17707.34765625,3740.78759765625,10426.044921875,27187.666015625,22018.751953125,12651.2841796875,-0.0,-44868.78515625,19785.5625,4700.02490234375,0.0,7107.2578125,0.0,0.0
15759.4677734375,15201.568359375,33663.11328125,12276.966796875,29100.576171875,6939.56982421875,8833.408203125,9617.8056640625,8870.7607421875,6319.681640625,18109.48046875,-101.72525787353516,8864.40234375,0.0,23327.669921875,6980.10107421875,25811.1953125,20842.552734375,10370.4140625,11308.193359375,24046.1015625,30500.09375,22433.599609375,20333.130859375,21975.041015625,7027.78466796875,29809.474609375,958.4426879882812,0.0,1424.1536865234375,14760.494140625,6924.47021484375,26647.25,17341.771484375,15854.0400390625,25463.900390625,9713.1728515625,14735.8583984375,9007.4541015625,4053.91064453125,23794.96875,10099.4111328125,17636.6171875,12222.92578125,9334.8818359375,12720.42578125,12076.6953125,2105.236083984375,10526.1806640625,3368.059814453125,17064.412109375,6970.564453125,8564.7900390625,3585.8154296875,11547.40625,4580.81591796875,24495.919921875,3720.91943359375,17714.5,3751.913818359375,10430.0185546875,27196.408203125,22029.08203125,12656.84765625,-0.0,-44871.96875,19787.15234375,4715.12451171875,0.0,7127.92041015625,0.0,0.0
15753.904296875,15209.515625,33668.6796875,12264.251953125,29098.19140625,6928.44384765625,8827.0498046875,9622.57421875,8859.634765625,6333.98681640625,18107.095703125,-89.80432891845703,8862.8134765625,0.0,23313.36328125,6992.02197265625,25811.1953125,20834.603515625,10368.029296875,11305.0146484375,24045.30859375,30489.763671875,22428.03515625,20330.748046875,21984.578125,7011.095703125,29795.169921875,964.800537109375,0.0,1444.816650390625,14754.931640625,6930.033203125,26649.6328125,17332.234375,15850.0673828125,25455.951171875,9709.19921875,14738.2421875,9013.0166015625,4088.083740234375,23797.353515625,10070.0068359375,17630.2578125,12220.5419921875,9327.7294921875,12725.1943359375,12087.822265625,2143.383056640625,10517.4375,3360.9072265625,17050.107421875,6978.51171875,8550.484375,3608.862548828125,11546.611328125,4592.73681640625,24497.509765625,3728.072021484375,17701.783203125,3767.013671875,10426.044921875,27193.228515625,22027.4921875,12647.3115234375,-0.0,-44866.40234375,19777.6171875,4728.63525390625,0.0,7159.7099609375,0.0,0.0
15730.857421875,15213.4892578125,33673.4453125,12265.841796875,29105.345703125,6930.828125,8827.0498046875,9628.931640625,8855.66015625,6337.166015625,18105.5078125,-88.21487426757812,8858.044921875,0.0,23308.595703125,6999.1748046875,25812.78515625,20833.810546875,10369.6181640625,11305.0146484375,24048.486328125,30488.96875,22427.240234375,20332.3359375,21989.345703125,7018.248046875,29793.580078125,975.1319580078125,0.0,1447.2008056640625,14755.7255859375,6928.44384765625,26652.017578125,17331.44140625,15854.0400390625,25457.541015625,9709.994140625,14742.21484375,9001.8916015625,4121.46240234375,23806.890625,10065.23828125,17632.642578125,12226.1044921875,9327.7294921875,12729.16796875,12083.0537109375,2177.556396484375,10524.5908203125,3360.9072265625,17048.517578125,6986.45947265625,8528.232421875,3603.29931640625,11559.3271484375,4598.29931640625,24490.35546875,3729.6611328125,17693.04296875,3774.166015625,10421.2763671875,27195.611328125,22024.3125,12648.900390625,-0.0,-44863.22265625,19772.052734375,4734.1982421875,0.0,7166.0673828125,0.0,0.0
15686.353515625,15199.1845703125,33663.91015625,12265.0458984375,29104.55078125,6930.828125,8830.2294921875,9624.9580078125,8862.0185546875,6330.80810546875,18095.970703125,-100.13580322265625,8856.4560546875,0.0,23313.36328125,6992.02197265625,25808.015625,20832.220703125,10370.4140625,11307.3984375,24043.71875,30487.37890625,22428.03515625,20331.541015625,21975.041015625,7017.45361328125,29799.9375,970.3636474609375,0.0,1433.6904296875,14752.546875,6920.49658203125,26647.25,17326.673828125,15852.451171875,25455.15625,9708.404296875,14740.6259765625,8995.533203125,4106.36279296875,23798.943359375,10068.4169921875,17635.02734375,12225.310546875,9331.703125,12724.3994140625,12052.0595703125,2167.224853515625,10523.7958984375,3359.31787109375,17054.876953125,6984.0751953125,8506.775390625,3573.099853515625,11561.7109375,4579.22607421875,24491.15234375,3724.09814453125,17700.1953125,3765.424072265625,10410.1494140625,27194.818359375,22021.9296875,12654.4638671875,-0.0,-44867.9921875,19779.205078125,4720.68798828125,0.0,7135.8681640625,0.0,0.0
15683.9697265625,15192.0322265625,33665.49609375,12259.4833984375,29097.3984375,6926.8544921875,8832.6142578125,9619.3955078125,8883.4765625,6325.2451171875,18108.685546875,-109.67254638671875,8846.9189453125,0.0,23325.28515625,6977.716796875,25806.427734375,20831.42578125,10368.82421875,11319.3193359375,24041.333984375,30484.19921875,22427.240234375,20327.568359375,21967.888671875,6999.1748046875,29803.1171875,955.2637939453125,0.0,1436.0745849609375,14749.3681640625,6929.23876953125,26645.66015625,17324.2890625,15846.8876953125,25451.978515625,9708.404296875,14736.65234375,9011.427734375,4095.236328125,23790.201171875,10069.2109375,17636.6171875,12221.3359375,9339.650390625,12718.8369140625,12063.185546875,2152.125,10508.6962890625,3356.138916015625,17062.029296875,6972.154296875,8514.7216796875,3577.0732421875,11540.25390625,4580.81591796875,24495.125,3720.12451171875,17718.47265625,3753.503173828125,10391.87109375,27190.84375,22025.904296875,12680.689453125,-0.0,-44879.12109375,19786.357421875,4711.94580078125,0.0,7118.3837890625,0.0,0.0
15705.4267578125,15180.111328125,33655.9609375,12252.3310546875,29085.478515625,6914.138671875,8832.6142578125,9607.474609375,8898.576171875,6320.4765625,18105.5078125,-111.26200103759766,8840.560546875,0.0,23326.873046875,6965.7958984375,25800.0703125,20821.09375,10362.4658203125,11326.47265625,24031.00390625,30480.2265625,22420.087890625,20316.443359375,21954.37890625,6998.38037109375,29794.375,938.574462890625,0.0,1427.33251953125,14742.21484375,6922.880859375,26637.712890625,17320.314453125,15838.146484375,25440.05859375,9702.046875,14729.5,9018.580078125,4092.0576171875,23779.869140625,10059.673828125,17627.080078125,12206.2373046875,9340.4453125,12711.6845703125,12055.2373046875,2137.820068359375,10495.98046875,3352.9599609375,17062.029296875,6957.84912109375,8524.2587890625,3595.35205078125,11521.9755859375,4588.7626953125,24490.35546875,3714.5615234375,17725.626953125,3743.96630859375,10354.5185546875,27181.306640625,22021.134765625,12707.7099609375,-0.0,-44887.859375,19784.76953125,4706.3828125,0.0,7115.99951171875,0.0,0.0
15699.86328125,15156.26953125,33646.421875,12249.15234375,29073.556640625,6905.39697265625,8823.0771484375,9598.732421875,8890.62890625,6316.5029296875,18107.890625,-120.00402069091797,8846.1240234375,0.0,23323.693359375,6961.02783203125,25790.533203125,20809.173828125,10354.5185546875,11317.7294921875,24023.8515625,30472.279296875,22409.7578125,20306.90625,21951.19921875,6999.9697265625,29786.427734375,931.4219360351562,0.0,1402.696044921875,14733.4736328125,6910.16552734375,26628.970703125,17312.369140625,15827.814453125,25432.904296875,9693.3046875,14720.7578125,8997.9169921875,4069.80517578125,23772.716796875,10055.701171875,17615.953125,12194.3154296875,9334.0869140625,12706.1201171875,12048.0849609375,2106.03076171875,10503.927734375,3347.39697265625,17054.876953125,6953.875,8508.3642578125,3560.384033203125,11526.744140625,4572.0732421875,24487.97265625,3703.435302734375,17718.47265625,3741.582275390625,10330.6767578125,27174.94921875,22013.982421875,12687.046875,-0.0,-44896.6015625,19783.974609375,4700.02490234375,0.0,7119.9736328125,0.0,0.0
15702.248046875,15149.9111328125,33644.0390625,12256.3046875,29071.966796875,6908.57568359375,8814.3349609375,9597.142578125,8865.197265625,6314.9130859375,18100.73828125,-123.9776611328125,8836.5869140625,0.0,23312.568359375,6963.41162109375,25788.1484375,20809.173828125,10350.544921875,11297.06640625,24022.259765625,30473.8671875,22404.193359375,20307.69921875,21948.01953125,7007.9169921875,29783.248046875,934.600830078125,0.0,1394.7486572265625,14733.4736328125,6905.39697265625,26625.791015625,17312.369140625,15825.4296875,25432.904296875,9688.537109375,14718.373046875,8979.6376953125,4034.837158203125,23769.537109375,10061.263671875,17611.185546875,12194.3154296875,9322.9609375,12704.53125,12051.2646484375,2082.18896484375,10503.1328125,3346.602294921875,17046.1328125,6953.08056640625,8483.7275390625,3530.1845703125,11509.2587890625,4558.5634765625,24482.408203125,3699.461669921875,17700.990234375,3743.171630859375,10345.7763671875,27173.361328125,22006.03515625,12636.9794921875,-0.0,-44901.37109375,19781.58984375,4695.2568359375,0.0,7134.27880859375,0.0,0.0
15699.068359375,15178.521484375,33647.21875,12256.3046875,29076.734375,6916.52294921875,8811.951171875,9604.294921875,8841.35546875,6318.09228515625,18097.55859375,-116.0303726196289,8850.09765625,0.0,23301.443359375,6976.92236328125,25791.326171875,20810.76171875,10352.134765625,11283.556640625,24023.056640625,30477.046875,22405.783203125,20313.263671875,21950.40234375,7019.837890625,29788.017578125,947.3164672851562,0.0,1399.51708984375,14738.2421875,6906.19140625,26630.560546875,17314.751953125,15828.609375,25436.87890625,9686.947265625,14721.552734375,8961.3603515625,4076.162841796875,23772.716796875,10068.4169921875,17612.775390625,12199.87890625,9317.3984375,12706.916015625,12062.390625,2100.4677734375,10505.5166015625,3354.54931640625,17040.5703125,6962.6171875,8501.2119140625,3550.847412109375,11537.0751953125,4570.484375,24482.408203125,3708.20361328125,17681.12109375,3751.118896484375,10381.5390625,27174.94921875,22002.0625,12622.673828125,-0.0,-44891.8359375,19768.873046875,4707.177734375,0.0,7146.994140625,0.0,0.0
15687.9423828125,15181.701171875,33643.24609375,12261.8671875,29077.529296875,6915.72802734375,8812.7451171875,9605.08984375,8843.7392578125,6318.09228515625,18107.890625,-112.8514633178711,8847.7138671875,0.0,23303.03125,6977.716796875,25790.533203125,20808.37890625,10352.9287109375,11286.7353515625,24023.8515625,30478.63671875,22405.783203125,20311.673828125,21947.224609375,7011.095703125,29793.580078125,950.4954223632812,0.0,1411.43798828125,14739.0361328125,6895.0654296875,26627.3828125,17315.546875,15827.814453125,25436.87890625,9686.15234375,14722.34765625,8963.744140625,4098.41552734375,23773.51171875,10066.0322265625,17614.365234375,12203.0576171875,9317.3984375,12706.916015625,12054.443359375,2125.899169921875,10505.5166015625,3354.54931640625,17041.365234375,6965.00146484375,8525.8486328125,3567.53662109375,11558.533203125,4580.02099609375,24482.408203125,3709.79296875,17681.12109375,3751.913818359375,10395.0498046875,27176.5390625,22002.0625,12636.9794921875,-0.0,-44887.859375,19768.080078125,4718.3037109375,0.0,7146.19970703125,0.0,0.0
15710.9892578125,15176.13671875,33629.734375,12261.8671875,29077.529296875,6912.54931640625,8817.513671875,9599.5263671875,8859.634765625,6306.17138671875,18089.61328125,-107.28836059570312,8850.8916015625,0.0,23313.36328125,6965.00146484375,25784.96875,20808.37890625,10352.134765625,11289.9140625,24020.671875,30473.07421875,22404.193359375,20309.2890625,21950.40234375,7004.73779296875,29802.322265625,940.9586791992188,0.0,1420.9747314453125,14733.4736328125,6883.939453125,26621.818359375,17310.77734375,15828.609375,25435.2890625,9688.537109375,14719.1689453125,8968.5126953125,4077.752685546875,23767.947265625,10058.8798828125,17618.337890625,12199.083984375,9322.9609375,12701.3525390625,12022.654296875,2151.330322265625,10511.875,3348.986328125,17050.107421875,6960.2333984375,8522.669921875,3568.33154296875,11544.2275390625,4585.583984375,24488.767578125,3705.024658203125,17695.427734375,3739.992919921875,10412.5341796875,27177.333984375,22002.85546875,12631.416015625,-0.0,-44882.296875,19779.205078125,4719.89306640625,0.0,7126.33154296875,0.0,0.0
15698.2744140625,15162.626953125,33624.96484375,12264.251953125,29073.556640625,6914.138671875,8813.5400390625,9593.9638671875,8854.8662109375,6299.01904296875,18080.076171875,-111.26200103759766,8846.1240234375,0.0,23305.416015625,6959.4384765625,25781.7890625,20812.353515625,10346.572265625,11281.1728515625,24017.4921875,30473.07421875,22401.810546875,20305.314453125,21944.046875,7007.1220703125,29797.5546875,937.7797241210938,0.0,1418.590576171875,14729.5,6882.349609375,26617.845703125,17308.392578125,15826.2255859375,25433.69921875,9682.1787109375,14715.9892578125,8962.154296875,4081.72607421875,23760.794921875,10059.673828125,17612.775390625,12196.7001953125,9316.603515625,12695.7890625,12019.474609375,2153.71435546875,10502.3388671875,3355.343994140625,17043.748046875,6957.84912109375,8509.953125,3563.56298828125,11537.0751953125,4591.14697265625,24469.693359375,3702.640625,17690.658203125,3732.04541015625,10414.123046875,27174.94921875,21999.677734375,12613.1376953125,-0.0,-44880.70703125,19772.052734375,4713.53515625,0.0,7114.41015625,0.0,0.0
15695.890625,15170.57421875,33634.50390625,12272.1982421875,29072.76171875,6922.880859375,8818.30859375,9605.884765625,8854.0712890625,6313.32421875,18087.228515625,-116.0303726196289,8840.560546875,0.0,23303.03125,6983.2802734375,25784.96875,20825.86328125,10355.3134765625,11287.5302734375,24020.671875,30482.611328125,22406.578125,20316.443359375,21941.662109375,7027.78466796875,29789.60546875,955.2637939453125,0.0,1432.1009521484375,14735.8583984375,6881.55517578125,26621.0234375,17315.546875,15829.4052734375,25441.646484375,9686.15234375,14724.7314453125,8962.154296875,4082.52099609375,23765.564453125,10070.0068359375,17615.16015625,12208.62109375,9318.98828125,12707.7099609375,12051.2646484375,2144.177734375,10484.0595703125,3372.828125,17045.33984375,6973.74365234375,8504.390625,3558.794677734375,11537.869140625,4609.42578125,24455.388671875,3718.53515625,17688.2734375,3747.1455078125,10399.818359375,27180.513671875,22007.623046875,12614.7265625,-0.0,-44873.5546875,19768.080078125,4727.84033203125,0.0,7131.89453125,0.0,0.0
15684.7626953125,15180.9052734375,33636.88671875,12258.6884765625,29074.349609375,6922.08642578125,8824.666015625,9613.037109375,8862.0185546875,6325.2451171875,18082.4609375,-110.46727752685547,8847.7138671875,0.0,23309.388671875,6990.4326171875,25785.765625,20825.86328125,10359.287109375,11297.8623046875,24023.8515625,30484.994140625,22408.962890625,20322.00390625,21941.662109375,7034.14306640625,29784.837890625,964.800537109375,0.0,1424.1536865234375,14738.2421875,6879.1708984375,26622.61328125,17313.162109375,15831.7890625,25444.826171875,9691.71484375,14730.2939453125,8957.3857421875,4088.878662109375,23766.359375,10073.1845703125,17617.544921875,12215.7734375,9326.9345703125,12718.041015625,12057.6220703125,2133.84619140625,10482.470703125,3376.8017578125,17055.669921875,6981.69091796875,8505.185546875,3538.1318359375,11533.896484375,4609.42578125,24472.87109375,3726.482421875,17696.22265625,3758.271484375,10385.513671875,27185.28125,22013.1875,12629.0322265625,-0.0,-44873.5546875,19765.6953125,4735.7880859375,0.0,7146.19970703125,0.0,0.0
15679.201171875,15167.3955078125,33639.26953125,12271.404296875,29077.529296875,6924.47021484375,8817.513671875,9611.447265625,8862.0185546875,6324.4501953125,18078.486328125,-111.26200103759766,8846.1240234375,0.0,23308.595703125,6982.4853515625,25788.1484375,20821.09375,10356.1083984375,11299.451171875,24023.8515625,30487.37890625,22408.962890625,20319.62109375,21945.634765625,7027.78466796875,29778.48046875,965.59521484375,0.0,1432.1009521484375,14740.6259765625,6879.96533203125,26621.818359375,17315.546875,15832.58203125,25444.826171875,9687.7412109375,14728.705078125,8941.4912109375,4096.03125,23770.33203125,10075.5693359375,17613.568359375,12215.7734375,9323.755859375,12714.86328125,12050.4697265625,2148.946044921875,10492.8017578125,3379.18603515625,17043.748046875,6978.51171875,8490.0859375,3542.10546875,11521.1796875,4607.0419921875,24487.97265625,3724.892822265625,17697.015625,3758.271484375,10388.6923828125,27182.8984375,22009.21484375,12630.6220703125,-0.0,-44874.3515625,19764.900390625,4727.04541015625,0.0,7139.841796875,0.0,0.0
15690.3271484375,15154.6796875,33634.50390625,12283.3251953125,29073.556640625,6916.52294921875,8809.56640625,9605.884765625,8860.4287109375,6319.681640625,18072.923828125,-111.26200103759766,8850.8916015625,0.0,23304.62109375,6978.51171875,25784.96875,20813.146484375,10351.33984375,11295.4775390625,24018.287109375,30481.814453125,22399.42578125,20314.8515625,21944.046875,7015.0693359375,29776.095703125,958.4426879882812,0.0,1425.7431640625,14735.0625,6880.76025390625,26618.638671875,17313.95703125,15828.609375,25438.466796875,9679.0,14723.1416015625,8938.3125,4088.083740234375,23763.974609375,10062.853515625,17606.416015625,12209.4150390625,9317.3984375,12710.888671875,12052.853515625,2143.383056640625,10497.5703125,3370.444091796875,17032.623046875,6976.12744140625,8459.8857421875,3554.0263671875,11519.591796875,4598.29931640625,24487.97265625,3722.5087890625,17691.453125,3754.2978515625,10389.4873046875,27178.921875,22004.4453125,12626.6484375,-0.0,-44874.3515625,19764.900390625,4723.072265625,0.0,7133.48388671875,0.0,0.0
15703.04296875,15153.0908203125,33632.1171875,12284.119140625,29071.966796875,6914.93359375,8814.3349609375,9603.5,8866.787109375,6321.271484375,18082.4609375,-115.23564910888672,8854.8662109375,0.0,23305.416015625,6977.716796875,25785.765625,20815.53125,10352.134765625,11299.451171875,24019.083984375,30477.841796875,22400.220703125,20314.8515625,21939.27734375,7015.86376953125,29784.044921875,955.2637939453125,0.0,1417.0010986328125,14733.4736328125,6883.939453125,26620.23046875,17314.751953125,15828.609375,25436.08203125,9680.5888671875,14723.9375,8951.0283203125,4085.699462890625,23762.384765625,10062.05859375,17609.595703125,12205.44140625,9323.755859375,12710.0947265625,12040.9326171875,2142.58837890625,10498.3642578125,3372.033447265625,17041.365234375,6977.716796875,8465.44921875,3550.847412109375,11535.4853515625,4585.583984375,24482.408203125,3717.740234375,17695.427734375,3753.503173828125,10373.5927734375,27179.71875,22004.4453125,12625.853515625,-0.0,-44875.9375,19770.46484375,4720.68798828125,0.0,7134.27880859375,0.0,0.0
15703.04296875,15156.26953125,33632.9140625,12269.0205078125,29075.146484375,6911.75439453125,8818.30859375,9604.294921875,8875.529296875,6323.65576171875,18085.638671875,-109.67254638671875,8865.197265625,0.0,23309.388671875,6976.92236328125,25788.1484375,20818.7109375,10352.9287109375,11306.603515625,24020.671875,30480.2265625,22401.810546875,20314.05859375,21941.662109375,7018.248046875,29784.837890625,951.2901611328125,0.0,1418.590576171875,14734.2685546875,6890.296875,26623.408203125,17310.77734375,15828.609375,25434.494140625,9684.5625,14727.115234375,8961.3603515625,4092.0576171875,23763.974609375,10061.263671875,17613.568359375,12199.87890625,9327.7294921875,12714.068359375,12028.2177734375,2144.177734375,10493.595703125,3361.701904296875,17046.1328125,6978.51171875,8487.701171875,3557.205078125,11537.0751953125,4588.7626953125,24479.23046875,3715.356201171875,17703.375,3754.2978515625,10372.0029296875,27181.306640625,22009.21484375,12636.1845703125,-0.0,-44873.5546875,19774.4375,4721.48291015625,0.0,7135.8681640625,0.0,0.0
15712.580078125,15134.8115234375,33628.1484375,12266.6357421875,29073.556640625,6910.9599609375,8819.103515625,9605.884765625,8881.091796875,6327.62890625,18065.771484375,-106.4936294555664,8856.4560546875,0.0,23308.595703125,6976.92236328125,25788.1484375,20815.53125,10354.5185546875,11312.1669921875,24019.876953125,30480.2265625,22402.60546875,20315.646484375,21937.689453125,7029.37451171875,29784.837890625,948.9059448242188,0.0,1422.564208984375,14734.2685546875,6892.68115234375,26622.61328125,17311.572265625,15826.2255859375,25435.2890625,9683.7685546875,14727.115234375,8975.6650390625,4068.2158203125,23763.1796875,10064.4423828125,17613.568359375,12199.87890625,9329.3193359375,12715.6572265625,12021.064453125,2143.383056640625,10488.828125,3360.9072265625,17047.724609375,6979.306640625,8513.1328125,3549.258056640625,11527.5380859375,4597.5048828125,24476.84765625,3713.766845703125,17704.16796875,3757.476806640625,10382.3349609375,27180.513671875,22011.59765625,12644.9267578125,-0.0,-44871.171875,19771.2578125,4726.2509765625,0.0,7139.841796875,0.0,0.0
15701.4521484375,15129.2490234375,33637.68359375,12281.7353515625,29081.501953125,6916.52294921875,8823.8720703125,9611.447265625,8889.0390625,6337.166015625,18057.02734375,-116.0303726196289,8849.3037109375,0.0,23313.36328125,6980.10107421875,25790.533203125,20820.298828125,10361.671875,11317.7294921875,24023.8515625,30484.19921875,22408.166015625,20319.62109375,21959.939453125,7033.34814453125,29793.580078125,954.4690551757812,0.0,1424.9483642578125,14737.447265625,6887.11767578125,26625.791015625,17320.314453125,15831.7890625,25437.673828125,9686.15234375,14731.8837890625,8966.1279296875,4035.631591796875,23772.716796875,10070.80078125,17619.1328125,12206.2373046875,9336.4716796875,12722.8095703125,12030.6015625,2138.61474609375,10500.7490234375,3368.059814453125,17053.28515625,6984.0751953125,8516.3115234375,3519.05810546875,11539.458984375,4599.09423828125,24479.23046875,3719.329833984375,17708.142578125,3766.218994140625,10384.71875,27184.486328125,22017.16015625,12649.6953125,-0.0,-44878.32421875,19772.052734375,4725.4560546875,0.0,7145.40478515625,0.0,0.0
15672.841796875,15145.142578125,33645.62890625,12286.50390625,29087.861328125,6921.29150390625,8826.255859375,9617.0107421875,8888.244140625,6341.93408203125,18092.791015625,-104.9041748046875,8840.560546875,0.0,23309.388671875,6989.6376953125,25798.478515625,20828.24609375,10365.6455078125,11315.345703125,24030.208984375,30488.96875,22414.525390625,20325.18359375,21967.888671875,7033.34814453125,29799.9375,960.826904296875,0.0,1428.9219970703125,14743.8046875,6885.5283203125,26633.740234375,17322.69921875,15837.3505859375,25441.646484375,9689.3310546875,14736.65234375,8980.43359375,4099.21044921875,23775.896484375,10071.5947265625,17624.697265625,12210.2099609375,9338.85546875,12726.7841796875,12051.2646484375,2148.1513671875,10502.3388671875,3376.007080078125,17054.080078125,6988.04833984375,8511.54296875,3531.77392578125,11546.611328125,4606.2470703125,24472.87109375,3728.072021484375,17703.375,3771.781982421875,10377.56640625,27189.25390625,22021.134765625,12636.9794921875,-0.0,-44871.171875,19768.080078125,4734.1982421875,0.0,7149.37841796875,0.0,0.0
15683.173828125,15156.26953125,33643.24609375,12287.298828125,29081.501953125,6923.67578125,8822.2822265625,9618.599609375,8877.9130859375,6337.9609375,18104.7109375,-93.7779769897461,8819.103515625,0.0,23299.8515625,6990.4326171875,25800.0703125,20825.86328125,10361.671875,11309.783203125,24031.00390625,30488.96875,22410.55078125,20324.388671875,21949.609375,7039.70556640625,29799.142578125,964.800537109375,0.0,1436.8692626953125,14743.0107421875,6891.88623046875,26632.943359375,17321.904296875,15835.76171875,25442.44140625,9686.15234375,14736.65234375,8985.2021484375,4137.357421875,23771.126953125,10074.7744140625,17619.1328125,12211.7998046875,9334.0869140625,12725.1943359375,12063.98046875,2159.277587890625,10485.6494140625,3379.980712890625,17047.724609375,6987.25390625,8504.390625,3558.794677734375,11541.84375,4619.75732421875,24464.130859375,3729.6611328125,17690.658203125,3770.1923828125,10368.82421875,27188.458984375,22017.16015625,12632.2109375,-0.0,-44860.83984375,19759.3359375,4742.9404296875,0.0,7146.19970703125,0.0,0.0
15704.6318359375,15183.2890625,33649.60546875,12295.24609375,29089.451171875,6929.23876953125,8832.6142578125,9623.3681640625,8887.4501953125,6337.9609375,18093.5859375,-96.9568862915039,8836.5869140625,0.0,23311.7734375,6990.4326171875,25801.658203125,20827.451171875,10366.439453125,11317.7294921875,24035.771484375,30496.916015625,22417.703125,20329.953125,21948.01953125,7051.62646484375,29809.474609375,971.9530639648438,0.0,1448.7901611328125,14747.779296875,6902.2177734375,26635.328125,17327.466796875,15841.326171875,25448.798828125,9692.509765625,14743.0107421875,8965.3330078125,4133.38330078125,23775.1015625,10081.927734375,17628.669921875,12219.7470703125,9343.6240234375,12728.373046875,12070.337890625,2176.76171875,10495.98046875,3387.13330078125,17059.64453125,6990.4326171875,8505.98046875,3588.994384765625,11545.0224609375,4634.857421875,24480.8203125,3736.813720703125,17702.580078125,3770.9873046875,10372.7978515625,27194.818359375,22024.3125,12632.2109375,-0.0,-44856.86328125,19764.10546875,4746.9140625,0.0,7140.63623046875,0.0,0.0
15695.890625,15177.7265625,33650.3984375,12284.119140625,29079.119140625,6916.52294921875,8822.2822265625,9614.626953125,8887.4501953125,6333.98681640625,18083.25390625,-112.05673217773438,8844.53515625,0.0,23307.005859375,6986.45947265625,25792.12109375,20819.505859375,10360.08203125,11316.140625,24026.236328125,30485.7890625,22408.166015625,20322.00390625,21943.25,7038.1162109375,29792.78515625,963.2110595703125,0.0,1431.3062744140625,14740.6259765625,6892.68115234375,26628.17578125,17314.751953125,15831.7890625,25437.673828125,9683.7685546875,14735.8583984375,8941.4912109375,4109.54150390625,23771.126953125,10068.4169921875,17618.337890625,12211.0048828125,9335.6767578125,12723.60546875,12071.1328125,2164.046142578125,10499.16015625,3375.21240234375,17050.107421875,6983.2802734375,8482.9326171875,3585.8154296875,11528.3330078125,4622.93603515625,24480.0234375,3733.635009765625,17700.1953125,3767.013671875,10370.4140625,27186.076171875,22017.955078125,12629.0322265625,-0.0,-44871.171875,19756.158203125,4743.73486328125,0.0,7131.89453125,0.0,0.0
15661.716796875,15148.322265625,33648.015625,12269.814453125,29070.376953125,6906.19140625,8807.1826171875,9603.5,8881.88671875,6328.423828125,18082.4609375,-111.26200103759766,8854.0712890625,0.0,23299.05859375,6980.89599609375,25783.380859375,20811.55859375,10348.9560546875,11312.1669921875,24020.671875,30474.662109375,22394.65625,20311.673828125,21939.27734375,7026.990234375,29775.30078125,954.4690551757812,0.0,1426.537841796875,14729.5,6883.939453125,26622.61328125,17302.83203125,15823.0458984375,25426.546875,9672.6416015625,14725.525390625,8920.8291015625,4091.2626953125,23767.947265625,10054.90625,17602.443359375,12200.6728515625,9325.3447265625,12714.068359375,12070.337890625,2130.66748046875,10495.98046875,3363.29150390625,17032.623046875,6975.33251953125,8463.859375,3548.463134765625,11531.5126953125,4617.373046875,24475.255859375,3724.892822265625,17693.04296875,3758.271484375,10364.849609375,27174.94921875,22010.0078125,12623.4697265625,-0.0,-44879.12109375,19747.416015625,4735.7880859375,0.0,7123.947265625,0.0,0.0
15669.6640625,15128.453125,33648.80859375,12292.0673828125,29082.298828125,6911.75439453125,8819.103515625,9610.6533203125,8889.0390625,6340.3447265625,18080.076171875,-112.8514633178711,8862.0185546875,0.0,23307.80078125,6989.6376953125,25794.505859375,20819.505859375,10358.4931640625,11317.7294921875,24031.00390625,30487.37890625,22405.783203125,20320.416015625,21943.25,7030.9638671875,29780.0703125,962.4163208007812,0.0,1437.6640625,14737.447265625,6892.68115234375,26634.53515625,17317.13671875,15834.1728515625,25437.673828125,9681.3837890625,14733.4736328125,8954.20703125,4088.083740234375,23777.484375,10066.0322265625,17614.365234375,12209.4150390625,9334.8818359375,12720.42578125,12068.748046875,2147.356689453125,10503.1328125,3371.23876953125,17043.748046875,6984.86962890625,8474.1904296875,3546.873779296875,11531.5126953125,4620.55224609375,24480.8203125,3736.01904296875,17703.375,3766.218994140625,10364.849609375,27185.28125,22019.544921875,12627.4423828125,-0.0,-44871.96875,19756.158203125,4743.73486328125,0.0,7135.8681640625,0.0,0.0
15694.2998046875,15133.2216796875,33667.8828125,12311.140625,29102.9609375,6923.67578125,8834.203125,9621.779296875,8896.9873046875,6347.49755859375,18091.998046875,-114.44091796875,8858.044921875,0.0,23318.92578125,7000.76416015625,25809.607421875,20831.42578125,10371.2080078125,11322.498046875,24045.30859375,30500.09375,22421.677734375,20331.541015625,21963.119140625,7038.1162109375,29803.912109375,970.3636474609375,0.0,1447.9954833984375,14753.341796875,6907.78125,26649.6328125,17331.44140625,15849.271484375,25451.18359375,9694.099609375,14744.599609375,8986.791015625,4096.03125,23794.96875,10081.1318359375,17631.849609375,12218.158203125,9348.392578125,12728.373046875,12067.1591796875,2179.9404296875,10519.02734375,3380.775390625,17058.849609375,6996.79052734375,8485.3173828125,3566.741943359375,11537.869140625,4628.49951171875,24487.97265625,3743.96630859375,17714.5,3774.166015625,10364.0556640625,27201.17578125,22029.08203125,12629.0322265625,-0.0,-44867.19921875,19761.720703125,4749.2978515625,0.0,7145.40478515625,0.0,0.0
15685.55859375,15156.26953125,33666.29296875,12292.8623046875,29106.140625,6918.9072265625,8834.998046875,9619.3955078125,8896.19140625,6341.13916015625,18098.353515625,-105.69890594482422,8855.66015625,0.0,23316.541015625,6999.9697265625,25811.990234375,20833.015625,10368.029296875,11319.3193359375,24046.1015625,30498.50390625,22422.47265625,20329.15625,21966.298828125,7030.9638671875,29809.474609375,969.5689086914062,0.0,1454.353271484375,14753.341796875,6908.57568359375,26651.224609375,17328.26171875,15850.0673828125,25447.2109375,9692.509765625,14741.4208984375,8970.896484375,4113.51513671875,23795.763671875,10073.1845703125,17635.02734375,12213.3896484375,9346.0078125,12724.3994140625,12071.9267578125,2174.37744140625,10516.6435546875,3375.21240234375,17060.4375,6996.79052734375,8484.5224609375,3562.768310546875,11530.716796875,4635.65185546875,24486.3828125,3741.582275390625,17711.3203125,3769.397705078125,10359.287109375,27198.791015625,22025.904296875,12627.4423828125,-0.0,-44865.609375,19756.953125,4745.32470703125,0.0,7135.8681640625,0.0,0.0
15678.40625,15168.984375,33663.91015625,12274.5830078125,29101.37109375,6916.52294921875,8831.0244140625,9614.626953125,8892.21875,6337.9609375,18099.150390625,-108.87781524658203,8859.634765625,0.0,23308.595703125,6995.99609375,25807.22265625,20833.015625,10364.0556640625,11316.935546875,24043.71875,30496.12109375,22417.703125,20325.978515625,21971.068359375,7043.6796875,29803.1171875,969.5689086914062,0.0,1455.9427490234375,14750.1630859375,6902.2177734375,26648.83984375,17324.2890625,15846.8876953125,25443.236328125,9686.947265625,14735.0625,8981.2275390625,4114.3095703125,23796.55859375,10069.2109375,17633.4375,12211.7998046875,9340.4453125,12722.015625,12068.748046875,2167.224853515625,10516.6435546875,3368.059814453125,17055.669921875,6994.40625,8478.958984375,3540.515869140625,11534.6904296875,4645.18896484375,24483.203125,3743.96630859375,17701.783203125,3770.1923828125,10353.724609375,27194.0234375,22019.544921875,12629.0322265625,-0.0,-44871.171875,19756.953125,4744.52978515625,0.0,7131.099609375,0.0,0.0
15676.8173828125,15165.8056640625,33660.7265625,12292.0673828125,29095.80859375,6925.2646484375,8831.0244140625,9611.447265625,8896.19140625,6338.75537109375,18092.791015625,-113.64618682861328,8865.9921875,0.0,23309.388671875,6989.6376953125,25810.400390625,20836.1953125,10363.2607421875,11318.5244140625,24044.513671875,30500.09375,22414.525390625,20325.18359375,21981.3984375,7057.98486328125,29799.9375,964.800537109375,0.0,1453.55859375,14752.546875,6903.0126953125,26648.83984375,17329.05859375,15846.09375,25445.619140625,9686.15234375,14735.0625,8989.1748046875,4113.51513671875,23794.173828125,10077.953125,17629.46484375,12210.2099609375,9340.4453125,12717.2470703125,12067.1591796875,2182.32470703125,10526.974609375,3383.954345703125,17054.876953125,6989.6376953125,8490.0859375,3541.310546875,11550.5859375,4643.59912109375,24482.408203125,3743.171630859375,17704.16796875,3764.62939453125,10352.9287109375,27192.43359375,22018.751953125,12628.2373046875,-0.0,-44871.96875,19758.54296875,4750.0927734375,0.0,7135.8681640625,0.0,0.0
15697.4794921875,15161.037109375,33649.60546875,12295.24609375,29086.271484375,6928.44384765625,8829.4345703125,9612.2431640625,8895.3974609375,6337.9609375,18092.791015625,-111.26200103759766,8862.8134765625,0.0,23307.80078125,6995.201171875,25808.015625,20834.603515625,10362.4658203125,11315.345703125,24038.15625,30497.708984375,22411.345703125,20324.388671875,21954.37890625,7058.779296875,29796.7578125,968.774169921875,0.0,1436.0745849609375,14750.1630859375,6903.0126953125,26643.275390625,17325.87890625,15843.7099609375,25444.826171875,9686.15234375,14735.0625,8979.6376953125,4126.23095703125,23775.1015625,10077.1591796875,17623.90234375,12211.0048828125,9339.650390625,12717.2470703125,12063.185546875,2183.11962890625,10511.875,3390.312255859375,17053.28515625,6987.25390625,8493.2646484375,3555.61572265625,11552.9697265625,4622.93603515625,24479.23046875,3750.32421875,17701.783203125,3761.450439453125,10379.9501953125,27193.228515625,22017.16015625,12624.263671875,-0.0,-44866.40234375,19752.978515625,4750.88720703125,0.0,7137.45751953125,0.0,0.0
15722.1162109375,15173.7529296875,33650.3984375,12303.98828125,29091.8359375,6929.23876953125,8828.6396484375,9614.626953125,8893.0126953125,6340.3447265625,18100.73828125,-104.10944366455078,8858.83984375,0.0,23307.005859375,6999.9697265625,25808.810546875,20836.1953125,10365.6455078125,11314.5517578125,24037.361328125,30498.50390625,22415.3203125,20327.568359375,21949.609375,7062.75341796875,29799.9375,975.9266967773438,0.0,1451.9691162109375,14751.751953125,6902.2177734375,26641.6875,17328.26171875,15844.5029296875,25448.00390625,9687.7412109375,14736.65234375,8984.40625,4146.09912109375,23778.279296875,10078.748046875,17626.28515625,12214.978515625,9342.830078125,12720.42578125,12075.1064453125,2191.861328125,10511.875,3390.312255859375,17054.080078125,6991.2275390625,8510.7490234375,3567.53662109375,11547.40625,4633.26806640625,24478.435546875,3754.2978515625,17700.1953125,3766.218994140625,10399.0244140625,27197.99609375,22017.955078125,12617.9052734375,-0.0,-44862.4296875,19749.005859375,4756.45068359375,0.0,7134.27880859375,0.0,0.0
15714.1689453125,15170.57421875,33655.16796875,12294.4521484375,29096.603515625,6915.72802734375,8830.2294921875,9609.8583984375,8891.4228515625,6333.1923828125,18107.095703125,-110.46727752685547,8869.1708984375,0.0,23308.595703125,6986.45947265625,25802.453125,20830.630859375,10361.671875,11310.5771484375,24038.15625,30494.53125,22414.525390625,20324.388671875,21963.9140625,7057.18994140625,29807.88671875,968.774169921875,0.0,1452.763916015625,14749.3681640625,6887.91259765625,26641.6875,17321.904296875,15843.7099609375,25442.44140625,9681.3837890625,14734.2685546875,8965.3330078125,4143.71484375,23784.63671875,10071.5947265625,17629.46484375,12211.0048828125,9339.650390625,12714.86328125,12090.2060546875,2188.6826171875,10526.1806640625,3379.18603515625,17054.876953125,6985.66455078125,8521.8740234375,3576.27880859375,11540.25390625,4634.857421875,24480.8203125,3745.555908203125,17697.810546875,3757.476806640625,10398.228515625,27194.818359375,22014.775390625,12609.1640625,-0.0,-44869.58203125,19748.2109375,4755.65576171875,0.0,7127.1259765625,0.0,0.0
15680.7900390625,15165.8056640625,33650.3984375,12284.119140625,29091.8359375,6916.52294921875,8827.845703125,9606.6787109375,8891.4228515625,6328.423828125,18086.43359375,-117.61983489990234,8872.349609375,0.0,23307.005859375,6977.716796875,25796.095703125,20825.068359375,10358.4931640625,11305.80859375,24033.388671875,30491.3515625,22409.7578125,20322.798828125,21959.146484375,7054.8056640625,29810.26953125,958.4426879882812,0.0,1448.7901611328125,14742.21484375,6876.78662109375,26636.123046875,17313.162109375,15838.94140625,25437.673828125,9675.0263671875,14730.2939453125,8964.5390625,4117.48876953125,23779.07421875,10069.2109375,17627.080078125,12211.7998046875,9336.4716796875,12709.2998046875,12078.28515625,2183.9140625,10525.3857421875,3377.5966796875,17053.28515625,6980.89599609375,8490.0859375,3582.636474609375,11527.5380859375,4639.62548828125,24480.0234375,3736.01904296875,17697.015625,3750.32421875,10386.3076171875,27192.43359375,22010.802734375,12602.01171875,-0.0,-44875.14453125,19746.623046875,4755.65576171875,0.0,7123.947265625,0.0,0.0
15661.716796875,15153.884765625,33651.19140625,12292.8623046875,29083.09375,6915.72802734375,8820.693359375,9601.1162109375,8889.833984375,6325.2451171875,18080.076171875,-111.26200103759766,8855.66015625,0.0,23301.443359375,6980.10107421875,25793.7109375,20821.890625,10352.9287109375,11305.0146484375,24028.619140625,30487.37890625,22404.193359375,20318.03125,21954.37890625,7044.47412109375,29791.990234375,956.8532104492188,0.0,1459.91650390625,14737.447265625,6879.96533203125,26632.150390625,17311.572265625,15831.7890625,25435.2890625,9667.873046875,14724.7314453125,8962.94921875,4110.33642578125,23775.896484375,10068.4169921875,17617.544921875,12204.6474609375,9333.29296875,12704.53125,12060.8017578125,2175.967041015625,10503.1328125,3378.391357421875,17045.33984375,6976.12744140625,8471.01171875,3568.33154296875,11525.9482421875,4643.59912109375,24469.693359375,3744.76123046875,17691.453125,3747.1455078125,10379.1552734375,27188.458984375,22008.419921875,12595.6533203125,-0.0,-44868.78515625,19743.443359375,4758.8349609375,0.0,7119.1787109375,0.0,0.0
15687.9423828125,15148.322265625,33651.19140625,12323.8564453125,29091.8359375,6930.828125,8831.0244140625,9613.037109375,8904.93359375,6339.5498046875,18084.84375,-107.28836059570312,8858.044921875,0.0,23307.005859375,6993.61181640625,25804.837890625,20834.603515625,10364.849609375,11317.7294921875,24038.15625,30500.888671875,22415.3203125,20330.748046875,21965.50390625,7055.6005859375,29799.142578125,975.9266967773438,0.0,1452.763916015625,14747.779296875,6894.2705078125,26636.919921875,17323.494140625,15842.119140625,25449.59375,9676.615234375,14738.2421875,8964.5390625,4130.20458984375,23783.841796875,10086.6953125,17625.490234375,12214.978515625,9345.2138671875,12718.8369140625,12062.390625,2168.01953125,10505.5166015625,3393.490966796875,17054.876953125,6988.04833984375,8473.396484375,3550.052734375,11546.611328125,4649.162109375,24468.103515625,3761.450439453125,17700.990234375,3759.06640625,10368.82421875,27201.17578125,22020.33984375,12609.958984375,-0.0,-44859.25,19747.416015625,4766.7822265625,0.0,7131.89453125,0.0,0.0
15680.7900390625,15131.6328125,33632.1171875,12311.140625,29084.681640625,6925.2646484375,8832.6142578125,9610.6533203125,8914.470703125,6341.13916015625,18076.1015625,-122.38819885253906,8852.4814453125,0.0,23310.98046875,6988.84326171875,25797.685546875,20829.04296875,10364.849609375,11324.8828125,24031.796875,30497.708984375,22412.935546875,20329.15625,21950.40234375,7061.95849609375,29807.08984375,971.1583251953125,0.0,1430.511474609375,14743.8046875,6887.91259765625,26627.3828125,17318.7265625,15837.3505859375,25445.619140625,9676.615234375,14735.0625,8950.2333984375,4124.6416015625,23774.3046875,10086.6953125,17623.90234375,12211.0048828125,9349.1865234375,12719.630859375,12045.701171875,2157.688232421875,10496.775390625,3395.875244140625,17061.234375,6986.45947265625,8460.6806640625,3530.979248046875,11545.8173828125,4640.42041015625,24458.56640625,3755.092529296875,17705.759765625,3759.861083984375,10343.392578125,27197.99609375,22022.724609375,12617.9052734375,-0.0,-44871.96875,19748.2109375,4759.6298828125,0.0,7134.27880859375,0.0,0.0
15656.15234375,15121.30078125,33636.09375,12287.298828125,29083.09375,6906.986328125,8836.5869140625,9608.2685546875,8922.41796875,6342.72900390625,18084.84375,-127.95130920410156,8856.4560546875,0.0,23316.541015625,6984.86962890625,25791.326171875,20820.298828125,10361.671875,11329.650390625,24025.439453125,30488.171875,22410.55078125,20322.00390625,21939.27734375,7058.779296875,29809.474609375,965.59521484375,0.0,1437.6640625,14737.447265625,6878.3759765625,26624.203125,17310.77734375,15832.58203125,25436.87890625,9675.8203125,14731.08984375,8930.365234375,4094.44189453125,23767.947265625,10066.8271484375,17624.697265625,12198.2890625,9351.5712890625,12717.2470703125,12063.185546875,2166.43017578125,10499.9541015625,3392.6962890625,17070.76953125,6983.2802734375,8464.654296875,3526.210693359375,11541.84375,4638.83056640625,24470.48828125,3751.913818359375,17712.1171875,3760.65576171875,10337.830078125,27193.228515625,22023.51953125,12623.4697265625,-0.0,-44878.32421875,19747.416015625,4760.42431640625,0.0,7131.099609375,0.0,0.0
15652.1796875,15132.4267578125,33637.68359375,12285.708984375,29083.09375,6904.60205078125,8828.6396484375,9602.7060546875,8925.59765625,6340.3447265625,18078.486328125,-135.10386657714844,8869.1708984375,0.0,23313.36328125,6980.10107421875,25786.55859375,20817.9140625,10355.3134765625,11332.03515625,24020.671875,30483.404296875,22404.98828125,20315.646484375,21949.609375,7056.39501953125,29803.1171875,959.2374267578125,0.0,1436.8692626953125,14732.6787109375,6871.2236328125,26622.61328125,17304.419921875,15830.1982421875,25431.314453125,9669.462890625,14727.91015625,8940.6962890625,4085.699462890625,23768.744140625,10062.853515625,17620.72265625,12193.5205078125,9346.802734375,12714.068359375,12069.54296875,2164.046142578125,10509.4912109375,3385.5439453125,17059.64453125,6979.306640625,8469.421875,3536.542236328125,11528.3330078125,4638.83056640625,24484.79296875,3746.3505859375,17712.1171875,3754.2978515625,10346.572265625,27189.25390625,22021.134765625,12624.263671875,-0.0,-44882.296875,19745.826171875,4752.47705078125,0.0,7117.58935546875,0.0,0.0
15676.8173828125,15152.294921875,33655.9609375,12288.8876953125,29097.3984375,6916.52294921875,8831.818359375,9614.626953125,8929.5703125,6349.8818359375,18094.380859375,-117.61983489990234,8881.091796875,0.0,23319.720703125,6991.2275390625,25797.685546875,20834.603515625,10364.849609375,11337.59765625,24034.9765625,30496.12109375,22412.935546875,20327.568359375,21978.220703125,7065.13720703125,29812.654296875,971.1583251953125,0.0,1452.763916015625,14743.8046875,6883.14453125,26638.5078125,17314.751953125,15841.326171875,25443.236328125,9676.615234375,14739.8310546875,8981.2275390625,4109.54150390625,23784.63671875,10073.9794921875,17627.875,12205.44140625,9351.5712890625,12722.8095703125,12094.1796875,2166.43017578125,10528.564453125,3400.6435546875,17056.46484375,6991.2275390625,8497.23828125,3558.794677734375,11554.55859375,4650.75146484375,24487.97265625,3758.271484375,17718.47265625,3765.424072265625,10375.9765625,27198.791015625,22029.876953125,12621.0849609375,-0.0,-44871.171875,19751.390625,4760.42431640625,0.0,7119.1787109375,0.0,0.0
15649.7958984375,15137.990234375,33655.9609375,12297.6298828125,29096.603515625,6920.49658203125,8832.6142578125,9616.2158203125,8918.4443359375,6349.0869140625,18091.998046875,-130.3354949951172,8874.734375,0.0,23320.515625,6997.58544921875,25800.0703125,20834.603515625,10362.4658203125,11328.0615234375,24036.56640625,30494.53125,22409.7578125,20327.568359375,21975.041015625,7074.67431640625,29810.26953125,971.9530639648438,0.0,1453.55859375,14744.599609375,6883.14453125,26638.5078125,17315.546875,15839.7353515625,25444.03125,9675.0263671875,14739.0361328125,8963.744140625,4092.85205078125,23786.2265625,10077.1591796875,17627.875,12208.62109375,9348.392578125,12722.8095703125,12092.58984375,2176.76171875,10526.974609375,3406.206787109375,17059.64453125,6995.201171875,8478.958984375,3538.92626953125,11561.7109375,4645.18896484375,24481.615234375,3759.861083984375,17713.705078125,3771.781982421875,10379.1552734375,27197.99609375,22025.904296875,12599.6279296875,-0.0,-44878.32421875,19752.978515625,4765.9873046875,0.0,7120.76806640625,0.0,0.0
15619.595703125,15123.6845703125,33646.421875,12297.6298828125,29078.326171875,6911.75439453125,8821.4873046875,9609.0634765625,8906.5234375,6345.90771484375,18076.1015625,-135.10386657714844,8863.6083984375,0.0,23313.36328125,6997.58544921875,25791.326171875,20819.505859375,10350.544921875,11321.7041015625,24024.64453125,30485.7890625,22396.24609375,20318.826171875,21940.072265625,7068.31591796875,29799.9375,964.800537109375,0.0,1447.2008056640625,14735.8583984375,6875.99169921875,26628.17578125,17306.8046875,15827.0205078125,25434.494140625,9662.310546875,14729.5,8957.3857421875,4103.18359375,23768.744140625,10070.0068359375,17613.568359375,12199.87890625,9338.85546875,12716.4521484375,12078.28515625,2183.9140625,10499.16015625,3398.259521484375,17053.28515625,6988.04833984375,8459.0908203125,3518.263671875,11533.1015625,4634.0625,24476.84765625,3758.271484375,17704.16796875,3766.218994140625,10356.1083984375,27188.458984375,22016.3671875,12596.4482421875,-0.0,-44890.2421875,19749.798828125,4772.34521484375,0.0,7126.33154296875,0.0,0.0
15624.3642578125,15116.5322265625,33640.86328125,12287.298828125,29071.966796875,6906.19140625,8813.5400390625,9604.294921875,8900.9599609375,6342.72900390625,18072.12890625,-145.43533325195312,8862.8134765625,0.0,23300.6484375,6996.79052734375,25787.353515625,20812.353515625,10342.59765625,11320.908203125,24019.083984375,30481.814453125,22389.09375,20312.466796875,21941.662109375,7064.34228515625,29789.60546875,962.4163208007812,0.0,1443.2271728515625,14729.5,6872.81298828125,26626.5859375,17301.240234375,15821.45703125,25430.521484375,9653.568359375,14721.552734375,8963.744140625,4149.2783203125,23763.974609375,10063.6484375,17606.416015625,12195.1103515625,9330.9091796875,12710.888671875,12068.748046875,2185.503662109375,10486.443359375,3395.875244140625,17041.365234375,6984.0751953125,8447.169921875,3527.80029296875,11531.5126953125,4638.0361328125,24477.640625,3760.65576171875,17695.427734375,3762.2451171875,10304.451171875,27179.71875,22011.59765625,12597.2431640625,-0.0,-44891.8359375,19741.853515625,4770.755859375,0.0,7130.3046875,0.0,0.0
15641.0537109375,15116.5322265625,33640.06640625,12295.24609375,29071.171875,6909.37060546875,8808.7724609375,9605.884765625,8895.3974609375,6345.90771484375,18088.818359375,-138.28277587890625,8862.8134765625,0.0,23296.673828125,7001.55859375,25789.73828125,20814.73828125,10340.2138671875,11320.1142578125,24021.466796875,30487.37890625,22386.708984375,20313.263671875,21948.01953125,7064.34228515625,29782.453125,964.800537109375,0.0,1445.611328125,14728.705078125,6877.5810546875,26624.203125,17306.009765625,15823.0458984375,25430.521484375,9651.18359375,14722.34765625,8952.6171875,4160.404296875,23765.564453125,10065.23828125,17603.23828125,12196.7001953125,9327.7294921875,12713.2734375,12067.1591796875,2189.477294921875,10484.0595703125,3397.46484375,17034.212890625,6989.6376953125,8441.607421875,3538.92626953125,11535.4853515625,4646.7783203125,24477.640625,3767.013671875,17689.0703125,3768.60302734375,10294.9140625,27179.71875,22008.419921875,12602.01171875,-0.0,-44885.4765625,19742.646484375,4777.11328125,0.0,7136.6630859375,0.0,0.0
15656.15234375,15126.8642578125,33644.0390625,12305.5771484375,29074.349609375,6910.9599609375,8807.9765625,9605.884765625,8892.21875,6345.11328125,18095.173828125,-130.3354949951172,8861.224609375,0.0,23294.291015625,6997.58544921875,25793.7109375,20815.53125,10337.830078125,11315.345703125,24026.236328125,30489.763671875,22387.50390625,20316.443359375,21941.662109375,7063.5478515625,29784.837890625,970.3636474609375,0.0,1447.9954833984375,14733.4736328125,6879.96533203125,26630.560546875,17309.984375,15823.8408203125,25432.904296875,9649.5947265625,14726.3212890625,8991.55859375,4134.17822265625,23767.947265625,10068.4169921875,17604.033203125,12199.083984375,9324.55078125,12712.478515625,12080.6689453125,2199.808837890625,10488.828125,3396.670166015625,17034.212890625,6991.2275390625,8455.912109375,3539.72119140625,11539.458984375,4646.7783203125,24471.283203125,3762.2451171875,17684.30078125,3767.80810546875,10342.59765625,27181.306640625,22006.03515625,12594.859375,-0.0,-44878.32421875,19736.2890625,4779.49755859375,0.0,7133.48388671875,0.0,0.0
15652.974609375,15123.6845703125,33646.421875,12305.5771484375,29080.708984375,6913.34375,8811.15625,9609.8583984375,8893.8076171875,6343.5234375,18092.791015625,-125.56712341308594,8860.4287109375,0.0,23292.69921875,6997.58544921875,25792.91796875,20821.09375,10339.4189453125,11316.140625,24027.029296875,30492.146484375,22389.888671875,20319.62109375,21948.01953125,7069.11083984375,29788.017578125,975.9266967773438,0.0,1453.55859375,14735.8583984375,6875.19677734375,26635.328125,17308.392578125,15827.0205078125,25435.2890625,9651.18359375,14728.705078125,8987.5859375,4123.05224609375,23770.33203125,10071.5947265625,17607.212890625,12200.6728515625,9324.55078125,12714.068359375,12094.974609375,2202.98779296875,10495.185546875,3397.46484375,17035.802734375,6993.61181640625,8477.3701171875,3547.66845703125,11540.25390625,4658.69921875,24470.48828125,3755.092529296875,17685.890625,3764.62939453125,10367.234375,27184.486328125,22008.419921875,12594.859375,-0.0,-44878.32421875,19735.494140625,4777.908203125,0.0,7127.92041015625,0.0,0.0
15679.994140625,15115.73828125,33648.015625,12318.2939453125,29088.65625,6925.2646484375,8819.103515625,9617.8056640625,8896.9873046875,6346.70263671875,18103.123046875,-120.00402069091797,8864.40234375,0.0,23299.8515625,7003.94287109375,25799.275390625,20833.810546875,10348.9560546875,11319.3193359375,24033.388671875,30501.68359375,22397.041015625,20329.953125,21953.58203125,7084.2109375,29801.52734375,983.0792846679688,0.0,1475.81103515625,14745.39453125,6883.939453125,26640.095703125,17317.9296875,15836.5576171875,25447.2109375,9659.130859375,14735.8583984375,8964.5390625,4142.12548828125,23777.484375,10084.3115234375,17616.748046875,12211.0048828125,9331.703125,12719.630859375,12094.1796875,2210.934814453125,10500.7490234375,3414.94873046875,17042.955078125,6999.9697265625,8480.548828125,3561.9736328125,11546.611328125,4676.18310546875,24472.078125,3764.62939453125,17693.04296875,3766.218994140625,10370.4140625,27193.228515625,22015.572265625,12592.474609375,-0.0,-44867.19921875,19743.443359375,4779.49755859375,0.0,7126.33154296875,0.0,0.0
15681.5849609375,15110.9697265625,33641.65625,12300.0146484375,29090.24609375,6926.8544921875,8819.8974609375,9614.626953125,8886.6552734375,6341.13916015625,18105.5078125,-123.18293762207031,8862.0185546875,0.0,23299.05859375,7001.55859375,25796.890625,20829.8359375,10349.7509765625,11312.1669921875,24032.59375,30501.68359375,22396.24609375,20328.36328125,21951.19921875,7085.00537109375,29807.88671875,975.9266967773438,0.0,1475.0162353515625,14744.599609375,6881.55517578125,26636.919921875,17315.546875,15835.76171875,25448.00390625,9659.9267578125,14732.6787109375,8965.3330078125,4142.919921875,23775.1015625,10087.490234375,17618.337890625,12209.4150390625,9329.3193359375,12715.6572265625,12080.6689453125,2186.29833984375,10499.16015625,3419.717041015625,17044.544921875,6993.61181640625,8467.833984375,3563.56298828125,11548.99609375,4673.798828125,24472.078125,3774.166015625,17685.890625,3760.65576171875,10362.4658203125,27193.228515625,22012.392578125,12575.78515625,-0.0,-44875.14453125,19737.0859375,4781.8818359375,0.0,7118.3837890625,0.0,0.0
15683.9697265625,15130.837890625,33644.8359375,12288.09375,29093.423828125,6929.23876953125,8824.666015625,9619.3955078125,8890.62890625,6350.67626953125,18109.48046875,-111.26200103759766,8869.9658203125,0.0,23300.6484375,7009.50634765625,25800.0703125,20833.015625,10355.3134765625,11319.3193359375,24035.771484375,30504.068359375,22401.013671875,20333.92578125,21955.171875,7090.568359375,29801.52734375,979.1055908203125,0.0,1479.78466796875,14746.189453125,6877.5810546875,26638.5078125,17318.7265625,15840.5302734375,25454.36328125,9665.4892578125,14739.0361328125,8966.1279296875,4146.09912109375,23778.279296875,10089.8740234375,17623.10546875,12212.59375,9332.498046875,12722.8095703125,12084.6435546875,2195.835205078125,10502.3388671875,3426.86962890625,17048.517578125,6999.1748046875,8486.111328125,3569.9208984375,11552.1748046875,4685.7197265625,24478.435546875,3787.676513671875,17687.478515625,3770.9873046875,10377.56640625,27199.5859375,22021.134765625,12578.169921875,-0.0,-44871.96875,19731.521484375,4800.955078125,0.0,7128.71533203125,0.0,0.0
15689.53125,15137.990234375,33651.19140625,12307.1669921875,29089.451171875,6934.8017578125,8819.103515625,9624.1640625,8897.78125,6356.2392578125,18116.6328125,-110.46727752685547,8881.091796875,0.0,23302.236328125,7014.2744140625,25805.630859375,20839.373046875,10356.9033203125,11328.0615234375,24038.94921875,30511.220703125,22401.013671875,20338.693359375,21959.939453125,7100.900390625,29789.60546875,985.4635009765625,0.0,1486.9371337890625,14749.3681640625,6886.3232421875,26641.6875,17324.2890625,15841.326171875,25457.541015625,9665.4892578125,14743.8046875,8961.3603515625,4161.99365234375,23778.279296875,10093.8486328125,17617.544921875,12218.158203125,9334.0869140625,12730.7578125,12093.384765625,2226.82958984375,10511.0810546875,3429.25390625,17042.955078125,7003.94287109375,8503.5966796875,3579.45751953125,11559.3271484375,4695.2568359375,24484.79296875,3793.239501953125,17692.248046875,3777.344970703125,10383.12890625,27204.35546875,22025.904296875,12589.294921875,-0.0,-44864.81640625,19736.2890625,4798.5712890625,0.0,7131.099609375,0.0,0.0
15679.994140625,15128.453125,33647.21875,12314.3193359375,29084.681640625,6927.64892578125,8814.3349609375,9618.599609375,8897.78125,6354.64990234375,18101.533203125,-124.77238464355469,8881.88671875,0.0,23299.8515625,7003.94287109375,25799.275390625,20833.015625,10354.5185546875,11326.47265625,24032.59375,30507.24609375,22396.24609375,20333.92578125,21954.37890625,7096.1318359375,29791.990234375,980.6951293945312,0.0,1476.605712890625,14745.39453125,6876.78662109375,26636.123046875,17317.9296875,15834.966796875,25451.18359375,9661.515625,14740.6259765625,8954.20703125,4154.04638671875,23773.51171875,10087.490234375,17609.595703125,12214.978515625,9330.9091796875,12725.1943359375,12087.822265625,2221.2666015625,10507.1064453125,3422.101318359375,17037.392578125,6999.9697265625,8481.34375,3549.258056640625,11560.9169921875,4684.13037109375,24484.0,3780.52392578125,17689.86328125,3774.960693359375,10368.82421875,27199.5859375,22024.3125,12585.322265625,-0.0,-44871.96875,19733.111328125,4781.08740234375,0.0,7123.15234375,0.0,0.0
15678.40625,15132.4267578125,33651.98828125,12316.7041015625,29092.630859375,6920.49658203125,8824.666015625,9624.1640625,8908.1123046875,6364.1865234375,18094.380859375,-125.56712341308594,8874.734375,0.0,23303.828125,7009.50634765625,25800.86328125,20836.98828125,10362.4658203125,11336.0087890625,24037.361328125,30503.2734375,22402.60546875,20339.48828125,21952.787109375,7088.97900390625,29797.5546875,983.8739624023438,0.0,1472.632080078125,14747.779296875,6875.19677734375,26639.302734375,17316.341796875,15841.326171875,25451.18359375,9669.462890625,14744.599609375,8962.94921875,4150.86767578125,23779.07421875,10081.927734375,17619.927734375,12214.18359375,9338.0615234375,12731.5517578125,12092.58984375,2210.14013671875,10509.4912109375,3418.92236328125,17047.724609375,7005.53271484375,8467.0380859375,3541.310546875,11548.201171875,4680.95166015625,24480.0234375,3783.702880859375,17696.22265625,3778.9345703125,10360.876953125,27205.943359375,22029.876953125,12597.2431640625,-0.0,-44875.14453125,19736.2890625,4792.21337890625,0.0,7139.04736328125,0.0,0.0
15673.6376953125,15130.837890625,33651.98828125,12319.8828125,29098.98828125,6918.1123046875,8828.6396484375,9628.13671875,8913.67578125,6370.54443359375,18090.40625,-129.54075622558594,8862.8134765625,0.0,23302.236328125,7011.095703125,25801.658203125,20840.16796875,10362.4658203125,11342.3662109375,24038.94921875,30506.453125,22404.98828125,20340.28515625,21959.939453125,7087.3896484375,29803.1171875,983.0792846679688,0.0,1471.0426025390625,14749.3681640625,6882.349609375,26640.095703125,17314.751953125,15844.5029296875,25454.36328125,9670.2578125,14746.189453125,8951.0283203125,4143.71484375,23783.048828125,10080.337890625,17626.28515625,12213.3896484375,9342.0341796875,12736.3203125,12090.2060546875,2212.5244140625,10512.669921875,3414.94873046875,17050.90234375,7009.50634765625,8470.2177734375,3548.463134765625,11531.5126953125,4676.18310546875,24470.48828125,3784.49755859375,17697.810546875,3782.11328125,10349.7509765625,27209.91796875,22033.849609375,12604.3955078125,-0.0,-44883.08984375,19732.31640625,4796.18701171875,0.0,7149.37841796875,0.0,0.0
15655.359375,15091.896484375,33651.98828125,12318.2939453125,29100.576171875,6910.9599609375,8828.6396484375,9618.599609375,8914.470703125,6364.1865234375,18049.08203125,-144.64060974121094,8883.4765625,0.0,23304.62109375,6999.1748046875,25796.890625,20837.783203125,10356.9033203125,11338.3935546875,24034.9765625,30502.478515625,22401.810546875,20333.130859375,21959.939453125,7081.03173828125,29809.474609375,967.9794311523438,0.0,1459.91650390625,14745.39453125,6872.0185546875,26634.53515625,17310.77734375,15843.7099609375,25448.00390625,9666.283203125,14739.8310546875,8937.5185546875,4146.09912109375,23784.63671875,10078.748046875,17627.080078125,12200.6728515625,9342.0341796875,12729.16796875,12059.2119140625,2201.398193359375,10510.28515625,3404.6171875,17052.4921875,6998.38037109375,8456.70703125,3533.36328125,11540.25390625,4666.646484375,24478.435546875,3769.397705078125,17701.783203125,3772.57666015625,10350.544921875,27204.35546875,22029.876953125,12596.4482421875,-0.0,-44898.19140625,19737.0859375,4778.703125,0.0,7140.63623046875,0.0,0.0
15644.2314453125,15083.1533203125,33640.86328125,12312.7294921875,29091.8359375,6895.8603515625,8819.8974609375,9601.1162109375,8905.728515625,6353.06005859375,18042.72265625,-161.3299102783203,8889.833984375,0.0,23300.6484375,6981.69091796875,25788.1484375,20822.68359375,10344.982421875,11328.8564453125,24025.439453125,30491.3515625,22389.888671875,20319.62109375,21971.068359375,7067.521484375,29806.294921875,950.4954223632812,0.0,1449.5849609375,14732.6787109375,6863.27587890625,26625.791015625,17303.625,15830.1982421875,25432.904296875,9657.5419921875,14724.7314453125,8945.46484375,4142.12548828125,23776.689453125,10066.8271484375,17616.748046875,12182.39453125,9333.29296875,12716.4521484375,12035.3701171875,2196.6298828125,10511.875,3391.901611328125,17047.724609375,6983.2802734375,8445.580078125,3530.1845703125,11545.8173828125,4648.3671875,24477.640625,3748.734619140625,17695.427734375,3759.861083984375,10352.9287109375,27190.84375,22017.16015625,12585.322265625,-0.0,-44918.85546875,19734.701171875,4758.0400390625,0.0,7133.48388671875,0.0,0.0
15646.6162109375,15111.763671875,33633.70703125,12317.498046875,29077.529296875,6894.2705078125,8808.7724609375,9593.1689453125,8885.06640625,6345.11328125,18083.25390625,-150.99842834472656,8884.2705078125,0.0,23292.69921875,6980.10107421875,25788.94140625,20814.73828125,10336.240234375,11310.5771484375,24018.287109375,30486.583984375,22379.556640625,20312.466796875,21979.80859375,7073.08447265625,29792.78515625,945.72705078125,0.0,1445.611328125,14728.705078125,6866.455078125,26621.0234375,17304.419921875,15823.0458984375,25428.9296875,9646.416015625,14715.9892578125,8955.001953125,4125.4365234375,23765.564453125,10066.0322265625,17603.23828125,12178.4208984375,9321.3720703125,12708.5048828125,12037.75390625,2204.5771484375,10518.2333984375,3392.6962890625,17035.0078125,6978.51171875,8441.607421875,3546.873779296875,11552.1748046875,4653.9306640625,24471.283203125,3748.734619140625,17682.7109375,3753.503173828125,10341.8037109375,27184.486328125,22005.240234375,12556.7119140625,-0.0,-44906.93359375,19726.75390625,4765.1923828125,0.0,7133.48388671875,0.0,0.0
15630.7216796875,15109.3798828125,33632.1171875,12307.9619140625,29071.171875,6889.501953125,8798.4404296875,9589.1953125,8873.1455078125,6340.3447265625,18098.353515625,-151.7931671142578,8873.1455078125,0.0,23285.546875,6977.716796875,25780.201171875,20809.173828125,10327.498046875,11301.8349609375,24014.314453125,30479.431640625,22370.814453125,20304.521484375,21957.556640625,7069.11083984375,29785.6328125,944.1375732421875,0.0,1440.843017578125,14720.7578125,6860.09716796875,26614.666015625,17294.8828125,15815.099609375,25422.572265625,9636.87890625,14710.4267578125,8937.5185546875,4139.7412109375,23759.20703125,10059.673828125,17596.0859375,12173.65234375,9311.8349609375,12698.9677734375,12071.9267578125,2206.16650390625,10510.28515625,3391.901611328125,17025.470703125,6972.94873046875,8438.427734375,3540.515869140625,11545.8173828125,4654.7255859375,24465.71875,3751.118896484375,17673.96875,3749.529541015625,10327.498046875,27177.333984375,21995.703125,12553.5322265625,-0.0,-44904.546875,19722.779296875,4771.55078125,0.0,7130.3046875,0.0,0.0
15619.595703125,15109.3798828125,33637.68359375,12302.3984375,29073.556640625,6889.501953125,8800.82421875,9589.9892578125,8881.091796875,6343.5234375,18095.173828125,-155.7667999267578,8870.7607421875,0.0,23287.931640625,6980.10107421875,25777.81640625,20805.994140625,10329.0869140625,11308.193359375,24014.314453125,30477.046875,22370.814453125,20301.341796875,21955.171875,7057.98486328125,29788.8125,946.521728515625,0.0,1434.485107421875,14718.373046875,6858.5078125,26617.05078125,17290.115234375,15814.3046875,25418.599609375,9636.87890625,14709.6318359375,8928.775390625,4138.9462890625,23765.564453125,10055.701171875,17600.85546875,12174.447265625,9313.423828125,12698.9677734375,12090.2060546875,2206.96142578125,10509.4912109375,3398.259521484375,17030.23828125,6973.74365234375,8440.017578125,3533.36328125,11546.611328125,4662.67236328125,24467.310546875,3750.32421875,17677.94140625,3751.913818359375,10324.3193359375,27174.94921875,21994.91015625,12564.6591796875,-0.0,-44910.11328125,19727.548828125,4773.93505859375,0.0,7134.27880859375,0.0,0.0
15642.642578125,15117.328125,33647.21875,12301.6044921875,29079.9140625,6899.03857421875,8809.56640625,9596.34765625,8895.3974609375,6347.49755859375,18093.5859375,-145.43533325195312,8874.734375,0.0,23296.673828125,6990.4326171875,25784.96875,20810.76171875,10336.240234375,11317.7294921875,24019.083984375,30483.404296875,22376.37890625,20310.083984375,21959.939453125,7084.2109375,29795.169921875,956.8532104492188,0.0,1449.5849609375,14724.7314453125,6867.25,26625.791015625,17294.8828125,15819.8681640625,25424.95703125,9640.8525390625,14715.1943359375,8951.0283203125,4141.33056640625,23772.716796875,10063.6484375,17605.623046875,12183.189453125,9322.166015625,12705.326171875,12083.0537109375,2217.292724609375,10511.0810546875,3413.359375,17038.98046875,6982.4853515625,8451.9384765625,3543.69482421875,11557.73828125,4681.74609375,24470.48828125,3760.65576171875,17689.86328125,3759.06640625,10333.0615234375,27182.1015625,22001.265625,12574.1962890625,-0.0,-44905.34765625,19734.701171875,4782.6767578125,0.0,7138.25244140625,0.0,0.0
15633.9013671875,15104.611328125,33628.94140625,12295.24609375,29064.814453125,6890.296875,8807.9765625,9589.1953125,8902.5498046875,6345.11328125,18083.25390625,-148.61424255371094,8864.40234375,0.0,23297.46875,6986.45947265625,25778.611328125,20805.994140625,10329.0869140625,11320.1142578125,24007.162109375,30477.046875,22368.431640625,20302.13671875,21928.9453125,7077.05810546875,29795.169921875,950.4954223632812,0.0,1449.5849609375,14716.7841796875,6864.86572265625,26617.05078125,17290.91015625,15810.3310546875,25417.8046875,9635.2890625,14709.6318359375,8955.001953125,4122.25732421875,23752.0546875,10058.0849609375,17598.470703125,12175.2421875,9320.5771484375,12700.5576171875,12062.390625,2210.934814453125,10489.623046875,3395.875244140625,17041.365234375,6976.92236328125,8453.5283203125,3525.416015625,11542.6376953125,4680.15673828125,24456.978515625,3758.271484375,17693.837890625,3755.092529296875,10325.1142578125,27173.361328125,21997.29296875,12583.732421875,-0.0,-44903.75390625,19733.90625,4779.49755859375,0.0,7137.45751953125,0.0,0.0
15611.6484375,15098.25390625,33624.171875,12294.4521484375,29062.4296875,6883.14453125,8811.15625,9583.6328125,8913.67578125,6345.11328125,18082.4609375,-150.20370483398438,8863.6083984375,0.0,23299.05859375,6980.10107421875,25773.048828125,20801.2265625,10324.3193359375,11323.29296875,24005.572265625,30473.8671875,22366.841796875,20298.162109375,21932.125,7073.08447265625,29799.9375,945.72705078125,0.0,1444.0218505859375,14713.6044921875,6860.8916015625,26614.666015625,17289.3203125,15807.1513671875,25411.447265625,9634.4951171875,14705.658203125,8951.0283203125,4123.8466796875,23748.080078125,10056.49609375,17600.05859375,12168.884765625,9323.755859375,12694.19921875,12078.28515625,2204.5771484375,10488.828125,3381.570068359375,17047.724609375,6971.359375,8442.40234375,3530.1845703125,11539.458984375,4673.798828125,24454.59375,3755.092529296875,17697.015625,3749.529541015625,10316.3720703125,27168.591796875,21998.087890625,12596.4482421875,-0.0,-44907.73046875,19731.521484375,4778.703125,0.0,7130.3046875,0.0,0.0
15610.05859375,15076.796875,33613.84375,12290.4775390625,29055.27734375,6871.2236328125,8806.3876953125,9574.095703125,8919.2392578125,6340.3447265625,18069.744140625,-162.9193572998047,8862.8134765625,0.0,23298.263671875,6972.94873046875,25760.33203125,20786.126953125,10316.3720703125,11326.47265625,23995.240234375,30460.357421875,22358.099609375,20289.421875,21921.79296875,7061.95849609375,29784.837890625,934.600830078125,0.0,1422.564208984375,14700.8896484375,6841.02392578125,26600.361328125,17276.60546875,15797.615234375,25399.52734375,9625.7529296875,14696.12109375,8936.72265625,4125.4365234375,23737.75,10047.7529296875,17593.703125,12160.9375,9322.166015625,12685.4580078125,12076.6953125,2177.556396484375,10481.6748046875,3377.5966796875,17045.33984375,6960.2333984375,8431.275390625,3530.979248046875,11523.564453125,4655.52001953125,24463.3359375,3744.76123046875,17700.1953125,3740.78759765625,10301.2724609375,27159.849609375,21991.73046875,12605.984375,-0.0,-44916.46875,19733.90625,4774.7294921875,0.0,7118.3837890625,0.0,0.0
15606.0859375,15061.6962890625,33602.71484375,12285.708984375,29048.125,6864.07080078125,8789.6982421875,9562.96875,8909.7021484375,6333.1923828125,18059.412109375,-174.8402862548828,8872.349609375,0.0,23290.31640625,6967.3857421875,25750.794921875,20778.1796875,10304.451171875,11319.3193359375,23983.3203125,30454.0,22346.97265625,20278.294921875,21917.8203125,7054.8056640625,29772.916015625,924.2693481445312,0.0,1419.38525390625,14690.55859375,6825.923828125,26589.234375,17263.888671875,15788.078125,25389.1953125,9611.447265625,14684.2001953125,8923.212890625,4115.8994140625,23729.005859375,10039.01171875,17578.6015625,12152.1953125,9307.861328125,12673.537109375,12062.390625,2166.43017578125,10481.6748046875,3377.5966796875,17019.90625,6949.9013671875,8429.6865234375,3514.289794921875,11522.76953125,4650.75146484375,24470.48828125,3736.01904296875,17691.453125,3732.84033203125,10302.06640625,27148.72265625,21980.603515625,12594.0634765625,-0.0,-44930.7734375,19734.701171875,4774.7294921875,0.0,7118.3837890625,0.0,0.0
15618.0068359375,15060.9013671875,33603.5078125,12288.8876953125,29049.71484375,6868.83935546875,8788.1083984375,9562.1748046875,8900.166015625,6330.01318359375,18064.1796875,-166.89300537109375,8877.1181640625,0.0,23290.31640625,6970.564453125,25754.76953125,20784.537109375,10304.451171875,11309.783203125,23984.908203125,30457.177734375,22347.76953125,20278.294921875,21921.0,7064.34228515625,29780.865234375,925.8588256835938,0.0,1434.485107421875,14693.7373046875,6832.28173828125,26592.412109375,17268.658203125,15790.462890625,25391.578125,9612.2431640625,14684.2001953125,8916.8544921875,4126.23095703125,23731.390625,10044.5751953125,17577.806640625,12152.1953125,9303.8876953125,12671.1533203125,12069.54296875,2186.29833984375,10488.033203125,3388.72265625,17019.11328125,6949.9013671875,8436.0439453125,3515.87939453125,11527.5380859375,4659.494140625,24470.48828125,3741.582275390625,17686.685546875,3730.4560546875,10311.603515625,27149.51953125,21978.220703125,12563.8642578125,-0.0,-44918.85546875,19733.111328125,4777.908203125,0.0,7115.205078125,0.0,0.0
15612.443359375,15061.6962890625,33604.3046875,12297.6298828125,29048.919921875,6868.83935546875,8786.51953125,9558.201171875,8881.88671875,6325.2451171875,18066.564453125,-160.53517150878906,8868.376953125,0.0,23284.75390625,6971.359375,25753.1796875,20786.919921875,10302.861328125,11294.6826171875,23985.705078125,30457.177734375,22345.384765625,20275.912109375,21923.3828125,7070.7001953125,29780.865234375,929.8324584960938,0.0,1440.843017578125,14694.53125,6831.4873046875,26591.619140625,17271.837890625,15792.8466796875,25392.375,9609.0634765625,14680.2265625,8912.880859375,4123.05224609375,23731.390625,10043.7802734375,17577.806640625,12149.810546875,9298.32421875,12668.7685546875,12071.9267578125,2201.398193359375,10485.6494140625,3395.875244140625,17019.11328125,6949.9013671875,8429.6865234375,3519.852783203125,11530.716796875,4659.494140625,24460.951171875,3747.93994140625,17677.94140625,3729.6611328125,10328.29296875,27149.51953125,21972.65625,12529.6904296875,-0.0,-44908.5234375,19723.57421875,4786.650390625,0.0,7113.61572265625,0.0,0.0
15614.033203125,15068.0546875,33598.73828125,12288.09375,29041.767578125,6862.4814453125,8779.3662109375,9554.2265625,8865.197265625,6324.4501953125,18059.412109375,-158.9457244873047,8850.8916015625,0.0,23275.216796875,6972.94873046875,25749.20703125,20781.359375,10295.708984375,11289.1201171875,23980.140625,30451.6171875,22338.232421875,20271.142578125,21917.025390625,7062.75341796875,29771.328125,928.2429809570312,0.0,1436.0745849609375,14687.37890625,6825.923828125,26585.259765625,17263.888671875,15785.6943359375,25385.220703125,9602.7060546875,14674.6630859375,8908.908203125,4110.33642578125,23725.033203125,10038.216796875,17570.654296875,12144.248046875,9287.9931640625,12664.794921875,12052.853515625,2199.808837890625,10473.728515625,3388.72265625,17009.576171875,6949.9013671875,8420.9443359375,3511.90576171875,11517.20703125,4659.494140625,24452.208984375,3751.913818359375,17665.228515625,3729.6611328125,10331.4716796875,27147.134765625,21968.68359375,12526.51171875,-0.0,-44912.5,19717.216796875,4788.23974609375,0.0,7122.35791015625,0.0,0.0
15605.2900390625,15056.1328125,33584.43359375,12274.5830078125,29032.23046875,6851.35498046875,8767.4453125,9545.4853515625,8857.25,6318.09228515625,18044.3125,-174.8402862548828,8839.7666015625,0.0,23268.064453125,6968.97509765625,25738.080078125,20768.642578125,10286.966796875,11282.76171875,23967.423828125,30439.6953125,22327.10546875,20260.015625,21909.078125,7051.62646484375,29763.380859375,918.7062377929688,0.0,1423.35888671875,14674.6630859375,6815.59228515625,26575.724609375,17248.7890625,15775.3623046875,25374.888671875,9593.1689453125,14665.9208984375,8900.166015625,4108.7470703125,23713.908203125,10025.5009765625,17561.1171875,12133.12109375,9278.45703125,12655.2578125,12029.806640625,2187.887939453125,10463.3974609375,3379.18603515625,17001.62890625,6939.56982421875,8389.1552734375,3501.57421875,11507.669921875,4650.75146484375,24441.876953125,3745.555908203125,17657.279296875,3724.09814453125,10290.9404296875,27138.390625,21959.146484375,12521.744140625,-0.0,-44926.8046875,19706.091796875,4780.29248046875,0.0,7122.35791015625,0.0,0.0
15605.2900390625,15061.6962890625,33591.5859375,12290.4775390625,29034.615234375,6863.27587890625,8776.1875,9555.0224609375,8871.5556640625,6330.80810546875,18041.9296875,-169.27719116210938,8845.3291015625,0.0,23274.421875,6976.92236328125,25743.642578125,20775.794921875,10294.1201171875,11297.06640625,23971.3984375,30446.052734375,22333.462890625,20269.552734375,21912.255859375,7064.34228515625,29767.35546875,928.2429809570312,0.0,1428.9219970703125,14681.021484375,6825.923828125,26582.08203125,17255.94140625,15780.130859375,25382.837890625,9599.5263671875,14676.2529296875,8910.4970703125,4097.62060546875,23717.880859375,10032.654296875,17566.681640625,12141.8642578125,9287.1982421875,12666.384765625,12042.5224609375,2199.808837890625,10464.986328125,3394.285888671875,17009.576171875,6948.3125,8370.08203125,3506.342529296875,11509.2587890625,4662.67236328125,24446.646484375,3754.2978515625,17667.611328125,3735.224365234375,10280.609375,27143.955078125,21967.888671875,12537.638671875,-0.0,-44926.0078125,19714.037109375,4796.98193359375,0.0,7136.6630859375,0.0,0.0
15614.033203125,15072.822265625,33593.1796875,12300.80859375,29037.794921875,6868.83935546875,8780.9560546875,9562.96875,8881.88671875,6339.5498046875,18050.669921875,-158.15098571777344,8852.4814453125,0.0,23276.009765625,6981.69091796875,25750.794921875,20782.15234375,10299.6826171875,11305.80859375,23977.755859375,30450.025390625,22339.025390625,20276.705078125,21914.640625,7075.46875,29770.533203125,933.8060913085938,0.0,1436.8692626953125,14686.583984375,6834.666015625,26588.439453125,17262.30078125,15786.4892578125,25386.810546875,9604.294921875,14681.81640625,8926.3916015625,4106.36279296875,23720.263671875,10038.216796875,17570.654296875,12149.0166015625,9294.3505859375,12673.537109375,12059.2119140625,2214.114013671875,10468.9599609375,3403.82275390625,17015.93359375,6954.669921875,8387.5654296875,3508.726806640625,11513.2333984375,4676.18310546875,24453.00390625,3763.039794921875,17675.55859375,3743.96630859375,10298.0927734375,27148.72265625,21975.8359375,12541.611328125,-0.0,-44918.85546875,19720.396484375,4808.90283203125,0.0,7144.60986328125,0.0,0.0
15606.0859375,15071.232421875,33596.35546875,12291.2724609375,29044.947265625,6866.455078125,8786.51953125,9566.1474609375,8889.833984375,6344.318359375,18045.90234375,-162.9193572998047,8859.634765625,0.0,23281.57421875,6984.86962890625,25750.001953125,20785.33203125,10300.4765625,11312.9619140625,23978.552734375,30454.0,22343.0,20278.294921875,21920.205078125,7092.95263671875,29780.865234375,936.9849853515625,0.0,1448.7901611328125,14687.37890625,6832.28173828125,26589.234375,17262.30078125,15788.8740234375,25388.3984375,9605.884765625,14684.9951171875,8922.41796875,4135.767578125,23723.443359375,10047.7529296875,17574.62890625,12152.1953125,9299.9140625,12678.3056640625,12067.1591796875,2208.55078125,10480.0859375,3406.206787109375,17019.90625,6957.84912109375,8399.486328125,3513.4951171875,11513.2333984375,4679.36181640625,24456.978515625,3769.397705078125,17680.326171875,3747.1455078125,10313.9873046875,27152.697265625,21980.603515625,12547.17578125,-0.0,-44915.67578125,19728.341796875,4810.4921875,0.0,7141.43115234375,0.0,0.0
15590.9853515625,15058.517578125,33593.1796875,12290.4775390625,29037.794921875,6856.91845703125,8779.3662109375,9561.3798828125,8884.2705078125,6343.5234375,18049.875,-161.3299102783203,8854.8662109375,0.0,23275.216796875,6981.69091796875,25745.234375,20777.384765625,10294.1201171875,11312.1669921875,23972.193359375,30447.640625,22335.052734375,20270.34765625,21917.8203125,7088.97900390625,29772.123046875,929.8324584960938,0.0,1434.485107421875,14680.2265625,6821.15576171875,26580.4921875,17258.326171875,15781.720703125,25379.658203125,9596.34765625,14679.431640625,8908.1123046875,4139.7412109375,23719.46875,10039.806640625,17567.4765625,12145.0419921875,9292.76171875,12675.1259765625,12063.98046875,2199.808837890625,10473.728515625,3393.490966796875,17013.55078125,6953.08056640625,8399.486328125,3500.779296875,11514.02734375,4672.20947265625,24449.029296875,3763.834716796875,17673.173828125,3743.96630859375,10292.5302734375,27144.75,21975.041015625,12545.5859375,-0.0,-44917.265625,19721.984375,4802.544921875,0.0,7140.63623046875,0.0,0.0
15598.93359375,15071.232421875,33597.9453125,12296.041015625,29031.435546875,6852.94482421875,8773.009765625,9559.791015625,8877.9130859375,6343.5234375,18066.564453125,-162.1246337890625,8855.66015625,0.0,23269.65234375,6977.716796875,25746.02734375,20772.615234375,10292.5302734375,11308.193359375,23969.80859375,30445.2578125,22327.900390625,20267.962890625,21910.66796875,7080.23681640625,29757.818359375,925.8588256835938,0.0,1444.0218505859375,14679.431640625,6827.51318359375,26582.08203125,17257.53125,15776.953125,25377.2734375,9590.78515625,14676.2529296875,8907.318359375,4137.357421875,23716.291015625,10036.6279296875,17561.1171875,12140.2744140625,9287.1982421875,12673.537109375,12069.54296875,2217.292724609375,10464.19140625,3391.10693359375,17007.193359375,6951.49072265625,8413.7919921875,3509.521484375,11513.2333984375,4672.20947265625,24444.26171875,3756.68212890625,17669.99609375,3747.1455078125,10297.298828125,27142.3671875,21971.068359375,12542.4072265625,-0.0,-44920.4453125,19716.421875,4794.59765625,0.0,7135.8681640625,0.0,0.0
15598.1376953125,15076.796875,33593.97265625,12283.3251953125,29025.078125,6848.970703125,8769.03515625,9558.201171875,8873.939453125,6344.318359375,18058.619140625,-158.15098571777344,8856.4560546875,0.0,23268.064453125,6977.716796875,25739.669921875,20768.642578125,10287.76171875,11308.193359375,23963.451171875,30437.310546875,22319.951171875,20264.783203125,21902.71875,7072.2900390625,29755.43359375,927.4482421875,0.0,1449.5849609375,14672.279296875,6823.53955078125,26577.314453125,17250.37890625,15771.388671875,25370.916015625,9586.0166015625,14673.07421875,8906.5234375,4135.767578125,23710.728515625,10027.0908203125,17554.759765625,12139.4794921875,9281.6357421875,12673.537109375,12055.2373046875,2222.855712890625,10454.654296875,3395.875244140625,17003.216796875,6952.28564453125,8406.638671875,3511.111083984375,11513.2333984375,4673.00390625,24440.2890625,3762.2451171875,17666.81640625,3746.3505859375,10313.9873046875,27136.0078125,21970.271484375,12536.048828125,-0.0,-44914.8828125,19714.037109375,4793.00830078125,0.0,7131.099609375,0.0,0.0
15589.396484375,15063.2861328125,33600.33203125,12296.041015625,29034.615234375,6852.94482421875,8775.3935546875,9566.943359375,8881.88671875,6357.0341796875,18057.822265625,-150.20370483398438,8858.044921875,0.0,23274.421875,6991.2275390625,25744.4375,20775.794921875,10294.1201171875,11319.3193359375,23970.603515625,30446.052734375,22325.515625,20270.34765625,21909.87109375,7072.2900390625,29765.763671875,934.600830078125,0.0,1455.9427490234375,14677.0478515625,6822.74462890625,26580.4921875,17257.53125,15777.74609375,25376.478515625,9592.3740234375,14681.021484375,8929.5703125,4134.97314453125,23718.67578125,10027.8857421875,17561.1171875,12144.248046875,9289.58203125,12684.6630859375,12057.6220703125,2227.624267578125,10464.19140625,3401.4384765625,17011.166015625,6962.6171875,8404.2548828125,3519.05810546875,11514.02734375,4682.541015625,24443.46875,3777.344970703125,17673.96875,3758.271484375,10313.9873046875,27143.16015625,21979.013671875,12540.0224609375,-0.0,-44906.93359375,19718.01171875,4808.90283203125,0.0,7140.63623046875,0.0,0.0
15590.9853515625,15049.775390625,33602.71484375,12296.8359375,29036.203125,6853.7392578125,8777.77734375,9570.1220703125,8885.8603515625,6363.39208984375,18056.234375,-152.587890625,8854.8662109375,0.0,23277.6015625,6993.61181640625,25744.4375,20774.20703125,10295.708984375,11324.087890625,23970.603515625,30448.4375,22326.310546875,20271.935546875,21912.255859375,7077.8525390625,29768.1484375,935.3955688476562,0.0,1460.711181640625,14677.841796875,6823.53955078125,26584.466796875,17258.326171875,15777.74609375,25378.068359375,9593.1689453125,14681.81640625,8958.9755859375,4102.388671875,23721.060546875,10030.26953125,17564.296875,12145.8369140625,9291.171875,12690.2265625,12056.033203125,2226.82958984375,10468.9599609375,3401.4384765625,17013.55078125,6965.00146484375,8397.1025390625,3519.852783203125,11511.6435546875,4687.30908203125,24447.44140625,3774.960693359375,17677.1484375,3763.834716796875,10319.55078125,27142.3671875,21982.98828125,12541.611328125,-0.0,-44915.67578125,19714.83203125,4818.439453125,0.0,7144.60986328125,0.0,0.0
15602.111328125,15061.6962890625,33592.3828125,12292.8623046875,29029.845703125,6850.560546875,8773.8037109375,9566.1474609375,8881.88671875,6359.41845703125,18049.875,-151.7931671142578,8850.8916015625,0.0,23274.421875,6989.6376953125,25738.080078125,20766.2578125,10290.9404296875,11319.3193359375,23963.451171875,30442.873046875,22319.158203125,20266.375,21903.515625,7078.6474609375,29764.17578125,931.4219360351562,0.0,1451.9691162109375,14672.279296875,6819.56640625,26577.314453125,17255.1484375,15771.388671875,25372.505859375,9586.0166015625,14677.0478515625,8924.0078125,4123.8466796875,23713.111328125,10029.4755859375,17559.529296875,12141.068359375,9285.609375,12685.4580078125,12048.880859375,2222.855712890625,10461.8076171875,3398.259521484375,17008.78125,6961.02783203125,8387.5654296875,3531.77392578125,11504.4912109375,4681.74609375,24445.056640625,3770.1923828125,17671.5859375,3760.65576171875,10313.9873046875,27137.59765625,21978.220703125,12530.486328125,-0.0,-44922.03515625,19710.064453125,4818.439453125,0.0,7143.0205078125,0.0,0.0
15617.2109375,15073.6171875,33584.43359375,12287.298828125,29030.640625,6852.94482421875,8775.3935546875,9565.353515625,8877.9130859375,6357.0341796875,18047.490234375,-165.3035430908203,8848.5078125,0.0,23272.83203125,6988.04833984375,25738.080078125,20763.078125,10291.7353515625,11318.5244140625,23961.06640625,30441.28515625,22320.748046875,20266.375,21901.92578125,7088.97900390625,29764.17578125,929.8324584960938,0.0,1447.2008056640625,14671.4853515625,6817.18212890625,26569.3671875,17255.94140625,15769.7998046875,25373.30078125,9585.2216796875,14677.841796875,8893.8076171875,4161.19921875,23710.728515625,10033.4482421875,17559.529296875,12140.2744140625,9284.8134765625,12684.6630859375,12049.6748046875,2229.213623046875,10461.8076171875,3401.4384765625,17011.166015625,6962.6171875,8381.20703125,3536.542236328125,11506.0810546875,4687.30908203125,24442.671875,3769.397705078125,17671.5859375,3755.88720703125,10307.6298828125,27136.802734375,21979.013671875,12523.333984375,-0.0,-44925.2109375,19710.064453125,4813.6708984375,0.0,7135.8681640625,0.0,0.0
15621.185546875,15078.3857421875,33590.0,12297.6298828125,29036.203125,6856.91845703125,8781.7509765625,9568.5322265625,8881.091796875,6361.0078125,18054.64453125,-163.71409606933594,8850.09765625,0.0,23276.009765625,6990.4326171875,25740.46484375,20768.642578125,10297.298828125,11324.8828125,23965.8359375,30446.052734375,22324.720703125,20271.142578125,21905.103515625,7091.36328125,29770.533203125,934.600830078125,0.0,1458.326904296875,14673.869140625,6818.771484375,26575.724609375,17258.326171875,15774.568359375,25377.2734375,9589.1953125,14681.81640625,8896.19140625,4154.04638671875,23716.291015625,10037.421875,17565.884765625,12145.8369140625,9289.58203125,12687.8427734375,12060.005859375,2237.160888671875,10466.5751953125,3407.00146484375,17015.138671875,6967.3857421875,8382.796875,3530.979248046875,11517.20703125,4700.02490234375,24445.056640625,3775.755615234375,17675.55859375,3757.476806640625,10310.013671875,27141.5703125,21986.166015625,12526.51171875,-0.0,-44922.03515625,19710.064453125,4811.287109375,0.0,7135.8681640625,0.0,0.0
15614.8271484375,15082.359375,33596.35546875,12302.3984375,29043.35546875,6849.765625,8786.51953125,9569.3271484375,8885.8603515625,6364.98095703125,18056.234375,-147.81951904296875,8853.2763671875,0.0,23279.189453125,6989.6376953125,25742.849609375,20771.822265625,10299.6826171875,11328.8564453125,23971.3984375,30445.2578125,22329.48828125,20268.7578125,21913.05078125,7077.05810546875,29778.48046875,933.8060913085938,0.0,1467.8636474609375,14675.4580078125,6822.74462890625,26580.4921875,17256.736328125,15779.3369140625,25374.09375,9590.78515625,14683.40625,8902.5498046875,4140.53564453125,23719.46875,10027.0908203125,17572.244140625,12144.248046875,9293.556640625,12687.8427734375,12068.748046875,2240.340087890625,10471.34375,3400.6435546875,17018.318359375,6968.18017578125,8393.1279296875,3534.157958984375,11512.4384765625,4701.6142578125,24448.236328125,3774.960693359375,17680.326171875,3757.476806640625,10306.041015625,27143.16015625,21987.755859375,12527.306640625,-0.0,-44922.03515625,19712.447265625,4810.4921875,0.0,7135.0732421875,0.0,0.0
15619.595703125,15080.76953125,33606.6875,12307.9619140625,29056.072265625,6856.12353515625,8796.0556640625,9574.095703125,8893.8076171875,6371.33935546875,18064.9765625,-145.43533325195312,8862.8134765625,0.0,23285.546875,6989.6376953125,25753.1796875,20781.359375,10307.6298828125,11336.0087890625,23983.3203125,30451.6171875,22338.232421875,20276.705078125,21931.330078125,7085.00537109375,29791.197265625,937.7797241210938,0.0,1463.89013671875,14685.7900390625,6832.28173828125,26591.619140625,17266.2734375,15789.6669921875,25383.630859375,9597.9375,14691.3525390625,8916.8544921875,4160.404296875,23732.185546875,10035.0380859375,17583.37109375,12148.220703125,9300.708984375,12692.6103515625,12082.2587890625,2245.903076171875,10480.880859375,3406.206787109375,17030.23828125,6969.77001953125,8408.228515625,3527.00537109375,11513.2333984375,4697.64111328125,24453.798828125,3777.344970703125,17687.478515625,3760.65576171875,10296.50390625,27152.697265625,21995.703125,12530.486328125,-0.0,-44916.46875,19710.859375,4812.87646484375,0.0,7136.6630859375,0.0,0.0
15615.6220703125,15068.0546875,33617.01953125,12311.140625,29052.892578125,6855.3291015625,8796.0556640625,9571.7119140625,8893.8076171875,6368.16015625,18070.5390625,-161.3299102783203,8874.734375,0.0,23286.341796875,6980.89599609375,25756.359375,20782.15234375,10306.8349609375,11334.4189453125,23984.908203125,30454.0,22338.232421875,20278.294921875,21941.662109375,7086.59521484375,29789.60546875,933.8060913085938,0.0,1462.3006591796875,14686.583984375,6833.07666015625,26595.591796875,17267.068359375,15789.6669921875,25384.42578125,9597.9375,14689.7626953125,8919.2392578125,4165.17236328125,23734.5703125,10038.216796875,17580.986328125,12144.248046875,9299.9140625,12688.63671875,12093.384765625,2245.1083984375,10492.8017578125,3405.411865234375,17031.03515625,6966.5908203125,8409.0234375,3514.289794921875,11520.3857421875,4689.693359375,24456.181640625,3773.371337890625,17688.2734375,3757.476806640625,10290.1455078125,27153.4921875,21994.91015625,12522.5380859375,-0.0,-44925.2109375,19707.6796875,4805.7236328125,0.0,7131.099609375,0.0,0.0
15600.5224609375,15040.23828125,33607.484375,12297.6298828125,29044.150390625,6848.17626953125,8789.6982421875,9566.943359375,8884.2705078125,6362.59716796875,18049.08203125,-165.3035430908203,8869.9658203125,0.0,23279.189453125,6975.33251953125,25747.6171875,20778.974609375,10300.4765625,11328.8564453125,23976.16796875,30450.025390625,22327.900390625,20272.732421875,21921.79296875,7081.03173828125,29780.865234375,927.4482421875,0.0,1453.55859375,14681.021484375,6829.10302734375,26586.056640625,17259.12109375,15782.5146484375,25377.2734375,9589.9892578125,14684.2001953125,8924.0078125,4156.4306640625,23726.62109375,10031.064453125,17573.0390625,12137.8896484375,9295.1455078125,12683.07421875,12071.1328125,2214.114013671875,10484.8544921875,3388.72265625,17024.67578125,6959.4384765625,8395.5126953125,3503.95849609375,11520.3857421875,4687.30908203125,24445.8515625,3770.1923828125,17681.12109375,3751.913818359375,10297.298828125,27148.72265625,21990.93359375,12516.1806640625,-0.0,-44935.54296875,19703.70703125,4802.544921875,0.0,7129.51025390625,0.0,0.0
