15219.84765625,14939.30859375,33354.7578125,11744.4990234375,28569.69921875,6783.80322265625,8422.5341796875,9495.41796875,9102.02734375,6721.01953125,18085.638671875,-439.48492431640625,8656.978515625,0.0,23018.517578125,7098.51611328125,25229.453125,20284.65234375,10023.1171875,11680.1259765625,23491.3828125,29823.779296875,22327.10546875,19985.833984375,21529.9921875,7171.630859375,29330.25390625,751.0185546875,0.0,1234.2135009765625,14376.640625,7100.10546875,26110.013671875,16803.7421875,15465.4189453125,25047.4609375,9534.359375,14441.8076171875,8714.19921875,3960.132568359375,23220.380859375,9815.693359375,17174.0859375,12031.3955078125,9033.6796875,12459.7548828125,11958.28125,2016.2265625,10314.7822265625,3293.355224609375,16855.3984375,6692.40966796875,7677.873046875,2284.050048828125,11262.8935546875,4927.3173828125,24145.4453125,4168.3515625,17828.94140625,3718.53515625,9775.162109375,26815.732421875,21644.43359375,12160.9375,-0.0,-43772.859375,19707.6796875,4942.4169921875,0.0,7349.64990234375,0.0,0.0
15224.6162109375,14942.486328125,33363.50390625,11754.0361328125,28582.4140625,6791.75048828125,8435.2490234375,9504.1591796875,9115.537109375,6731.3515625,18097.55859375,-435.5112609863281,8664.130859375,0.0,23030.439453125,7101.69482421875,25239.787109375,20298.95703125,10033.4482421875,11692.046875,23502.5078125,29831.728515625,22336.640625,19994.578125,21539.529296875,7178.783203125,29346.943359375,757.3763427734375,0.0,1246.1343994140625,14384.5869140625,7108.84716796875,26120.34375,16813.27734375,15475.75,25056.203125,9544.6904296875,14448.166015625,8740.4248046875,3966.490234375,23233.095703125,9823.6396484375,17186.80078125,12037.75390625,9044.806640625,12468.4970703125,11967.818359375,2020.994873046875,10328.29296875,3302.097412109375,16868.91015625,6700.35693359375,7690.58837890625,2291.997314453125,11262.8935546875,4938.44384765625,24154.185546875,4167.556640625,17842.451171875,3720.91943359375,9783.1083984375,26825.26953125,21655.55859375,12176.8310546875,-0.0,-43768.8828125,19713.244140625,4950.36474609375,0.0,7359.9814453125,0.0,0.0
15218.2578125,14929.771484375,33376.21875,11757.21484375,28591.15625,6787.77685546875,8440.8125,9501.7744140625,9117.9208984375,6724.9931640625,18095.173828125,-438.690185546875,8662.541015625,0.0,23036.00390625,7100.900390625,25244.5546875,20302.931640625,10034.2431640625,11689.6630859375,23508.072265625,29835.701171875,22339.8203125,19994.578125,21551.451171875,7181.16748046875,29358.068359375,754.1974487304688,0.0,1246.1343994140625,14386.9716796875,7109.64208984375,26125.11328125,16815.662109375,15479.7236328125,25059.380859375,9547.8701171875,14448.9599609375,8740.4248046875,3960.132568359375,23240.248046875,9827.6142578125,17191.568359375,12037.75390625,9047.1904296875,12467.7021484375,11985.3017578125,2013.0474853515625,10337.830078125,3300.5078125,16873.677734375,6699.56201171875,7719.19873046875,2280.076171875,11269.251953125,4936.0595703125,24159.75,4163.58349609375,17848.810546875,3714.5615234375,9780.724609375,26827.654296875,21657.1484375,12180.8056640625,-0.0,-43773.65234375,19718.8046875,4947.185546875,0.0,7357.59716796875,0.0,0.0
15234.15234375,14928.9765625,33373.0390625,11742.9091796875,28589.56640625,6780.62451171875,8439.2236328125,9498.595703125,9118.7158203125,6725.7880859375,18092.791015625,-444.2532958984375,8664.130859375,0.0,23038.38671875,7095.3369140625,25241.375,20295.77734375,10031.064453125,11689.6630859375,23504.892578125,29830.93359375,22335.84765625,19989.80859375,21548.271484375,7177.98876953125,29358.86328125,746.2501220703125,0.0,1207.1927490234375,14383.79296875,7104.07861328125,26120.34375,16810.099609375,15477.33984375,25053.8203125,9544.6904296875,14448.166015625,8738.041015625,3960.132568359375,23237.86328125,9828.408203125,17190.775390625,12031.3955078125,9046.3955078125,12467.7021484375,11985.3017578125,1979.6688232421875,10334.6513671875,3293.355224609375,16875.267578125,6693.9990234375,7701.71484375,2264.9765625,11266.072265625,4923.34375,24162.927734375,4153.25146484375,17851.1953125,3713.766845703125,9775.9560546875,26825.26953125,21657.1484375,12184.779296875,-0.0,-43781.59765625,19718.01171875,4950.36474609375,0.0,7353.6240234375,0.0,0.0
15220.642578125,14922.619140625,33338.86328125,11720.6572265625,28575.26171875,6763.93505859375,8432.0703125,9489.853515625,9110.7685546875,6721.01953125,18099.150390625,-450.6111145019531,8659.36328125,0.0,23034.4140625,7086.59521484375,25222.30078125,20280.6796875,10023.9111328125,11687.2783203125,23487.41015625,29812.654296875,22323.927734375,19978.681640625,21530.787109375,7160.5048828125,29352.505859375,734.3292236328125,0.0,1200.8348388671875,14367.103515625,7084.2109375,26098.88671875,16791.8203125,15465.4189453125,25038.71875,9536.7431640625,14437.0390625,8706.251953125,3943.443359375,23216.40625,9800.59375,17179.646484375,12019.474609375,9038.4482421875,12458.9609375,11924.107421875,1959.80078125,10317.9619140625,3278.25537109375,16868.115234375,6684.4619140625,7636.546875,2259.41357421875,11257.3310546875,4911.4228515625,24158.16015625,4144.509765625,17848.015625,3706.6142578125,9760.0625,26815.732421875,21650.791015625,12182.39453125,-0.0,-43787.1640625,19718.8046875,4944.80126953125,0.0,7346.47119140625,0.0,0.0
15213.4892578125,14932.9501953125,33346.015625,11729.3994140625,28574.466796875,6763.14013671875,8428.8916015625,9489.853515625,9096.462890625,6722.60888671875,18092.791015625,-453.7900390625,8659.36328125,0.0,23028.849609375,7092.15771484375,25226.275390625,20285.447265625,10024.70703125,11680.9208984375,23488.203125,29815.0390625,22323.130859375,19980.271484375,21535.5546875,7162.88916015625,29337.40625,738.3028564453125,0.0,1219.1136474609375,14367.8984375,7085.80029296875,26103.654296875,16794.205078125,15467.0078125,25041.8984375,9534.359375,14437.0390625,8720.5576171875,3946.622314453125,23218.791015625,9797.4140625,17176.470703125,12018.6806640625,9033.6796875,12460.5498046875,11936.82421875,1991.58984375,10310.8095703125,3274.28173828125,16861.7578125,6689.23046875,7648.4677734375,2269.744873046875,11254.9462890625,4906.654296875,24149.41796875,4150.07275390625,17840.861328125,3711.382568359375,9762.4462890625,26815.732421875,21649.99609375,12175.2421875,-0.0,-43791.1328125,19718.01171875,4951.9541015625,0.0,7356.0078125,0.0,0.0
15219.84765625,14936.923828125,33354.7578125,11741.3203125,28580.82421875,6767.90869140625,8429.6865234375,9493.828125,9096.462890625,6724.9931640625,18091.998046875,-449.02166748046875,8668.10546875,0.0,23034.4140625,7096.1318359375,25230.25,20292.6015625,10026.2958984375,11682.5107421875,23495.35546875,29822.19140625,22327.900390625,19985.041015625,21549.06640625,7162.09423828125,29335.81640625,739.892333984375,0.0,1223.882080078125,14371.8720703125,7090.568359375,26110.013671875,16798.97265625,15472.5712890625,25049.05078125,9537.537109375,14443.3974609375,8723.7353515625,3944.23828125,23227.533203125,9802.1826171875,17181.23828125,12021.859375,9035.26953125,12465.3173828125,11946.3603515625,2002.716064453125,10317.166015625,3275.07666015625,16865.73046875,6693.9990234375,7665.1572265625,2272.129150390625,11269.251953125,4904.27001953125,24154.982421875,4154.04638671875,17845.630859375,3713.766845703125,9767.21484375,26822.08984375,21653.17578125,12168.884765625,-0.0,-43787.95703125,19723.57421875,4953.54296875,0.0,7359.1865234375,0.0,0.0
15231.7685546875,14936.1298828125,33356.3515625,11747.677734375,28584.798828125,6773.4716796875,8432.865234375,9495.41796875,9098.84765625,6724.19873046875,18092.791015625,-453.7900390625,8672.078125,0.0,23036.00390625,7094.5419921875,25231.837890625,20299.75390625,10031.064453125,11683.3046875,23498.53515625,29825.369140625,22330.283203125,19989.80859375,21547.4765625,7166.0673828125,29344.55859375,740.6870727539062,0.0,1224.6767578125,14377.4345703125,7094.5419921875,26112.3984375,16803.7421875,15476.5439453125,25053.8203125,9540.716796875,14445.78125,8707.8408203125,3942.6484375,23229.91796875,9811.71875,17185.2109375,12022.654296875,9040.0380859375,12466.11328125,11946.3603515625,2002.716064453125,10317.9619140625,3275.07666015625,16868.115234375,6695.58837890625,7680.25732421875,2268.9501953125,11269.251953125,4906.654296875,24155.775390625,4151.662109375,17847.21875,3712.971923828125,9771.9833984375,26826.0625,21654.763671875,12170.4736328125,-0.0,-43783.98046875,19723.57421875,4949.56982421875,0.0,7357.59716796875,0.0,0.0
15223.0263671875,14925.7978515625,33363.50390625,11746.0888671875,28590.361328125,6772.6767578125,8437.6337890625,9494.6220703125,9103.6162109375,6724.9931640625,18094.380859375,-453.7900390625,8672.078125,0.0,23039.9765625,7090.568359375,25231.837890625,20304.521484375,10032.654296875,11684.1005859375,23500.123046875,29826.958984375,22336.640625,19991.3984375,21559.396484375,7162.09423828125,29350.123046875,739.0975952148438,0.0,1204.80859375,14380.6142578125,7091.36328125,26114.783203125,16803.7421875,15480.5185546875,25056.998046875,9543.1015625,14444.9873046875,8703.8681640625,3936.290771484375,23233.890625,9812.5146484375,17189.98046875,12022.654296875,9045.6005859375,12465.3173828125,11956.69140625,1988.410888671875,10325.908203125,3270.308349609375,16871.294921875,6694.7939453125,7673.8994140625,2261.002685546875,11276.404296875,4902.6806640625,24159.75,4146.89404296875,17850.3984375,3711.382568359375,9768.0087890625,26827.654296875,21656.35546875,12183.9833984375,-0.0,-43785.5703125,19723.57421875,4940.033203125,0.0,7354.41845703125,0.0,0.0
15220.642578125,14927.3876953125,33365.88671875,11750.857421875,28593.541015625,6783.80322265625,8441.607421875,9503.3642578125,9108.3837890625,6733.7353515625,18090.40625,-441.8691101074219,8668.8994140625,0.0,23040.771484375,7100.10546875,25238.990234375,20312.466796875,10039.806640625,11686.484375,23506.482421875,29832.521484375,22343.79296875,20000.138671875,21557.80859375,7170.8359375,29352.505859375,750.2238159179688,0.0,1211.961181640625,14387.7666015625,7096.1318359375,26119.55078125,16811.689453125,15485.287109375,25066.533203125,9551.0478515625,14454.5244140625,8711.814453125,3942.6484375,23237.86328125,9815.693359375,17193.953125,12033.7802734375,9050.369140625,12474.060546875,11963.8447265625,1991.58984375,10325.1142578125,3280.6396484375,16876.0625,6701.9462890625,7672.31005859375,2272.129150390625,11270.8408203125,4909.03857421875,24165.3125,4150.86767578125,17850.3984375,3719.329833984375,9773.572265625,26835.599609375,21663.5078125,12186.3681640625,-0.0,-43777.625,19725.1640625,4944.00634765625,0.0,7366.33935546875,0.0,0.0
15224.6162109375,14926.5927734375,33367.47265625,11753.2412109375,28592.744140625,6789.3662109375,8443.9912109375,9509.72265625,9107.58984375,6740.09326171875,18080.076171875,-433.1270751953125,8669.6943359375,0.0,23034.4140625,7108.052734375,25242.962890625,20314.05859375,10043.7802734375,11687.2783203125,23508.072265625,29840.46875,22345.384765625,20004.908203125,21550.65625,7180.37255859375,29353.30078125,758.1710815429688,0.0,1230.2398681640625,14390.9453125,7099.310546875,26122.728515625,16815.662109375,15486.0810546875,25074.482421875,9551.8427734375,14461.6767578125,8722.94140625,3949.006591796875,23239.455078125,9825.2294921875,17194.748046875,12041.7275390625,9051.958984375,12479.623046875,11961.4599609375,1994.768798828125,10323.5244140625,3289.3818359375,16874.470703125,6707.50927734375,7671.51513671875,2293.586669921875,11268.4560546875,4924.93310546875,24159.75,4160.404296875,17848.810546875,3726.482421875,9775.9560546875,26838.779296875,21665.095703125,12180.0107421875,-0.0,-43766.5,19724.369140625,4955.1328125,0.0,7371.90234375,0.0,0.0
15231.7685546875,14935.333984375,33380.19140625,11754.0361328125,28600.693359375,6792.54541015625,8451.14453125,9517.669921875,9117.126953125,6752.01416015625,18093.5859375,-411.6694030761719,8676.0517578125,0.0,23043.951171875,7119.9736328125,25250.912109375,20315.646484375,10050.1376953125,11697.6103515625,23516.01953125,29846.826171875,22350.947265625,20011.267578125,21567.34375,7183.5517578125,29361.248046875,766.9130859375,0.0,1246.92919921875,14398.892578125,7107.2578125,26131.470703125,16822.814453125,15494.029296875,25080.044921875,9558.201171875,14470.41796875,8734.0673828125,3960.927490234375,23248.1953125,9826.8193359375,17201.900390625,12049.6748046875,9061.49609375,12488.365234375,11974.970703125,2001.92138671875,10333.85546875,3290.17626953125,16880.830078125,6715.45654296875,7677.078125,2311.865478515625,11279.5830078125,4947.98046875,24167.6953125,4172.3251953125,17859.140625,3736.813720703125,9783.904296875,26846.7265625,21673.837890625,12198.2890625,-0.0,-43749.015625,19728.341796875,4965.46435546875,0.0,7377.4658203125,0.0,0.0
15213.4892578125,14929.771484375,33371.44921875,11743.705078125,28593.541015625,6790.1611328125,8450.3486328125,9514.4912109375,9126.6630859375,6750.4248046875,18083.25390625,-426.7692565917969,8676.0517578125,0.0,23049.513671875,7114.41015625,25243.759765625,20312.466796875,10044.5751953125,11704.7626953125,23507.27734375,29840.46875,22345.384765625,20008.8828125,21564.9609375,7175.6044921875,29363.6328125,762.1447143554688,0.0,1230.2398681640625,14391.740234375,7100.900390625,26125.908203125,16814.8671875,15485.287109375,25076.0703125,9554.2265625,14466.4453125,8719.76171875,3958.543212890625,23238.658203125,9822.05078125,17197.1328125,12046.49609375,9061.49609375,12485.9814453125,11958.28125,2003.5107421875,10325.1142578125,3285.407958984375,16882.419921875,6713.8671875,7660.38916015625,2302.328857421875,11276.404296875,4937.64892578125,24171.671875,4170.73583984375,17866.29296875,3733.635009765625,9774.3671875,26841.958984375,21673.837890625,12218.9521484375,-0.0,-43754.578125,19733.111328125,4959.9013671875,0.0,7368.7236328125,0.0,0.0
15215.8740234375,14931.361328125,33361.1171875,11742.115234375,28589.56640625,6784.59765625,8443.9912109375,9505.7490234375,9115.537109375,6730.556640625,18060.20703125,-429.94818115234375,8676.8466796875,0.0,23040.771484375,7105.66845703125,25236.607421875,20305.314453125,10036.6279296875,11687.2783203125,23500.919921875,29834.90625,22337.4375,20000.935546875,21564.9609375,7166.8623046875,29357.275390625,755.786865234375,0.0,1208.7822265625,14383.79296875,7092.95263671875,26118.755859375,16807.71484375,15478.9287109375,25068.91796875,9545.4853515625,14456.908203125,8703.8681640625,3942.6484375,23233.890625,9814.8984375,17189.98046875,12038.548828125,9051.1640625,12474.8544921875,11936.82421875,1999.5372314453125,10320.345703125,3279.050048828125,16875.267578125,6702.7412109375,7633.3681640625,2288.023681640625,11272.4306640625,4932.08544921875,24159.75,4162.78857421875,17855.962890625,3717.740234375,9764.8310546875,26832.421875,21663.5078125,12195.1103515625,-0.0,-43755.37109375,19718.8046875,4954.337890625,0.0,7350.44482421875,0.0,0.0
15242.89453125,14953.61328125,33373.0390625,11762.7783203125,28598.30859375,6802.08203125,8445.580078125,9516.080078125,9101.2314453125,6728.17236328125,18068.94921875,-417.2325134277344,8680.8203125,0.0,23039.9765625,7112.8212890625,25251.70703125,20312.466796875,10045.369140625,11679.33203125,23514.4296875,29850.80078125,22345.384765625,20012.060546875,21572.11328125,7185.14111328125,29363.6328125,769.2973022460938,0.0,1223.0872802734375,14396.5078125,7108.052734375,26130.67578125,16824.404296875,15488.46484375,25080.83984375,9551.0478515625,14464.060546875,8709.4306640625,3941.05908203125,23245.015625,9832.3818359375,17197.1328125,12051.2646484375,9050.369140625,12480.41796875,11947.1552734375,2011.4581298828125,10329.8828125,3294.150146484375,16874.470703125,6709.8935546875,7646.083984375,2294.38134765625,11279.5830078125,4947.185546875,24166.107421875,4171.5302734375,17846.42578125,3719.329833984375,9785.4931640625,26845.931640625,21664.30078125,12189.5478515625,-0.0,-43745.8359375,19711.65234375,4960.69580078125,0.0,7356.0078125,0.0,0.0
15263.5576171875,14969.5078125,33386.546875,11762.7783203125,28608.640625,6815.59228515625,8452.7333984375,9528.7958984375,9105.205078125,6744.06689453125,18092.791015625,-404.516845703125,8683.9990234375,0.0,23046.3359375,7126.33154296875,25266.8046875,20325.978515625,10056.49609375,11688.0732421875,23527.14453125,29862.72265625,22357.3046875,20023.1875,21575.29296875,7194.677734375,29370.78515625,783.6024169921875,0.0,1237.3924560546875,14409.224609375,7123.947265625,26145.77734375,16837.916015625,15499.591796875,25093.5546875,9561.3798828125,14476.7763671875,8729.298828125,3945.03271484375,23256.9375,9845.892578125,17206.66796875,12065.5703125,9057.521484375,12493.1337890625,11967.0224609375,2017.021240234375,10336.240234375,3308.455322265625,16882.419921875,6721.814453125,7672.31005859375,2300.7392578125,11282.76171875,4951.9541015625,24172.46484375,4185.041015625,17852.783203125,3736.01904296875,9807.74609375,26856.263671875,21673.044921875,12187.1630859375,-0.0,-43737.88671875,19719.6015625,4970.232421875,0.0,7381.439453125,0.0,0.0
15277.8623046875,14972.6865234375,33397.67578125,11776.2880859375,28615.79296875,6823.53955078125,8455.912109375,9535.1533203125,9094.0791015625,6748.04052734375,18120.607421875,-395.77484130859375,8683.205078125,0.0,23043.15625,7137.45751953125,25280.31640625,20342.66796875,10060.4697265625,11680.9208984375,23539.861328125,29874.642578125,22365.251953125,20031.1328125,21582.4453125,7203.419921875,29370.78515625,793.933837890625,0.0,1252.4923095703125,14422.734375,7135.8681640625,26157.697265625,16852.220703125,15509.12890625,25106.271484375,9565.353515625,14483.9287109375,8747.578125,3962.516845703125,23268.064453125,9855.4296875,17211.4375,12076.6953125,9057.521484375,12498.6962890625,11981.328125,2029.73681640625,10343.392578125,3321.1708984375,16881.625,6731.3515625,7691.38330078125,2326.170654296875,11289.1201171875,4959.1064453125,24173.259765625,4199.34619140625,17842.451171875,3745.555908203125,9811.71875,26862.62109375,21675.427734375,12175.2421875,-0.0,-43723.58203125,19718.8046875,4985.33251953125,0.0,7395.744140625,0.0,0.0
15271.5048828125,14976.6611328125,33403.23828125,11788.208984375,28624.53515625,6827.51318359375,8458.296875,9535.1533203125,9098.052734375,6748.04052734375,18130.9375,-395.77484130859375,8685.5888671875,0.0,23044.744140625,7135.8681640625,25286.673828125,20349.025390625,10065.23828125,11680.9208984375,23545.423828125,29880.205078125,22370.01953125,20033.517578125,21586.41796875,7211.3671875,29376.34765625,793.13916015625,0.0,1269.976318359375,14429.88671875,7141.43115234375,26165.64453125,16859.373046875,15515.486328125,25111.041015625,9569.3271484375,14486.3125,8738.041015625,3982.38525390625,23274.421875,9860.9921875,17217.0,12075.9013671875,9061.49609375,12498.6962890625,11985.3017578125,2044.8367919921875,10350.544921875,3326.73388671875,16885.599609375,6732.14599609375,7699.33056640625,2340.475830078125,11294.6826171875,4963.080078125,24175.64453125,4196.9619140625,17844.041015625,3743.96630859375,9810.9248046875,26865.80078125,21680.197265625,12183.189453125,-0.0,-43714.83984375,19723.57421875,4985.33251953125,0.0,7386.20751953125,0.0,0.0
15257.19921875,14978.25,33399.265625,11781.056640625,28626.91796875,6822.74462890625,8462.26953125,9529.5908203125,9105.205078125,6744.86181640625,18121.400390625,-409.28521728515625,8686.3828125,0.0,23049.513671875,7128.71533203125,25281.111328125,20346.640625,10066.0322265625,11684.1005859375,23547.013671875,29878.6171875,22371.611328125,20031.9296875,21586.41796875,7205.80419921875,29383.501953125,786.7813110351562,0.0,1265.2078857421875,14428.2978515625,7133.48388671875,26162.466796875,16856.193359375,15516.28125,25107.861328125,9570.916015625,14484.72265625,8737.24609375,3980.79541015625,23272.83203125,9854.634765625,17221.76953125,12068.748046875,9065.46875,12497.107421875,11985.3017578125,2037.6842041015625,10356.1083984375,3321.965576171875,16890.3671875,6727.37744140625,7696.15185546875,2317.4287109375,11308.193359375,4956.72216796875,24178.82421875,4181.06689453125,17851.98828125,3738.4033203125,9813.30859375,26865.80078125,21680.197265625,12191.931640625,-0.0,-43729.14453125,19723.57421875,4979.76904296875,0.0,7379.85009765625,0.0,0.0
15245.2783203125,14984.607421875,33400.8515625,11780.26171875,28633.275390625,6822.74462890625,8467.0380859375,9532.76953125,9109.9736328125,6750.4248046875,18093.5859375,-414.0535888671875,8684.7939453125,0.0,23052.693359375,7128.71533203125,25285.0859375,20350.615234375,10068.4169921875,11688.8681640625,23550.986328125,29879.412109375,22374.7890625,20033.517578125,21589.59765625,7202.62548828125,29389.0625,785.986572265625,0.0,1254.87646484375,14431.4765625,7130.3046875,26164.849609375,16856.98828125,15522.6396484375,25111.041015625,9573.30078125,14486.3125,8745.98828125,3984.769287109375,23274.421875,9853.0458984375,17227.33203125,12070.337890625,9068.6484375,12498.6962890625,11991.66015625,2032.1209716796875,10357.697265625,3317.991943359375,16894.33984375,6729.76171875,7700.125,2305.507568359375,11312.9619140625,4951.1591796875,24180.412109375,4174.70947265625,17856.755859375,3741.582275390625,9813.30859375,26869.7734375,21682.580078125,12195.1103515625,-0.0,-43736.296875,19724.369140625,4985.33251953125,0.0,7380.64453125,0.0,0.0
15252.4306640625,14994.9384765625,33405.62109375,11785.8251953125,28638.83984375,6832.28173828125,8469.421875,9536.7431640625,9110.7685546875,6749.6298828125,18110.275390625,-398.9537658691406,8682.41015625,0.0,23054.28125,7134.27880859375,25292.23828125,20356.974609375,10071.5947265625,11685.689453125,23557.34375,29886.564453125,22380.3515625,20039.876953125,21591.982421875,7212.95703125,29393.83203125,796.3180541992188,0.0,1264.4132080078125,14437.8349609375,7136.6630859375,26172.001953125,16862.55078125,15528.99609375,25118.193359375,9577.2744140625,14493.4658203125,8759.4990234375,3986.358642578125,23279.986328125,9860.1982421875,17233.689453125,12076.6953125,9071.0322265625,12500.2861328125,11996.4287109375,2044.8367919921875,10348.1611328125,3328.3232421875,16895.13671875,6736.11962890625,7708.86767578125,2313.454833984375,11301.8349609375,4964.669921875,24182.001953125,4186.63037109375,17858.34765625,3739.992919921875,9822.05078125,26876.130859375,21684.96484375,12184.779296875,-0.0,-43721.9921875,19724.369140625,4993.27978515625,0.0,7368.7236328125,0.0,0.0
15269.1201171875,14998.9130859375,33411.1875,11792.1826171875,28642.8125,6837.0498046875,8471.01171875,9543.1015625,9102.8212890625,6749.6298828125,18150.01171875,-390.21173095703125,8692.7412109375,0.0,23054.28125,7142.2255859375,25295.416015625,20364.126953125,10076.36328125,11679.33203125,23562.11328125,29891.33203125,22386.708984375,20045.439453125,21602.3125,7216.1357421875,29394.626953125,805.8547973632812,0.0,1264.4132080078125,14443.3974609375,7139.04736328125,26176.771484375,16864.935546875,15535.3544921875,25123.75390625,9579.658203125,14495.849609375,8761.8828125,3967.28515625,23284.75390625,9866.5556640625,17236.07421875,12080.6689453125,9068.6484375,12501.8759765625,11994.8388671875,2041.65771484375,10348.1611328125,3335.475830078125,16893.544921875,6742.4775390625,7712.04638671875,2314.249755859375,11311.3720703125,4967.0537109375,24185.1796875,4200.140625,17852.783203125,3743.171630859375,9826.8193359375,26882.490234375,21685.7578125,12178.4208984375,-0.0,-43719.609375,19721.189453125,4999.6376953125,0.0,7371.90234375,0.0,0.0
15272.2998046875,15004.4755859375,33408.00390625,11786.6201171875,28630.892578125,6831.4873046875,8467.0380859375,9541.51171875,9098.052734375,6748.8349609375,18157.1640625,-397.3642883300781,8695.1259765625,0.0,23051.896484375,7139.841796875,25294.623046875,20364.919921875,10073.9794921875,11676.15234375,23560.5234375,29887.357421875,22384.32421875,20044.64453125,21593.5703125,7205.80419921875,29387.474609375,799.4969482421875,0.0,1250.108154296875,14443.3974609375,7138.25244140625,26174.38671875,16864.935546875,15532.970703125,25122.166015625,9576.4794921875,14491.8759765625,8761.8828125,3975.232666015625,23280.779296875,9862.58203125,17227.33203125,12077.4912109375,9067.05859375,12500.2861328125,11996.4287109375,2023.3790283203125,10353.724609375,3322.76025390625,16890.3671875,6738.50390625,7715.22509765625,2322.197021484375,11310.5771484375,4954.337890625,24182.001953125,4195.3720703125,17847.21875,3743.171630859375,9822.05078125,26884.875,21682.580078125,12191.13671875,-0.0,-43718.01953125,19718.01171875,4987.716796875,0.0,7374.28662109375,0.0,0.0
15264.3515625,14998.9130859375,33409.59375,11773.109375,28635.66015625,6823.53955078125,8468.6279296875,9532.76953125,9106.794921875,6736.11962890625,18149.216796875,-405.31158447265625,8695.1259765625,0.0,23056.666015625,7123.947265625,25291.443359375,20368.099609375,10070.80078125,11678.5361328125,23560.5234375,29887.357421875,22385.12109375,20041.46484375,21599.927734375,7193.88330078125,29389.0625,788.3707885742188,0.0,1237.3924560546875,14443.3974609375,7132.68896484375,26173.591796875,16860.166015625,15533.7646484375,25118.986328125,9574.890625,14487.90234375,8756.3203125,3982.38525390625,23283.162109375,9852.25,17231.306640625,12067.9541015625,9069.4423828125,12493.927734375,11996.4287109375,2013.0474853515625,10360.876953125,3302.89208984375,16894.33984375,6729.76171875,7705.6884765625,2326.170654296875,11308.9873046875,4940.033203125,24182.001953125,4177.09375,17855.16796875,3730.4560546875,9811.71875,26880.900390625,21680.990234375,12193.5205078125,-0.0,-43724.375,19724.369140625,4961.49072265625,0.0,7359.9814453125,0.0,0.0
15265.1474609375,14991.759765625,33411.1875,11772.3154296875,28645.197265625,6824.33447265625,8475.7802734375,9530.384765625,9115.537109375,6738.50390625,18149.216796875,-406.9010314941406,8698.3037109375,0.0,23063.818359375,7116.79443359375,25293.826171875,20372.072265625,10075.5693359375,11683.3046875,23564.49609375,29884.97265625,22390.68359375,20042.26171875,21606.287109375,7177.98876953125,29399.39453125,783.6024169921875,0.0,1228.650390625,14445.78125,7135.8681640625,26177.564453125,16860.9609375,15537.7392578125,25119.78125,9578.8642578125,14490.287109375,8756.3203125,3987.153564453125,23289.521484375,9852.25,17240.84375,12069.54296875,9073.4169921875,12495.517578125,12002.7861328125,2009.073974609375,10369.6181640625,3302.89208984375,16899.904296875,6728.17236328125,7708.07275390625,2318.22314453125,11311.3720703125,4936.85400390625,24186.76953125,4164.3779296875,17864.705078125,3728.072021484375,9821.255859375,26884.078125,21684.169921875,12194.3154296875,-0.0,-43740.2734375,19729.13671875,4955.92724609375,0.0,7363.955078125,0.0,0.0
15270.7099609375,14978.25,33402.44140625,11765.95703125,28642.01953125,6812.41357421875,8473.396484375,9525.6162109375,9113.9482421875,6738.50390625,18138.08984375,-424.38507080078125,8698.3037109375,0.0,23061.43359375,7108.84716796875,25289.853515625,20364.126953125,10072.390625,11680.9208984375,23558.935546875,29881.0,22385.916015625,20036.697265625,21604.6953125,7186.73095703125,29398.599609375,776.4498291015625,0.0,1229.445068359375,14437.8349609375,7134.27880859375,26172.796875,16855.3984375,15533.7646484375,25113.423828125,9575.6845703125,14484.72265625,8758.7041015625,3988.742919921875,23284.75390625,9845.09765625,17237.6640625,12061.595703125,9071.0322265625,12493.1337890625,11998.017578125,2011.4581298828125,10364.849609375,3301.302734375,16899.109375,6722.60888671875,7714.43017578125,2311.07080078125,11307.3984375,4943.2119140625,24186.76953125,4151.662109375,17860.73046875,3725.687744140625,9819.6669921875,26880.900390625,21680.990234375,12196.7001953125,-0.0,-43753.78515625,19727.548828125,4950.36474609375,0.0,7366.33935546875,0.0,0.0
15277.8623046875,14977.455078125,33402.44140625,11764.3671875,28636.455078125,6804.46630859375,8469.421875,9524.02734375,9106.794921875,6736.11962890625,18119.8125,-418.82196044921875,8693.5361328125,0.0,23058.255859375,7111.2314453125,25288.263671875,20357.767578125,10067.6220703125,11675.357421875,23556.55078125,29877.02734375,22381.146484375,20031.1328125,21596.75,7194.677734375,29393.83203125,775.6550903320312,0.0,1235.802978515625,14433.8603515625,7131.099609375,26172.001953125,16855.3984375,15529.7919921875,25107.861328125,9569.3271484375,14481.544921875,8749.9619140625,3973.642822265625,23280.779296875,9843.5087890625,17233.689453125,12056.033203125,9068.6484375,12489.1591796875,11986.0966796875,2015.431640625,10354.5185546875,3306.071044921875,16895.13671875,6724.19873046875,7711.251953125,2318.22314453125,11291.50390625,4955.92724609375,24184.384765625,4154.04638671875,17855.962890625,3725.687744140625,9813.30859375,26874.54296875,21677.017578125,12198.2890625,-0.0,-43751.3984375,19728.341796875,4955.1328125,0.0,7363.955078125,0.0,0.0
15281.8369140625,14982.2236328125,33407.2109375,11770.7255859375,28638.83984375,6808.43994140625,8470.2177734375,9524.822265625,9105.205078125,6738.50390625,18129.349609375,-410.87469482421875,8684.7939453125,0.0,23056.666015625,7115.99951171875,25289.853515625,20360.150390625,10066.8271484375,11672.9736328125,23558.140625,29880.205078125,22382.736328125,20031.9296875,21598.33984375,7194.677734375,29399.39453125,777.2445678710938,0.0,1235.802978515625,14437.0390625,7133.48388671875,26172.001953125,16858.578125,15528.99609375,25109.44921875,9569.3271484375,14483.9287109375,8746.783203125,3971.258544921875,23283.162109375,9846.6875,17236.07421875,12056.8271484375,9067.8525390625,12490.7490234375,11980.533203125,2024.9683837890625,10354.5185546875,3307.660400390625,16896.724609375,6727.37744140625,7712.04638671875,2327.760009765625,11295.4775390625,4952.74853515625,24168.4921875,4161.99365234375,17855.16796875,3727.277099609375,9817.2822265625,26874.54296875,21675.427734375,12196.7001953125,-0.0,-43739.48046875,19731.521484375,4958.3115234375,0.0,7365.544921875,0.0,0.0
15284.220703125,14995.734375,33411.1875,11773.109375,28649.96484375,6811.61865234375,8482.138671875,9529.5908203125,9107.58984375,6745.65625,18139.681640625,-404.516845703125,8678.4365234375,0.0,23063.025390625,7122.35791015625,25297.80078125,20365.71484375,10072.390625,11679.33203125,23564.49609375,29884.97265625,22388.30078125,20035.90234375,21605.4921875,7197.85693359375,29418.46875,780.4234619140625,0.0,1235.802978515625,14442.603515625,7139.04736328125,26179.94921875,16864.140625,15533.7646484375,25115.80859375,9578.068359375,14487.90234375,8751.5517578125,3978.4111328125,23291.90625,9849.0712890625,17247.19921875,12061.595703125,9075.005859375,12497.107421875,11986.0966796875,2028.942138671875,10364.849609375,3302.89208984375,16908.646484375,6731.3515625,7717.609375,2333.3232421875,11312.1669921875,4944.00634765625,24161.337890625,4170.73583984375,17862.3203125,3734.4296875,9824.435546875,26880.900390625,21681.78515625,12202.2626953125,-0.0,-43725.17578125,19737.0859375,4965.46435546875,0.0,7375.8759765625,0.0,0.0
15283.42578125,15001.296875,33422.30859375,11779.4677734375,28665.06640625,6816.38720703125,8497.23828125,9536.7431640625,9112.3583984375,6750.4248046875,18137.296875,-390.21173095703125,8690.357421875,0.0,23071.765625,7131.099609375,25303.36328125,20370.484375,10080.337890625,11684.89453125,23571.650390625,29891.33203125,22395.453125,20040.669921875,21615.029296875,7197.06201171875,29440.720703125,789.16552734375,0.0,1242.1607666015625,14445.78125,7141.43115234375,26187.1015625,16869.703125,15541.712890625,25119.78125,9589.1953125,14492.6708984375,8755.5244140625,3981.59033203125,23303.03125,9856.2236328125,17261.505859375,12067.1591796875,9085.337890625,12505.0546875,12001.9912109375,2028.942138671875,10377.56640625,3306.071044921875,16928.513671875,6737.708984375,7712.8408203125,2338.88623046875,11319.3193359375,4953.54296875,24184.384765625,4181.06689453125,17871.060546875,3739.197998046875,9827.6142578125,26887.2578125,21690.52734375,12203.8525390625,-0.0,-43713.25390625,19738.673828125,4968.64306640625,0.0,7375.08154296875,0.0,0.0
15273.09375,14995.734375,33423.10546875,11779.4677734375,28661.88671875,6814.0029296875,8485.3173828125,9531.1806640625,9103.6162109375,6744.06689453125,18130.14453125,-399.74847412109375,8683.9990234375,0.0,23070.177734375,7125.53662109375,25299.390625,20359.357421875,10074.7744140625,11678.5361328125,23568.47265625,29890.537109375,22388.30078125,20036.697265625,21615.029296875,7196.267578125,29429.59375,785.1918334960938,0.0,1245.3397216796875,14443.3974609375,7137.45751953125,26184.716796875,16868.91015625,15536.9443359375,25116.6015625,9579.658203125,14490.287109375,8747.578125,3976.82177734375,23301.443359375,9855.4296875,17255.1484375,12063.185546875,9075.80078125,12500.2861328125,12006.759765625,2032.915771484375,10363.2607421875,3302.097412109375,16911.029296875,6732.9404296875,7697.7412109375,2333.3232421875,11299.451171875,4951.1591796875,24198.689453125,4173.91455078125,17866.29296875,3731.250732421875,9826.0244140625,26880.900390625,21686.5546875,12193.5205078125,-0.0,-43718.01953125,19734.701171875,4963.080078125,0.0,7364.75,0.0,0.0
15251.63671875,14979.044921875,33392.90625,11765.162109375,28622.9453125,6801.287109375,8459.0908203125,9517.669921875,9084.5419921875,6731.3515625,18103.91796875,-409.28521728515625,8685.5888671875,0.0,23055.076171875,7111.2314453125,25281.111328125,20333.92578125,10056.49609375,11660.2578125,23543.0390625,29876.232421875,22360.482421875,20021.59765625,21580.060546875,7185.93603515625,29377.142578125,771.6814575195312,0.0,1235.802978515625,14423.529296875,7118.3837890625,26159.287109375,16852.220703125,15510.71875,25102.296875,9558.201171875,14474.3916015625,8730.09375,3960.132568359375,23263.296875,9841.9189453125,17222.5625,12048.880859375,9055.931640625,12487.5703125,11958.28125,2017.021240234375,10325.1142578125,3289.3818359375,16882.419921875,6720.22509765625,7674.69384765625,2306.30224609375,11290.7099609375,4944.00634765625,24193.12890625,4158.02001953125,17848.810546875,3720.12451171875,9811.71875,26861.033203125,21669.865234375,12176.037109375,-0.0,-43719.609375,19727.548828125,4944.00634765625,0.0,7350.44482421875,0.0,0.0
15250.841796875,14973.4814453125,33399.265625,11765.162109375,28619.765625,6804.46630859375,8451.14453125,9517.669921875,9082.158203125,6732.9404296875,18130.14453125,-410.87469482421875,8709.4306640625,0.0,23054.28125,7111.2314453125,25282.701171875,20332.3359375,10054.111328125,11659.462890625,23543.0390625,29877.02734375,22356.509765625,20021.59765625,21592.775390625,7189.90966796875,29371.580078125,773.2709350585938,0.0,1240.5714111328125,14423.529296875,7119.1787109375,26162.466796875,16853.80859375,15508.333984375,25104.681640625,9553.4326171875,14474.3916015625,8734.8623046875,3956.95361328125,23268.064453125,9849.0712890625,17212.232421875,12051.2646484375,9051.958984375,12485.1865234375,11968.6123046875,2010.663330078125,10348.9560546875,3294.150146484375,16875.267578125,6721.01953125,7695.35693359375,2296.765625,11301.8349609375,4946.390625,24199.486328125,4157.22509765625,17845.630859375,3723.303466796875,9805.361328125,26859.44140625,21668.275390625,12177.626953125,-0.0,-43727.55859375,19729.13671875,4947.98046875,0.0,7352.8291015625,0.0,0.0
15260.37890625,14975.0712890625,33403.23828125,11775.4931640625,28629.302734375,6817.9765625,8458.296875,9523.232421875,9089.310546875,6739.29833984375,18131.732421875,-412.4641418457031,8700.6884765625,0.0,23059.845703125,7117.58935546875,25289.853515625,20341.873046875,10058.8798828125,11664.2314453125,23550.986328125,29885.76953125,22363.662109375,20027.955078125,21603.90234375,7206.5986328125,29385.08984375,782.012939453125,0.0,1235.802978515625,14432.271484375,7124.7421875,26168.82421875,16863.345703125,15515.486328125,25112.62890625,9557.40625,14480.75,8749.9619140625,3966.490234375,23275.216796875,9865.7607421875,17218.58984375,12060.8017578125,9057.521484375,12492.3388671875,11982.123046875,2012.2528076171875,10353.724609375,3306.86572265625,16880.830078125,6727.37744140625,7692.97265625,2311.07080078125,11299.451171875,4946.390625,24196.306640625,4160.404296875,17851.98828125,3728.86669921875,9814.103515625,26864.2109375,21673.837890625,12183.189453125,-0.0,-43728.3515625,19733.111328125,4950.36474609375,0.0,7363.16064453125,0.0,0.0
15266.736328125,14973.4814453125,33404.03515625,11769.9306640625,28632.482421875,6814.7978515625,8458.296875,9521.6435546875,9089.310546875,6732.9404296875,18128.552734375,-401.33795166015625,8689.5625,0.0,23057.4609375,7109.64208984375,25292.23828125,20345.052734375,10058.8798828125,11659.462890625,23552.576171875,29885.76953125,22365.251953125,20027.16015625,21614.232421875,7198.65185546875,29383.501953125,778.8340454101562,0.0,1225.471435546875,14432.271484375,7127.1259765625,26170.412109375,16864.140625,15516.28125,25110.244140625,9558.201171875,14477.5703125,8745.98828125,3971.258544921875,23279.189453125,9857.8134765625,17220.974609375,12057.6220703125,9059.111328125,12489.1591796875,11988.48046875,2011.4581298828125,10348.9560546875,3304.4814453125,16883.21484375,6725.7880859375,7690.58837890625,2323.786376953125,11298.65625,4946.390625,24185.9765625,4156.4306640625,17851.1953125,3722.5087890625,9821.255859375,26861.826171875,21673.044921875,12178.4208984375,-0.0,-43722.7890625,19733.90625,4940.033203125,0.0,7346.47119140625,0.0,0.0
15267.53125,14978.25,33408.80078125,11771.51953125,28638.044921875,6814.7978515625,8465.44921875,9524.02734375,9095.6689453125,6731.3515625,18130.14453125,-391.0064697265625,8682.41015625,0.0,23060.640625,7103.2841796875,25297.005859375,20347.4375,10063.6484375,11663.4365234375,23557.34375,29889.7421875,22369.2265625,20030.33984375,21618.20703125,7197.85693359375,29389.857421875,782.8076782226562,0.0,1227.855712890625,14437.0390625,7126.33154296875,26174.38671875,16864.935546875,15520.2548828125,25112.62890625,9561.3798828125,14482.3388671875,8734.0673828125,3972.053466796875,23283.958984375,9854.634765625,17227.33203125,12060.8017578125,9064.6748046875,12489.955078125,11991.66015625,2019.4053955078125,10352.134765625,3306.86572265625,16889.572265625,6726.5830078125,7698.5361328125,2319.812744140625,11305.0146484375,4954.337890625,24187.564453125,4158.81494140625,17859.140625,3717.740234375,9822.845703125,26867.390625,21677.017578125,12183.9833984375,-0.0,-43714.046875,19739.46875,4945.59619140625,0.0,7341.703125,0.0,0.0
15268.326171875,14988.58203125,33411.1875,11780.26171875,28641.224609375,6826.71875,8471.01171875,9530.384765625,9099.642578125,6736.11962890625,18135.705078125,-397.3642883300781,8687.1787109375,0.0,23064.61328125,7108.84716796875,25301.775390625,20351.41015625,10069.2109375,11666.615234375,23560.5234375,29900.07421875,22373.19921875,20037.4921875,21599.134765625,7208.98291015625,29399.39453125,789.960205078125,0.0,1235.802978515625,14444.1923828125,7130.3046875,26179.15625,16872.8828125,15525.818359375,25121.37109375,9566.1474609375,14487.107421875,8745.98828125,3978.4111328125,23284.75390625,9868.939453125,17233.689453125,12068.748046875,9071.0322265625,12495.517578125,11990.865234375,2022.584228515625,10349.7509765625,3317.197021484375,16895.13671875,6730.556640625,7704.8935546875,2311.865478515625,11304.2197265625,4954.337890625,24191.537109375,4162.78857421875,17862.3203125,3722.5087890625,9823.6396484375,26875.337890625,21680.990234375,12186.3681640625,-0.0,-43713.25390625,19737.87890625,4950.36474609375,0.0,7347.265625,0.0,0.0
15271.5048828125,14995.734375,33412.7734375,11781.8515625,28643.607421875,6834.666015625,8474.986328125,9535.94921875,9104.4111328125,6744.06689453125,18138.08984375,-401.33795166015625,8686.3828125,0.0,23067.79296875,7119.9736328125,25304.953125,20358.5625,10073.9794921875,11672.9736328125,23563.703125,29903.25390625,22377.171875,20043.0546875,21594.365234375,7215.34130859375,29405.751953125,794.7285766601562,0.0,1241.3660888671875,14449.755859375,7135.0732421875,26181.5390625,16876.85546875,15528.2021484375,25126.138671875,9571.7119140625,14494.259765625,8753.140625,3980.0009765625,23286.341796875,9872.119140625,17236.8671875,12074.3115234375,9075.80078125,12501.8759765625,11988.48046875,2027.3525390625,10349.7509765625,3320.376220703125,16900.697265625,6734.52978515625,7704.09912109375,2319.01806640625,11296.2724609375,4953.54296875,24193.12890625,4168.3515625,17863.115234375,3728.86669921875,9823.6396484375,26879.310546875,21686.5546875,12195.1103515625,-0.0,-43711.6640625,19739.46875,4960.69580078125,0.0,7358.39208984375,0.0,0.0
15273.888671875,14995.734375,33415.953125,11782.646484375,28649.96484375,6832.28173828125,8478.1650390625,9539.921875,9106.794921875,6745.65625,18141.26953125,-397.3642883300781,8692.7412109375,0.0,23070.970703125,7120.76806640625,25306.54296875,20368.099609375,10077.953125,11674.5634765625,23568.47265625,29900.869140625,22381.146484375,20046.234375,21608.671875,7208.1884765625,29404.958984375,797.11279296875,0.0,1240.5714111328125,14452.1396484375,7135.0732421875,26185.51171875,16878.447265625,15532.970703125,25128.5234375,9574.095703125,14499.0283203125,8751.5517578125,3972.848388671875,23293.49609375,9867.3505859375,17242.431640625,12075.9013671875,9078.185546875,12505.0546875,11989.2763671875,2023.3790283203125,10354.5185546875,3316.40234375,16904.671875,6739.29833984375,7699.33056640625,2334.117919921875,11294.6826171875,4958.3115234375,24193.921875,4172.3251953125,17867.8828125,3733.635009765625,9820.4609375,26881.6953125,21691.322265625,12199.87890625,-0.0,-43711.6640625,19743.443359375,4956.72216796875,0.0,7359.9814453125,0.0,0.0
15265.94140625,14996.5283203125,33419.92578125,11789.00390625,28658.708984375,6833.87158203125,8480.548828125,9542.3056640625,9108.3837890625,6744.06689453125,18149.216796875,-386.23809814453125,8701.4833984375,0.0,23072.560546875,7120.76806640625,25310.515625,20368.099609375,10081.927734375,11674.5634765625,23574.828125,29908.814453125,22385.12109375,20048.619140625,21624.564453125,7205.80419921875,29404.1640625,801.08642578125,0.0,1248.5185546875,14455.318359375,7138.25244140625,26191.076171875,16881.625,15538.533203125,25133.291015625,9578.068359375,14502.2080078125,8752.345703125,3972.053466796875,23302.236328125,9869.734375,17246.404296875,12079.080078125,9081.36328125,12507.4384765625,11990.0703125,2029.73681640625,10365.6455078125,3315.607666015625,16906.26171875,6740.88818359375,7704.09912109375,2343.654541015625,11303.4248046875,4963.080078125,24197.896484375,4173.1201171875,17868.677734375,3733.635009765625,9826.0244140625,26887.2578125,21693.70703125,12194.3154296875,-0.0,-43707.6875,19741.853515625,4950.36474609375,0.0,7354.41845703125,0.0,0.0
15264.3515625,14993.349609375,33416.75,11793.7724609375,28653.14453125,6838.6396484375,8482.138671875,9543.1015625,9106.794921875,6743.2724609375,18137.296875,-393.3906555175781,8701.4833984375,0.0,23074.150390625,7118.3837890625,25312.900390625,20362.53515625,10081.1318359375,11672.9736328125,23571.650390625,29911.19921875,22384.32421875,20049.4140625,21611.849609375,7215.34130859375,29406.546875,798.7022705078125,0.0,1237.3924560546875,14453.728515625,7135.8681640625,26188.69140625,16883.21484375,15536.9443359375,25133.291015625,9576.4794921875,14502.2080078125,8753.140625,3972.848388671875,23295.083984375,9876.8876953125,17246.404296875,12079.080078125,9080.5693359375,12506.64453125,11986.8916015625,2036.8892822265625,10364.0556640625,3317.991943359375,16905.466796875,6739.29833984375,7708.07275390625,2338.88623046875,11304.2197265625,4963.080078125,24198.689453125,4169.14599609375,17867.087890625,3731.250732421875,9825.2294921875,26887.2578125,21692.912109375,12194.3154296875,-0.0,-43716.4296875,19741.853515625,4947.185546875,0.0,7353.6240234375,0.0,0.0
15263.5576171875,14978.25,33415.15625,11787.4140625,28650.759765625,6837.0498046875,8482.9326171875,9543.1015625,9105.205078125,6742.4775390625,18118.22265625,-410.87469482421875,8706.251953125,0.0,23074.150390625,7114.41015625,25305.748046875,20359.357421875,10081.1318359375,11671.3837890625,23566.880859375,29906.431640625,22383.53125,20050.20703125,21615.82421875,7219.314453125,29409.7265625,796.3180541992188,0.0,1221.4979248046875,14450.5498046875,7131.89453125,26183.923828125,16876.85546875,15532.17578125,25130.11328125,9576.4794921875,14502.2080078125,8758.7041015625,3976.027099609375,23291.90625,9876.8876953125,17245.611328125,12079.080078125,9081.36328125,12507.4384765625,11982.91796875,2028.1474609375,10367.234375,3315.607666015625,16906.26171875,6739.29833984375,7695.35693359375,2315.839111328125,11310.5771484375,4969.43798828125,24197.896484375,4161.99365234375,17866.29296875,3729.6611328125,9816.4873046875,26886.462890625,21691.322265625,12200.6728515625,-0.0,-43725.96875,19743.443359375,4945.59619140625,0.0,7356.0078125,0.0,0.0
15281.041015625,14985.40234375,33423.90234375,11777.8779296875,28649.171875,6840.22900390625,8484.5224609375,9549.458984375,9105.205078125,6746.45068359375,18118.22265625,-387.0328369140625,8697.509765625,0.0,23074.9453125,7121.56298828125,25309.720703125,20362.53515625,10085.10546875,11671.3837890625,23570.060546875,29907.2265625,22385.916015625,20054.181640625,21619.001953125,7208.1884765625,29407.34375,803.4705810546875,0.0,1233.4188232421875,14452.1396484375,7135.0732421875,26189.486328125,16878.447265625,15535.3544921875,25134.8828125,9577.2744140625,14506.1806640625,8772.2138671875,3983.1796875,23296.673828125,9874.5029296875,17246.404296875,12083.0537109375,9082.158203125,12513.0009765625,11999.607421875,2023.3790283203125,10356.9033203125,3318.78662109375,16904.671875,6748.04052734375,7723.1728515625,2318.22314453125,11299.451171875,4971.822265625,24196.306640625,4169.94091796875,17865.5,3733.635009765625,9821.255859375,26890.435546875,21694.501953125,12200.6728515625,-0.0,-43708.484375,19745.826171875,4955.1328125,0.0,7356.80224609375,0.0,0.0
15280.2470703125,14996.5283203125,33430.2578125,11766.7509765625,28651.556640625,6847.3818359375,8488.49609375,9555.81640625,9109.9736328125,6752.01416015625,18119.017578125,-380.67498779296875,8691.947265625,0.0,23076.53515625,7131.89453125,25313.6953125,20367.3046875,10090.6689453125,11674.5634765625,23573.240234375,29914.37890625,22389.888671875,20062.12890625,21619.001953125,7209.77783203125,29407.34375,814.5968017578125,0.0,1235.802978515625,14452.9345703125,7135.0732421875,26194.25390625,16883.21484375,15537.7392578125,25142.828125,9584.4267578125,14514.12890625,8761.087890625,3973.642822265625,23299.05859375,9880.06640625,17248.7890625,12091.7958984375,9086.1318359375,12519.359375,12015.501953125,2012.2528076171875,10348.9560546875,3327.52880859375,16907.849609375,6756.78271484375,7735.88818359375,2326.170654296875,11302.630859375,4970.232421875,24197.1015625,4184.24609375,17871.060546875,3739.992919921875,9826.8193359375,26898.384765625,21700.859375,12201.46875,-0.0,-43694.1796875,19749.005859375,4961.49072265625,0.0,7353.6240234375,0.0,0.0
15258.7890625,14997.3232421875,33416.75,11772.3154296875,28654.734375,6848.970703125,8490.8798828125,9559.791015625,9113.15234375,6753.603515625,18131.732421875,-379.8802795410156,8692.7412109375,0.0,23080.5078125,7136.6630859375,25310.515625,20367.3046875,10095.4375,11676.15234375,23570.85546875,29912.791015625,22392.2734375,20065.30859375,21613.439453125,7214.54638671875,29412.904296875,821.7493896484375,0.0,1251.697509765625,14452.9345703125,7130.3046875,26185.51171875,16881.625,15537.7392578125,25143.623046875,9588.400390625,14519.69140625,8748.3720703125,3970.464111328125,23292.69921875,9880.06640625,17251.96875,12095.7685546875,9091.6953125,12523.333984375,11978.943359375,2012.2528076171875,10355.3134765625,3331.502197265625,16911.82421875,6761.55078125,7668.33642578125,2330.93896484375,11301.8349609375,4969.43798828125,24199.486328125,4189.80908203125,17875.037109375,3744.76123046875,9826.8193359375,26899.97265625,21704.83203125,12203.8525390625,-0.0,-43691.796875,19752.18359375,4963.875,0.0,7357.59716796875,0.0,0.0
15254.8154296875,14988.58203125,33404.03515625,11773.109375,28648.376953125,6841.02392578125,8493.2646484375,9558.201171875,9115.537109375,6755.193359375,18138.08984375,-393.3906555175781,8692.7412109375,0.0,23082.890625,7136.6630859375,25302.568359375,20366.509765625,10096.232421875,11680.1259765625,23562.908203125,29906.431640625,22389.888671875,20064.51171875,21603.90234375,7211.3671875,29414.49609375,816.9810180664062,0.0,1238.1871337890625,14447.37109375,7119.1787109375,26177.564453125,16875.267578125,15533.7646484375,25138.85546875,9586.8115234375,14518.1015625,8705.45703125,3981.59033203125,23285.546875,9874.5029296875,17251.173828125,12093.384765625,9094.0791015625,12523.333984375,11959.076171875,2020.994873046875,10354.5185546875,3325.14453125,16914.208984375,6759.16650390625,7664.3623046875,2322.99169921875,11301.041015625,4956.72216796875,24201.869140625,4185.041015625,17875.830078125,3747.1455078125,9812.5146484375,26899.1796875,21707.216796875,12211.7998046875,-0.0,-43704.5078125,19755.36328125,4969.43798828125,0.0,7364.75,0.0,0.0
15270.7099609375,14979.8388671875,33411.1875,11779.4677734375,28654.734375,6837.8447265625,8497.23828125,9560.5849609375,9121.1005859375,6759.96142578125,18129.349609375,-409.28521728515625,8699.099609375,0.0,23086.8671875,7137.45751953125,25303.36328125,20370.484375,10099.4111328125,11684.1005859375,23566.880859375,29907.2265625,22395.453125,20066.103515625,21607.080078125,7213.75146484375,29419.263671875,812.212646484375,0.0,1219.9083251953125,14450.5498046875,7119.1787109375,26181.5390625,16877.650390625,15537.7392578125,25142.03515625,9589.1953125,14519.69140625,8708.63671875,3980.0009765625,23291.90625,9875.2978515625,17257.53125,12091.0009765625,9096.462890625,12525.7177734375,11971.791015625,2033.71044921875,10361.671875,3324.349609375,16917.38671875,6759.16650390625,7687.40966796875,2317.4287109375,11309.783203125,4952.74853515625,24204.25390625,4177.09375,17879.8046875,3749.529541015625,9804.56640625,26902.357421875,21711.19140625,12218.158203125,-0.0,-43715.63671875,19756.953125,4969.43798828125,0.0,7368.7236328125,0.0,0.0
15273.09375,14971.0966796875,33411.98046875,11769.9306640625,28657.1171875,6831.4873046875,8497.23828125,9558.9951171875,9123.484375,6761.55078125,18128.552734375,-410.0799560546875,8703.072265625,0.0,23088.455078125,7137.45751953125,25300.98046875,20365.71484375,10100.205078125,11684.89453125,23567.67578125,29898.484375,22393.861328125,20061.333984375,21610.259765625,7203.419921875,29424.03125,809.03369140625,0.0,1231.829345703125,14444.9873046875,7116.79443359375,26179.15625,16871.294921875,15536.9443359375,25138.060546875,9589.9892578125,14517.3076171875,8712.609375,3966.490234375,23291.90625,9856.2236328125,17258.326171875,12087.822265625,9098.052734375,12527.306640625,11971.791015625,2027.3525390625,10360.876953125,3319.581298828125,16917.38671875,6758.3720703125,7685.8203125,2309.4814453125,11308.193359375,4955.1328125,24203.458984375,4173.91455078125,17882.189453125,3746.3505859375,9801.3876953125,26900.767578125,21711.19140625,12222.130859375,-0.0,-43718.01953125,19750.595703125,4961.49072265625,0.0,7372.697265625,0.0,0.0
15271.5048828125,14971.0966796875,33418.33984375,11770.7255859375,28662.681640625,6837.8447265625,8507.5693359375,9566.943359375,9138.583984375,6771.087890625,18129.349609375,-401.33795166015625,8706.251953125,0.0,23097.197265625,7146.994140625,25304.953125,20368.89453125,10109.7421875,11696.8154296875,23572.4453125,29904.046875,22401.810546875,20067.69140625,21609.46484375,7202.62548828125,29433.568359375,817.7757568359375,0.0,1235.00830078125,14448.9599609375,7119.1787109375,26183.12890625,16873.677734375,15544.0966796875,25143.623046875,9597.9375,14526.84375,8711.0205078125,3966.490234375,23295.87890625,9859.40234375,17267.068359375,12095.7685546875,9110.7685546875,12536.84375,11978.1494140625,2024.1737060546875,10356.1083984375,3325.939208984375,16926.923828125,6767.90869140625,7680.25732421875,2308.6865234375,11297.8623046875,4959.1064453125,24213.791015625,4181.06689453125,17892.51953125,3756.68212890625,9808.5400390625,26909.509765625,21720.728515625,12241.2041015625,-0.0,-43711.6640625,19762.515625,4967.0537109375,0.0,7379.85009765625,0.0,0.0
15269.916015625,14976.6611328125,33411.1875,11773.904296875,28661.88671875,6842.61328125,8512.337890625,9571.7119140625,9156.0673828125,6778.240234375,18116.6328125,-403.7221374511719,8703.8681640625,0.0,23103.556640625,7147.7890625,25303.36328125,20372.8671875,10114.5107421875,11711.12109375,23571.650390625,29906.431640625,22404.98828125,20073.255859375,21611.0546875,7207.3935546875,29435.158203125,818.5704345703125,0.0,1225.471435546875,14450.5498046875,7117.58935546875,26182.33203125,16873.677734375,15545.685546875,25145.212890625,9601.1162109375,14530.818359375,8713.404296875,3960.927490234375,23294.291015625,9865.7607421875,17271.041015625,12098.1533203125,9117.9208984375,12540.8173828125,11972.5869140625,2019.4053955078125,10353.724609375,3326.73388671875,16934.076171875,6770.29296875,7668.33642578125,2307.891845703125,11301.8349609375,4949.56982421875,24217.763671875,4182.65673828125,17903.646484375,3763.834716796875,9812.5146484375,26911.099609375,21728.673828125,12261.0732421875,-0.0,-43711.6640625,19777.6171875,4975.0009765625,0.0,7385.41259765625,0.0,0.0
15261.1728515625,14979.044921875,33404.03515625,11768.3408203125,28651.556640625,6838.6396484375,8503.5966796875,9563.763671875,9151.2998046875,6773.4716796875,18107.095703125,-410.0799560546875,8694.3310546875,0.0,23097.9921875,7139.841796875,25297.005859375,20365.71484375,10104.9736328125,11703.9677734375,23566.880859375,29900.869140625,22397.8359375,20066.103515625,21616.6171875,7208.1884765625,29421.6484375,815.3915405273438,0.0,1219.9083251953125,14445.78125,7109.64208984375,26177.564453125,16866.525390625,15537.7392578125,25139.650390625,9592.3740234375,14524.4599609375,8709.4306640625,3949.006591796875,23289.521484375,9865.7607421875,17258.326171875,12091.7958984375,9111.5634765625,12534.458984375,11961.4599609375,2013.84228515625,10355.3134765625,3322.76025390625,16926.923828125,6764.72998046875,7677.078125,2311.07080078125,11304.2197265625,4952.74853515625,24209.818359375,4177.88818359375,17899.671875,3759.861083984375,9802.1826171875,26903.947265625,21720.728515625,12253.9208984375,-0.0,-43717.22265625,19780.794921875,4974.20654296875,0.0,7383.8232421875,0.0,0.0
15257.19921875,14986.9921875,33408.80078125,11765.95703125,28657.1171875,6840.22900390625,8505.185546875,9566.1474609375,9145.736328125,6774.2666015625,18113.455078125,-400.543212890625,8699.099609375,0.0,23099.580078125,7146.19970703125,25300.18359375,20367.3046875,10108.1533203125,11697.6103515625,23568.47265625,29904.841796875,22401.810546875,20067.69140625,21619.796875,7207.3935546875,29426.416015625,818.5704345703125,0.0,1228.650390625,14447.37109375,7111.2314453125,26182.33203125,16872.087890625,15540.9169921875,25141.23828125,9595.5537109375,14525.25390625,8718.1728515625,3951.390625,23294.291015625,9869.734375,17261.505859375,12094.1796875,9112.3583984375,12536.048828125,11957.486328125,2005.1002197265625,10360.876953125,3321.965576171875,16927.71875,6769.49853515625,7687.40966796875,2324.5810546875,11307.3984375,4960.69580078125,24213.791015625,4181.86181640625,17896.494140625,3763.834716796875,9804.56640625,26907.125,21720.728515625,12242.0,-0.0,-43702.91796875,19776.8203125,4983.7431640625,0.0,7394.15478515625,0.0,0.0
15253.2265625,14998.9130859375,33415.15625,11769.1357421875,28665.06640625,6846.5869140625,8512.337890625,9572.505859375,9152.8896484375,6779.82958984375,18133.322265625,-395.77484130859375,8705.45703125,0.0,23105.14453125,7155.736328125,25308.1328125,20376.83984375,10114.5107421875,11702.3779296875,23577.212890625,29910.40625,22408.962890625,20074.048828125,21623.76953125,7210.57275390625,29434.36328125,825.7230224609375,0.0,1242.1607666015625,14455.318359375,7118.3837890625,26190.28125,16881.625,15548.0703125,25147.595703125,9601.1162109375,14531.6123046875,8732.478515625,3953.77490234375,23300.6484375,9875.2978515625,17270.24609375,12099.7431640625,9117.9208984375,12541.611328125,11972.5869140625,2014.636962890625,10366.439453125,3325.14453125,16934.076171875,6777.4453125,7690.58837890625,2326.170654296875,11309.783203125,4972.61669921875,24216.970703125,4192.193359375,17902.056640625,3769.397705078125,9812.5146484375,26912.689453125,21727.0859375,12250.7412109375,-0.0,-43691.796875,19776.025390625,4992.48486328125,0.0,7395.744140625,0.0,0.0
15267.53125,15001.296875,33411.98046875,11769.1357421875,28666.654296875,6845.79248046875,8510.7490234375,9570.916015625,9146.53125,6775.85595703125,18122.1953125,-387.8275451660156,8704.662109375,0.0,23101.171875,7158.9150390625,25309.720703125,20383.9921875,10111.33203125,11697.6103515625,23576.41796875,29915.96875,22409.7578125,20072.4609375,21623.76953125,7195.47265625,29431.978515625,828.107177734375,0.0,1240.5714111328125,14458.4970703125,7119.9736328125,26189.486328125,16882.419921875,15549.66015625,25150.775390625,9600.3212890625,14531.6123046875,8732.478515625,3956.95361328125,23299.05859375,9876.8876953125,17268.658203125,12101.3330078125,9116.33203125,12537.638671875,11967.0224609375,2017.021240234375,10366.439453125,3315.607666015625,16930.8984375,6778.240234375,7689.7939453125,2302.328857421875,11304.2197265625,4973.41162109375,24215.37890625,4198.55126953125,17895.69921875,3768.60302734375,9819.6669921875,26911.89453125,21726.2890625,12248.3564453125,-0.0,-43686.23046875,19771.2578125,4995.6640625,0.0,7390.97607421875,0.0,0.0
15285.8095703125,15004.4755859375,33415.15625,11775.4931640625,28673.806640625,6852.94482421875,8513.927734375,9576.4794921875,9142.5576171875,6778.240234375,18124.580078125,-376.70135498046875,8707.046875,0.0,23101.96484375,7166.8623046875,25316.080078125,20389.556640625,10115.3056640625,11696.8154296875,23581.982421875,29919.943359375,22413.73046875,20078.81640625,21630.12890625,7208.1884765625,29436.74609375,837.6439208984375,0.0,1235.00830078125,14464.85546875,7123.947265625,26196.638671875,16887.1875,15553.6337890625,25155.544921875,9603.5,14534.791015625,8736.451171875,3972.848388671875,23303.828125,9880.06640625,17275.015625,12107.689453125,9117.9208984375,12542.4072265625,11971.791015625,2020.2000732421875,10372.0029296875,3333.091796875,16934.076171875,6785.392578125,7702.50927734375,2295.17626953125,11305.0146484375,4980.56396484375,24217.763671875,4209.67724609375,17895.69921875,3774.166015625,9818.87109375,26919.046875,21728.673828125,12247.5625,-0.0,-43673.515625,19772.84765625,5002.02197265625,0.0,7392.5654296875,0.0,0.0
15287.3994140625,15002.88671875,33418.33984375,11782.646484375,28677.78125,6857.71337890625,8516.3115234375,9578.8642578125,9141.7626953125,6778.240234375,18117.427734375,-376.70135498046875,8707.8408203125,0.0,23105.939453125,7167.6572265625,25321.642578125,20390.3515625,10116.89453125,11698.4052734375,23586.75,29927.888671875,22416.91015625,20082.79296875,21633.306640625,7221.69873046875,29443.10546875,840.8228759765625,0.0,1238.1871337890625,14468.0341796875,7127.1259765625,26201.40625,16891.16015625,15558.40234375,25161.90234375,9605.884765625,14538.7646484375,8736.451171875,3975.232666015625,23308.595703125,9882.4501953125,17278.990234375,12111.6640625,9120.3046875,12546.3798828125,11967.0224609375,2023.3790283203125,10375.1826171875,3341.0390625,16937.255859375,6790.1611328125,7706.4833984375,2304.712890625,11305.80859375,4978.1796875,24219.35546875,4216.03515625,17898.08203125,3772.57666015625,9820.4609375,26923.021484375,21730.265625,12249.15234375,-0.0,-43671.92578125,19775.232421875,5000.4326171875,0.0,7390.18115234375,0.0,0.0
15302.4990234375,15014.8076171875,33435.02734375,11792.9775390625,28687.318359375,6866.455078125,8528.232421875,9586.8115234375,9149.7109375,6784.59765625,18138.884765625,-368.7540588378906,8714.9931640625,0.0,23113.091796875,7174.01513671875,25335.947265625,20398.298828125,10127.2265625,11707.9423828125,23598.671875,29939.015625,22427.240234375,20092.328125,21636.486328125,7236.00390625,29458.205078125,845.5912475585938,0.0,1265.2078857421875,14480.75,7142.2255859375,26214.91796875,16905.466796875,15568.7333984375,25174.6171875,9615.4208984375,14547.5068359375,8747.578125,3985.563720703125,23320.515625,9895.1650390625,17291.705078125,12117.2265625,9128.2529296875,12553.5322265625,11980.533203125,2038.4788818359375,10379.1552734375,3350.57568359375,16948.380859375,6796.51904296875,7719.99365234375,2331.733642578125,11316.140625,4985.33251953125,24219.35546875,4220.8037109375,17906.82421875,3778.139892578125,9837.9453125,26934.146484375,21738.2109375,12258.6884765625,-0.0,-43663.18359375,19780.0,5006.7900390625,0.0,7395.744140625,0.0,0.0
15312.8310546875,15022.7548828125,33444.56640625,11796.1572265625,28693.67578125,6868.83935546875,8536.974609375,9586.8115234375,9154.4794921875,6786.98193359375,18155.57421875,-360.0120544433594,8712.609375,0.0,23117.06640625,7171.630859375,25340.71484375,20403.06640625,10131.2001953125,11711.12109375,23601.849609375,29944.578125,22430.419921875,20093.91796875,21630.12890625,7243.15625,29472.509765625,844.0017700195312,0.0,1271.5657958984375,14486.3125,7146.994140625,26219.685546875,16911.029296875,15571.912109375,25176.20703125,9619.3955078125,14549.095703125,8748.3720703125,3972.848388671875,23322.10546875,9901.5234375,17298.857421875,12116.4326171875,9134.6103515625,12554.328125,12001.197265625,2038.4788818359375,10375.1826171875,3355.343994140625,16955.533203125,6797.3134765625,7722.3779296875,2342.065185546875,11323.29296875,4983.7431640625,24220.1484375,4216.03515625,17913.18359375,3778.9345703125,9848.27734375,26936.53125,21740.595703125,12265.841796875,-0.0,-43655.234375,19780.0,5012.353515625,0.0,7398.12841796875,0.0,0.0
15321.572265625,15020.3701171875,33446.15234375,11806.48828125,28695.265625,6874.40234375,8544.1279296875,9589.9892578125,9166.400390625,6791.75048828125,18160.34375,-370.3435363769531,8707.046875,0.0,23123.421875,7172.42578125,25343.89453125,20409.42578125,10134.37890625,11717.478515625,23603.439453125,29950.142578125,22433.599609375,20097.09765625,21631.716796875,7247.9248046875,29471.716796875,844.7965087890625,0.0,1246.1343994140625,14488.697265625,7146.994140625,26222.0703125,16913.4140625,15574.2958984375,25179.38671875,9624.1640625,14553.0703125,8749.1669921875,3967.28515625,23323.693359375,9907.0859375,17306.009765625,12118.021484375,9141.7626953125,12556.7119140625,12007.5537109375,2032.1209716796875,10376.7705078125,3357.728271484375,16962.6875,6802.08203125,7731.11962890625,2333.3232421875,11320.1142578125,4981.35888671875,24228.095703125,4212.0615234375,17920.3359375,3783.702880859375,9853.83984375,26939.7109375,21746.953125,12270.609375,-0.0,-43663.18359375,19783.177734375,5017.916015625,0.0,7400.5126953125,0.0,0.0
15304.0888671875,15011.6279296875,33438.20703125,11800.9248046875,28687.318359375,6863.27587890625,8536.1796875,9586.0166015625,9163.220703125,6788.57177734375,18143.654296875,-370.3435363769531,8718.9677734375,0.0,23120.244140625,7172.42578125,25337.537109375,20403.06640625,10128.021484375,11710.326171875,23598.671875,29939.015625,22427.240234375,20090.73828125,21634.896484375,7232.0302734375,29454.23046875,840.8228759765625,0.0,1246.1343994140625,14478.3662109375,7139.04736328125,26214.91796875,16907.056640625,15566.3486328125,25171.4375,9616.2158203125,14545.91796875,8749.1669921875,3982.38525390625,23317.337890625,9892.78125,17297.267578125,12112.4580078125,9136.994140625,12553.5322265625,11995.6328125,2028.1474609375,10383.923828125,3346.602294921875,16956.330078125,6798.1083984375,7722.3779296875,2334.91259765625,11316.935546875,4980.56396484375,24232.068359375,4208.087890625,17917.15625,3781.318603515625,9845.892578125,26931.76171875,21743.7734375,12257.099609375,-0.0,-43674.30859375,19783.177734375,5016.3271484375,0.0,7399.7177734375,0.0,0.0
15306.47265625,15018.7802734375,33430.2578125,11803.3095703125,28684.935546875,6857.71337890625,8525.0537109375,9581.248046875,9155.2734375,6782.2138671875,18104.7109375,-367.16461181640625,8744.3994140625,0.0,23119.44921875,7167.6572265625,25336.7421875,20394.326171875,10121.6630859375,11699.994140625,23594.697265625,29938.220703125,22419.294921875,20085.17578125,21648.40625,7228.056640625,29463.767578125,840.0281372070312,0.0,1254.081787109375,14475.9814453125,7140.63623046875,26212.533203125,16903.876953125,15561.5810546875,25167.46484375,9609.0634765625,14539.5595703125,8769.830078125,3998.279541015625,23315.748046875,9889.6025390625,17286.935546875,12110.07421875,9128.2529296875,12547.9697265625,11987.6865234375,2033.71044921875,10407.765625,3341.0390625,16945.203125,6792.54541015625,7711.251953125,2346.83349609375,11319.3193359375,4982.9482421875,24243.197265625,4208.087890625,17910.00390625,3775.755615234375,9849.8662109375,26925.40625,21733.44140625,12245.177734375,-0.0,-43665.5703125,19779.205078125,5005.20068359375,0.0,7396.5390625,0.0,0.0
15316.009765625,15040.23828125,33446.15234375,11811.2568359375,28698.4453125,6869.63427734375,8528.232421875,9584.4267578125,9145.736328125,6781.41943359375,18140.474609375,-350.4753112792969,8750.755859375,0.0,23117.861328125,7170.04150390625,25348.6640625,20400.681640625,10125.63671875,11692.841796875,23606.619140625,29948.552734375,22427.240234375,20092.328125,21673.837890625,7237.59326171875,29473.3046875,847.1806640625,0.0,1269.181640625,14487.90234375,7150.17333984375,26224.455078125,16915.001953125,15572.70703125,25175.4140625,9613.037109375,14543.533203125,8765.8564453125,4009.405517578125,23334.025390625,9903.908203125,17295.6796875,12119.6103515625,9129.0478515625,12550.353515625,11996.4287109375,2045.63134765625,10415.712890625,3352.165283203125,16947.587890625,6794.9296875,7722.3779296875,2368.291259765625,11337.59765625,4997.25341796875,24241.60546875,4214.44580078125,17902.056640625,3778.139892578125,9862.58203125,26933.3515625,21732.6484375,12231.66796875,-0.0,-43644.90625,19773.640625,5009.96923828125,0.0,7398.92333984375,0.0,0.0
15307.267578125,15046.5966796875,33455.6875,11810.4619140625,28691.291015625,6872.81298828125,8523.4638671875,9586.0166015625,9141.7626953125,6779.82958984375,18178.62109375,-345.7069396972656,8742.8095703125,0.0,23113.091796875,7172.42578125,25347.8671875,20399.888671875,10122.4580078125,11689.6630859375,23604.234375,29950.142578125,22424.0625,20091.533203125,21660.328125,7246.33544921875,29450.2578125,848.7701416015625,0.0,1269.181640625,14487.107421875,7147.7890625,26224.455078125,16919.771484375,15568.7333984375,25177.001953125,9609.8583984375,14544.328125,8749.1669921875,4013.379638671875,23330.052734375,9907.0859375,17286.935546875,12119.6103515625,9125.0732421875,12549.5595703125,11994.8388671875,2054.37353515625,10392.666015625,3354.54931640625,16941.228515625,6795.724609375,7721.5830078125,2378.622802734375,11317.7294921875,5006.7900390625,24235.248046875,4212.0615234375,17897.287109375,3778.9345703125,9861.787109375,26933.3515625,21732.6484375,12235.6416015625,-0.0,-43648.87890625,19772.84765625,5014.73779296875,0.0,7397.33349609375,0.0,0.0
15297.73046875,15034.67578125,33460.45703125,11811.2568359375,28699.240234375,6872.81298828125,8529.822265625,9586.0166015625,9148.12109375,6779.03515625,18184.185546875,-353.65423583984375,8753.140625,0.0,23121.0390625,7170.8359375,25347.07421875,20405.451171875,10124.046875,11692.046875,23607.412109375,29950.142578125,22426.447265625,20090.73828125,21666.685546875,7240.7724609375,29462.97265625,849.5648803710938,0.0,1254.081787109375,14487.107421875,7142.2255859375,26226.04296875,16918.978515625,15570.3232421875,25177.796875,9610.6533203125,14545.91796875,8766.6513671875,4006.22705078125,23334.822265625,9907.8818359375,17292.5,12118.81640625,9129.841796875,12551.1484375,12007.5537109375,2049.605224609375,10407.765625,3350.57568359375,16948.380859375,6794.9296875,7716.02001953125,2354.781005859375,11335.2138671875,5001.22705078125,24243.990234375,4210.47216796875,17907.619140625,3772.57666015625,9853.0458984375,26934.94140625,21734.23828125,12238.025390625,-0.0,-43656.82421875,19780.0,5005.9951171875,0.0,7388.591796875,0.0,0.0
15287.3994140625,15008.44921875,33448.53515625,11796.951171875,28692.880859375,6865.66015625,8524.2587890625,9582.04296875,9144.9423828125,6775.06103515625,18169.880859375,-360.0120544433594,8740.4248046875,0.0,23117.861328125,7167.6572265625,25339.126953125,20396.708984375,10117.6904296875,11691.2529296875,23599.466796875,29942.193359375,22421.677734375,20085.17578125,21656.35546875,7226.46728515625,29460.587890625,843.20703125,0.0,1240.5714111328125,14479.955078125,7130.3046875,26219.685546875,16909.44140625,15563.96484375,25171.4375,9605.08984375,14541.1494140625,8770.625,3974.437744140625,23328.462890625,9899.1396484375,17285.34765625,12113.25390625,9125.0732421875,12546.3798828125,12016.296875,2032.1209716796875,10396.6396484375,3343.423095703125,16944.408203125,6790.1611328125,7712.8408203125,2311.07080078125,11343.1611328125,4985.33251953125,24236.837890625,4206.49853515625,17906.82421875,3766.218994140625,9834.7666015625,26927.7890625,21729.46875,12238.8203125,-0.0,-43661.59375,19782.384765625,5002.02197265625,0.0,7380.64453125,0.0,0.0
15292.9619140625,15004.4755859375,33449.33203125,11796.1572265625,28686.5234375,6869.63427734375,8521.080078125,9582.8369140625,9142.5576171875,6776.65087890625,18178.62109375,-363.19097900390625,8732.478515625,0.0,23115.4765625,7169.24658203125,25342.306640625,20395.12109375,10118.484375,11689.6630859375,23601.0546875,29942.990234375,22420.8828125,20085.970703125,21646.0234375,7234.41455078125,29448.66796875,845.5912475585938,0.0,1242.1607666015625,14483.9287109375,7136.6630859375,26222.0703125,16910.234375,15563.96484375,25172.234375,9602.7060546875,14541.943359375,8757.1142578125,3983.1796875,23328.462890625,9902.318359375,17280.578125,12115.6376953125,9120.3046875,12547.17578125,12019.474609375,2030.5316162109375,10378.3603515625,3348.19140625,16939.640625,6794.134765625,7718.404296875,2314.249755859375,11350.314453125,4982.1533203125,24235.248046875,4211.26708984375,17902.056640625,3769.397705078125,9833.9716796875,26926.994140625,21729.46875,12243.5888671875,-0.0,-43656.82421875,19780.0,5009.17431640625,0.0,7382.23388671875,0.0,0.0
15311.2412109375,15032.291015625,33460.45703125,11807.2822265625,28692.880859375,6878.3759765625,8524.2587890625,9588.400390625,9143.3525390625,6777.4453125,18180.212890625,-346.5016784667969,8730.888671875,0.0,23117.861328125,7175.6044921875,25351.84375,20403.06640625,10124.046875,11688.8681640625,23610.591796875,29950.9375,22428.03515625,20095.505859375,21658.73828125,7246.33544921875,29455.02734375,851.154296875,0.0,1264.4132080078125,14492.6708984375,7149.37841796875,26231.607421875,16918.978515625,15571.1171875,25179.38671875,9605.884765625,14545.91796875,8747.578125,3990.33203125,23334.822265625,9907.8818359375,17286.935546875,12118.81640625,9123.484375,12551.1484375,12015.501953125,2028.1474609375,10384.71875,3360.112548828125,16943.61328125,6801.287109375,7729.5302734375,2343.654541015625,11343.9560546875,4994.07421875,24243.197265625,4220.8037109375,17900.466796875,3777.344970703125,9853.83984375,26934.146484375,21732.6484375,12245.177734375,-0.0,-43637.75390625,19776.8203125,5007.5849609375,0.0,7382.23388671875,0.0,0.0
15311.2412109375,15043.41796875,33466.0234375,11817.6142578125,28691.291015625,6871.2236328125,8523.4638671875,9584.4267578125,9148.12109375,6773.4716796875,18202.462890625,-353.65423583984375,8731.6826171875,0.0,23120.244140625,7168.45166015625,25355.81640625,20405.451171875,10122.4580078125,11688.0732421875,23612.181640625,29953.322265625,22424.85546875,20093.91796875,21664.30078125,7249.51416015625,29458.205078125,851.154296875,0.0,1270.77099609375,14493.4658203125,7150.96826171875,26234.78515625,16920.56640625,15570.3232421875,25178.58984375,9605.08984375,14545.123046875,8753.140625,4000.663818359375,23330.84765625,9904.7021484375,17288.52734375,12115.6376953125,9122.689453125,12547.9697265625,12024.2431640625,2027.3525390625,10387.8974609375,3360.9072265625,16945.998046875,6796.51904296875,7739.86181640625,2353.986083984375,11351.9033203125,5002.81689453125,24243.197265625,4216.03515625,17906.03125,3769.397705078125,9849.8662109375,26932.55859375,21728.673828125,12238.8203125,-0.0,-43641.7265625,19778.41015625,4990.8955078125,0.0,7374.28662109375,0.0,0.0
15313.625,15043.41796875,33463.63671875,11823.9716796875,28694.470703125,6868.04443359375,8526.642578125,9589.1953125,9152.8896484375,6779.82958984375,18188.158203125,-350.4753112792969,8735.65625,0.0,23123.421875,7167.6572265625,25356.611328125,20409.42578125,10123.2529296875,11695.2255859375,23612.9765625,29953.322265625,22427.240234375,20096.302734375,21657.1484375,7244.74560546875,29463.767578125,851.9490356445312,0.0,1257.2606201171875,14495.0556640625,7150.96826171875,26233.9921875,16922.951171875,15575.091796875,25181.76953125,9609.0634765625,14549.095703125,8770.625,4011.789794921875,23332.4375,9906.2919921875,17290.115234375,12118.021484375,9126.6630859375,12551.943359375,12014.70703125,2034.505126953125,10390.28125,3356.138916015625,16949.177734375,6798.1083984375,7735.09375,2353.986083984375,11349.5185546875,5000.4326171875,24243.197265625,4215.240234375,17912.388671875,3769.397705078125,9843.5087890625,26937.326171875,21733.44140625,12248.3564453125,-0.0,-43637.75390625,19780.0,4988.51171875,0.0,7382.23388671875,0.0,0.0
15327.1357421875,15048.98046875,33469.19921875,11827.9453125,28706.392578125,6878.3759765625,8534.5908203125,9597.9375,9152.8896484375,6789.3662109375,18191.337890625,-338.55438232421875,8741.2197265625,0.0,23125.806640625,7179.578125,25366.1484375,20422.140625,10131.9951171875,11701.583984375,23624.1015625,29962.0625,22435.1875,20107.427734375,21669.865234375,7251.8984375,29476.484375,861.4857788085938,0.0,1263.618408203125,14503.796875,7157.32568359375,26242.732421875,16930.8984375,15583.8330078125,25194.486328125,9617.0107421875,14559.427734375,8762.6767578125,4016.55810546875,23343.5625,9915.0341796875,17298.857421875,12128.353515625,9132.2255859375,12563.0693359375,12017.8857421875,2054.37353515625,10395.0498046875,3363.29150390625,16957.91796875,6808.43994140625,7749.39892578125,2369.0859375,11355.876953125,5016.3271484375,24233.66015625,4223.982421875,17915.568359375,3778.9345703125,9860.9921875,26949.248046875,21742.185546875,12262.662109375,-0.0,-43630.6015625,19781.58984375,5000.4326171875,0.0,7391.77099609375,0.0,0.0
15347.798828125,15055.3388671875,33491.453125,11836.6884765625,28722.287109375,6888.70751953125,8547.3056640625,9609.8583984375,9149.7109375,6798.1083984375,18215.974609375,-331.4018249511719,8749.1669921875,0.0,23132.166015625,7194.677734375,25378.86328125,20436.4453125,10144.7109375,11703.9677734375,23640.791015625,29974.779296875,22447.904296875,20119.34765625,21694.501953125,7262.22998046875,29490.7890625,874.2014770507812,0.0,1284.2813720703125,14518.1015625,7167.6572265625,26260.216796875,16943.61328125,15600.5224609375,25206.408203125,9628.931640625,14570.5537109375,8776.982421875,4021.32666015625,23363.431640625,9921.3916015625,17314.751953125,12138.6845703125,9136.994140625,12572.6064453125,12041.7275390625,2072.652099609375,10410.1494140625,3372.828125,16971.4296875,6821.15576171875,7765.29296875,2373.0595703125,11376.5400390625,5026.65869140625,24236.837890625,4237.4931640625,17915.568359375,3794.0341796875,9880.8603515625,26962.7578125,21750.927734375,12262.662109375,-0.0,-43627.421875,19780.794921875,5017.12158203125,0.0,7397.33349609375,0.0,0.0
15350.9775390625,15057.72265625,33492.25,11839.072265625,28724.669921875,6887.91259765625,8549.6904296875,9609.8583984375,9139.37890625,6797.3134765625,18219.15234375,-329.01763916015625,8753.935546875,0.0,23128.19140625,7187.525390625,25378.86328125,20434.85546875,10143.916015625,11698.4052734375,23642.380859375,29974.779296875,22450.2890625,20120.14453125,21701.654296875,7259.05078125,29485.2265625,872.6119995117188,0.0,1281.897216796875,14519.69140625,7165.27294921875,26261.01171875,16944.408203125,15602.111328125,25204.81640625,9627.341796875,14570.5537109375,8787.314453125,4018.14794921875,23367.404296875,9922.9814453125,17317.9296875,12138.6845703125,9133.8154296875,12571.017578125,12036.9599609375,2071.062744140625,10414.91796875,3372.033447265625,16970.634765625,6817.9765625,7762.9091796875,2372.264892578125,11375.7451171875,5015.5322265625,24248.7578125,4231.134765625,17907.619140625,3797.21337890625,9880.06640625,26961.9609375,21749.337890625,12257.099609375,-0.0,-43628.21484375,19772.052734375,5013.94287109375,0.0,7398.92333984375,0.0,0.0
15348.59375,15058.517578125,33481.12109375,11839.8662109375,28723.875,6890.296875,8537.76953125,9609.0634765625,9136.994140625,6798.90283203125,18200.875,-333.7860107421875,8769.03515625,0.0,23125.013671875,7180.37255859375,25375.685546875,20429.29296875,10139.9423828125,11701.583984375,23637.61328125,29973.984375,22443.9296875,20116.96484375,21694.501953125,7261.43505859375,29483.63671875,871.0225219726562,0.0,1275.5394287109375,14516.5126953125,7158.12060546875,26256.2421875,16940.435546875,15598.93359375,25202.43359375,9622.57421875,14568.169921875,8782.5458984375,4018.14794921875,23360.251953125,9926.955078125,17311.572265625,12139.4794921875,9129.841796875,12570.2216796875,12023.44921875,2068.6787109375,10420.4814453125,3372.828125,16951.560546875,6816.38720703125,7753.3720703125,2379.41748046875,11369.3876953125,5009.17431640625,24266.2421875,4220.8037109375,17903.646484375,3793.239501953125,9875.2978515625,26957.98828125,21748.54296875,12265.0458984375,-0.0,-43632.19140625,19773.640625,5021.89013671875,0.0,7410.04931640625,0.0,0.0
15340.6455078125,15059.3115234375,33477.9453125,11835.0986328125,28720.697265625,6890.296875,8532.2060546875,9607.474609375,9138.583984375,6798.1083984375,18196.900390625,-339.34912109375,8769.830078125,0.0,23127.3984375,7182.7568359375,25373.30078125,20428.5,10139.9423828125,11699.19921875,23636.0234375,29970.8046875,22440.751953125,20114.580078125,21683.375,7261.43505859375,29486.814453125,869.43310546875,0.0,1273.949951171875,14513.3330078125,7156.53076171875,26253.859375,16938.05078125,15593.369140625,25199.255859375,9617.8056640625,14568.96484375,8785.724609375,4015.763671875,23355.484375,9923.775390625,17307.599609375,12137.095703125,9129.0478515625,12569.427734375,12022.654296875,2062.32080078125,10418.8916015625,3376.007080078125,16948.380859375,6815.59228515625,7754.96142578125,2380.212158203125,11367.00390625,5014.73779296875,24267.83203125,4220.8037109375,17903.646484375,3791.650146484375,9869.734375,26953.220703125,21745.36328125,12263.45703125,-0.0,-43632.984375,19774.4375,5025.06884765625,0.0,7411.638671875,0.0,0.0
15339.8515625,15060.107421875,33481.12109375,11833.5087890625,28721.490234375,6887.11767578125,8536.1796875,9608.2685546875,9146.53125,6798.90283203125,18198.490234375,-338.55438232421875,8757.1142578125,0.0,23127.3984375,7181.96240234375,25374.09375,20430.8828125,10140.736328125,11700.7890625,23636.818359375,29969.21484375,22443.9296875,20112.9921875,21688.9375,7254.28271484375,29485.2265625,868.6383666992188,0.0,1274.74462890625,14513.3330078125,7154.94140625,26254.654296875,16938.84375,15595.75390625,25198.458984375,9620.189453125,14568.169921875,8785.724609375,4012.584716796875,23358.6640625,9919.802734375,17310.77734375,12135.505859375,9133.8154296875,12569.427734375,12028.2177734375,2061.526123046875,10417.3017578125,3370.444091796875,16953.9453125,6816.38720703125,7765.29296875,2381.801513671875,11368.591796875,5013.94287109375,24257.501953125,4218.41943359375,17907.619140625,3791.650146484375,9871.3232421875,26954.015625,21749.337890625,12264.251953125,-0.0,-43629.0078125,19776.8203125,5021.09521484375,0.0,7406.87060546875,0.0,0.0
15340.6455078125,15061.6962890625,33479.53125,11832.7138671875,28723.08203125,6887.11767578125,8536.1796875,9605.08984375,9142.5576171875,6790.9560546875,18198.490234375,-337.7596435546875,8756.3203125,0.0,23125.806640625,7176.3994140625,25374.888671875,20427.703125,10137.5576171875,11694.431640625,23638.40625,29970.8046875,22443.13671875,20111.40234375,21700.064453125,7255.8720703125,29475.689453125,866.254150390625,0.0,1284.2813720703125,14513.3330078125,7151.7626953125,26253.859375,16939.640625,15598.1376953125,25197.6640625,9618.599609375,14565.78515625,8778.572265625,4015.763671875,23362.63671875,9922.9814453125,17311.572265625,12132.3271484375,9132.2255859375,12567.04296875,12029.806640625,2066.29443359375,10418.09765625,3367.264892578125,16952.35546875,6810.82373046875,7766.88232421875,2381.801513671875,11360.6455078125,5019.505859375,24256.70703125,4219.2138671875,17907.619140625,3783.702880859375,9877.681640625,26953.220703125,21746.158203125,12248.3564453125,-0.0,-43631.39453125,19775.232421875,5007.5849609375,0.0,7393.3603515625,0.0,0.0
15336.6728515625,15060.107421875,33478.73828125,11834.3037109375,28724.669921875,6885.5283203125,8535.384765625,9600.3212890625,9131.431640625,6782.2138671875,18194.517578125,-344.9122009277344,8759.4990234375,0.0,23122.62890625,7174.81005859375,25373.30078125,20422.140625,10135.173828125,11683.3046875,23638.40625,29969.21484375,22443.9296875,20109.017578125,21700.859375,7255.8720703125,29479.662109375,864.6647338867188,0.0,1285.870849609375,14513.3330078125,7148.583984375,26253.064453125,16935.66796875,15598.1376953125,25196.076171875,9617.0107421875,14563.4013671875,8770.625,4014.96875,23361.841796875,9922.1865234375,17310.77734375,12129.943359375,9128.2529296875,12561.48046875,12024.2431640625,2059.141845703125,10418.09765625,3366.47021484375,16951.560546875,6806.0556640625,7753.3720703125,2376.238525390625,11359.0556640625,5018.7109375,24257.501953125,4218.41943359375,17901.26171875,3777.344970703125,9876.8876953125,26951.630859375,21742.185546875,12229.283203125,-0.0,-43630.6015625,19767.28515625,5005.9951171875,0.0,7383.0283203125,0.0,0.0
15319.9833984375,15045.8017578125,33473.17578125,11823.9716796875,28724.669921875,6880.76025390625,8535.384765625,9598.732421875,9126.6630859375,6777.4453125,18183.390625,-342.52801513671875,8757.1142578125,0.0,23124.21875,7174.01513671875,25366.1484375,20417.37109375,10133.583984375,11679.33203125,23633.638671875,29963.65234375,22440.751953125,20107.427734375,21688.9375,7251.10400390625,29482.841796875,861.4857788085938,0.0,1268.3868408203125,14506.1806640625,7140.63623046875,26247.501953125,16928.513671875,15594.1650390625,25190.51171875,9615.4208984375,14558.6328125,8761.087890625,4001.458740234375,23355.484375,9915.0341796875,17312.369140625,12127.55859375,9125.0732421875,12556.7119140625,12020.2705078125,2024.9683837890625,10416.5078125,3364.880859375,16949.97265625,6803.67138671875,7730.3251953125,2366.701904296875,11353.4931640625,5017.12158203125,24255.91015625,4216.03515625,17899.671875,3772.57666015625,9868.14453125,26948.451171875,21738.2109375,12223.720703125,-0.0,-43625.0390625,19761.720703125,5002.81689453125,0.0,7374.28662109375,0.0,0.0
15327.1357421875,15052.1591796875,33484.296875,11834.3037109375,28738.1796875,6893.47607421875,8551.2802734375,9610.6533203125,9146.53125,6788.57177734375,18199.28515625,-331.4018249511719,8760.29296875,0.0,23137.728515625,7186.73095703125,25375.685546875,20436.4453125,10148.6845703125,11696.021484375,23643.970703125,29978.751953125,22454.26171875,20119.34765625,21693.70703125,7262.22998046875,29496.3515625,875.7908935546875,0.0,1277.923583984375,14518.8974609375,7150.96826171875,26257.833984375,16942.0234375,15606.8798828125,25204.0234375,9628.13671875,14572.1435546875,8773.8037109375,4012.584716796875,23367.404296875,9926.16015625,17327.466796875,12139.4794921875,9139.37890625,12571.017578125,12032.9853515625,2045.63134765625,10423.66015625,3377.5966796875,16964.27734375,6819.56640625,7736.68310546875,2375.443603515625,11372.56640625,5027.453125,24262.26953125,4230.34033203125,17917.951171875,3782.908203125,9876.8876953125,26961.9609375,21754.107421875,12242.0,-0.0,-43621.0625,19775.232421875,5010.763671875,0.0,7373.49169921875,0.0,0.0
15338.26171875,15059.3115234375,33493.04296875,11850.9931640625,28746.923828125,6906.986328125,8563.9951171875,9621.779296875,9164.015625,6800.49267578125,18211.20703125,-317.0967102050781,8765.8564453125,0.0,23149.6484375,7194.677734375,25384.42578125,20445.189453125,10160.60546875,11711.9150390625,23651.123046875,29988.2890625,22464.59375,20129.6796875,21702.447265625,7269.38232421875,29510.65625,886.1223754882812,0.0,1278.7183837890625,14528.43359375,7157.32568359375,26267.37109375,16953.150390625,15616.4169921875,25215.1484375,9640.8525390625,14582.474609375,8790.4931640625,4016.55810546875,23375.353515625,9936.4921875,17340.18359375,12149.810546875,9154.4794921875,12582.9384765625,12031.3955078125,2067.089111328125,10427.6337890625,3387.13330078125,16979.375,6831.4873046875,7750.98779296875,2367.49658203125,11378.12890625,5033.01611328125,24269.421875,4243.8505859375,17933.845703125,3790.85546875,9879.271484375,26972.29296875,21766.02734375,12263.45703125,-0.0,-43606.7578125,19786.357421875,5018.7109375,0.0,7376.6708984375,0.0,0.0
15327.9306640625,15053.7490234375,33491.453125,11852.58203125,28746.12890625,6908.57568359375,8565.5849609375,9624.9580078125,9164.810546875,6805.26123046875,18201.669921875,-323.45452880859375,8766.6513671875,0.0,23152.828125,7196.267578125,25382.837890625,20442.009765625,10161.3994140625,11713.5048828125,23649.53515625,29988.2890625,22464.59375,20131.26953125,21705.626953125,7272.5615234375,29513.041015625,888.506591796875,0.0,1281.1025390625,14526.84375,7153.35205078125,26264.986328125,16950.765625,15615.6220703125,25215.1484375,9642.44140625,14584.064453125,8791.287109375,4011.789794921875,23372.96875,9939.6708984375,17340.18359375,12150.60546875,9157.6572265625,12586.9111328125,12003.5810546875,2071.857421875,10426.044921875,3390.312255859375,16982.5546875,6835.46044921875,7748.60400390625,2365.906982421875,11374.9501953125,5029.8369140625,24270.216796875,4248.619140625,17936.23046875,3798.008056640625,9868.939453125,26972.29296875,21768.412109375,12265.841796875,-0.0,-43598.8125,19784.76953125,5027.453125,0.0,7387.796875,0.0,0.0
15333.4931640625,15060.107421875,33494.6328125,11847.8134765625,28740.564453125,6910.9599609375,8563.9951171875,9623.3681640625,9152.0947265625,6805.26123046875,18202.462890625,-334.58074951171875,8767.4453125,0.0,23151.240234375,7197.06201171875,25385.220703125,20442.8046875,10159.810546875,11705.5576171875,23648.73828125,29992.26171875,22461.4140625,20131.26953125,21711.984375,7275.740234375,29505.888671875,889.30126953125,0.0,1290.6392822265625,14529.228515625,7154.94140625,26266.57421875,16952.35546875,15611.6484375,25216.73828125,9640.8525390625,14585.654296875,8793.671875,4017.35302734375,23374.556640625,9940.46484375,17333.826171875,12152.9892578125,9152.0947265625,12589.294921875,12000.4013671875,2063.115478515625,10434.787109375,3389.517578125,16980.171875,6835.46044921875,7762.9091796875,2370.67529296875,11371.771484375,5029.04248046875,24268.626953125,4247.02978515625,17930.666015625,3799.597412109375,9871.3232421875,26973.08984375,21766.8203125,12251.5361328125,-0.0,-43601.98828125,19779.205078125,5027.453125,0.0,7392.5654296875,0.0,0.0
15346.2099609375,15073.6171875,33491.453125,11858.9404296875,28742.154296875,6915.72802734375,8563.201171875,9624.1640625,9146.53125,6805.26123046875,18193.72265625,-344.11749267578125,8761.8828125,0.0,23144.0859375,7194.677734375,25387.60546875,20445.982421875,10160.60546875,11701.583984375,23651.123046875,29996.236328125,22463.798828125,20132.859375,21711.984375,7274.94580078125,29501.119140625,889.30126953125,0.0,1293.818115234375,14531.6123046875,7160.5048828125,26266.57421875,16959.509765625,15613.23828125,25219.91796875,9640.8525390625,14588.8330078125,8786.51953125,4025.300537109375,23375.353515625,9944.4384765625,17332.234375,12154.5791015625,9149.7109375,12587.70703125,12000.4013671875,2067.089111328125,10436.3759765625,3387.13330078125,16975.40234375,6836.25537109375,7752.5771484375,2391.33837890625,11363.029296875,5027.453125,24260.6796875,4239.08251953125,17921.923828125,3801.186767578125,9881.6552734375,26974.677734375,21768.412109375,12244.3837890625,-0.0,-43614.703125,19775.232421875,5021.09521484375,0.0,7398.12841796875,0.0,0.0
15345.4140625,15069.6435546875,33484.296875,11848.609375,28739.771484375,6901.4228515625,8560.81640625,9617.0107421875,9148.12109375,6803.67138671875,18193.72265625,-337.7596435546875,8760.29296875,0.0,23144.0859375,7185.93603515625,25382.837890625,20438.03515625,10156.6318359375,11703.173828125,23646.35546875,29988.2890625,22459.029296875,20125.70703125,21711.19140625,7240.7724609375,29498.736328125,878.1751098632812,0.0,1282.69189453125,14527.638671875,7155.736328125,26261.01171875,16952.35546875,15610.05859375,25211.17578125,9637.673828125,14583.2705078125,8776.982421875,4014.96875,23370.583984375,9935.6962890625,17332.234375,12144.248046875,9148.9150390625,12582.142578125,12004.375,2041.65771484375,10436.3759765625,3373.622802734375,16974.607421875,6826.71875,7737.4775390625,2389.748779296875,11363.029296875,5021.89013671875,24262.26953125,4223.18798828125,17921.12890625,3795.623779296875,9877.681640625,26968.3203125,21765.232421875,12258.6884765625,-0.0,-43625.83203125,19775.232421875,5004.40576171875,0.0,7396.5390625,0.0,0.0
15350.9775390625,15072.0283203125,33494.6328125,11844.634765625,28742.94921875,6904.60205078125,8563.201171875,9618.599609375,9152.8896484375,6804.46630859375,18214.384765625,-349.6805725097656,8757.1142578125,0.0,23146.470703125,7186.73095703125,25388.3984375,20442.8046875,10160.60546875,11704.7626953125,23650.328125,29991.46875,22463.00390625,20128.884765625,21707.216796875,7258.25634765625,29505.888671875,878.1751098632812,0.0,1243.750244140625,14530.0224609375,7161.29931640625,26268.1640625,16955.533203125,15613.23828125,25214.353515625,9640.8525390625,14585.654296875,8788.1083984375,4010.995361328125,23372.96875,9946.0283203125,17335.4140625,12146.6318359375,9152.8896484375,12582.9384765625,12034.5751953125,2032.915771484375,10435.5810546875,3383.15966796875,16977.787109375,6829.8974609375,7778.0087890625,2371.47021484375,11380.513671875,5021.09521484375,24271.01171875,4224.77734375,17925.103515625,3796.41845703125,9880.8603515625,26972.29296875,21769.205078125,12265.0458984375,-0.0,-43629.8046875,19779.205078125,5009.17431640625,0.0,7395.744140625,0.0,0.0
15354.951171875,15077.5908203125,33506.5546875,11857.3505859375,28751.69140625,6905.39697265625,8571.9423828125,9624.1640625,9167.1943359375,6810.029296875,18201.669921875,-346.5016784667969,8765.0615234375,0.0,23152.828125,7192.29345703125,25398.73046875,20452.341796875,10167.7578125,11716.68359375,23659.0703125,29997.029296875,22470.15625,20135.244140625,21715.1640625,7269.38232421875,29522.578125,884.532958984375,0.0,1271.5657958984375,14537.1748046875,7170.04150390625,26280.083984375,16965.0703125,15621.185546875,25219.91796875,9648.7998046875,14590.4228515625,8796.8515625,4023.710693359375,23381.7109375,9942.849609375,17344.951171875,12149.0166015625,9164.015625,12590.0908203125,12050.4697265625,2057.55224609375,10441.1435546875,3388.72265625,16987.32421875,6837.0498046875,7797.876953125,2384.98046875,11377.3349609375,5027.453125,24276.57421875,4231.134765625,17933.845703125,3800.39208984375,9884.0400390625,26979.447265625,21775.564453125,12281.7353515625,-0.0,-43623.44921875,19785.5625,5013.94287109375,0.0,7395.744140625,0.0,0.0
15332.69921875,15059.3115234375,33481.9140625,11846.224609375,28739.771484375,6891.091796875,8567.173828125,9617.0107421875,9167.9892578125,6803.67138671875,18202.462890625,-336.9649353027344,8763.47265625,0.0,23148.85546875,7182.7568359375,25382.837890625,20439.625,10160.60546875,11713.5048828125,23646.35546875,29984.31640625,22463.00390625,20125.70703125,21692.1171875,7264.6142578125,29518.603515625,874.9962158203125,0.0,1277.923583984375,14524.4599609375,7151.7626953125,26261.806640625,16952.35546875,15610.05859375,25207.201171875,9640.0576171875,14583.2705078125,8770.625,4008.611083984375,23364.224609375,9922.1865234375,17337.00390625,12140.2744140625,9161.6318359375,12584.52734375,12000.4013671875,2053.57861328125,10431.607421875,3374.41748046875,16983.3515625,6829.10302734375,7738.27197265625,2360.343994140625,11355.08203125,5024.2744140625,24268.626953125,4219.2138671875,17933.05078125,3793.239501953125,9863.376953125,26969.91015625,21769.205078125,12283.3251953125,-0.0,-43625.83203125,19787.15234375,5002.81689453125,0.0,7388.591796875,0.0,0.0
15320.7783203125,15048.1865234375,33467.609375,11846.224609375,28730.234375,6891.091796875,8560.81640625,9614.626953125,9156.86328125,6798.1083984375,18197.6953125,-347.29638671875,8761.8828125,0.0,23144.0859375,7178.783203125,25376.478515625,20436.4453125,10154.2470703125,11697.6103515625,23638.40625,29982.724609375,22457.44140625,20122.52734375,21686.5546875,7261.43505859375,29496.3515625,872.6119995117188,0.0,1269.181640625,14520.486328125,7146.19970703125,26253.859375,16948.380859375,15605.2900390625,25204.0234375,9632.9052734375,14580.0908203125,8757.1142578125,4007.021484375,23356.279296875,9927.75,17327.466796875,12138.6845703125,9152.8896484375,12579.7587890625,11970.9970703125,2049.605224609375,10418.09765625,3372.033447265625,16973.814453125,6823.53955078125,7720.78857421875,2356.3701171875,11360.6455078125,5012.353515625,24263.859375,4215.240234375,17925.8984375,3792.44482421875,9860.1982421875,26966.73046875,21763.642578125,12252.3310546875,-0.0,-43630.6015625,19784.76953125,5002.02197265625,0.0,7390.97607421875,0.0,0.0
15324.751953125,15042.623046875,33481.12109375,11848.609375,28737.38671875,6894.2705078125,8557.6376953125,9617.0107421875,9145.736328125,6792.54541015625,18194.517578125,-340.9385681152344,8765.8564453125,0.0,23138.5234375,7183.5517578125,25383.630859375,20442.8046875,10155.8369140625,11688.0732421875,23644.765625,29985.109375,22459.826171875,20124.912109375,21707.216796875,7255.8720703125,29489.19921875,874.9962158203125,0.0,1270.77099609375,14525.25390625,7153.35205078125,26263.39453125,16951.560546875,15611.6484375,25207.99609375,9634.4951171875,14580.8857421875,8771.419921875,4016.55810546875,23369.7890625,9926.955078125,17326.673828125,12141.8642578125,9148.12109375,12578.9638671875,11997.22265625,2051.1943359375,10422.0703125,3372.828125,16969.044921875,6823.53955078125,7745.4248046875,2371.47021484375,11378.12890625,5010.763671875,24263.0625,4219.2138671875,17915.568359375,3790.85546875,9872.9130859375,26969.91015625,21760.462890625,12228.4892578125,-0.0,-43623.44921875,19779.205078125,5006.7900390625,0.0,7392.5654296875,0.0,0.0
15339.056640625,15060.107421875,33489.86328125,11849.4033203125,28743.744140625,6902.2177734375,8562.4052734375,9623.3681640625,9148.12109375,6798.90283203125,18190.54296875,-329.8123779296875,8757.9091796875,0.0,23139.318359375,7193.08837890625,25390.783203125,20450.75,10162.9892578125,11694.431640625,23653.5078125,29993.853515625,22466.18359375,20133.654296875,21703.244140625,7260.640625,29501.119140625,882.9434814453125,0.0,1274.74462890625,14531.6123046875,7158.9150390625,26268.958984375,16957.125,15618.80078125,25215.943359375,9638.46875,14588.8330078125,8777.77734375,4019.7373046875,23373.76171875,9930.9287109375,17334.619140625,12149.810546875,9152.8896484375,12586.9111328125,11999.607421875,2052.783935546875,10420.4814453125,3382.364990234375,16973.01953125,6829.8974609375,7746.2197265625,2374.64892578125,11359.8505859375,5018.7109375,24258.294921875,4229.54541015625,17914.771484375,3797.21337890625,9882.4501953125,26980.2421875,21765.232421875,12239.615234375,-0.0,-43612.3203125,19776.8203125,5015.5322265625,0.0,7398.12841796875,0.0,0.0
15347.798828125,15078.3857421875,33502.578125,11858.9404296875,28760.43359375,6913.34375,8575.916015625,9631.31640625,9152.8896484375,6806.8505859375,18201.669921875,-331.4018249511719,8753.935546875,0.0,23145.67578125,7198.65185546875,25399.52734375,20458.69921875,10172.5263671875,11700.7890625,23664.6328125,30001.005859375,22478.8984375,20144.78125,21723.90625,7269.38232421875,29520.98828125,894.0697021484375,0.0,1281.897216796875,14542.7392578125,7164.478515625,26280.083984375,16963.482421875,15633.1064453125,25224.685546875,9649.5947265625,14599.958984375,8786.51953125,4022.121337890625,23386.478515625,9940.46484375,17349.720703125,12160.9375,9163.220703125,12593.26953125,12012.322265625,2060.731201171875,10432.40234375,3392.6962890625,16984.14453125,6839.43408203125,7746.2197265625,2375.443603515625,11363.029296875,5025.86376953125,24253.52734375,4236.6982421875,17922.720703125,3805.955078125,9888.0126953125,26989.779296875,21775.564453125,12254.71484375,-0.0,-43612.3203125,19781.58984375,5017.12158203125,0.0,7402.89697265625,0.0,0.0
15340.6455078125,15077.5908203125,33502.578125,11858.9404296875,28762.81640625,6911.75439453125,8582.2744140625,9631.31640625,9160.0419921875,6806.8505859375,18209.615234375,-336.9649353027344,8747.578125,0.0,23150.443359375,7194.677734375,25395.55078125,20462.671875,10174.115234375,11703.173828125,23666.22265625,30001.005859375,22482.076171875,20145.57421875,21719.931640625,7264.6142578125,29528.140625,888.506591796875,0.0,1277.1287841796875,14544.328125,7159.7099609375,26283.263671875,16961.09765625,15635.490234375,25225.48046875,9654.3623046875,14599.1640625,8775.3935546875,4013.379638671875,23385.68359375,9941.2607421875,17355.283203125,12160.1416015625,9167.9892578125,12592.474609375,12014.70703125,2054.37353515625,10430.8125,3388.72265625,16991.296875,6837.0498046875,7750.193359375,2369.880615234375,11364.619140625,5022.6845703125,24259.88671875,4229.54541015625,17929.873046875,3802.7763671875,9884.0400390625,26992.95703125,21777.94921875,12261.0732421875,-0.0,-43618.6796875,19783.974609375,5004.40576171875,0.0,7402.10205078125,0.0,0.0
15337.466796875,15064.8759765625,33489.06640625,11848.609375,28749.30859375,6908.57568359375,8581.4794921875,9626.5478515625,9167.9892578125,6808.43994140625,18198.490234375,-344.9122009277344,8757.9091796875,0.0,23154.41796875,7187.525390625,25389.990234375,20459.494140625,10172.5263671875,11707.146484375,23658.275390625,29994.646484375,22478.8984375,20142.396484375,21697.6796875,7259.05078125,29515.423828125,880.5592651367188,0.0,1261.2342529296875,14537.970703125,7153.35205078125,26273.7265625,16956.330078125,15628.337890625,25220.712890625,9651.18359375,14595.19140625,8766.6513671875,4002.253173828125,23372.96875,9941.2607421875,17350.515625,12154.5791015625,9167.9892578125,12590.884765625,12000.4013671875,2028.1474609375,10421.2763671875,3379.980712890625,16992.88671875,6831.4873046875,7744.63037109375,2360.343994140625,11374.9501953125,5016.3271484375,24267.83203125,4219.2138671875,17933.05078125,3800.39208984375,9875.2978515625,26990.572265625,21775.564453125,12267.4306640625,-0.0,-43623.44921875,19793.509765625,4998.8427734375,0.0,7402.89697265625,0.0,0.0
15335.876953125,15058.517578125,33482.7109375,11843.8408203125,28734.20703125,6902.2177734375,8563.9951171875,9621.779296875,9167.1943359375,6805.26123046875,18185.7734375,-349.6805725097656,8757.1142578125,0.0,23147.263671875,7182.7568359375,25383.630859375,20452.341796875,10163.7841796875,11704.7626953125,23647.150390625,29989.083984375,22466.978515625,20136.037109375,21692.1171875,7254.28271484375,29492.37890625,873.40673828125,0.0,1258.0552978515625,14532.4072265625,7148.583984375,26266.57421875,16949.97265625,15618.0068359375,25212.765625,9637.673828125,14591.216796875,8755.5244140625,3991.126953125,23362.63671875,9934.90234375,17328.26171875,12147.4267578125,9158.4521484375,12586.9111328125,11991.66015625,2025.7633056640625,10422.0703125,3370.444091796875,16976.197265625,6825.923828125,7741.451171875,2361.933349609375,11372.56640625,5009.17431640625,24268.626953125,4214.44580078125,17929.078125,3795.623779296875,9868.14453125,26981.830078125,21770.0,12271.404296875,-0.0,-43625.0390625,19794.306640625,4993.27978515625,0.0,7396.5390625,0.0,0.0
15335.876953125,15065.669921875,33480.328125,11844.634765625,28731.02734375,6903.0126953125,8561.611328125,9624.9580078125,9172.7568359375,6806.0556640625,18181.80078125,-340.9385681152344,8761.087890625,0.0,23148.85546875,7189.90966796875,25383.630859375,20451.544921875,10163.7841796875,11710.326171875,23646.35546875,29989.083984375,22463.00390625,20138.421875,21688.142578125,7256.66650390625,29496.3515625,879.7645263671875,0.0,1258.0552978515625,14531.6123046875,7152.5576171875,26264.986328125,16948.380859375,15614.8271484375,25213.560546875,9637.673828125,14592.01171875,8765.8564453125,3989.53759765625,23360.251953125,9928.5439453125,17322.69921875,12149.810546875,9158.4521484375,12589.294921875,11986.8916015625,2035.300048828125,10416.5078125,3373.622802734375,16973.814453125,6832.28173828125,7736.68310546875,2374.64892578125,11368.591796875,5013.94287109375,24269.421875,4220.0087890625,17933.05078125,3798.008056640625,9865.7607421875,26982.625,21773.97265625,12279.3515625,-0.0,-43622.65234375,19793.509765625,5001.22705078125,0.0,7394.94921875,0.0,0.0
15328.724609375,15071.232421875,33481.12109375,11852.58203125,28737.38671875,6910.9599609375,8569.55859375,9629.7265625,9172.7568359375,6809.234375,18181.80078125,-333.7860107421875,8756.3203125,0.0,23151.240234375,7192.29345703125,25388.3984375,20453.134765625,10169.3466796875,11711.9150390625,23652.7109375,29993.853515625,22467.771484375,20143.986328125,21690.52734375,7270.9716796875,29502.7109375,886.1223754882812,0.0,1265.2078857421875,14534.791015625,7154.146484375,26265.779296875,16953.150390625,15621.185546875,25219.91796875,9642.44140625,14596.7802734375,8753.140625,4005.43212890625,23364.224609375,9935.6962890625,17330.646484375,12155.3740234375,9164.015625,12594.859375,11992.4541015625,2054.37353515625,10420.4814453125,3382.364990234375,16980.966796875,6837.0498046875,7735.09375,2384.98046875,11356.6708984375,5022.6845703125,24267.83203125,4223.18798828125,17936.23046875,3801.981689453125,9864.966796875,26988.982421875,21778.7421875,12278.556640625,-0.0,-43617.08984375,19793.509765625,5005.9951171875,0.0,7394.15478515625,0.0,0.0
15319.9833984375,15068.8486328125,33483.50390625,11858.1455078125,28741.359375,6914.93359375,8569.55859375,9627.341796875,9158.4521484375,6805.26123046875,18184.185546875,-355.2436828613281,8755.5244140625,0.0,23149.6484375,7189.90966796875,25389.990234375,20451.544921875,10166.962890625,11703.173828125,23655.095703125,29994.646484375,22467.771484375,20143.986328125,21700.064453125,7277.330078125,29504.298828125,890.0960083007812,0.0,1281.897216796875,14537.970703125,7147.7890625,26268.958984375,16954.740234375,15621.185546875,25223.09765625,9642.44140625,14595.19140625,8752.345703125,4010.200439453125,23369.7890625,9940.46484375,17333.826171875,12156.962890625,9160.0419921875,12590.884765625,11995.6328125,2067.089111328125,10425.25,3385.5439453125,16978.58203125,6834.666015625,7726.35107421875,2380.212158203125,11363.82421875,5033.01611328125,24264.654296875,4220.0087890625,17929.873046875,3799.597412109375,9861.787109375,26988.1875,21775.564453125,12261.8671875,-0.0,-43631.39453125,19790.330078125,5000.4326171875,0.0,7394.94921875,0.0,0.0
15339.056640625,15074.412109375,33485.890625,11853.376953125,28744.5390625,6917.31787109375,8571.9423828125,9633.7001953125,9157.6572265625,6806.0556640625,18182.595703125,-343.32275390625,8758.7041015625,0.0,23153.623046875,7200.2412109375,25393.16796875,20452.341796875,10170.9365234375,11702.3779296875,23658.275390625,29997.029296875,22471.74609375,20147.958984375,21708.01171875,7266.998046875,29505.888671875,895.6591186523438,0.0,1283.4866943359375,14538.7646484375,7151.7626953125,26272.931640625,16955.533203125,15624.3642578125,25224.685546875,9643.2373046875,14599.958984375,8767.4453125,4024.505615234375,23375.353515625,9938.8759765625,17336.2109375,12161.7314453125,9160.8359375,12593.26953125,11995.6328125,2059.9365234375,10425.25,3389.517578125,16980.966796875,6841.818359375,7728.7353515625,2377.033203125,11372.56640625,5038.57958984375,24266.2421875,4230.34033203125,17931.4609375,3804.365966796875,9874.5029296875,26990.572265625,21775.564453125,12259.4833984375,-0.0,-43624.2421875,19793.509765625,5002.02197265625,0.0,7402.89697265625,0.0,0.0
15343.0302734375,15060.9013671875,33469.9921875,11843.044921875,28731.822265625,6906.986328125,8566.3798828125,9628.931640625,9162.42578125,6807.6455078125,18164.31640625,-336.1701965332031,8749.1669921875,0.0,23151.240234375,7201.0361328125,25383.630859375,20445.189453125,10167.7578125,11703.9677734375,23643.970703125,29989.876953125,22464.59375,20143.189453125,21698.474609375,7254.28271484375,29500.326171875,890.0960083007812,0.0,1271.5657958984375,14530.0224609375,7145.40478515625,26262.6015625,16946.79296875,15614.033203125,25216.73828125,9640.0576171875,14598.369140625,8767.4453125,4009.405517578125,23357.072265625,9927.75,17326.673828125,12156.962890625,9159.2470703125,12590.884765625,11970.9970703125,2039.2735595703125,10410.9453125,3383.15966796875,16979.375,6843.408203125,7721.5830078125,2363.522705078125,11359.0556640625,5033.01611328125,24263.859375,4231.134765625,17932.255859375,3805.16064453125,9867.3505859375,26983.419921875,21774.76953125,12265.841796875,-0.0,-43616.29296875,19794.306640625,5006.7900390625,0.0,7402.89697265625,0.0,0.0
15342.2353515625,15060.107421875,33474.76171875,11848.609375,28731.02734375,6908.57568359375,8564.7900390625,9628.13671875,9163.220703125,6804.46630859375,18171.46875,-332.1965637207031,8748.3720703125,0.0,23152.828125,7197.06201171875,25386.015625,20448.365234375,10166.962890625,11703.173828125,23642.380859375,29991.46875,22463.00390625,20141.6015625,21700.859375,7260.640625,29503.50390625,890.8907470703125,0.0,1275.5394287109375,14530.0224609375,7146.19970703125,26261.01171875,16949.97265625,15612.443359375,25215.1484375,9639.2626953125,14595.19140625,8772.2138671875,4007.021484375,23354.689453125,9932.517578125,17327.466796875,12156.1689453125,9160.8359375,12592.474609375,11983.7119140625,2044.0418701171875,10414.91796875,3387.927978515625,16980.171875,6841.818359375,7728.7353515625,2369.0859375,11351.1083984375,5030.6318359375,24263.0625,4224.77734375,17933.845703125,3801.981689453125,9867.3505859375,26983.419921875,21775.564453125,12262.662109375,-0.0,-43610.734375,19797.484375,5001.22705078125,0.0,7397.33349609375,0.0,0.0
15323.9560546875,15066.46484375,33489.06640625,11854.171875,28738.1796875,6914.93359375,8568.763671875,9631.31640625,9163.220703125,6802.08203125,18197.6953125,-330.6070861816406,8749.1669921875,0.0,23153.623046875,7195.47265625,25390.783203125,20451.544921875,10166.962890625,11699.19921875,23647.943359375,29996.236328125,22466.978515625,20143.986328125,21706.421875,7260.640625,29511.451171875,894.0697021484375,0.0,1277.923583984375,14533.99609375,7147.7890625,26268.958984375,16954.740234375,15616.4169921875,25218.328125,9639.2626953125,14595.9853515625,8764.2666015625,4007.021484375,23365.81640625,9937.2861328125,17335.4140625,12156.962890625,9162.42578125,12594.0634765625,12015.501953125,2049.605224609375,10420.4814453125,3390.312255859375,16984.939453125,6844.20263671875,7742.24609375,2366.701904296875,11363.029296875,5025.06884765625,24255.91015625,4227.16162109375,17934.640625,3801.981689453125,9869.734375,26985.802734375,21773.97265625,12257.099609375,-0.0,-43603.58203125,19795.099609375,5005.20068359375,0.0,7394.15478515625,0.0,0.0
15333.4931640625,15072.822265625,33495.42578125,11865.2978515625,28745.33203125,6925.2646484375,8578.30078125,9636.0849609375,9162.42578125,6802.876953125,18216.767578125,-325.8387145996094,8749.1669921875,0.0,23156.0078125,7203.419921875,25396.34765625,20456.314453125,10170.9365234375,11697.6103515625,23655.890625,30005.7734375,22473.3359375,20151.138671875,21709.599609375,7271.7666015625,29524.16796875,904.401123046875,0.0,1283.4866943359375,14540.3544921875,7151.7626953125,26275.31640625,16963.482421875,15622.775390625,25225.48046875,9646.416015625,14601.5478515625,8775.3935546875,4008.611083984375,23374.556640625,9948.4130859375,17344.951171875,12165.7060546875,9166.400390625,12596.4482421875,12017.8857421875,2057.55224609375,10418.09765625,3399.848876953125,16994.4765625,6850.560546875,7743.04052734375,2373.0595703125,11376.5400390625,5034.60546875,24249.552734375,4237.4931640625,17937.025390625,3804.365966796875,9876.091796875,26992.162109375,21777.15234375,12254.71484375,-0.0,-43597.22265625,19796.689453125,5014.73779296875,0.0,7395.744140625,0.0,0.0
15335.0830078125,15069.6435546875,33477.14453125,11860.5302734375,28739.771484375,6924.47021484375,8578.30078125,9632.9052734375,9159.2470703125,6799.69775390625,18192.1328125,-331.4018249511719,8750.755859375,0.0,23159.185546875,7200.2412109375,25389.1953125,20451.544921875,10167.7578125,11696.021484375,23648.73828125,30001.005859375,22470.15625,20147.958984375,21690.52734375,7271.7666015625,29518.603515625,899.6327514648438,0.0,1279.5130615234375,14533.99609375,7143.8154296875,26266.57421875,16957.91796875,15618.80078125,25223.09765625,9645.62109375,14599.1640625,8763.47265625,4003.0478515625,23362.63671875,9945.2333984375,17343.36328125,12163.3212890625,9165.6044921875,12591.6796875,11978.943359375,2051.9892578125,10412.5341796875,3396.670166015625,17000.041015625,6845.79248046875,7725.556640625,2377.827880859375,11361.439453125,5032.22119140625,24257.501953125,4235.10888671875,17937.818359375,3802.7763671875,9873.7080078125,26988.982421875,21776.357421875,12258.6884765625,-0.0,-43601.1953125,19797.484375,5017.12158203125,0.0,7392.5654296875,0.0,0.0
15332.69921875,15060.107421875,33471.5859375,11848.609375,28735.001953125,6910.16552734375,8571.1474609375,9627.341796875,9156.86328125,6794.9296875,18181.80078125,-338.55438232421875,8750.755859375,0.0,23157.595703125,7196.267578125,25382.837890625,20443.59765625,10161.3994140625,11693.63671875,23642.380859375,29991.46875,22462.208984375,20141.6015625,21687.349609375,7256.66650390625,29506.68359375,889.30126953125,0.0,1273.949951171875,14527.638671875,7135.8681640625,26259.421875,16947.587890625,15612.443359375,25213.560546875,9637.673828125,14592.01171875,8747.578125,3994.30615234375,23357.869140625,9930.1337890625,17336.2109375,12153.78515625,9160.0419921875,12586.1171875,11974.970703125,2029.73681640625,10414.123046875,3382.364990234375,16988.119140625,6839.43408203125,7720.78857421875,2367.49658203125,11349.5185546875,5026.65869140625,24271.806640625,4231.9296875,17935.43359375,3800.39208984375,9868.939453125,26981.830078125,21772.384765625,12263.45703125,-0.0,-43606.7578125,19799.07421875,5008.37939453125,0.0,7379.85009765625,0.0,0.0
15316.8037109375,15056.1328125,33477.14453125,11851.787109375,28735.001953125,6903.0126953125,8562.4052734375,9624.1640625,9157.6572265625,6791.75048828125,18184.98046875,-347.29638671875,8755.5244140625,0.0,23156.80078125,7192.29345703125,25383.630859375,20442.009765625,10157.42578125,11692.841796875,23643.17578125,29989.876953125,22459.029296875,20136.833984375,21696.88671875,7258.25634765625,29505.888671875,885.32763671875,0.0,1269.976318359375,14526.0498046875,7134.27880859375,26261.01171875,16947.587890625,15611.6484375,25210.380859375,9632.9052734375,14588.8330078125,8745.98828125,3992.71630859375,23361.841796875,9927.75,17330.646484375,12150.60546875,9156.86328125,12583.732421875,11998.017578125,2030.5316162109375,10419.6865234375,3376.8017578125,16973.01953125,6833.87158203125,7731.91455078125,2374.64892578125,11351.1083984375,5025.06884765625,24277.369140625,4227.16162109375,17933.845703125,3792.44482421875,9864.1708984375,26979.447265625,21770.0,12264.251953125,-0.0,-43616.29296875,19799.07421875,4996.45849609375,0.0,7370.31298828125,0.0,0.0
15312.03515625,15064.080078125,33484.296875,11862.9140625,28745.33203125,6906.986328125,8568.763671875,9627.341796875,9155.2734375,6793.34033203125,18192.1328125,-346.5016784667969,8758.7041015625,0.0,23160.775390625,7192.29345703125,25391.578125,20451.544921875,10162.1943359375,11693.63671875,23651.91796875,29998.62109375,22464.59375,20142.396484375,21709.599609375,7266.998046875,29516.220703125,887.7118530273438,0.0,1264.4132080078125,14533.99609375,7143.0205078125,26270.548828125,16955.533203125,15618.80078125,25219.91796875,9636.87890625,14593.6015625,8757.1142578125,4003.8427734375,23370.583984375,9937.2861328125,17337.798828125,12155.3740234375,9160.8359375,12587.70703125,12009.1435546875,2047.220947265625,10425.25,3381.570068359375,16982.5546875,6836.25537109375,7743.83544921875,2382.59619140625,11358.2607421875,5021.09521484375,24275.779296875,4226.36669921875,17937.818359375,3791.650146484375,9868.939453125,26987.39453125,21772.384765625,12253.125,-0.0,-43613.1171875,19799.07421875,4994.07421875,0.0,7375.8759765625,0.0,0.0
15337.466796875,15066.46484375,33489.86328125,11871.6552734375,28754.076171875,6915.72802734375,8577.505859375,9631.31640625,9157.6572265625,6799.69775390625,18190.54296875,-340.1438293457031,8762.6767578125,0.0,23166.337890625,7193.08837890625,25398.73046875,20461.876953125,10167.7578125,11696.8154296875,23661.455078125,30008.158203125,22470.951171875,20149.548828125,21717.548828125,7277.330078125,29524.16796875,889.30126953125,0.0,1268.3868408203125,14543.533203125,7149.37841796875,26278.49609375,16965.865234375,15628.337890625,25229.453125,9644.826171875,14601.5478515625,8765.8564453125,4013.379638671875,23379.326171875,9947.6171875,17346.541015625,12158.552734375,9165.6044921875,12593.26953125,12005.96484375,2058.346923828125,10432.40234375,3388.72265625,16991.296875,6841.818359375,7739.86181640625,2371.47021484375,11363.029296875,5027.453125,24277.369140625,4221.59814453125,17944.177734375,3796.41845703125,9874.5029296875,26993.751953125,21778.7421875,12255.509765625,-0.0,-43603.58203125,19799.8671875,5002.81689453125,0.0,7384.6181640625,0.0,0.0
15356.541015625,15072.822265625,33499.40234375,11886.755859375,28766.791015625,6926.8544921875,8584.658203125,9638.46875,9156.86328125,6803.67138671875,18193.72265625,-341.7333068847656,8763.47265625,0.0,23168.72265625,7200.2412109375,25409.857421875,20469.82421875,10174.91015625,11699.994140625,23671.78515625,30020.078125,22480.48828125,20159.87890625,21717.548828125,7286.86669921875,29535.29296875,898.8380126953125,0.0,1287.4603271484375,14554.66015625,7157.32568359375,26288.828125,16976.197265625,15638.669921875,25238.990234375,9651.18359375,14607.90625,8774.59765625,4022.916259765625,23387.2734375,9959.5380859375,17355.283203125,12166.5,9167.1943359375,12598.0380859375,12011.5283203125,2071.857421875,10441.939453125,3399.05419921875,16997.65625,6847.3818359375,7733.50390625,2377.827880859375,11371.771484375,5037.78466796875,24282.13671875,4226.36669921875,17943.3828125,3807.544677734375,9880.8603515625,27002.4921875,21784.3046875,12258.6884765625,-0.0,-43604.375,19794.306640625,5012.353515625,0.0,7388.591796875,0.0,0.0
15354.951171875,15079.9755859375,33509.73046875,11888.3447265625,28778.7109375,6930.033203125,8591.015625,9640.0576171875,9156.86328125,6806.0556640625,18196.900390625,-335.3754577636719,8768.2412109375,0.0,23172.697265625,7198.65185546875,25416.216796875,20474.591796875,10178.8837890625,11699.994140625,23679.732421875,30026.435546875,22486.05078125,20162.263671875,21727.0859375,7281.30322265625,29547.21484375,901.2222290039062,0.0,1278.7183837890625,14561.0166015625,7161.29931640625,26295.98046875,16980.966796875,15645.822265625,25245.34765625,9655.158203125,14611.0849609375,8775.3935546875,4028.47900390625,23395.220703125,9958.744140625,17364.8203125,12169.6787109375,9170.373046875,12602.01171875,12022.654296875,2062.32080078125,10449.091796875,3398.259521484375,17001.62890625,6847.3818359375,7727.94091796875,2373.8544921875,11377.3349609375,5035.400390625,24286.111328125,4223.18798828125,17946.5625,3810.7236328125,9881.6552734375,27009.64453125,21786.689453125,12257.8935546875,-0.0,-43608.34765625,19793.509765625,5003.611328125,0.0,7384.6181640625,0.0,0.0
15340.6455078125,15077.5908203125,33504.96484375,11890.728515625,28778.7109375,6937.185546875,8592.60546875,9642.44140625,9154.4794921875,6807.6455078125,18191.337890625,-327.4281921386719,8769.03515625,0.0,23173.490234375,7200.2412109375,25416.216796875,20479.361328125,10182.857421875,11699.994140625,23681.322265625,30030.408203125,22488.435546875,20166.23828125,21723.111328125,7284.482421875,29549.599609375,905.1958618164062,0.0,1265.2078857421875,14563.4013671875,7161.29931640625,26294.390625,16982.5546875,15650.5908203125,25250.912109375,9656.7470703125,14613.46875,8765.0615234375,4031.658203125,23395.220703125,9966.69140625,17367.205078125,12172.8583984375,9172.7568359375,12603.6005859375,12015.501953125,2048.015625,10443.5283203125,3403.82275390625,17000.833984375,6850.560546875,7725.556640625,2364.317626953125,11361.439453125,5040.9638671875,24288.49609375,4223.18798828125,17946.5625,3805.955078125,9868.14453125,27013.62109375,21789.869140625,12257.099609375,-0.0,-43599.60546875,19800.662109375,4999.6376953125,0.0,7386.20751953125,0.0,0.0
15345.4140625,15080.76953125,33500.1953125,11890.728515625,28766.791015625,6930.033203125,8583.86328125,9639.2626953125,9151.2998046875,6805.26123046875,18199.28515625,-326.6334533691406,8766.6513671875,0.0,23166.337890625,7198.65185546875,25417.009765625,20477.771484375,10176.4990234375,11699.994140625,23674.96484375,30026.435546875,22481.283203125,20163.05859375,21710.396484375,7276.53515625,29534.498046875,900.427490234375,0.0,1286.66552734375,14561.0166015625,7163.68359375,26292.80078125,16980.966796875,15644.2314453125,25247.732421875,9651.18359375,14611.0849609375,8770.625,4034.837158203125,23386.478515625,9956.359375,17356.078125,12170.4736328125,9167.9892578125,12601.216796875,12014.70703125,2049.605224609375,10428.4287109375,3400.6435546875,16993.681640625,6848.970703125,7747.80908203125,2370.67529296875,11352.6982421875,5055.2685546875,24282.13671875,4222.39306640625,17941.79296875,3802.7763671875,9875.2978515625,27009.64453125,21785.1015625,12260.27734375,-0.0,-43598.015625,19800.662109375,5002.81689453125,0.0,7384.6181640625,0.0,0.0
15343.8251953125,15077.5908203125,33510.5234375,11883.576171875,28769.173828125,6920.49658203125,8583.86328125,9636.87890625,9162.42578125,6807.6455078125,18212.0,-330.6070861816406,8773.009765625,0.0,23170.3125,7194.677734375,25417.009765625,20477.771484375,10177.294921875,11708.736328125,23678.9375,30024.84765625,22484.4609375,20160.67578125,21739.005859375,7270.9716796875,29527.345703125,894.0697021484375,0.0,1278.7183837890625,14561.0166015625,7163.68359375,26296.7734375,16977.787109375,15643.4384765625,25243.759765625,9648.7998046875,14609.49609375,8769.03515625,4031.658203125,23395.220703125,9950.001953125,17354.48828125,12164.91015625,9170.373046875,12600.421875,12021.064453125,2050.39990234375,10448.296875,3387.927978515625,16995.271484375,6847.3818359375,7743.83544921875,2373.8544921875,11380.513671875,5044.93701171875,24284.521484375,4226.36669921875,17949.740234375,3803.571044921875,9884.0400390625,27007.26171875,21785.89453125,12276.1728515625,-0.0,-43593.24609375,19804.63671875,4998.04833984375,0.0,7380.64453125,0.0,0.0
15341.44140625,15074.412109375,33504.96484375,11878.013671875,28765.99609375,6914.138671875,8584.658203125,9635.2890625,9168.7841796875,6810.029296875,18203.2578125,-334.58074951171875,8767.4453125,0.0,23172.697265625,7195.47265625,25411.447265625,20477.771484375,10176.4990234375,11712.7099609375,23673.376953125,30021.66796875,22481.283203125,20155.90625,21725.49609375,7266.20361328125,29531.3203125,890.8907470703125,0.0,1276.3341064453125,14556.2490234375,7159.7099609375,26293.595703125,16973.814453125,15639.4638671875,25238.990234375,9648.005859375,14605.5224609375,8753.140625,4029.27392578125,23390.451171875,9946.0283203125,17355.283203125,12159.34765625,9172.7568359375,12598.83203125,12011.5283203125,2046.426025390625,10441.1435546875,3384.749267578125,16997.65625,6847.3818359375,7732.70947265625,2383.39111328125,11367.00390625,5031.4267578125,24285.31640625,4226.36669921875,17954.5078125,3802.7763671875,9885.62890625,27003.2890625,21788.279296875,12284.119140625,-0.0,-43597.22265625,19802.251953125,4998.04833984375,0.0,7381.439453125,0.0,0.0
