15124.48046875,15253.2265625,33325.35546875,11238.2578125,27991.13671875,6452.40185546875,7886.09228515625,9038.4482421875,8943.0810546875,6159.14697265625,17957.6875,-55.63100051879883,8625.984375,0.0,22493.205078125,7088.1845703125,24689.0390625,19750.595703125,9459.6552734375,11591.9111328125,22925.53515625,29347.73828125,22249.22265625,19354.8203125,21035.671875,7215.34130859375,28837.5234375,517.3682861328125,0.0,1223.0872802734375,13844.966796875,6727.37744140625,25702.318359375,16182.2646484375,15095.8701171875,24608.76953125,9217.2626953125,13905.3662109375,8694.3310546875,4022.916259765625,22626.71875,9299.119140625,16828.37890625,11487.8017578125,8649.826171875,12021.859375,11802.513671875,2427.10107421875,10054.90625,3224.2138671875,16493.796875,6233.85107421875,7867.81298828125,2554.257568359375,11054.6748046875,5064.0107421875,23668.607421875,4149.2783203125,17743.90625,3321.1708984375,9545.4853515625,26181.5390625,21231.970703125,11920.134765625,-0.0,-43858.6875,19350.84765625,4603.06787109375,0.0,6995.201171875,0.0,0.0
15122.095703125,15234.15234375,33329.328125,11233.4892578125,27991.13671875,6450.81201171875,7886.09228515625,9033.6796875,8943.875,6156.7626953125,17955.302734375,-54.04154586791992,8617.2421875,0.0,22490.8203125,7076.263671875,24690.62890625,19750.595703125,9458.859375,11591.9111328125,22924.7421875,29345.353515625,22249.22265625,19354.025390625,21030.90234375,7212.162109375,28836.7265625,515.7788696289062,0.0,1224.6767578125,13843.376953125,6727.37744140625,25702.318359375,16183.853515625,15096.6640625,24607.181640625,9219.646484375,13904.5712890625,8695.919921875,4014.96875,22629.103515625,9296.734375,16828.37890625,11487.0068359375,8648.236328125,12021.859375,11800.9248046875,2420.7431640625,10046.958984375,3221.82958984375,16493.796875,6229.08251953125,7867.81298828125,2558.2314453125,11048.3173828125,5064.0107421875,23661.455078125,4146.09912109375,17743.111328125,3318.78662109375,9558.9951171875,26179.94921875,21231.970703125,11917.75,-0.0,-43857.890625,19350.052734375,4600.68359375,0.0,6993.61181640625,0.0,0.0
15127.6591796875,15203.158203125,33326.1484375,11229.5146484375,27991.13671875,6450.81201171875,7886.88671875,9032.8857421875,8945.46484375,6155.1728515625,17954.5078125,-48.47844314575195,8616.447265625,0.0,22489.228515625,7071.4951171875,24687.44921875,19748.2109375,9459.6552734375,11591.1171875,22923.150390625,29340.5859375,22249.22265625,19352.435546875,21022.162109375,7208.98291015625,28836.7265625,515.7788696289062,0.0,1220.703125,13841.7880859375,6724.9931640625,25699.93359375,16181.46875,15096.6640625,24606.38671875,9220.4404296875,13903.77734375,8693.5361328125,4022.121337890625,22627.51171875,9291.966796875,16829.171875,11487.0068359375,8649.826171875,12020.2705078125,11796.1572265625,2413.590576171875,10049.3427734375,3221.82958984375,16493.796875,6225.90380859375,7848.73974609375,2568.562744140625,11053.8798828125,5065.60009765625,23657.48046875,4139.7412109375,17743.90625,3314.018310546875,9558.201171875,26178.359375,21229.5859375,11915.3662109375,-0.0,-43854.71484375,19350.84765625,4596.7099609375,0.0,6989.6376953125,0.0,0.0
15138.78515625,15217.4638671875,33326.94140625,11234.283203125,28001.466796875,6462.73291015625,7891.65478515625,9040.83203125,8944.6708984375,6156.7626953125,17960.072265625,-42.91534423828125,8615.6533203125,0.0,22490.8203125,7077.05810546875,24693.01171875,19756.953125,9466.8076171875,11590.3212890625,22928.71484375,29349.326171875,22259.5546875,19360.384765625,21027.72265625,7223.2880859375,28844.67578125,525.3156127929688,0.0,1227.0609130859375,13847.3515625,6727.37744140625,25703.90625,16185.4423828125,15102.2275390625,24615.12890625,9224.4150390625,13911.7236328125,8693.5361328125,4041.19482421875,22631.486328125,9307.0673828125,16838.708984375,11498.1337890625,8653.7998046875,12024.2431640625,11798.541015625,2411.20654296875,10054.111328125,3235.340087890625,16496.9765625,6233.85107421875,7851.1240234375,2574.1259765625,11054.6748046875,5073.54736328125,23661.455078125,4147.6884765625,17739.13671875,3319.581298828125,9550.25390625,26186.30859375,21233.55859375,11924.9033203125,-0.0,-43850.73828125,19351.640625,4599.88916015625,0.0,6992.02197265625,0.0,0.0
15149.9111328125,15249.251953125,33330.91796875,11234.283203125,28009.4140625,6473.859375,7899.60205078125,9051.958984375,8959.7705078125,6163.9150390625,17965.634765625,-43.7100715637207,8618.83203125,0.0,22498.765625,7083.416015625,24696.984375,19765.6953125,9474.75390625,11598.26953125,22935.072265625,29354.890625,22269.08984375,19369.125,21032.4921875,7231.2353515625,28855.005859375,534.8523559570312,0.0,1233.4188232421875,13852.9140625,6729.76171875,25709.470703125,16191.80078125,15110.1748046875,24621.486328125,9231.5673828125,13919.6708984375,8700.6884765625,4061.063232421875,22637.048828125,9314.2197265625,16848.24609375,11510.0546875,8664.92578125,12033.7802734375,11808.8720703125,2414.385498046875,10058.8798828125,3246.46630859375,16505.71875,6243.3876953125,7861.455078125,2578.099609375,11046.7275390625,5083.87890625,23670.197265625,4154.04638671875,17747.87890625,3325.939208984375,9547.07421875,26195.048828125,21241.505859375,11935.234375,-0.0,-43853.12109375,19354.025390625,4602.2734375,0.0,6994.40625,0.0,0.0
15151.5009765625,15264.3515625,33328.53125,11219.978515625,28005.44140625,6472.26953125,7898.01318359375,9051.958984375,8968.5126953125,6163.9150390625,17975.96484375,-48.47844314575195,8622.009765625,0.0,22494.79296875,7080.23681640625,24693.806640625,19761.720703125,9473.1650390625,11599.0634765625,22931.89453125,29348.53125,22269.884765625,19366.740234375,21028.51953125,7226.46728515625,28850.236328125,533.2628784179688,0.0,1231.03466796875,13849.7353515625,6730.556640625,25706.291015625,16187.826171875,15106.201171875,24617.513671875,9231.5673828125,13920.466796875,8702.2783203125,4061.063232421875,22635.458984375,9305.4775390625,16845.068359375,11510.0546875,8668.10546875,12032.19140625,11818.4091796875,2426.306396484375,10052.521484375,3243.287353515625,16503.333984375,6241.79833984375,7876.5556640625,2575.71533203125,11047.5224609375,5079.9052734375,23663.044921875,4150.07275390625,17748.673828125,3323.554931640625,9551.0478515625,26191.869140625,21241.505859375,11935.234375,-0.0,-43858.6875,19350.84765625,4596.7099609375,0.0,6988.84326171875,0.0,0.0
15148.322265625,15261.1728515625,33315.8203125,11213.6201171875,27991.9296875,6470.68017578125,7893.24462890625,9050.369140625,8975.6650390625,6162.3251953125,17968.8125,-50.067901611328125,8626.7783203125,0.0,22490.8203125,7078.6474609375,24686.654296875,19754.568359375,9471.576171875,11600.6533203125,22923.150390625,29342.173828125,22264.322265625,19364.357421875,21022.955078125,7224.8779296875,28840.69921875,534.0576171875,0.0,1226.2662353515625,13844.966796875,6725.7880859375,25697.55078125,16180.673828125,15099.8427734375,24614.333984375,9227.59375,13920.466796875,8696.7158203125,4038.810791015625,22623.5390625,9300.708984375,16836.32421875,11508.46484375,8666.515625,12034.5751953125,11806.48828125,2428.690673828125,10054.90625,3240.1083984375,16498.56640625,6243.3876953125,7874.9658203125,2555.84716796875,11053.8798828125,5079.11083984375,23663.044921875,4151.662109375,17745.494140625,3321.965576171875,9558.201171875,26187.896484375,21239.916015625,11940.001953125,-0.0,-43853.921875,19348.462890625,4593.53125,0.0,6989.6376953125,0.0,0.0
15144.34765625,15257.19921875,33311.84375,11204.87890625,27991.9296875,6465.912109375,7895.62890625,9053.5478515625,8981.2275390625,6163.1201171875,17968.8125,-51.6573600769043,8631.546875,0.0,22493.205078125,7081.03173828125,24682.6796875,19752.18359375,9473.1650390625,11603.0380859375,22921.5625,29338.994140625,22265.115234375,19365.9453125,21018.982421875,7222.49365234375,28840.69921875,537.2365112304688,0.0,1225.471435546875,13840.9931640625,6720.22509765625,25693.57421875,16174.31640625,15099.048828125,24611.94921875,9224.4150390625,13922.8505859375,8695.1259765625,4027.6845703125,22621.154296875,9300.708984375,16837.916015625,11510.0546875,8670.4892578125,12035.3701171875,11794.5673828125,2416.769775390625,10057.2900390625,3240.1083984375,16500.154296875,6247.36181640625,7859.8662109375,2546.310546875,11057.853515625,5079.11083984375,23667.017578125,4151.662109375,17744.69921875,3322.76025390625,9558.201171875,26189.486328125,21240.7109375,11943.9765625,-0.0,-43853.12109375,19343.6953125,4589.5576171875,0.0,6986.45947265625,0.0,0.0
15142.7587890625,15255.6103515625,33325.35546875,11196.13671875,28003.8515625,6470.68017578125,7905.16552734375,9061.49609375,8994.73828125,6171.06787109375,17973.58203125,-42.91534423828125,8637.9052734375,0.0,22498.765625,7082.62109375,24685.859375,19756.953125,9478.728515625,11613.369140625,22927.919921875,29342.173828125,22273.859375,19372.3046875,21033.287109375,7222.49365234375,28849.443359375,543.5943603515625,0.0,1235.00830078125,13844.1728515625,6721.814453125,25698.34375,16174.31640625,15105.4072265625,24615.923828125,9233.951171875,13930.0029296875,8703.072265625,4030.06884765625,22631.486328125,9303.8876953125,16847.453125,11518.001953125,8679.23046875,12041.7275390625,11797.74609375,2420.7431640625,10066.8271484375,3248.0556640625,16508.1015625,6254.51416015625,7860.66064453125,2562.205078125,11063.416015625,5080.69970703125,23669.400390625,4155.6357421875,17750.263671875,3330.70751953125,9555.81640625,26195.048828125,21248.658203125,11952.7177734375,-0.0,-43847.5625,19340.515625,4595.91552734375,0.0,6991.2275390625,0.0,0.0
15145.9375,15265.94140625,33334.09375,11214.416015625,28013.38671875,6483.39599609375,7910.728515625,9072.62109375,8992.3544921875,6176.63037109375,17968.8125,-30.19968605041504,8646.6474609375,0.0,22497.97265625,7094.5419921875,24696.19140625,19768.873046875,9487.4697265625,11610.1904296875,22935.072265625,29352.505859375,22282.599609375,19381.841796875,21046.00390625,7234.41455078125,28856.595703125,556.3099975585938,0.0,1244.544921875,13854.50390625,6733.7353515625,25706.291015625,16186.2373046875,15113.353515625,24625.458984375,9243.48828125,13941.12890625,8700.6884765625,4043.5791015625,22643.408203125,9316.603515625,16856.98828125,11530.716796875,8683.9990234375,12050.4697265625,11807.2822265625,2436.637939453125,10079.54296875,3261.566162109375,16512.87109375,6266.43505859375,7867.0185546875,2581.278564453125,11068.1845703125,5092.62109375,23673.376953125,4170.73583984375,17745.494140625,3339.44970703125,9553.4326171875,26203.791015625,21255.015625,11937.6181640625,-0.0,-43835.640625,19343.6953125,4607.83642578125,0.0,7003.1484375,0.0,0.0
15138.78515625,15261.1728515625,33327.73828125,11212.826171875,28003.056640625,6477.0380859375,7902.78125,9072.62109375,8980.43359375,6170.27294921875,17965.634765625,-27.02077293395996,8629.9580078125,0.0,22490.8203125,7098.51611328125,24689.0390625,19760.927734375,9483.4970703125,11599.0634765625,22928.71484375,29347.73828125,22276.244140625,19377.07421875,21022.955078125,7220.90380859375,28847.05859375,557.104736328125,0.0,1238.9818115234375,13848.9404296875,6727.37744140625,25701.5234375,16181.46875,15104.611328125,24621.486328125,9235.541015625,13937.1552734375,8687.1787109375,4041.19482421875,22633.87109375,9311.0400390625,16849.041015625,11529.1279296875,8676.0517578125,12048.880859375,11798.541015625,2428.690673828125,10064.4423828125,3258.38720703125,16504.12890625,6267.2294921875,7861.455078125,2580.483642578125,11060.23828125,5096.59423828125,23663.83984375,4179.4775390625,17734.369140625,3336.2705078125,9546.2802734375,26196.638671875,21248.658203125,11926.4921875,-0.0,-43829.28125,19341.310546875,4607.83642578125,0.0,6998.38037109375,0.0,0.0
15138.78515625,15256.4052734375,33332.5078125,11216.7998046875,28005.44140625,6477.0380859375,7905.9599609375,9076.595703125,8981.2275390625,6174.24609375,17983.1171875,-27.815500259399414,8625.189453125,0.0,22490.025390625,7104.87353515625,24689.83203125,19758.54296875,9485.0859375,11600.6533203125,22931.099609375,29348.53125,22277.037109375,19378.662109375,21031.697265625,7235.208984375,28847.853515625,560.28369140625,0.0,1238.9818115234375,13848.9404296875,6727.37744140625,25706.291015625,16182.2646484375,15106.201171875,24620.69140625,9234.74609375,13937.9501953125,8695.1259765625,4035.631591796875,22638.638671875,9310.2451171875,16849.8359375,11531.5126953125,8675.2578125,12052.853515625,11808.8720703125,2423.92236328125,10062.853515625,3259.9765625,16504.923828125,6269.61376953125,7867.0185546875,2575.71533203125,11068.1845703125,5095.0048828125,23663.83984375,4183.451171875,17736.75390625,3344.218017578125,9557.40625,26199.021484375,21251.04296875,11938.4130859375,-0.0,-43826.8984375,19343.6953125,4616.57861328125,0.0,6996.79052734375,0.0,0.0
15139.580078125,15245.2783203125,33334.09375,11221.568359375,28007.03125,6481.80615234375,7908.34423828125,9078.185546875,8989.9697265625,6175.041015625,17986.296875,-29.404958724975586,8626.7783203125,0.0,22493.205078125,7104.07861328125,24689.0390625,19758.54296875,9487.4697265625,11603.83203125,22931.89453125,29350.123046875,22281.01171875,19381.046875,21034.875,7243.15625,28847.853515625,562.6678466796875,0.0,1235.00830078125,13848.9404296875,6724.9931640625,25705.49609375,16183.853515625,15108.5849609375,24622.28125,9237.1298828125,13940.333984375,8692.7412109375,4033.24755859375,22642.61328125,9315.80859375,16852.220703125,11533.1015625,8680.0263671875,12056.033203125,11805.693359375,2425.51171875,10063.6484375,3263.950439453125,16508.8984375,6270.40869140625,7872.58154296875,2566.973388671875,11070.5693359375,5091.03173828125,23669.400390625,4184.24609375,17741.521484375,3345.807373046875,9558.201171875,26202.201171875,21252.6328125,11941.591796875,-0.0,-43826.8984375,19346.873046875,4612.6044921875,0.0,6991.2275390625,0.0,0.0
15136.4013671875,15235.7412109375,33323.765625,11221.568359375,28003.8515625,6481.01171875,7907.5498046875,9075.005859375,8992.3544921875,6175.041015625,17968.01953125,-37.35224533081055,8620.421875,0.0,22491.61328125,7099.310546875,24684.271484375,19755.36328125,9485.0859375,11603.0380859375,22927.919921875,29346.943359375,22279.419921875,19378.662109375,21034.875,7243.951171875,28847.853515625,561.078369140625,0.0,1233.4188232421875,13845.76171875,6719.4306640625,25699.93359375,16180.673828125,15105.4072265625,24617.513671875,9234.74609375,13938.744140625,8687.97265625,4026.889892578125,22635.458984375,9315.013671875,16850.62890625,11530.716796875,8679.23046875,12055.2373046875,11796.951171875,2423.92236328125,10066.0322265625,3266.33447265625,16507.306640625,6268.8193359375,7866.22314453125,2562.205078125,11053.0849609375,5075.931640625,23666.22265625,4179.4775390625,17742.314453125,3340.244384765625,9552.6376953125,26199.021484375,21251.8359375,11940.001953125,-0.0,-43833.25390625,19346.078125,4614.1943359375,0.0,6995.201171875,0.0,0.0
15134.0166015625,15239.7158203125,33321.37890625,11226.3369140625,27999.08203125,6481.80615234375,7905.16552734375,9075.005859375,8989.9697265625,6173.45166015625,17960.072265625,-37.35224533081055,8620.421875,0.0,22490.025390625,7103.2841796875,24685.064453125,19755.36328125,9481.9072265625,11601.4482421875,22923.947265625,29346.1484375,22275.447265625,19377.8671875,21032.4921875,7246.33544921875,28849.443359375,565.052001953125,0.0,1241.3660888671875,13843.376953125,6721.01953125,25699.138671875,16182.2646484375,15102.2275390625,24617.513671875,9234.74609375,13937.1552734375,8691.947265625,4030.06884765625,22625.923828125,9315.013671875,16846.65625,11529.9228515625,8678.4365234375,12050.4697265625,11800.1298828125,2428.690673828125,10066.8271484375,3272.6923828125,16506.513671875,6271.998046875,7863.044921875,2567.76806640625,11051.4951171875,5092.62109375,23665.427734375,4181.06689453125,17738.341796875,3340.244384765625,9555.0224609375,26197.43359375,21251.04296875,11936.82421875,-0.0,-43836.43359375,19340.515625,4612.6044921875,0.0,6995.99609375,0.0,0.0
15122.890625,15240.509765625,33329.328125,11227.130859375,28002.26171875,6479.421875,7905.16552734375,9072.62109375,8985.2021484375,6171.8623046875,17962.455078125,-28.6102294921875,8627.57421875,0.0,22493.205078125,7102.4892578125,24686.654296875,19758.54296875,9481.9072265625,11602.2421875,22925.53515625,29346.943359375,22273.859375,19376.27734375,21037.259765625,7241.56689453125,28851.828125,559.4889526367188,0.0,1242.1607666015625,13843.376953125,6724.19873046875,25700.7265625,16182.2646484375,15104.611328125,24616.71875,9236.3359375,13935.56640625,8689.5625,4032.453125,22631.486328125,9311.0400390625,16846.65625,11528.3330078125,8676.0517578125,12048.880859375,11808.078125,2427.895751953125,10066.0322265625,3264.7451171875,16507.306640625,6267.2294921875,7857.48193359375,2573.3310546875,11068.98046875,5103.7470703125,23664.6328125,4179.4775390625,17741.521484375,3334.68115234375,9554.2265625,26197.43359375,21251.8359375,11933.64453125,-0.0,-43827.6953125,19339.720703125,4608.63134765625,0.0,6988.84326171875,0.0,0.0
15118.1220703125,15231.7685546875,33334.890625,11227.130859375,28000.673828125,6474.65380859375,7904.3701171875,9071.8271484375,8982.0224609375,6170.27294921875,17969.607421875,-21.457672119140625,8613.2685546875,0.0,22496.380859375,7093.74755859375,24688.244140625,19756.158203125,9481.1123046875,11605.421875,22927.125,29346.943359375,22271.474609375,19374.689453125,21030.107421875,7236.00390625,28847.05859375,556.3099975585938,0.0,1248.5185546875,13846.556640625,6724.19873046875,25703.111328125,16181.46875,15103.0224609375,24617.513671875,9234.74609375,13935.56640625,8680.0263671875,4026.094970703125,22633.076171875,9309.451171875,16843.4765625,11525.154296875,8674.4619140625,12047.291015625,11807.2822265625,2425.51171875,10050.9326171875,3252.823974609375,16507.306640625,6262.46142578125,7848.73974609375,2570.947021484375,11060.23828125,5097.38916015625,23662.248046875,4175.50439453125,17743.90625,3332.297119140625,9547.8701171875,26197.43359375,21252.6328125,11932.849609375,-0.0,-43817.359375,19344.48828125,4606.2470703125,0.0,6989.6376953125,0.0,0.0
15122.095703125,15229.384765625,33327.73828125,11212.826171875,27995.904296875,6471.47509765625,7900.3974609375,9069.4423828125,8974.0751953125,6167.888671875,17967.224609375,-30.994415283203125,8611.6787109375,0.0,22496.380859375,7094.5419921875,24687.44921875,19749.798828125,9478.728515625,11605.421875,22925.53515625,29344.55859375,22263.52734375,19373.09765625,21020.5703125,7229.64599609375,28846.263671875,555.5152587890625,0.0,1240.5714111328125,13841.7880859375,6719.4306640625,25699.93359375,16178.2890625,15100.638671875,24614.333984375,9233.951171875,13931.591796875,8683.205078125,4027.6845703125,22628.306640625,9307.0673828125,16841.09375,11521.9755859375,8670.4892578125,12047.291015625,11798.541015625,2413.590576171875,10044.5751953125,3249.645263671875,16504.12890625,6259.28271484375,7847.9453125,2564.58935546875,11053.8798828125,5086.26318359375,23663.83984375,4174.70947265625,17745.494140625,3332.297119140625,9543.1015625,26194.25390625,21248.658203125,11930.4658203125,-0.0,-43830.078125,19344.48828125,4607.83642578125,0.0,6987.25390625,0.0,0.0
15115.73828125,15230.1787109375,33318.203125,11197.7265625,27990.341796875,6463.52783203125,7894.83349609375,9063.0849609375,8960.564453125,6163.9150390625,17955.302734375,-40.531158447265625,8615.6533203125,0.0,22490.8203125,7091.36328125,24681.88671875,19742.646484375,9472.3701171875,11602.2421875,22919.97265625,29338.994140625,22253.1953125,19366.740234375,21014.212890625,7223.2880859375,28845.46875,548.3627319335938,0.0,1227.0609130859375,13837.01953125,6716.25146484375,25696.75390625,16171.13671875,15093.4853515625,24607.9765625,9227.59375,13926.8232421875,8687.1787109375,4038.810791015625,22623.5390625,9303.0927734375,16835.53125,11516.412109375,8660.9521484375,12041.7275390625,11792.9775390625,2414.385498046875,10045.369140625,3244.082275390625,16500.154296875,6255.30859375,7850.32958984375,2571.74169921875,11046.7275390625,5082.2890625,23663.044921875,4171.5302734375,17740.7265625,3326.73388671875,9539.126953125,26187.1015625,21244.68359375,11924.9033203125,-0.0,-43845.17578125,19344.48828125,4607.0419921875,0.0,6984.0751953125,0.0,0.0
15117.328125,15231.7685546875,33311.84375,11195.341796875,27983.984375,6456.375,7887.68115234375,9055.1376953125,8950.2333984375,6159.14697265625,17949.740234375,-41.32588577270508,8614.857421875,0.0,22486.05078125,7087.3896484375,24679.501953125,19736.2890625,9465.2177734375,11596.6796875,22916.79296875,29334.2265625,22244.453125,19359.587890625,21010.240234375,7222.49365234375,28834.34375,539.6207275390625,0.0,1217.524169921875,13831.4560546875,6716.25146484375,25694.37109375,16167.1640625,15085.5380859375,24601.6171875,9218.8515625,13918.876953125,8686.3828125,4038.810791015625,22616.38671875,9296.734375,16825.994140625,11506.875,8652.2099609375,12035.3701171875,11782.646484375,2415.18017578125,10040.6005859375,3240.903076171875,16493.001953125,6248.15625,7852.71337890625,2575.71533203125,11037.1904296875,5084.67333984375,23659.0703125,4171.5302734375,17735.162109375,3320.376220703125,9534.359375,26179.94921875,21239.123046875,11915.3662109375,-0.0,-43841.203125,19342.103515625,4603.06787109375,0.0,6975.33251953125,0.0,0.0
15126.0693359375,15238.1259765625,33313.43359375,11215.2099609375,27985.572265625,6459.55419921875,7887.68115234375,9056.7275390625,8949.439453125,6162.3251953125,17956.09765625,-32.5838737487793,8609.294921875,0.0,22487.640625,7092.95263671875,24682.6796875,19736.2890625,9464.4228515625,11599.0634765625,22918.3828125,29338.201171875,22242.865234375,19358.0,21012.625,7220.109375,28823.216796875,543.5943603515625,0.0,1225.471435546875,13833.0458984375,6719.4306640625,25697.55078125,16171.9326171875,15087.921875,24604.796875,9217.2626953125,13918.876953125,8687.97265625,4030.86328125,22617.974609375,9298.32421875,16825.19921875,11506.875,8650.6201171875,12036.9599609375,11781.8515625,2410.411865234375,10039.01171875,3248.0556640625,16492.208984375,6250.5400390625,7859.8662109375,2570.947021484375,11032.421875,5091.03173828125,23659.865234375,4173.1201171875,17738.341796875,3322.76025390625,9528.7958984375,26180.744140625,21239.916015625,11918.544921875,-0.0,-43830.078125,19345.283203125,4605.4521484375,0.0,6976.12744140625,0.0,0.0
15114.1484375,15228.5888671875,33311.05078125,11218.388671875,27987.95703125,6456.375,7886.09228515625,9055.931640625,8945.46484375,6163.1201171875,17948.150390625,-33.37860107421875,8617.2421875,0.0,22487.640625,7091.36328125,24679.501953125,19736.2890625,9461.2431640625,11599.0634765625,22917.58984375,29335.81640625,22241.2734375,19356.408203125,21021.365234375,7220.109375,28829.57421875,543.5943603515625,0.0,1213.550537109375,13833.0458984375,6713.8671875,25693.57421875,16168.7529296875,15088.7177734375,24602.4140625,9215.6728515625,13916.4921875,8683.9990234375,4018.14794921875,22621.154296875,9297.5302734375,16828.37890625,11506.0810546875,8647.44140625,12034.5751953125,11786.6201171875,2390.543701171875,10048.548828125,3245.671630859375,16492.208984375,6251.3349609375,7853.5078125,2555.052490234375,11044.3427734375,5089.44189453125,23659.0703125,4173.91455078125,17739.931640625,3325.14453125,9517.669921875,26179.94921875,21239.916015625,11918.544921875,-0.0,-43829.28125,19343.6953125,4606.2470703125,0.0,6980.10107421875,0.0,0.0
15108.5849609375,15218.2578125,33306.28125,11213.6201171875,27988.751953125,6457.96435546875,7888.4765625,9057.521484375,8947.849609375,6169.47802734375,17930.666015625,-38.14697265625,8613.2685546875,0.0,22489.228515625,7093.74755859375,24679.501953125,19735.494140625,9460.44921875,11604.626953125,22917.58984375,29335.021484375,22241.2734375,19356.408203125,21025.33984375,7222.49365234375,28833.546875,543.5943603515625,0.0,1209.576904296875,13833.0458984375,6712.27783203125,25691.19140625,16168.7529296875,15087.1279296875,24602.4140625,9217.2626953125,13918.08203125,8696.7158203125,4020.5322265625,22621.154296875,9295.1455078125,16829.966796875,11506.875,8648.236328125,12036.1640625,11777.0830078125,2399.28564453125,10050.1376953125,3244.876953125,16492.208984375,6252.92431640625,7834.4345703125,2555.84716796875,11040.3701171875,5088.6474609375,23658.275390625,4173.91455078125,17742.314453125,3331.502197265625,9522.4384765625,26179.15625,21240.7109375,11927.287109375,-0.0,-43838.81640625,19345.283203125,4607.83642578125,0.0,6990.4326171875,0.0,0.0
15093.4853515625,15207.1318359375,33294.359375,11208.0576171875,27968.8828125,6446.83837890625,7878.14404296875,9047.9853515625,8943.875,6169.47802734375,17931.4609375,-52.45208740234375,8599.7578125,0.0,22485.255859375,7084.2109375,24668.375,19725.1640625,9452.501953125,11604.626953125,22901.693359375,29323.1015625,22228.55859375,19346.873046875,20995.140625,7212.162109375,28821.626953125,533.2628784179688,0.0,1206.39794921875,13820.3310546875,6702.7412109375,25678.4765625,16158.4228515625,15072.822265625,24591.287109375,9206.9306640625,13908.5458984375,8676.8466796875,4014.174072265625,22602.876953125,9280.8408203125,16816.45703125,11496.5439453125,8640.2890625,12034.5751953125,11765.162109375,2403.25927734375,10019.1435546875,3232.9560546875,16484.259765625,6246.56689453125,7815.36083984375,2554.257568359375,11035.6015625,5076.7265625,23653.5078125,4160.404296875,17739.13671875,3329.117919921875,9525.6162109375,26170.412109375,21231.970703125,11935.234375,-0.0,-43860.2734375,19349.255859375,4595.91552734375,0.0,6995.99609375,0.0,0.0
15078.3857421875,15197.5947265625,33297.5390625,11200.1103515625,27969.6796875,6439.68603515625,7876.5556640625,9044.806640625,8942.2861328125,6167.888671875,17939.41015625,-61.98883056640625,8602.142578125,0.0,22486.845703125,7074.67431640625,24665.197265625,19723.57421875,9452.501953125,11604.626953125,22900.900390625,29319.12890625,22224.583984375,19344.48828125,20998.3203125,7202.62548828125,28822.421875,523.7261352539062,0.0,1196.0665283203125,13817.9462890625,6696.3828125,25680.064453125,16156.0380859375,15073.6171875,24585.724609375,9203.751953125,13905.3662109375,8660.1572265625,3999.868896484375,22604.46484375,9275.27734375,16815.662109375,11489.3916015625,8638.69921875,12031.3955078125,11768.3408203125,2390.543701171875,10018.3486328125,3222.62451171875,16485.849609375,6242.59326171875,7802.64501953125,2543.92626953125,11039.57421875,5059.2421875,23655.890625,4144.509765625,17737.546875,3328.3232421875,9522.4384765625,26168.02734375,21231.970703125,11938.4130859375,-0.0,-43879.34765625,19350.052734375,4587.17333984375,0.0,7001.55859375,0.0,0.0
15074.412109375,15170.57421875,33299.12890625,11188.984375,27973.65234375,6430.94384765625,7874.9658203125,9037.654296875,8934.3388671875,6163.1201171875,17936.23046875,-71.52557373046875,8599.7578125,0.0,22484.4609375,7066.7265625,24660.4296875,19715.626953125,9446.9384765625,11599.8583984375,22900.10546875,29312.76953125,22219.81640625,19338.92578125,21006.265625,7191.4990234375,28822.421875,512.5999755859375,0.0,1189.708740234375,13813.97265625,6686.84619140625,25676.091796875,16150.474609375,15069.6435546875,24580.16015625,9199.7783203125,13899.802734375,8652.2099609375,3978.4111328125,22606.0546875,9265.740234375,16814.8671875,11478.2646484375,8633.13671875,12025.0390625,11767.546875,2386.570068359375,10027.0908203125,3209.90869140625,16482.671875,6233.056640625,7798.671875,2520.08447265625,11041.958984375,5048.91064453125,23651.91796875,4122.25732421875,17733.57421875,3322.76025390625,9511.3115234375,26162.466796875,21227.201171875,11932.0556640625,-0.0,-43888.09375,19338.130859375,4574.45751953125,0.0,6998.38037109375,0.0,0.0
15087.921875,15165.8056640625,33301.51171875,11190.5732421875,27978.419921875,6434.91748046875,7880.5283203125,9044.0107421875,8936.72265625,6171.06787109375,17943.3828125,-70.73084259033203,8602.142578125,0.0,22488.435546875,7077.05810546875,24663.607421875,19718.01171875,9451.70703125,11609.3955078125,22904.873046875,29316.744140625,22223.791015625,19342.103515625,21011.033203125,7197.85693359375,28832.75390625,518.1630249023438,0.0,1201.629638671875,13816.3564453125,6687.64111328125,25678.4765625,16152.0634765625,15072.822265625,24587.3125,9206.1357421875,13905.3662109375,8668.8994140625,3999.868896484375,22608.439453125,9268.919921875,16822.01953125,11483.033203125,8638.69921875,12031.3955078125,11779.4677734375,2404.848876953125,10033.4482421875,3212.29296875,16488.234375,6240.208984375,7814.56640625,2516.905517578125,11045.9326171875,5057.65283203125,23655.095703125,4131.7939453125,17739.931640625,3329.912841796875,9515.28515625,26166.439453125,21233.55859375,11940.796875,-0.0,-43884.9140625,19343.6953125,4583.99462890625,0.0,7007.1220703125,0.0,0.0
15106.9951171875,15195.2109375,33311.84375,11200.9052734375,27990.341796875,6445.2490234375,7893.24462890625,9052.75390625,8945.46484375,6181.39892578125,17957.6875,-61.98883056640625,8625.189453125,0.0,22501.150390625,7087.3896484375,24673.142578125,19728.341796875,9460.44921875,11619.7275390625,22913.615234375,29327.869140625,22234.916015625,19351.640625,21026.134765625,7203.419921875,28855.005859375,526.1103515625,0.0,1212.755859375,13825.0986328125,6701.1513671875,25689.6015625,16162.3955078125,15083.94921875,24597.64453125,9216.4677734375,13914.1083984375,8676.0517578125,4018.9423828125,22619.56640625,9279.2509765625,16836.32421875,11494.9541015625,8650.6201171875,12042.5224609375,11801.7197265625,2412.7958984375,10049.3427734375,3221.82958984375,16503.333984375,6250.5400390625,7832.8447265625,2527.23681640625,11052.291015625,5062.42138671875,23667.017578125,4142.919921875,17752.646484375,3339.44970703125,9529.5908203125,26175.9765625,21243.095703125,11949.5390625,-0.0,-43874.58203125,19357.205078125,4595.12109375,0.0,7015.0693359375,0.0,0.0
15113.353515625,15220.642578125,33316.61328125,11202.494140625,27995.109375,6446.83837890625,7896.42333984375,9052.75390625,8948.6435546875,6182.98876953125,17957.6875,-58.80991744995117,8619.6259765625,0.0,22505.125,7090.568359375,24674.734375,19729.93359375,9465.2177734375,11620.521484375,22915.205078125,29328.6640625,22238.095703125,19354.025390625,21020.5703125,7199.4462890625,28860.568359375,529.2892456054688,0.0,1211.1663818359375,13826.6875,6702.7412109375,25691.19140625,16163.1904296875,15086.3330078125,24597.64453125,9220.4404296875,13915.6982421875,8676.0517578125,4014.174072265625,22621.94921875,9279.2509765625,16843.4765625,11495.7490234375,8653.0048828125,12044.1123046875,11805.693359375,2399.28564453125,10053.3173828125,3224.2138671875,16505.71875,6250.5400390625,7851.1240234375,2529.62109375,11040.3701171875,5060.037109375,23667.017578125,4148.4833984375,17756.62109375,3338.65478515625,9532.76953125,26179.94921875,21246.275390625,11950.333984375,-0.0,-43866.6328125,19357.205078125,4599.09423828125,0.0,7010.30126953125,0.0,0.0
15106.9951171875,15213.4892578125,33295.15625,11205.6728515625,27982.392578125,6445.2490234375,7887.68115234375,9047.9853515625,8943.875,6178.22021484375,17941.79296875,-65.1677474975586,8609.294921875,0.0,22496.380859375,7085.00537109375,24665.197265625,19723.57421875,9458.859375,11614.958984375,22903.283203125,29322.306640625,22231.736328125,19347.66796875,20988.783203125,7201.0361328125,28836.7265625,524.5208740234375,0.0,1207.9874267578125,13819.53515625,6694.7939453125,25678.4765625,16158.4228515625,15076.796875,24592.08203125,9213.2880859375,13910.9296875,8672.873046875,3999.868896484375,22604.46484375,9276.8671875,16833.146484375,11492.5703125,8648.236328125,12037.75390625,11773.904296875,2401.669677734375,10038.216796875,3225.0087890625,16498.56640625,6244.9775390625,7849.5341796875,2535.97900390625,11034.806640625,5061.62646484375,23657.48046875,4143.71484375,17750.263671875,3334.68115234375,9519.259765625,26172.001953125,21241.505859375,11946.3603515625,-0.0,-43865.83984375,19358.0,4594.326171875,0.0,7003.1484375,0.0,0.0
15110.9697265625,15208.720703125,33299.921875,11202.494140625,27992.724609375,6449.22265625,7890.8603515625,9051.958984375,8947.849609375,6175.8359375,17950.53515625,-61.98883056640625,8616.447265625,0.0,22497.177734375,7086.59521484375,24668.375,19726.75390625,9461.2431640625,11613.369140625,22908.845703125,29324.689453125,22238.095703125,19350.052734375,21007.060546875,7208.1884765625,28837.5234375,528.4945068359375,0.0,1219.1136474609375,13821.125,6699.56201171875,25684.0390625,16161.6005859375,15082.359375,24594.46484375,9217.2626953125,13912.5185546875,8664.92578125,3978.4111328125,22613.20703125,9277.6611328125,16839.50390625,11494.9541015625,8653.0048828125,12040.138671875,11779.4677734375,2413.590576171875,10046.1640625,3231.366455078125,16502.5390625,6245.77197265625,7857.48193359375,2542.336669921875,11049.90625,5071.1630859375,23658.275390625,4146.89404296875,17751.05859375,3337.0654296875,9519.259765625,26175.1796875,21243.095703125,11942.38671875,-0.0,-43863.45703125,19359.587890625,4595.91552734375,0.0,7008.71142578125,0.0,0.0
15115.73828125,15222.2314453125,33306.28125,11210.44140625,28000.673828125,6450.81201171875,7898.01318359375,9055.931640625,8956.591796875,6180.6044921875,17944.970703125,-49.27317428588867,8614.857421875,0.0,22501.9453125,7094.5419921875,24674.734375,19733.111328125,9465.2177734375,11619.7275390625,22914.41015625,29327.07421875,22245.248046875,19354.8203125,21015.802734375,7215.34130859375,28856.595703125,532.4681396484375,0.0,1218.3189697265625,13826.6875,6705.919921875,25688.013671875,16167.1640625,15087.921875,24595.259765625,9222.8251953125,13916.4921875,8671.2841796875,3995.8955078125,22620.359375,9278.45703125,16849.041015625,11499.72265625,8660.1572265625,12043.31640625,11787.4140625,2412.00146484375,10035.83203125,3236.9296875,16509.69140625,6252.92431640625,7851.1240234375,2544.720947265625,11040.3701171875,5078.31591796875,23656.6875,4155.6357421875,17756.62109375,3341.833740234375,9523.232421875,26180.744140625,21246.275390625,11946.3603515625,-0.0,-43859.48046875,19361.97265625,4603.86279296875,0.0,7012.68505859375,0.0,0.0
15109.3798828125,15212.6953125,33310.25390625,11200.1103515625,27991.13671875,6446.83837890625,7901.19189453125,9056.7275390625,8960.564453125,6182.19384765625,17954.5078125,-53.2468147277832,8611.6787109375,0.0,22503.53515625,7094.5419921875,24674.734375,19731.521484375,9463.6279296875,11620.521484375,22912.8203125,29326.28125,22241.2734375,19354.025390625,21020.5703125,7215.34130859375,28864.54296875,533.2628784179688,0.0,1213.550537109375,13825.0986328125,6703.53564453125,25688.806640625,16163.1904296875,15086.3330078125,24593.671875,9223.6201171875,13914.90234375,8672.078125,4012.584716796875,22618.771484375,9280.0458984375,16846.65625,11498.927734375,8661.7470703125,12042.5224609375,11788.208984375,2410.411865234375,10033.4482421875,3235.340087890625,16514.458984375,6253.71923828125,7839.9970703125,2543.131591796875,11053.0849609375,5070.3681640625,23651.123046875,4154.8408203125,17759.80078125,3344.218017578125,9519.259765625,26179.15625,21245.48046875,11952.7177734375,-0.0,-43866.6328125,19360.384765625,4611.81005859375,0.0,7015.86376953125,0.0,0.0
15094.2802734375,15208.720703125,33307.07421875,11191.3681640625,27991.9296875,6450.81201171875,7907.5498046875,9057.521484375,8958.1806640625,6179.8095703125,17955.302734375,-57.220458984375,8606.1162109375,0.0,22503.53515625,7096.92626953125,24672.349609375,19732.31640625,9465.2177734375,11615.7529296875,22912.025390625,29327.07421875,22243.658203125,19356.408203125,21022.955078125,7213.75146484375,28869.310546875,536.4417724609375,0.0,1215.1400146484375,13824.3037109375,6701.9462890625,25687.216796875,16159.2158203125,15086.3330078125,24596.056640625,9226.0048828125,13913.3134765625,8672.873046875,4012.584716796875,22618.771484375,9281.6357421875,16853.013671875,11500.517578125,8665.720703125,12038.548828125,11787.4140625,2412.7958984375,10039.01171875,3237.724365234375,16522.408203125,6253.71923828125,7841.5869140625,2539.95263671875,11047.5224609375,5067.98388671875,23642.380859375,4157.22509765625,17759.00390625,3342.62841796875,9517.669921875,26179.94921875,21243.890625,11943.1806640625,-0.0,-43868.2265625,19351.640625,4611.81005859375,0.0,7011.890625,0.0,0.0
15096.6640625,15223.0263671875,33303.1015625,11190.5732421875,27993.521484375,6453.1962890625,7913.11279296875,9059.90625,8962.154296875,6181.39892578125,17945.765625,-43.7100715637207,8610.0888671875,0.0,22505.91796875,7100.10546875,24673.939453125,19736.2890625,9469.19140625,11616.5478515625,22914.41015625,29327.869140625,22249.22265625,19360.384765625,21019.77734375,7205.80419921875,28852.62109375,538.03125,0.0,1223.882080078125,13828.27734375,6705.919921875,25688.806640625,16161.6005859375,15088.7177734375,24599.234375,9229.18359375,13918.876953125,8679.23046875,4010.995361328125,22618.771484375,9278.45703125,16856.98828125,11505.2861328125,8669.6943359375,12041.7275390625,11789.798828125,2415.18017578125,10040.6005859375,3239.313720703125,16528.765625,6254.51416015625,7836.81884765625,2552.668212890625,11037.9853515625,5074.34228515625,23652.7109375,4161.19921875,17761.388671875,3344.218017578125,9525.6162109375,26184.716796875,21247.068359375,11943.1806640625,-0.0,-43857.09765625,19358.0,4610.22021484375,0.0,7011.095703125,0.0,0.0
15098.25390625,15221.4365234375,33299.921875,11174.6787109375,27978.419921875,6442.06982421875,7893.24462890625,9047.9853515625,8951.8232421875,6169.47802734375,17939.41015625,-46.88898849487305,8610.0888671875,0.0,22496.380859375,7086.59521484375,24663.607421875,19723.57421875,9457.2705078125,11606.216796875,22904.873046875,29316.744140625,22234.12109375,19348.462890625,21006.265625,7203.419921875,28830.369140625,525.3156127929688,0.0,1217.524169921875,13818.7412109375,6694.7939453125,25680.064453125,16152.0634765625,15076.796875,24588.904296875,9215.6728515625,13907.75,8663.3369140625,3995.1005859375,22610.822265625,9268.125,16833.94140625,11494.16015625,8653.7998046875,12029.806640625,11782.646484375,2400.080322265625,10044.5751953125,3223.419189453125,16504.12890625,6243.3876953125,7821.71923828125,2551.078857421875,11032.421875,5064.8056640625,23667.8125,4152.45654296875,17751.8515625,3333.091796875,9520.0537109375,26172.001953125,21235.943359375,11936.0283203125,-0.0,-43861.07421875,19352.435546875,4604.65771484375,0.0,7008.71142578125,0.0,0.0
15109.3798828125,15223.8203125,33303.8984375,11178.65234375,27979.21484375,6443.6591796875,7882.1181640625,9043.216796875,8947.0546875,6166.29931640625,17948.150390625,-54.836273193359375,8617.2421875,0.0,22491.61328125,7080.23681640625,24665.990234375,19723.57421875,9453.296875,11600.6533203125,22904.873046875,29319.921875,22231.736328125,19346.873046875,21005.47265625,7208.98291015625,28827.986328125,524.5208740234375,0.0,1209.576904296875,13821.125,6697.97265625,25681.654296875,16156.83203125,15076.0009765625,24590.4921875,9210.109375,13904.5712890625,8668.8994140625,3994.30615234375,22610.029296875,9276.072265625,16827.583984375,11493.365234375,8647.44140625,12025.8330078125,11787.4140625,2392.133056640625,10044.5751953125,3223.419189453125,16485.056640625,6241.00341796875,7832.8447265625,2549.4892578125,11041.1640625,5066.39501953125,23675.759765625,4148.4833984375,17743.111328125,3325.939208984375,9520.0537109375,26171.20703125,21229.5859375,11932.849609375,-0.0,-43863.45703125,19346.873046875,4596.7099609375,0.0,7003.94287109375,0.0,0.0
15112.5595703125,15215.0791015625,33311.84375,11189.7783203125,27988.751953125,6452.40185546875,7890.0654296875,9046.3955078125,8953.412109375,6166.29931640625,17940.203125,-57.220458984375,8625.189453125,0.0,22493.998046875,7081.03173828125,24672.349609375,19729.13671875,9458.0654296875,11603.0380859375,22912.025390625,29326.28125,22238.095703125,19351.640625,21018.982421875,7216.1357421875,28838.31640625,529.2892456054688,0.0,1211.961181640625,13828.27734375,6702.7412109375,25688.806640625,16161.6005859375,15083.94921875,24596.056640625,9215.6728515625,13909.33984375,8674.4619140625,3996.690185546875,22620.359375,9284.01953125,16834.736328125,11495.7490234375,8655.388671875,12027.4228515625,11783.4404296875,2393.72265625,10049.3427734375,3228.982177734375,16494.591796875,6241.79833984375,7851.1240234375,2546.310546875,11049.111328125,5070.3681640625,23671.78515625,4152.45654296875,17747.083984375,3325.939208984375,9518.4638671875,26177.564453125,21233.55859375,11932.849609375,-0.0,-43865.04296875,19346.873046875,4595.12109375,0.0,7003.94287109375,0.0,0.0
15115.73828125,15211.8994140625,33316.61328125,11196.13671875,27992.724609375,6459.55419921875,7896.42333984375,9051.1640625,8959.7705078125,6167.09375,17927.48828125,-50.067901611328125,8623.599609375,0.0,22499.560546875,7085.00537109375,24677.912109375,19735.494140625,9463.6279296875,11604.626953125,22919.97265625,29331.841796875,22246.04296875,19355.615234375,21026.9296875,7217.72509765625,28843.87890625,534.0576171875,0.0,1215.1400146484375,13833.0458984375,6709.0986328125,25694.37109375,16168.7529296875,15090.306640625,24602.4140625,9218.8515625,13913.3134765625,8671.2841796875,4003.0478515625,22626.71875,9289.58203125,16841.09375,11501.3125,8660.1572265625,12029.806640625,11781.056640625,2401.669677734375,10051.7275390625,3234.54541015625,16503.333984375,6245.77197265625,7859.8662109375,2552.668212890625,11049.111328125,5071.1630859375,23667.017578125,4160.404296875,17751.8515625,3326.73388671875,9520.8486328125,26182.33203125,21237.53125,11932.0556640625,-0.0,-43861.07421875,19347.66796875,4599.09423828125,0.0,6999.9697265625,0.0,0.0
15121.30078125,15211.10546875,33315.0234375,11197.7265625,27995.904296875,6461.1435546875,7898.01318359375,9051.958984375,8962.154296875,6169.47802734375,17959.275390625,-47.6837158203125,8611.6787109375,0.0,22500.357421875,7087.3896484375,24680.296875,19740.263671875,9466.01171875,11604.626953125,22921.5625,29338.201171875,22249.22265625,19360.384765625,21026.134765625,7223.2880859375,28847.05859375,534.8523559570312,0.0,1213.550537109375,13836.224609375,6709.8935546875,25694.37109375,16171.9326171875,15092.6904296875,24604.796875,9221.236328125,13918.08203125,8666.515625,3992.71630859375,22627.51171875,9294.3505859375,16843.4765625,11505.2861328125,8662.541015625,12031.3955078125,11790.5927734375,2398.490966796875,10054.90625,3238.51904296875,16505.71875,6244.1826171875,7852.71337890625,2558.2314453125,11051.4951171875,5075.13671875,23667.8125,4158.81494140625,17754.236328125,3330.70751953125,9520.0537109375,26187.1015625,21239.916015625,11935.234375,-0.0,-43859.48046875,19350.84765625,4599.88916015625,0.0,7003.94287109375,0.0,0.0
15117.328125,15216.66796875,33320.5859375,11199.3154296875,28000.673828125,6461.1435546875,7899.60205078125,9051.958984375,8962.154296875,6168.68359375,17971.9921875,-45.299530029296875,8606.9111328125,0.0,22501.9453125,7092.15771484375,24681.88671875,19742.646484375,9468.396484375,11603.83203125,22923.150390625,29340.5859375,22251.60546875,19362.767578125,21029.314453125,7222.49365234375,28851.828125,538.03125,0.0,1218.3189697265625,13838.6083984375,6709.8935546875,25698.34375,16175.111328125,15093.4853515625,24605.591796875,9223.6201171875,13919.6708984375,8671.2841796875,3978.4111328125,22630.69140625,9295.1455078125,16846.65625,11506.875,8661.7470703125,12032.9853515625,11796.951171875,2391.33837890625,10054.90625,3238.51904296875,16506.513671875,6245.77197265625,7842.38134765625,2565.3837890625,11053.8798828125,5077.52099609375,23667.8125,4165.17236328125,17754.236328125,3330.70751953125,9524.02734375,26187.896484375,21241.505859375,11935.234375,-0.0,-43848.35546875,19349.255859375,4599.88916015625,0.0,7001.55859375,0.0,0.0
15096.6640625,15207.9267578125,33315.0234375,11195.341796875,27995.109375,6453.1962890625,7894.83349609375,9047.1904296875,8955.001953125,6163.1201171875,17960.8671875,-44.50480270385742,8610.0888671875,0.0,22497.97265625,7085.80029296875,24676.322265625,19737.0859375,9464.4228515625,11597.4736328125,22917.58984375,29330.25390625,22244.453125,19357.205078125,21015.009765625,7212.162109375,28851.033203125,535.6470947265625,0.0,1210.37158203125,13831.4560546875,6704.33056640625,25694.37109375,16167.1640625,15087.921875,24600.029296875,9221.236328125,13915.6982421875,8674.4619140625,3972.053466796875,22622.744140625,9284.01953125,16842.68359375,11500.517578125,8655.388671875,12026.6279296875,11793.7724609375,2389.748779296875,10042.9853515625,3232.9560546875,16502.5390625,6238.619140625,7836.81884765625,2558.2314453125,11041.1640625,5079.9052734375,23663.044921875,4164.3779296875,17749.46875,3323.554931640625,9507.3388671875,26183.12890625,21236.73828125,11924.9033203125,-0.0,-43853.12109375,19346.078125,4591.14697265625,0.0,6988.04833984375,0.0,0.0
15088.7177734375,15207.1318359375,33314.2265625,11194.546875,27990.341796875,6450.017578125,7893.24462890625,9044.0107421875,8950.2333984375,6160.736328125,17952.919921875,-54.836273193359375,8612.4736328125,0.0,22497.177734375,7076.263671875,24673.142578125,19733.111328125,9461.2431640625,11595.8857421875,22915.998046875,29327.07421875,22241.2734375,19354.8203125,21012.625,7208.1884765625,28847.05859375,527.6997680664062,0.0,1199.2454833984375,13829.072265625,6702.7412109375,25692.78125,16163.984375,15083.94921875,24595.259765625,9218.056640625,13912.5185546875,8676.8466796875,3985.563720703125,22618.771484375,9284.01953125,16838.708984375,11496.5439453125,8652.2099609375,12025.0390625,11797.74609375,2394.51708984375,10039.01171875,3225.803466796875,16501.74609375,6233.056640625,7839.9970703125,2529.62109375,11043.548828125,5070.3681640625,23663.044921875,4151.662109375,17747.083984375,3321.1708984375,9494.6220703125,26180.744140625,21235.943359375,11921.7236328125,-0.0,-43866.6328125,19348.462890625,4591.94189453125,0.0,6988.04833984375,0.0,0.0
15086.3330078125,15212.6953125,33316.61328125,11197.7265625,27983.984375,6446.04345703125,7888.4765625,9044.806640625,8947.849609375,6161.53076171875,17940.203125,-59.604644775390625,8610.884765625,0.0,22497.177734375,7077.8525390625,24673.939453125,19729.93359375,9459.6552734375,11594.2958984375,22915.205078125,29326.28125,22238.095703125,19350.84765625,21024.544921875,7205.00927734375,28839.90625,524.5208740234375,0.0,1201.629638671875,13826.6875,6705.12548828125,25692.78125,16162.3955078125,15081.564453125,24595.259765625,9214.083984375,13911.7236328125,8682.41015625,4001.458740234375,22620.359375,9283.224609375,16832.3515625,11494.9541015625,8648.236328125,12025.8330078125,11794.5673828125,2395.31201171875,10050.9326171875,3223.419189453125,16497.76953125,6232.26171875,7838.40869140625,2519.289794921875,11047.5224609375,5060.83154296875,23662.248046875,4147.6884765625,17744.69921875,3323.554931640625,9503.3642578125,26178.359375,21234.353515625,11922.5185546875,-0.0,-43868.2265625,19347.66796875,4593.53125,0.0,6992.02197265625,0.0,0.0
15083.1533203125,15194.416015625,33309.4609375,11193.751953125,27978.419921875,6440.48046875,7881.32373046875,9040.0380859375,8940.6962890625,6157.55712890625,17933.05078125,-61.98883056640625,8606.1162109375,0.0,22491.61328125,7077.8525390625,24668.375,19726.75390625,9453.296875,11587.142578125,22910.4375,29321.51171875,22228.55859375,19345.283203125,21019.77734375,7208.1884765625,28831.1640625,519.7525024414062,0.0,1207.9874267578125,13822.71484375,6698.76708984375,25685.62890625,16160.806640625,15076.796875,24590.4921875,9208.51953125,13906.1611328125,8657.7734375,4005.43212890625,22617.181640625,9276.072265625,16827.583984375,11490.9814453125,8642.673828125,12021.064453125,11777.8779296875,2392.133056640625,10045.369140625,3221.034912109375,16489.82421875,6229.87744140625,7828.87158203125,2520.879150390625,11047.5224609375,5059.2421875,23659.865234375,4145.30419921875,17738.341796875,3320.376220703125,9501.7744140625,26172.001953125,21231.173828125,11914.5712890625,-0.0,-43871.40234375,19345.283203125,4591.14697265625,0.0,6984.86962890625,0.0,0.0
15103.0224609375,15188.0576171875,33313.43359375,11192.9580078125,27983.189453125,6445.2490234375,7883.7080078125,9044.0107421875,8941.4912109375,6159.94140625,17946.5625,-62.78356170654297,8607.705078125,0.0,22492.408203125,7081.82666015625,24674.734375,19729.13671875,9454.88671875,11591.9111328125,22913.615234375,29324.689453125,22229.353515625,19349.255859375,21020.5703125,7215.34130859375,28832.75390625,522.931396484375,0.0,1214.3453369140625,13827.4833984375,6702.7412109375,25688.806640625,16164.779296875,15080.76953125,24590.4921875,9210.109375,13907.75,8649.826171875,4025.300537109375,22621.94921875,9280.8408203125,16830.763671875,11494.9541015625,8643.4677734375,12023.44921875,11773.904296875,2398.490966796875,10040.6005859375,3225.0087890625,16489.82421875,6235.44091796875,7830.46044921875,2538.36328125,11053.0849609375,5066.39501953125,23664.6328125,4149.2783203125,17739.13671875,3325.14453125,9506.54296875,26173.591796875,21231.173828125,11916.16015625,-0.0,-43868.2265625,19348.462890625,4591.94189453125,0.0,6987.25390625,0.0,0.0
15115.73828125,15195.2109375,33316.61328125,11195.341796875,27988.751953125,6444.4541015625,7882.1181640625,9044.0107421875,8939.107421875,6159.94140625,17973.58203125,-63.578285217285156,8607.705078125,0.0,22492.408203125,7081.03173828125,24680.296875,19725.95703125,9453.296875,11591.1171875,22915.998046875,29324.689453125,22232.533203125,19346.873046875,21024.544921875,7206.5986328125,28837.5234375,522.13671875,0.0,1218.3189697265625,13829.8671875,6711.48291015625,25695.166015625,16166.3681640625,15081.564453125,24590.4921875,9210.109375,13907.75,8671.2841796875,4023.710693359375,22625.923828125,9276.8671875,16830.763671875,11493.365234375,8641.87890625,12023.44921875,11785.8251953125,2419.948486328125,10042.9853515625,3221.82958984375,16489.82421875,6233.85107421875,7841.5869140625,2556.641845703125,11055.4697265625,5064.8056640625,23663.83984375,4146.89404296875,17737.546875,3325.939208984375,9513.6953125,26173.591796875,21230.37890625,11915.3662109375,-0.0,-43872.1953125,19346.873046875,4587.17333984375,0.0,6987.25390625,0.0,0.0
15106.201171875,15196.005859375,33311.05078125,11187.39453125,27977.625,6437.3017578125,7876.5556640625,9040.0380859375,8935.1337890625,6155.1728515625,17974.376953125,-65.96247100830078,8608.5,0.0,22491.61328125,7077.05810546875,24671.5546875,19718.8046875,9445.349609375,11588.732421875,22905.66796875,29316.744140625,22224.583984375,19340.515625,21015.802734375,7188.3203125,28836.7265625,517.3682861328125,0.0,1211.961181640625,13818.7412109375,6704.33056640625,25686.421875,16159.2158203125,15071.232421875,24581.75,9202.95703125,13901.392578125,8672.873046875,4006.22705078125,22611.6171875,9263.3564453125,16825.994140625,11487.0068359375,8636.3154296875,12018.6806640625,11787.4140625,2415.974853515625,10038.216796875,3213.88232421875,16488.234375,6228.2880859375,7838.40869140625,2549.4892578125,11037.9853515625,5051.294921875,23662.248046875,4142.919921875,17735.958984375,3321.1708984375,9514.4912109375,26166.439453125,21224.021484375,11909.802734375,-0.0,-43877.76171875,19346.078125,4582.4052734375,0.0,6984.0751953125,0.0,0.0
15103.8173828125,15195.2109375,33298.33203125,11179.447265625,27968.8828125,6430.94384765625,7872.58154296875,9036.8583984375,8933.5439453125,6154.37841796875,17956.09765625,-66.7572021484375,8607.705078125,0.0,22489.228515625,7073.87939453125,24662.017578125,19710.859375,9443.759765625,11589.52734375,22897.720703125,29309.591796875,22216.638671875,19334.951171875,21006.265625,7181.16748046875,28831.958984375,513.3946533203125,0.0,1199.2454833984375,13809.998046875,6692.40966796875,25675.296875,16152.0634765625,15064.080078125,24573.0078125,9198.1884765625,13895.03515625,8666.515625,3989.53759765625,22602.08203125,9256.2041015625,16819.634765625,11481.4443359375,8634.7265625,12016.296875,11769.1357421875,2399.28564453125,10034.2431640625,3208.3193359375,16484.259765625,6226.6982421875,7828.076171875,2528.031494140625,11037.1904296875,5047.3212890625,23659.865234375,4138.15185546875,17735.958984375,3319.581298828125,9512.9013671875,26159.287109375,21220.841796875,11913.7763671875,-0.0,-43877.76171875,19347.66796875,4582.4052734375,0.0,6982.4853515625,0.0,0.0
15109.3798828125,15192.826171875,33295.15625,11176.2685546875,27969.6796875,6430.14892578125,7870.99169921875,9033.6796875,8936.72265625,6156.7626953125,17946.5625,-62.78356170654297,8607.705078125,0.0,22489.228515625,7072.2900390625,24659.6328125,19707.6796875,9441.3759765625,11592.7060546875,22896.92578125,29309.591796875,22215.046875,19330.18359375,21007.060546875,7182.7568359375,28827.986328125,511.80523681640625,0.0,1194.47705078125,13809.998046875,6691.61474609375,25675.296875,16150.474609375,15063.2861328125,24570.623046875,9198.9833984375,13893.4453125,8656.1845703125,3978.4111328125,22600.4921875,9258.587890625,16817.251953125,11481.4443359375,8633.931640625,12016.296875,11773.109375,2390.543701171875,10034.2431640625,3205.935302734375,16484.259765625,6226.6982421875,7835.22900390625,2524.05810546875,11039.57421875,5053.67919921875,23659.865234375,4135.767578125,17739.13671875,3319.581298828125,9512.9013671875,26158.490234375,21222.43359375,11922.5185546875,-0.0,-43879.34765625,19347.66796875,4583.99462890625,0.0,6982.4853515625,0.0,0.0
15098.25390625,15196.005859375,33288.796875,11165.9365234375,27963.3203125,6422.20166015625,7866.22314453125,9027.322265625,8930.365234375,6151.994140625,17941.79296875,-66.7572021484375,8602.142578125,0.0,22485.255859375,7066.7265625,24653.27734375,19702.115234375,9433.4287109375,11586.3486328125,22888.18359375,29303.232421875,22207.1015625,19323.03125,20999.11328125,7178.783203125,28825.6015625,503.0632019042969,0.0,1191.298095703125,13799.6669921875,6685.2568359375,25670.529296875,16140.142578125,15056.1328125,24563.470703125,9191.8310546875,13888.6767578125,8653.0048828125,3969.66943359375,22593.33984375,9250.640625,16811.689453125,11472.7021484375,8627.57421875,12010.7333984375,11771.51953125,2375.443603515625,10028.6796875,3197.98779296875,16480.287109375,6221.1357421875,7832.8447265625,2516.905517578125,11038.7802734375,5048.91064453125,23657.48046875,4127.025390625,17735.162109375,3313.2236328125,9504.9541015625,26149.75,21217.6640625,11914.5712890625,-0.0,-43884.9140625,19344.48828125,4576.841796875,0.0,6976.12744140625,0.0,0.0
15090.306640625,15207.9267578125,33291.9765625,11170.705078125,27967.294921875,6421.4072265625,7870.99169921875,9033.6796875,8933.5439453125,6159.14697265625,17949.740234375,-62.78356170654297,8604.5263671875,0.0,22489.228515625,7071.4951171875,24654.865234375,19706.091796875,9438.9912109375,11592.7060546875,22888.978515625,29304.02734375,22210.279296875,19327.005859375,21002.29296875,7186.73095703125,28827.986328125,505.4473876953125,0.0,1201.629638671875,13802.0517578125,6686.84619140625,25671.32421875,16144.1171875,15059.3115234375,24565.85546875,9194.21484375,13891.060546875,8655.388671875,3971.258544921875,22596.517578125,9255.4091796875,16818.046875,11474.2919921875,8631.546875,12016.296875,11774.69921875,2382.59619140625,10028.6796875,3202.756103515625,16485.849609375,6226.6982421875,7835.22900390625,2528.826416015625,11044.3427734375,5055.2685546875,23659.865234375,4133.38330078125,17739.13671875,3321.965576171875,9505.7490234375,26152.134765625,21222.43359375,11920.134765625,-0.0,-43882.53125,19352.435546875,4583.2001953125,0.0,6988.04833984375,0.0,0.0
15078.3857421875,15206.3369140625,33294.359375,11173.0888671875,27972.0625,6418.22802734375,7874.17138671875,9031.2958984375,8940.6962890625,6158.35205078125,17955.302734375,-66.7572021484375,8612.4736328125,0.0,22492.408203125,7069.90576171875,24654.865234375,19704.5,9439.7861328125,11594.2958984375,22889.771484375,29304.822265625,22213.458984375,19326.2109375,21014.212890625,7185.14111328125,28833.546875,504.6526794433594,0.0,1203.2191162109375,13802.845703125,6686.84619140625,25671.32421875,16146.501953125,15059.3115234375,24565.0625,9195.8046875,13892.650390625,8653.7998046875,3975.232666015625,22598.90234375,9255.4091796875,16821.2265625,11474.2919921875,8634.7265625,12015.501953125,11778.671875,2393.72265625,10035.83203125,3201.96142578125,16490.6171875,6225.90380859375,7830.46044921875,2542.336669921875,11046.7275390625,5056.85791015625,23663.044921875,4132.5888671875,17743.90625,3320.376220703125,9505.7490234375,26152.134765625,21224.021484375,11923.3134765625,-0.0,-43886.5,19354.025390625,4575.25244140625,0.0,6983.2802734375,0.0,0.0
15089.51171875,15190.4423828125,33288.796875,11167.5263671875,27972.857421875,6418.22802734375,7874.9658203125,9028.1171875,8946.259765625,6159.14697265625,17944.177734375,-69.14138793945312,8618.83203125,0.0,22497.177734375,7067.521484375,24650.09765625,19703.70703125,9438.9912109375,11596.6796875,22885.798828125,29300.0546875,22214.25390625,19324.62109375,21013.41796875,7181.16748046875,28837.5234375,504.6526794433594,0.0,1193.682373046875,13798.873046875,6682.87255859375,25665.759765625,16143.322265625,15056.927734375,24561.8828125,9197.39453125,13892.650390625,8646.6474609375,3976.82177734375,22595.724609375,9253.025390625,16822.814453125,11474.2919921875,8637.9052734375,12015.501953125,11776.2880859375,2399.28564453125,10039.806640625,3197.193115234375,16491.4140625,6225.10888671875,7826.4873046875,2547.89990234375,11049.111328125,5052.08984375,23665.427734375,4127.025390625,17747.083984375,3317.991943359375,9504.9541015625,26153.72265625,21222.43359375,11929.6708984375,-0.0,-43886.5,19355.615234375,4576.04736328125,0.0,6982.4853515625,0.0,0.0
15095.8701171875,15180.9052734375,33281.64453125,11161.9638671875,27961.73046875,6423.79150390625,7872.58154296875,9031.2958984375,8951.8232421875,6159.94140625,17936.23046875,-69.93611907958984,8602.9365234375,0.0,22492.408203125,7069.90576171875,24646.91796875,19701.322265625,9438.9912109375,11599.0634765625,22879.44140625,29297.669921875,22213.458984375,19326.2109375,20994.34375,7185.14111328125,28830.369140625,509.4210510253906,0.0,1197.656005859375,13794.1044921875,6679.69384765625,25658.607421875,16142.5263671875,15054.5439453125,24561.0859375,9196.5986328125,13892.650390625,8646.6474609375,3980.79541015625,22585.392578125,9256.9990234375,16818.841796875,11475.880859375,8639.4951171875,12016.296875,11774.69921875,2397.6962890625,10024.70703125,3200.3720703125,16489.82421875,6228.2880859375,7831.255859375,2547.89990234375,11040.3701171875,5046.5263671875,23659.0703125,4128.61474609375,17746.291015625,3321.965576171875,9500.185546875,26151.337890625,21222.43359375,11929.6708984375,-0.0,-43882.53125,19350.84765625,4581.6103515625,0.0,6986.45947265625,0.0,0.0
15087.1279296875,15181.701171875,33273.6953125,11169.1162109375,27955.373046875,6426.17578125,7870.99169921875,9032.08984375,8955.7958984375,6159.94140625,17928.28125,-77.8833999633789,8588.6318359375,0.0,22489.228515625,7069.11083984375,24639.765625,19698.9375,9436.607421875,11595.08984375,22873.083984375,29296.875,22212.6640625,19324.62109375,20980.0390625,7191.4990234375,28826.39453125,511.80523681640625,0.0,1194.47705078125,13791.720703125,6671.74658203125,25651.455078125,16137.7578125,15050.5703125,24558.703125,9195.009765625,13890.2666015625,8639.4951171875,3976.027099609375,22579.03515625,9255.4091796875,16817.251953125,11476.67578125,8640.2890625,12015.501953125,11765.162109375,2386.570068359375,10018.3486328125,3205.935302734375,16487.439453125,6229.08251953125,7820.12939453125,2528.826416015625,11037.1904296875,5031.4267578125,23651.91796875,4125.4365234375,17743.90625,3323.554931640625,9490.6494140625,26149.75,21220.841796875,11921.7236328125,-0.0,-43887.296875,19349.255859375,4578.431640625,0.0,6983.2802734375,0.0,0.0
15087.921875,15188.853515625,33278.46484375,11179.447265625,27961.73046875,6432.533203125,7878.14404296875,9038.4482421875,8962.94921875,6163.1201171875,17933.05078125,-67.55193328857422,8597.3740234375,0.0,22490.8203125,7074.67431640625,24642.1484375,19703.70703125,9442.9658203125,11598.26953125,22878.646484375,29300.84765625,22220.611328125,19328.59375,20984.80859375,7202.62548828125,28835.931640625,521.3419799804688,0.0,1195.2718505859375,13796.48828125,6674.130859375,25655.427734375,16141.7333984375,15058.517578125,24563.470703125,9198.9833984375,13896.625,8633.931640625,3973.642822265625,22583.0078125,9260.9716796875,16822.814453125,11486.212890625,8646.6474609375,12024.2431640625,11765.162109375,2384.98046875,10030.26953125,3221.82958984375,16491.4140625,6237.0302734375,7809.7978515625,2522.468505859375,11036.396484375,5051.294921875,23657.48046875,4133.38330078125,17743.90625,3329.117919921875,9490.6494140625,26152.9296875,21225.611328125,11932.849609375,-0.0,-43877.76171875,19349.255859375,4578.431640625,0.0,6983.2802734375,0.0,0.0
15084.7431640625,15189.6474609375,33277.671875,11181.8310546875,27960.935546875,6430.14892578125,7877.349609375,9037.654296875,8966.9228515625,6160.736328125,17931.4609375,-68.3466567993164,8599.7578125,0.0,22489.228515625,7076.263671875,24638.970703125,19701.322265625,9442.169921875,11599.8583984375,22877.05859375,29295.287109375,22221.40625,19325.4140625,20984.80859375,7201.0361328125,28840.69921875,522.13671875,0.0,1196.0665283203125,13794.8994140625,6670.95166015625,25654.634765625,16140.142578125,15056.1328125,24560.29296875,9197.39453125,13893.4453125,8629.9580078125,3956.95361328125,22582.212890625,9263.3564453125,16823.609375,11482.23828125,8647.44140625,12021.064453125,11762.7783203125,2384.98046875,10028.6796875,3224.2138671875,16492.208984375,6237.0302734375,7803.43994140625,2528.031494140625,11025.26953125,5064.8056640625,23658.275390625,4137.357421875,17741.521484375,3329.912841796875,9487.4697265625,26153.72265625,21224.81640625,11940.001953125,-0.0,-43881.734375,19345.283203125,4580.02099609375,0.0,6983.2802734375,0.0,0.0
15076.0009765625,15180.9052734375,33272.90234375,11172.294921875,27952.990234375,6422.20166015625,7868.607421875,9029.7060546875,8972.4853515625,6155.1728515625,17925.8984375,-73.90975952148438,8598.9638671875,0.0,22482.87109375,7069.11083984375,24631.818359375,19696.5546875,9433.4287109375,11594.2958984375,22869.109375,29288.1328125,22215.046875,19317.46875,20980.0390625,7189.115234375,28823.216796875,512.5999755859375,0.0,1188.9139404296875,13786.9521484375,6665.388671875,25647.482421875,16132.1962890625,15047.390625,24551.55078125,9188.65234375,13887.8818359375,8624.39453125,3939.4697265625,22578.240234375,9256.9990234375,16813.27734375,11471.9072265625,8643.4677734375,12013.912109375,11757.21484375,2382.59619140625,10015.96484375,3208.3193359375,16483.46484375,6229.87744140625,7801.0556640625,2524.05810546875,11031.6279296875,5057.65283203125,23651.91796875,4134.97314453125,17736.75390625,3322.76025390625,9482.701171875,26144.98046875,21216.869140625,11930.4658203125,-0.0,-43883.32421875,19334.951171875,4576.04736328125,0.0,6978.51171875,0.0,0.0
15082.359375,15186.46875,33276.08203125,11159.5791015625,27955.373046875,6429.35400390625,7868.607421875,9033.6796875,8969.306640625,6156.7626953125,17929.078125,-58.80991744995117,8611.6787109375,0.0,22482.076171875,7073.08447265625,24637.380859375,19701.322265625,9436.607421875,11587.9375,22877.8515625,29290.517578125,22220.611328125,19322.236328125,20988.783203125,7189.90966796875,28812.884765625,521.3419799804688,0.0,1194.47705078125,13791.720703125,6672.541015625,25653.83984375,16135.3740234375,15052.955078125,24554.728515625,9190.2421875,13891.8564453125,8639.4951171875,3935.495849609375,22585.392578125,9259.3828125,16812.482421875,11480.6494140625,8645.0576171875,12016.296875,11757.21484375,2385.775390625,10023.9111328125,3213.88232421875,16481.080078125,6236.2353515625,7816.95068359375,2528.031494140625,11031.6279296875,5056.85791015625,23652.7109375,4142.919921875,17731.984375,3325.14453125,9493.033203125,26147.365234375,21216.869140625,11921.7236328125,-0.0,-43867.4296875,19338.130859375,4583.99462890625,0.0,6989.6376953125,0.0,0.0
15095.8701171875,15196.005859375,33295.15625,11171.5,27974.447265625,6445.2490234375,7884.50244140625,9050.369140625,8976.4599609375,6171.8623046875,17942.5859375,-38.94169998168945,8621.2158203125,0.0,22492.408203125,7092.15771484375,24654.865234375,19715.626953125,9452.501953125,11595.8857421875,22894.541015625,29307.20703125,22236.505859375,19338.130859375,21014.212890625,7205.00927734375,28836.7265625,538.8259887695312,0.0,1219.9083251953125,13808.41015625,6690.025390625,25672.1171875,16152.8583984375,15070.4384765625,24570.623046875,9205.341796875,13908.5458984375,8661.7470703125,3969.66943359375,22604.46484375,9272.892578125,16829.966796875,11498.1337890625,8658.568359375,12032.19140625,11768.3408203125,2399.28564453125,10048.548828125,3230.57177734375,16494.591796875,6251.3349609375,7842.38134765625,2546.310546875,11043.548828125,5077.52099609375,23661.455078125,4159.609375,17738.341796875,3339.44970703125,9507.3388671875,26164.849609375,21230.37890625,11930.4658203125,-0.0,-43850.73828125,19348.462890625,4601.478515625,0.0,7006.3271484375,0.0,0.0
15106.201171875,15191.2373046875,33300.71484375,11176.2685546875,27978.419921875,6450.017578125,7887.68115234375,9055.931640625,8982.0224609375,6173.45166015625,17950.53515625,-35.762786865234375,8620.421875,0.0,22490.8203125,7096.92626953125,24658.837890625,19721.189453125,9457.2705078125,11599.0634765625,22897.720703125,29310.384765625,22240.48046875,19343.6953125,21018.1875,7207.3935546875,28839.111328125,541.210205078125,0.0,1227.855712890625,13813.177734375,6693.9990234375,25676.884765625,16156.83203125,15075.20703125,24574.59765625,9210.109375,13913.3134765625,8666.515625,3999.074462890625,22606.849609375,9275.27734375,16833.146484375,11502.90234375,8662.541015625,12036.9599609375,11775.4931640625,2400.080322265625,10054.111328125,3228.982177734375,16496.9765625,6256.103515625,7851.91845703125,2546.310546875,11049.111328125,5079.11083984375,23661.455078125,4167.556640625,17737.546875,3342.62841796875,9510.517578125,26168.82421875,21234.353515625,11940.796875,-0.0,-43848.35546875,19347.66796875,4604.65771484375,0.0,7008.71142578125,0.0,0.0
15109.3798828125,15197.5947265625,33301.51171875,11175.4736328125,27976.03515625,6453.1962890625,7890.0654296875,9055.931640625,8992.3544921875,6171.8623046875,17954.5078125,-42.1206169128418,8627.57421875,0.0,22493.205078125,7092.95263671875,24662.017578125,19722.779296875,9458.0654296875,11603.0380859375,22897.720703125,29314.359375,22242.865234375,19346.873046875,21011.033203125,7208.98291015625,28839.111328125,540.4154663085938,0.0,1220.703125,13813.177734375,6694.7939453125,25678.4765625,16159.2158203125,15073.6171875,24576.1875,9210.904296875,13912.5185546875,8668.10546875,4006.22705078125,22606.849609375,9279.2509765625,16833.94140625,11506.875,8664.130859375,12034.5751953125,11781.056640625,2400.875,10051.7275390625,3230.57177734375,16497.76953125,6252.92431640625,7846.35546875,2545.515869140625,11052.291015625,5082.2890625,23659.865234375,4163.58349609375,17741.521484375,3338.65478515625,9509.72265625,26169.619140625,21235.943359375,11947.94921875,-0.0,-43856.3046875,19349.255859375,4596.7099609375,0.0,6999.1748046875,0.0,0.0
15103.0224609375,15204.7470703125,33301.51171875,11172.294921875,27976.03515625,6450.017578125,7889.27099609375,9051.958984375,8997.123046875,6168.68359375,17955.302734375,-42.91534423828125,8625.984375,0.0,22492.408203125,7081.82666015625,24660.4296875,19719.6015625,9456.4755859375,11602.2421875,22896.92578125,29312.76953125,22242.865234375,19344.48828125,21007.060546875,7204.21435546875,28839.111328125,535.6470947265625,0.0,1219.1136474609375,13813.177734375,6693.9990234375,25676.884765625,16156.83203125,15072.0283203125,24573.802734375,9209.3154296875,13909.33984375,8664.130859375,3999.074462890625,22606.849609375,9276.072265625,16834.736328125,11503.6962890625,8665.720703125,12032.19140625,11785.8251953125,2395.31201171875,10050.9326171875,3228.982177734375,16499.361328125,6243.3876953125,7843.1767578125,2552.668212890625,11058.6484375,5086.26318359375,23659.865234375,4154.8408203125,17743.111328125,3330.70751953125,9507.3388671875,26170.412109375,21234.353515625,11946.3603515625,-0.0,-43861.8671875,19353.23046875,4583.99462890625,0.0,6988.84326171875,0.0,0.0
15101.4326171875,15214.2841796875,33300.71484375,11177.857421875,27980.8046875,6449.22265625,7890.0654296875,9051.958984375,8993.943359375,6166.29931640625,17949.740234375,-41.32588577270508,8614.0634765625,0.0,22491.61328125,7082.62109375,24663.607421875,19719.6015625,9458.0654296875,11597.4736328125,22898.515625,29315.94921875,22246.04296875,19345.283203125,21003.087890625,7189.90966796875,28838.31640625,538.03125,0.0,1223.0872802734375,13817.1513671875,6698.76708984375,25678.4765625,16157.626953125,15072.822265625,24573.802734375,9209.3154296875,13910.9296875,8661.7470703125,3997.484619140625,22607.64453125,9276.072265625,16837.119140625,11504.4912109375,8664.130859375,12031.3955078125,11782.646484375,2398.490966796875,10039.806640625,3228.1875,16497.76953125,6245.77197265625,7843.1767578125,2566.178466796875,11049.90625,5090.23681640625,23658.275390625,4158.81494140625,17739.931640625,3329.912841796875,9508.1328125,26172.796875,21233.55859375,11932.849609375,-0.0,-43852.328125,19347.66796875,4587.17333984375,0.0,6988.84326171875,0.0,0.0
15111.763671875,15220.642578125,33297.5390625,11183.4208984375,27980.009765625,6450.81201171875,7889.27099609375,9054.3427734375,8987.5859375,6163.9150390625,17942.5859375,-47.6837158203125,8613.2685546875,0.0,22490.025390625,7083.416015625,24664.40234375,19723.57421875,9458.0654296875,11595.8857421875,22900.10546875,29318.33203125,22246.837890625,19348.462890625,20998.3203125,7204.21435546875,28839.90625,539.6207275390625,0.0,1227.855712890625,13817.1513671875,6698.76708984375,25679.26953125,16160.806640625,15075.20703125,24576.1875,9210.904296875,13912.5185546875,8658.568359375,3994.30615234375,22604.46484375,9280.0458984375,16836.32421875,11504.4912109375,8661.7470703125,12029.806640625,11773.109375,2405.6435546875,10027.8857421875,3229.777099609375,16498.56640625,6246.56689453125,7844.765625,2570.15234375,11040.3701171875,5084.67333984375,23656.6875,4163.58349609375,17735.958984375,3329.117919921875,9512.9013671875,26173.591796875,21233.55859375,11929.6708984375,-0.0,-43856.3046875,19343.6953125,4590.3525390625,0.0,6991.2275390625,0.0,0.0
15118.9169921875,15218.2578125,33297.5390625,11188.189453125,27973.65234375,6454.78564453125,7887.68115234375,9054.3427734375,8984.40625,6163.1201171875,17944.970703125,-41.32588577270508,8614.0634765625,0.0,22490.025390625,7084.2109375,24667.58203125,19726.75390625,9458.859375,11592.7060546875,22899.30859375,29320.716796875,22244.453125,19349.255859375,21007.85546875,7213.75146484375,28844.67578125,540.4154663085938,0.0,1230.2398681640625,13818.7412109375,6702.7412109375,25681.654296875,16162.3955078125,15075.20703125,24579.3671875,9209.3154296875,13914.1083984375,8665.720703125,3984.769287109375,22605.26171875,9283.224609375,16833.94140625,11506.0810546875,8659.36328125,12030.6015625,11774.69921875,2409.6171875,10039.806640625,3234.54541015625,16497.76953125,6244.9775390625,7843.1767578125,2564.58935546875,11053.8798828125,5081.49462890625,23648.73828125,4161.19921875,17734.369140625,3328.3232421875,9510.517578125,26173.591796875,21234.353515625,11929.6708984375,-0.0,-43856.3046875,19342.8984375,4588.7626953125,0.0,6992.81689453125,0.0,0.0
15118.1220703125,15216.66796875,33306.28125,11191.3681640625,27987.95703125,6460.3486328125,7898.01318359375,9055.1376953125,8989.9697265625,6163.9150390625,17948.150390625,-34.1733283996582,8607.705078125,0.0,22496.380859375,7086.59521484375,24670.759765625,19731.521484375,9464.4228515625,11598.26953125,22906.4609375,29327.07421875,22251.60546875,19354.8203125,21022.162109375,7220.109375,28858.98046875,543.5943603515625,0.0,1230.2398681640625,13823.5087890625,6703.53564453125,25688.806640625,16166.3681640625,15083.94921875,24585.724609375,9218.056640625,13919.6708984375,8661.7470703125,3986.358642578125,22617.181640625,9285.609375,16846.65625,11512.4384765625,8666.515625,12034.5751953125,11788.208984375,2410.411865234375,10050.1376953125,3240.1083984375,16507.306640625,6248.951171875,7843.97119140625,2559.82080078125,11055.4697265625,5081.49462890625,23656.6875,4162.78857421875,17744.69921875,3326.73388671875,9508.927734375,26179.15625,21240.7109375,11936.82421875,-0.0,-43853.921875,19343.6953125,4582.4052734375,0.0,6985.66455078125,0.0,0.0
15117.328125,15215.0791015625,33314.2265625,11190.5732421875,27991.9296875,6461.1435546875,7904.3701171875,9056.7275390625,8996.3271484375,6163.1201171875,17944.970703125,-36.55751419067383,8608.5,0.0,22502.740234375,7079.4423828125,24670.759765625,19729.93359375,9466.8076171875,11607.806640625,22907.2578125,29326.28125,22252.400390625,19354.8203125,21022.162109375,7219.314453125,28853.416015625,541.210205078125,0.0,1229.445068359375,13823.5087890625,6701.1513671875,25689.6015625,16167.1640625,15087.1279296875,24586.51953125,9222.8251953125,13919.6708984375,8655.388671875,3986.358642578125,22619.56640625,9286.4033203125,16853.013671875,11512.4384765625,8671.2841796875,12032.19140625,11789.00390625,2411.20654296875,10044.5751953125,3240.1083984375,16513.666015625,6248.15625,7842.38134765625,2559.026123046875,11050.701171875,5083.083984375,23665.427734375,4155.6357421875,17751.8515625,3323.554931640625,9512.9013671875,26181.5390625,21242.30078125,11947.94921875,-0.0,-43854.71484375,19347.66796875,4576.841796875,0.0,6977.716796875,0.0,0.0
15110.9697265625,15203.953125,33307.8671875,11185.8056640625,27977.625,6450.81201171875,7890.8603515625,9045.6005859375,8990.7646484375,6154.37841796875,17937.818359375,-54.04154586791992,8605.3212890625,0.0,22497.177734375,7061.95849609375,24660.4296875,19720.396484375,9456.4755859375,11602.2421875,22896.92578125,29315.94921875,22239.685546875,19343.6953125,21017.392578125,7204.21435546875,28831.958984375,530.083984375,0.0,1217.524169921875,13813.97265625,6692.40966796875,25678.4765625,16155.2431640625,15074.412109375,24576.982421875,9210.109375,13908.5458984375,8657.7734375,3969.66943359375,22610.822265625,9274.482421875,16837.916015625,11502.1064453125,8660.9521484375,12021.064453125,11768.3408203125,2397.6962890625,10046.958984375,3229.777099609375,16500.94921875,6233.85107421875,7828.076171875,2551.87353515625,11047.5224609375,5071.9580078125,23666.22265625,4138.9462890625,17749.46875,3311.634033203125,9506.54296875,26170.412109375,21231.970703125,11945.5654296875,-0.0,-43874.58203125,19347.66796875,4558.5634765625,0.0,6968.18017578125,0.0,0.0
15114.1484375,15207.9267578125,33312.63671875,11188.189453125,27982.392578125,6454.78564453125,7886.09228515625,9047.9853515625,8982.0224609375,6155.9677734375,17956.09765625,-47.6837158203125,8613.2685546875,0.0,22493.205078125,7069.11083984375,24664.40234375,19729.13671875,9458.0654296875,11592.7060546875,22903.283203125,29318.33203125,22243.658203125,19348.462890625,21023.75,7207.3935546875,28839.90625,534.8523559570312,0.0,1219.1136474609375,13819.53515625,6697.97265625,25685.62890625,16158.4228515625,15080.76953125,24582.544921875,9211.69921875,13910.134765625,8659.36328125,3973.642822265625,22617.974609375,9281.6357421875,16835.53125,11507.669921875,8657.7734375,12021.064453125,11777.8779296875,2400.080322265625,10057.2900390625,3232.9560546875,16496.181640625,6237.0302734375,7842.38134765625,2563.79443359375,11051.4951171875,5073.54736328125,23669.400390625,4146.89404296875,17741.521484375,3314.81298828125,9510.517578125,26172.796875,21230.37890625,11927.287109375,-0.0,-43872.9921875,19342.8984375,4563.33154296875,0.0,6972.94873046875,0.0,0.0
15097.458984375,15198.3896484375,33308.66796875,11181.8310546875,27983.984375,6454.78564453125,7892.44921875,9046.3955078125,8982.8173828125,6155.9677734375,17955.302734375,-46.09425735473633,8616.447265625,0.0,22496.380859375,7073.08447265625,24663.607421875,19729.93359375,9459.6552734375,11591.9111328125,22903.283203125,29317.537109375,22248.42578125,19349.255859375,21015.802734375,7203.419921875,28850.236328125,532.4681396484375,0.0,1207.9874267578125,13818.7412109375,6693.9990234375,25684.0390625,16158.4228515625,15081.564453125,24582.544921875,9215.6728515625,13910.9296875,8648.236328125,3971.258544921875,22615.591796875,9280.0458984375,16841.888671875,11504.4912109375,8661.7470703125,12022.654296875,11785.8251953125,2396.106689453125,10056.49609375,3224.2138671875,16502.5390625,6239.4140625,7847.9453125,2551.078857421875,11049.90625,5071.9580078125,23667.017578125,4150.07275390625,17742.314453125,3316.40234375,9502.5703125,26177.564453125,21231.173828125,11924.9033203125,-0.0,-43869.01953125,19343.6953125,4570.484375,0.0,6973.74365234375,0.0,0.0
15089.51171875,15195.2109375,33303.1015625,11185.8056640625,27982.392578125,6451.60693359375,7894.0390625,9048.779296875,8981.2275390625,6158.35205078125,17944.177734375,-43.7100715637207,8616.447265625,0.0,22497.177734375,7079.4423828125,24662.017578125,19731.521484375,9458.859375,11595.8857421875,22903.283203125,29318.33203125,22247.6328125,19348.462890625,21008.650390625,7206.5986328125,28848.6484375,535.6470947265625,0.0,1207.9874267578125,13818.7412109375,6696.3828125,25682.44921875,16158.4228515625,15080.76953125,24581.75,9217.2626953125,13911.7236328125,8653.7998046875,3981.59033203125,22609.234375,9281.6357421875,16841.888671875,11505.2861328125,8662.541015625,12025.0390625,11781.056640625,2394.51708984375,10051.7275390625,3224.2138671875,16503.333984375,6244.1826171875,7837.61328125,2543.92626953125,11050.701171875,5079.9052734375,23663.044921875,4156.4306640625,17743.111328125,3318.78662109375,9494.6220703125,26178.359375,21231.970703125,11930.4658203125,-0.0,-43864.25,19341.310546875,4576.04736328125,0.0,6977.716796875,0.0,0.0
15095.07421875,15203.158203125,33309.4609375,11201.69921875,27987.162109375,6453.1962890625,7895.62890625,9055.1376953125,8983.6123046875,6161.53076171875,17951.330078125,-42.1206169128418,8622.009765625,0.0,22497.177734375,7088.1845703125,24667.58203125,19737.87890625,9462.0390625,11598.26953125,22907.2578125,29324.689453125,22252.400390625,19354.025390625,21018.1875,7216.93017578125,28844.67578125,543.5943603515625,0.0,1213.550537109375,13824.3037109375,6703.53564453125,25686.421875,16167.1640625,15087.1279296875,24585.724609375,9220.4404296875,13918.876953125,8657.7734375,3992.71630859375,22614.001953125,9288.7880859375,16845.068359375,11509.2587890625,8664.130859375,12030.6015625,11789.00390625,2397.6962890625,10054.111328125,3233.75048828125,16504.12890625,6253.71923828125,7831.255859375,2545.515869140625,11055.4697265625,5091.826171875,23667.017578125,4164.3779296875,17744.69921875,3327.52880859375,9498.595703125,26183.12890625,21237.53125,11933.64453125,-0.0,-43860.2734375,19344.48828125,4580.81591796875,0.0,6983.2802734375,0.0,0.0
15102.2275390625,15208.720703125,33309.4609375,11198.5205078125,27990.341796875,6453.99072265625,7896.42333984375,9055.1376953125,8975.6650390625,6159.94140625,17960.072265625,-42.1206169128418,8626.7783203125,0.0,22497.177734375,7088.1845703125,24669.96484375,19736.2890625,9464.4228515625,11591.9111328125,22907.2578125,29323.896484375,22252.400390625,19354.8203125,21020.5703125,7218.51953125,28847.05859375,545.978515625,0.0,1216.7294921875,13825.0986328125,6709.0986328125,25687.216796875,16167.958984375,15087.1279296875,24585.724609375,9220.4404296875,13918.08203125,8660.1572265625,3995.8955078125,22616.38671875,9288.7880859375,16848.24609375,11509.2587890625,8663.3369140625,12031.3955078125,11789.798828125,2381.801513671875,10057.2900390625,3236.134765625,16505.71875,6252.92431640625,7832.8447265625,2547.10498046875,11055.4697265625,5092.62109375,23668.607421875,4166.76171875,17743.111328125,3325.939208984375,9500.185546875,26183.12890625,21236.73828125,11918.544921875,-0.0,-43857.890625,19339.720703125,4575.25244140625,0.0,6980.10107421875,0.0,0.0
15101.4326171875,15200.7744140625,33300.71484375,11172.294921875,27983.189453125,6450.81201171875,7894.83349609375,9054.3427734375,8967.716796875,6158.35205078125,17953.71484375,-42.1206169128418,8622.8056640625,0.0,22493.998046875,7092.95263671875,24663.607421875,19726.75390625,9462.0390625,11590.3212890625,22902.48828125,29317.537109375,22247.6328125,19351.640625,21013.41796875,7212.95703125,28845.46875,543.5943603515625,0.0,1210.37158203125,13817.9462890625,6707.50927734375,25680.861328125,16158.4228515625,15082.359375,24580.955078125,9218.056640625,13917.287109375,8668.8994140625,3995.8955078125,22609.234375,9281.6357421875,16843.4765625,11506.875,8658.568359375,12029.806640625,11781.056640625,2364.317626953125,10049.3427734375,3232.161376953125,16500.94921875,6252.1298828125,7833.64013671875,2545.515869140625,11052.291015625,5090.23681640625,23666.22265625,4169.14599609375,17739.931640625,3326.73388671875,9495.41796875,26179.94921875,21234.353515625,11913.7763671875,-0.0,-43865.04296875,19337.3359375,4577.63671875,0.0,6980.10107421875,0.0,0.0
15091.896484375,15192.0322265625,33295.94921875,11161.9638671875,27978.419921875,6446.04345703125,7893.24462890625,9051.958984375,8966.9228515625,6159.94140625,17946.5625,-42.91534423828125,8620.421875,0.0,22493.998046875,7091.36328125,24655.66015625,19725.1640625,9458.0654296875,11591.1171875,22898.515625,29311.1796875,22243.658203125,19347.66796875,21007.85546875,7205.00927734375,28842.291015625,540.4154663085938,0.0,1208.7822265625,13810.7939453125,6697.177734375,25675.296875,16150.474609375,15078.3857421875,24576.982421875,9216.4677734375,13913.3134765625,8638.69921875,3983.974365234375,22604.46484375,9273.6884765625,16839.50390625,11505.2861328125,8656.1845703125,12029.01171875,11784.236328125,2360.343994140625,10045.369140625,3229.777099609375,16500.154296875,6251.3349609375,7834.4345703125,2543.131591796875,11052.291015625,5084.67333984375,23666.22265625,4164.3779296875,17739.13671875,3328.3232421875,9492.23828125,26177.564453125,21233.55859375,11921.7236328125,-0.0,-43863.45703125,19342.103515625,4582.4052734375,0.0,6983.2802734375,0.0,0.0
15080.76953125,15184.87890625,33289.59375,11161.16796875,27973.65234375,6438.0966796875,7890.0654296875,9043.216796875,8963.744140625,6153.58349609375,17943.3828125,-50.067901611328125,8615.6533203125,0.0,22493.205078125,7079.4423828125,24649.30078125,19720.396484375,9453.296875,11588.732421875,22890.568359375,29303.232421875,22237.30078125,19338.92578125,21006.265625,7196.267578125,28839.111328125,530.083984375,0.0,1211.961181640625,13802.845703125,6688.43603515625,25667.349609375,16144.1171875,15072.822265625,24567.4453125,9212.494140625,13905.3662109375,8631.546875,3973.642822265625,22598.90234375,9261.767578125,16834.736328125,11497.337890625,8649.826171875,12022.654296875,11773.904296875,2373.0595703125,10042.9853515625,3220.240234375,16496.9765625,6244.1826171875,7824.89794921875,2539.95263671875,11048.3173828125,5069.57373046875,23662.248046875,4153.25146484375,17739.931640625,3321.1708984375,9488.2646484375,26170.412109375,21229.5859375,11922.5185546875,-0.0,-43868.2265625,19344.48828125,4566.5107421875,0.0,6972.154296875,0.0,0.0
15081.564453125,15181.701171875,33294.359375,11171.5,27976.83203125,6438.89111328125,7890.8603515625,9046.3955078125,8965.3330078125,6156.7626953125,17947.35546875,-48.47844314575195,8616.447265625,0.0,22496.380859375,7079.4423828125,24651.685546875,19722.779296875,9456.4755859375,11592.7060546875,22892.15625,29304.822265625,22239.685546875,19342.103515625,21011.830078125,7199.4462890625,28839.90625,532.4681396484375,0.0,1223.882080078125,13805.23046875,6690.8203125,25668.939453125,16149.6787109375,15075.20703125,24566.650390625,9214.083984375,13907.75,8636.3154296875,3976.82177734375,22602.876953125,9263.3564453125,16838.708984375,11499.72265625,8653.7998046875,12022.654296875,11754.830078125,2401.669677734375,10045.369140625,3221.82958984375,16498.56640625,6244.9775390625,7824.89794921875,2541.5419921875,11049.111328125,5069.57373046875,23664.6328125,4153.25146484375,17741.521484375,3325.939208984375,9495.41796875,26172.796875,21231.970703125,11927.287109375,-0.0,-43867.4296875,19342.8984375,4565.7158203125,0.0,6976.12744140625,0.0,0.0
15087.921875,15179.31640625,33291.9765625,11169.91015625,27974.447265625,6434.91748046875,7887.68115234375,9044.0107421875,8966.1279296875,6157.55712890625,17947.35546875,-55.63100051879883,8611.6787109375,0.0,22496.380859375,7079.4423828125,24651.685546875,19720.396484375,9456.4755859375,11592.7060546875,22889.771484375,29302.439453125,22238.095703125,19340.515625,21008.650390625,7194.677734375,28838.31640625,530.8787231445312,0.0,1218.3189697265625,13804.435546875,6690.025390625,25669.732421875,16147.294921875,15072.0283203125,24566.650390625,9214.8779296875,13906.9560546875,8643.4677734375,3975.232666015625,22601.28515625,9260.177734375,16837.916015625,11497.337890625,8653.7998046875,12023.44921875,11758.009765625,2400.080322265625,10044.5751953125,3217.856201171875,16498.56640625,6241.00341796875,7832.05029296875,2535.97900390625,11039.57421875,5067.189453125,23663.044921875,4152.45654296875,17742.314453125,3325.939208984375,9497.0068359375,26171.20703125,21231.970703125,11928.0810546875,-0.0,-43875.37890625,19340.515625,4572.0732421875,0.0,6980.89599609375,0.0,0.0
15087.1279296875,15178.521484375,33286.41015625,11159.5791015625,27970.47265625,6424.5859375,7884.50244140625,9036.8583984375,8959.7705078125,6150.404296875,17943.3828125,-65.1677474975586,8610.884765625,0.0,22491.61328125,7072.2900390625,24645.328125,19717.216796875,9450.1181640625,11585.552734375,22884.2109375,29297.669921875,22230.943359375,19332.56640625,21009.4453125,7186.73095703125,28835.931640625,522.13671875,0.0,1202.4244384765625,13798.873046875,6687.64111328125,25666.5546875,16142.5263671875,15066.46484375,24559.498046875,9207.7255859375,13899.0087890625,8641.87890625,3963.311767578125,22595.724609375,9250.640625,16832.3515625,11487.0068359375,8647.44140625,12015.501953125,11774.69921875,2392.927978515625,10046.1640625,3206.72998046875,16493.796875,6231.466796875,7834.4345703125,2528.826416015625,11032.421875,5053.67919921875,23660.66015625,4141.33056640625,17738.341796875,3317.197021484375,9489.0595703125,26163.259765625,21224.81640625,11923.3134765625,-0.0,-43887.296875,19338.92578125,4558.5634765625,0.0,6972.154296875,0.0,0.0
15097.458984375,15193.6220703125,33292.76953125,11173.0888671875,27975.240234375,6438.89111328125,7893.24462890625,9047.1904296875,8975.6650390625,6161.53076171875,17933.05078125,-47.6837158203125,8610.0888671875,0.0,22499.560546875,7084.2109375,24657.25,19732.31640625,9457.2705078125,11597.4736328125,22892.951171875,29311.1796875,22240.48046875,19342.103515625,21012.625,7201.0361328125,28842.291015625,531.6734619140625,0.0,1215.934814453125,13809.998046875,6700.35693359375,25675.296875,16156.0380859375,15074.412109375,24570.623046875,9216.4677734375,13910.134765625,8641.87890625,3971.258544921875,22597.3125,9266.5361328125,16841.09375,11497.337890625,8658.568359375,12024.2431640625,11779.4677734375,2415.18017578125,10049.3427734375,3217.856201171875,16500.94921875,6240.208984375,7840.79248046875,2543.92626953125,11026.859375,5065.60009765625,23664.6328125,4150.86767578125,17749.46875,3328.3232421875,9493.033203125,26172.001953125,21233.55859375,11935.234375,-0.0,-43874.58203125,19346.873046875,4564.9208984375,0.0,6979.306640625,0.0,0.0
15091.896484375,15192.0322265625,33291.9765625,11172.294921875,27974.447265625,6439.68603515625,7890.8603515625,9043.216796875,8978.048828125,6159.94140625,17929.873046875,-52.45208740234375,8616.447265625,0.0,22499.560546875,7073.87939453125,24654.865234375,19733.111328125,9457.2705078125,11597.4736328125,22891.36328125,29308.796875,22238.890625,19341.310546875,21016.59765625,7193.88330078125,28845.46875,526.905029296875,0.0,1211.1663818359375,13807.6142578125,6697.97265625,25671.32421875,16154.447265625,15072.0283203125,24569.830078125,9215.6728515625,13907.75,8641.083984375,3973.642822265625,22599.697265625,9264.1513671875,16838.708984375,11493.365234375,8657.7734375,12021.859375,11770.7255859375,2411.20654296875,10050.1376953125,3217.856201171875,16501.74609375,6233.056640625,7834.4345703125,2537.568359375,11041.1640625,5061.62646484375,23665.427734375,4144.509765625,17751.8515625,3322.76025390625,9488.2646484375,26168.82421875,21232.763671875,11935.234375,-0.0,-43880.14453125,19346.078125,4560.15234375,0.0,6973.74365234375,0.0,0.0
15076.0009765625,15184.87890625,33284.02734375,11165.9365234375,27966.5,6431.73828125,7886.09228515625,9035.26953125,8974.8701171875,6155.1728515625,17933.05078125,-65.1677474975586,8619.6259765625,0.0,22497.177734375,7067.521484375,24648.5078125,19729.93359375,9450.912109375,11591.1171875,22884.2109375,29301.642578125,22234.12109375,19332.56640625,21012.625,7185.93603515625,28843.083984375,520.5472412109375,0.0,1200.8348388671875,13802.845703125,6691.61474609375,25664.96484375,16146.501953125,15066.46484375,24562.677734375,9210.109375,13900.59765625,8640.2890625,3968.080078125,22594.1328125,9256.2041015625,16833.94140625,11488.5966796875,8654.5947265625,12015.501953125,11755.6259765625,2395.31201171875,10045.369140625,3213.087890625,16498.56640625,6227.4931640625,7824.103515625,2528.031494140625,11046.7275390625,5059.2421875,23663.83984375,4138.15185546875,17745.494140625,3317.197021484375,9481.9072265625,26163.259765625,21227.201171875,11924.9033203125,-0.0,-43886.5,19346.873046875,4553.0,0.0,6973.74365234375,0.0,0.0
15089.51171875,15183.2890625,33288.796875,11171.5,27966.5,6434.12255859375,7884.50244140625,9037.654296875,8966.9228515625,6155.9677734375,17938.61328125,-56.42573165893555,8613.2685546875,0.0,22490.8203125,7073.87939453125,24650.892578125,19737.0859375,9453.296875,11585.552734375,22887.388671875,29304.822265625,22236.505859375,19335.74609375,21012.625,7185.14111328125,28836.7265625,521.3419799804688,0.0,1204.0137939453125,13805.23046875,6694.7939453125,25667.349609375,16152.0634765625,15068.8486328125,24564.265625,9209.3154296875,13903.77734375,8637.1103515625,3956.1591796875,22596.517578125,9259.3828125,16832.3515625,11490.185546875,8651.416015625,12017.8857421875,11759.5986328125,2393.72265625,10039.806640625,3211.498291015625,16493.796875,6232.26171875,7828.076171875,2531.210693359375,11049.111328125,5062.42138671875,23659.865234375,4142.919921875,17737.546875,3322.76025390625,9490.6494140625,26166.439453125,21226.40625,11914.5712890625,-0.0,-43883.32421875,19344.48828125,4564.12646484375,0.0,6987.25390625,0.0,0.0
15102.2275390625,15184.0849609375,33291.9765625,11169.91015625,27964.115234375,6433.328125,7880.5283203125,9036.064453125,8961.3603515625,6151.19921875,17940.998046875,-54.04154586791992,8611.6787109375,0.0,22484.4609375,7069.11083984375,24653.27734375,19734.701171875,9450.1181640625,11581.580078125,22885.00390625,29307.20703125,22235.712890625,19333.36328125,21008.650390625,7185.14111328125,28829.57421875,518.957763671875,0.0,1200.8348388671875,13804.435546875,6697.97265625,25669.732421875,16152.0634765625,15069.6435546875,24562.677734375,9206.1357421875,13902.1875,8637.9052734375,3950.595947265625,22595.724609375,9262.5615234375,16827.583984375,11490.185546875,8648.236328125,12017.0908203125,11769.1357421875,2396.106689453125,10034.2431640625,3207.524658203125,16486.64453125,6229.87744140625,7835.22900390625,2532.800048828125,11049.111328125,5056.06298828125,23655.890625,4140.53564453125,17731.189453125,3318.78662109375,9497.8017578125,26165.64453125,21221.638671875,11913.7763671875,-0.0,-43883.32421875,19339.720703125,4562.53662109375,0.0,6983.2802734375,0.0,0.0
15099.8427734375,15190.4423828125,33294.359375,11165.1416015625,27971.267578125,6437.3017578125,7886.09228515625,9037.654296875,8974.8701171875,6152.78857421875,17940.998046875,-51.6573600769043,8615.6533203125,0.0,22492.408203125,7066.7265625,24654.0703125,19737.0859375,9453.296875,11590.3212890625,22889.771484375,29307.20703125,22240.48046875,19336.54296875,21009.4453125,7189.115234375,28835.931640625,518.1630249023438,0.0,1204.0137939453125,13808.41015625,6699.56201171875,25672.1171875,16152.0634765625,15073.6171875,24562.677734375,9210.904296875,13900.59765625,8645.8525390625,3972.053466796875,22599.697265625,9264.1513671875,16832.3515625,11491.775390625,8655.388671875,12017.8857421875,11773.109375,2398.490966796875,10048.548828125,3209.90869140625,16492.208984375,6229.08251953125,7836.0244140625,2531.210693359375,11051.4951171875,5059.2421875,23658.275390625,4130.20458984375,17739.931640625,3315.607666015625,9495.41796875,26167.234375,21226.40625,11931.259765625,-0.0,-43877.76171875,19343.6953125,4560.947265625,0.0,6972.94873046875,0.0,0.0
15108.5849609375,15197.5947265625,33307.8671875,11181.8310546875,27983.984375,6453.1962890625,7899.60205078125,9050.369140625,8999.5068359375,6159.94140625,17950.53515625,-46.09425735473633,8618.83203125,0.0,22502.740234375,7077.8525390625,24665.197265625,19752.978515625,9466.8076171875,11606.216796875,22901.693359375,29319.921875,22257.169921875,19350.052734375,21016.59765625,7205.00927734375,28845.46875,533.2628784179688,0.0,1218.3189697265625,13821.125,6709.0986328125,25684.0390625,16163.984375,15085.5380859375,24577.775390625,9222.0302734375,13913.3134765625,8653.7998046875,3991.921875,22610.822265625,9278.45703125,16847.453125,11505.2861328125,8670.4892578125,12028.2177734375,11786.6201171875,2408.027587890625,10062.853515625,3226.59814453125,16507.306640625,6240.208984375,7837.61328125,2538.36328125,11044.3427734375,5079.9052734375,23665.427734375,4146.89404296875,17758.2109375,3324.349609375,9493.828125,26180.744140625,21238.326171875,11947.94921875,-0.0,-43869.01953125,19350.84765625,4568.89501953125,0.0,6968.97509765625,0.0,0.0
15091.1015625,15177.7265625,33295.94921875,11168.3203125,27975.240234375,6445.2490234375,7895.62890625,9042.421875,9014.6064453125,6157.55712890625,17942.5859375,-68.3466567993164,8618.037109375,0.0,22505.125,7068.31591796875,24654.865234375,19745.03125,9461.2431640625,11613.369140625,22892.15625,29311.1796875,22252.400390625,19342.8984375,21002.29296875,7191.4990234375,28840.69921875,524.5208740234375,0.0,1200.8348388671875,13809.998046875,6695.58837890625,25674.501953125,16155.2431640625,15077.5908203125,24570.623046875,9216.4677734375,13910.134765625,8636.3154296875,3981.59033203125,22599.697265625,9268.919921875,16841.888671875,11496.5439453125,8670.4892578125,12023.44921875,11777.0830078125,2382.59619140625,10047.7529296875,3217.856201171875,16508.1015625,6233.056640625,7818.53955078125,2532.800048828125,11041.1640625,5056.85791015625,23663.044921875,4138.9462890625,17766.953125,3317.991943359375,9481.9072265625,26172.796875,21237.53125,11959.076171875,-0.0,-43891.26953125,19357.205078125,4559.35791015625,0.0,6955.46484375,0.0,0.0
15086.3330078125,15181.701171875,33291.1796875,11159.5791015625,27969.6796875,6446.04345703125,7892.44921875,9040.83203125,9005.8642578125,6154.37841796875,17938.61328125,-64.37301635742188,8617.2421875,0.0,22501.9453125,7070.7001953125,24650.892578125,19740.263671875,9457.2705078125,11603.0380859375,22888.18359375,29308.796875,22248.42578125,19340.515625,20997.5234375,7189.115234375,28837.5234375,525.3156127929688,0.0,1204.80859375,13809.2041015625,6693.20458984375,25669.732421875,16151.26953125,15074.412109375,24569.03515625,9216.4677734375,13906.1611328125,8650.6201171875,3977.61669921875,22595.724609375,9266.5361328125,16836.32421875,11496.5439453125,8666.515625,12022.654296875,11772.3154296875,2384.185791015625,10039.01171875,3217.856201171875,16502.5390625,6234.64599609375,7814.56640625,2543.131591796875,11046.7275390625,5055.2685546875,23659.865234375,4142.919921875,17758.2109375,3317.991943359375,9485.880859375,26172.001953125,21233.55859375,11936.82421875,-0.0,-43882.53125,19354.025390625,4558.5634765625,0.0,6959.4384765625,0.0,0.0
15091.896484375,15191.2373046875,33292.76953125,11163.552734375,27972.0625,6453.1962890625,7892.44921875,9047.9853515625,8990.7646484375,6155.9677734375,17937.025390625,-53.2468147277832,8610.884765625,0.0,22496.380859375,7081.82666015625,24652.48046875,19742.646484375,9460.44921875,11593.5009765625,22890.568359375,29310.384765625,22249.22265625,19345.283203125,20997.5234375,7198.65185546875,28838.31640625,537.2365112304688,0.0,1218.3189697265625,13810.7939453125,6694.7939453125,25671.32421875,16154.447265625,15077.5908203125,24571.41796875,9218.056640625,13911.7236328125,8641.87890625,3968.080078125,22595.724609375,9270.5087890625,16838.708984375,11504.4912109375,8662.541015625,12025.8330078125,11773.109375,2394.51708984375,10038.216796875,3224.2138671875,16499.361328125,6242.59326171875,7820.12939453125,2546.310546875,11041.958984375,5069.57373046875,23658.275390625,4154.04638671875,17749.46875,3325.939208984375,9485.880859375,26174.38671875,21232.763671875,11911.392578125,-0.0,-43873.78515625,19349.255859375,4571.27880859375,0.0,6976.12744140625,0.0,0.0
15093.4853515625,15193.6220703125,33298.33203125,11169.91015625,27973.65234375,6455.580078125,7889.27099609375,9051.1640625,8972.4853515625,6159.14697265625,17943.3828125,-48.47844314575195,8614.857421875,0.0,22487.640625,7083.416015625,24653.27734375,19743.443359375,9460.44921875,11587.9375,22893.748046875,29311.974609375,22248.42578125,19348.462890625,21003.087890625,7202.62548828125,28839.111328125,540.4154663085938,0.0,1211.961181640625,13810.7939453125,6693.9990234375,25673.70703125,16152.8583984375,15079.9755859375,24572.21484375,9216.4677734375,13913.3134765625,8625.189453125,3961.721923828125,22599.697265625,9272.892578125,16837.916015625,11506.875,8655.388671875,12029.01171875,11781.056640625,2404.053955078125,10042.1904296875,3224.2138671875,16495.38671875,6244.1826171875,7828.076171875,2531.210693359375,11051.4951171875,5069.57373046875,23658.275390625,4155.6357421875,17736.75390625,3329.912841796875,9488.2646484375,26176.771484375,21231.970703125,11917.75,-0.0,-43871.40234375,19342.103515625,4572.8681640625,0.0,6986.45947265625,0.0,0.0
15092.6904296875,15189.6474609375,33290.38671875,11159.5791015625,27969.6796875,6439.68603515625,7885.296875,9047.9853515625,8966.1279296875,6162.3251953125,17936.23046875,-52.45208740234375,8608.5,0.0,22485.255859375,7085.00537109375,24646.91796875,19739.46875,9455.6806640625,11589.52734375,22886.595703125,29304.822265625,22242.068359375,19345.283203125,21000.703125,7191.4990234375,28834.34375,534.8523559570312,0.0,1203.2191162109375,13806.025390625,6692.40966796875,25669.732421875,16144.9111328125,15075.20703125,24565.0625,9214.083984375,13909.33984375,8639.4951171875,3954.5693359375,22594.9296875,9264.9462890625,16832.3515625,11501.3125,8652.2099609375,12028.2177734375,11771.51953125,2394.51708984375,10038.216796875,3204.345703125,16493.001953125,6244.9775390625,7831.255859375,2516.110595703125,11045.9326171875,5064.8056640625,23656.6875,4156.4306640625,17732.779296875,3331.502197265625,9489.0595703125,26173.591796875,21230.37890625,11929.6708984375,-0.0,-43874.58203125,19340.515625,4572.0732421875,0.0,6992.81689453125,0.0,0.0
15079.1806640625,15176.9326171875,33277.671875,11146.068359375,27962.525390625,6421.4072265625,7881.32373046875,9037.654296875,8963.744140625,6157.55712890625,17917.951171875,-73.11502838134766,8608.5,0.0,22488.435546875,7076.263671875,24636.587890625,19731.521484375,9446.9384765625,11588.732421875,22877.8515625,29292.107421875,22233.328125,19333.36328125,20995.140625,7173.22021484375,28831.1640625,518.957763671875,0.0,1180.1719970703125,13794.1044921875,6679.69384765625,25659.40234375,16130.60546875,15064.8759765625,24552.345703125,9209.3154296875,13902.1875,8624.39453125,3942.6484375,22585.392578125,9248.2568359375,16827.583984375,11484.623046875,8645.8525390625,12021.064453125,11758.009765625,2374.64892578125,10031.859375,3194.80908203125,16490.6171875,6233.85107421875,7817.7451171875,2505.779296875,11038.7802734375,5052.08984375,23655.890625,4142.12548828125,17737.546875,3322.76025390625,9475.548828125,26166.439453125,21225.611328125,11929.6708984375,-0.0,-43898.421875,19346.873046875,4557.7685546875,0.0,6982.4853515625,0.0,0.0
15076.796875,15173.7529296875,33278.46484375,11146.068359375,27962.525390625,6420.6123046875,7878.939453125,9035.26953125,8959.7705078125,6151.994140625,17906.03125,-69.93611907958984,8618.83203125,0.0,22488.435546875,7070.7001953125,24632.611328125,19730.7265625,9444.5546875,11587.142578125,22877.8515625,29289.72265625,22228.55859375,19331.7734375,20996.728515625,7170.8359375,28831.1640625,514.984130859375,0.0,1176.1983642578125,13790.9248046875,6674.130859375,25656.22265625,16125.0439453125,15064.080078125,24549.166015625,9207.7255859375,13898.2138671875,8604.5263671875,3940.26416015625,22586.98046875,9244.283203125,16825.994140625,11479.8544921875,8641.083984375,12017.0908203125,11754.0361328125,2372.264892578125,10031.859375,3197.98779296875,16489.029296875,6232.26171875,7805.82421875,2516.905517578125,11036.396484375,5050.50048828125,23654.302734375,4138.15185546875,17739.13671875,3317.991943359375,9472.3701171875,26162.466796875,21223.2265625,11921.7236328125,-0.0,-43900.01171875,19346.873046875,4552.20556640625,0.0,6972.94873046875,0.0,0.0
15073.6171875,15177.7265625,33277.671875,11148.453125,27965.703125,6425.380859375,7877.349609375,9037.654296875,8952.6171875,6151.994140625,17910.798828125,-59.604644775390625,8630.7529296875,0.0,22485.255859375,7073.87939453125,24635.791015625,19729.93359375,9446.14453125,11586.3486328125,22881.826171875,29294.490234375,22230.1484375,19333.36328125,20999.908203125,7174.81005859375,28832.75390625,518.957763671875,0.0,1184.1456298828125,13794.8994140625,6677.3095703125,25658.607421875,16128.2216796875,15066.46484375,24553.140625,9206.1357421875,13900.59765625,8610.884765625,3931.5224609375,22589.365234375,9251.435546875,16825.994140625,11487.0068359375,8639.4951171875,12017.0908203125,11750.857421875,2384.185791015625,10035.83203125,3205.140380859375,16488.234375,6233.056640625,7807.41357421875,2535.97900390625,11037.9853515625,5055.2685546875,23652.7109375,4142.12548828125,17735.162109375,3320.376220703125,9474.75390625,26163.259765625,21224.021484375,11924.9033203125,-0.0,-43888.09375,19347.66796875,4557.7685546875,0.0,6970.564453125,0.0,0.0
15072.0283203125,15183.2890625,33286.41015625,11160.3740234375,27976.03515625,6434.12255859375,7885.296875,9045.6005859375,8953.412109375,6157.55712890625,17937.818359375,-50.067901611328125,8640.2890625,0.0,22490.8203125,7083.416015625,24648.5078125,19742.646484375,9454.88671875,11589.52734375,22892.951171875,29304.822265625,22238.890625,19342.103515625,21012.625,7185.14111328125,28839.90625,528.4945068359375,0.0,1205.603271484375,13808.41015625,6693.9990234375,25671.32421875,16140.9375,15076.796875,24563.470703125,9214.8779296875,13909.33984375,8631.546875,3945.03271484375,22601.28515625,9260.177734375,16834.736328125,11494.9541015625,8646.6474609375,12025.0390625,11758.009765625,2402.464599609375,10047.7529296875,3218.65087890625,16494.591796875,6241.79833984375,7821.71923828125,2538.36328125,11048.3173828125,5075.931640625,23659.0703125,4153.25146484375,17739.13671875,3325.939208984375,9489.0595703125,26173.591796875,21231.173828125,11920.134765625,-0.0,-43874.58203125,19346.078125,4567.30517578125,0.0,6974.5380859375,0.0,0.0
15078.3857421875,15168.984375,33293.5625,11166.7314453125,27977.625,6433.328125,7887.68115234375,9045.6005859375,8958.1806640625,6163.9150390625,17949.740234375,-62.78356170654297,8626.7783203125,0.0,22493.998046875,7085.80029296875,24651.685546875,19742.646484375,9456.4755859375,11595.08984375,22892.15625,29305.6171875,22238.890625,19341.310546875,21015.009765625,7200.2412109375,28841.49609375,528.4945068359375,0.0,1207.1927490234375,13809.2041015625,6697.177734375,25673.70703125,16142.5263671875,15077.5908203125,24563.470703125,9219.646484375,13908.5458984375,8625.984375,3963.311767578125,22602.876953125,9260.177734375,16837.119140625,11493.365234375,8649.03125,12029.01171875,11754.0361328125,2394.51708984375,10046.958984375,3217.856201171875,16498.56640625,6246.56689453125,7805.029296875,2515.31591796875,11047.5224609375,5064.8056640625,23663.83984375,4150.86767578125,17743.111328125,3332.297119140625,9485.880859375,26174.38671875,21233.55859375,11923.3134765625,-0.0,-43884.9140625,19344.48828125,4572.8681640625,0.0,6990.4326171875,0.0,0.0
15060.9013671875,15150.7060546875,33287.20703125,11165.1416015625,27968.087890625,6422.99658203125,7880.5283203125,9036.064453125,8953.412109375,6159.14697265625,17944.970703125,-72.32030487060547,8595.7841796875,0.0,22488.435546875,7073.87939453125,24646.123046875,19733.90625,9447.7333984375,11591.9111328125,22883.416015625,29299.259765625,22229.353515625,19335.74609375,21004.677734375,7183.5517578125,28831.958984375,518.957763671875,0.0,1197.656005859375,13802.0517578125,6688.43603515625,25666.5546875,16138.5537109375,15068.0546875,24557.11328125,9210.109375,13901.392578125,8629.9580078125,3949.006591796875,22592.544921875,9252.23046875,16828.37890625,11482.23828125,8645.0576171875,12021.064453125,11751.6513671875,2378.622802734375,10033.4482421875,3205.935302734375,16489.82421875,6236.2353515625,7788.34033203125,2507.368896484375,11037.1904296875,5049.70556640625,23657.48046875,4134.97314453125,17740.7265625,3325.939208984375,9474.75390625,26167.234375,21225.611328125,11931.259765625,-0.0,-43901.60546875,19345.283203125,4560.947265625,0.0,6988.84326171875,0.0,0.0
15052.955078125,15157.8583984375,33291.1796875,11162.7578125,27966.5,6418.22802734375,7881.32373046875,9034.474609375,8957.3857421875,6156.7626953125,17942.5859375,-69.93611907958984,8592.60546875,0.0,22490.8203125,7069.11083984375,24645.328125,19731.521484375,9446.9384765625,11594.2958984375,22884.2109375,29297.669921875,22226.17578125,19331.7734375,21007.060546875,7178.783203125,28831.1640625,515.7788696289062,0.0,1190.50341796875,13801.2568359375,6686.84619140625,25667.349609375,16138.5537109375,15065.669921875,24552.345703125,9208.51953125,13901.392578125,8637.1103515625,3941.05908203125,22594.1328125,9249.05078125,16828.37890625,11479.060546875,8645.0576171875,12017.0908203125,11769.9306640625,2377.827880859375,10031.859375,3198.78271484375,16492.208984375,6233.056640625,7800.26123046875,2516.110595703125,11037.9853515625,5050.50048828125,23657.48046875,4132.5888671875,17742.314453125,3321.965576171875,9470.7802734375,26164.849609375,21224.81640625,11936.82421875,-0.0,-43900.01171875,19348.462890625,4542.6689453125,0.0,6978.51171875,0.0,0.0
15073.6171875,15169.779296875,33291.1796875,11151.6318359375,27967.294921875,6419.02294921875,7878.939453125,9032.8857421875,8948.6435546875,6157.55712890625,17941.79296875,-61.19409942626953,8602.9365234375,0.0,22491.61328125,7069.90576171875,24644.533203125,19732.31640625,9446.14453125,11591.9111328125,22884.2109375,29297.669921875,22226.96875,19330.18359375,21004.677734375,7177.98876953125,28834.34375,513.3946533203125,0.0,1182.55615234375,13799.6669921875,6686.84619140625,25668.14453125,16138.5537109375,15064.8759765625,24552.345703125,9208.51953125,13898.2138671875,8633.931640625,3952.18505859375,22593.33984375,9246.6669921875,16827.583984375,11478.2646484375,8640.2890625,12017.0908203125,11778.671875,2381.0068359375,10032.654296875,3195.603515625,16493.001953125,6235.44091796875,7812.18212890625,2524.05810546875,11040.3701171875,5049.70556640625,23659.0703125,4130.20458984375,17739.13671875,3324.349609375,9471.576171875,26164.0546875,21224.021484375,11926.4921875,-0.0,-43901.60546875,19349.255859375,4539.48974609375,0.0,6990.4326171875,0.0,0.0
15083.94921875,15167.3955078125,33287.20703125,11142.0947265625,27964.115234375,6416.638671875,7878.14404296875,9028.9111328125,8939.107421875,6153.58349609375,17946.5625,-61.19409942626953,8608.5,0.0,22490.8203125,7070.7001953125,24642.9453125,19733.90625,9442.9658203125,11586.3486328125,22881.03125,29295.287109375,22222.201171875,19326.2109375,21000.703125,7174.01513671875,28835.931640625,511.80523681640625,0.0,1180.9666748046875,13795.693359375,6686.0517578125,25663.375,16134.5810546875,15061.6962890625,24550.755859375,9206.9306640625,13895.03515625,8620.421875,3956.1591796875,22588.572265625,9242.6943359375,16825.994140625,11474.2919921875,8635.5205078125,12014.70703125,11784.236328125,2377.827880859375,10031.859375,3191.630126953125,16492.208984375,6232.26171875,7816.95068359375,2520.879150390625,11042.75390625,5045.73193359375,23659.0703125,4127.025390625,17737.546875,3321.965576171875,9466.01171875,26161.669921875,21223.2265625,11916.16015625,-0.0,-43903.98828125,19346.078125,4543.46337890625,0.0,6990.4326171875,0.0,0.0
15075.20703125,15151.5009765625,33280.0546875,11137.326171875,27959.34765625,6412.6650390625,7874.17138671875,9025.7333984375,8933.5439453125,6148.0205078125,17936.23046875,-69.93611907958984,8606.9111328125,0.0,22490.025390625,7069.11083984375,24637.380859375,19727.548828125,9436.607421875,11582.375,22875.466796875,29289.72265625,22215.84375,19321.44140625,20995.140625,7168.45166015625,28832.75390625,505.4473876953125,0.0,1175.403564453125,13791.720703125,6680.48876953125,25657.8125,16131.4013671875,15057.72265625,24545.98828125,9201.3671875,13890.2666015625,8611.6787109375,3952.97998046875,22582.212890625,9240.3095703125,16821.2265625,11467.93359375,8632.3427734375,12009.9384765625,11781.056640625,2368.291259765625,10028.6796875,3186.86181640625,16488.234375,6223.52001953125,7818.53955078125,2518.494873046875,11035.6015625,5036.1953125,23656.6875,4123.8466796875,17734.369140625,3313.2236328125,9458.0654296875,26155.314453125,21216.07421875,11910.59765625,-0.0,-43906.37109375,19345.283203125,4543.46337890625,0.0,6980.10107421875,0.0,0.0
15078.3857421875,15166.6005859375,33277.671875,11149.2470703125,27961.73046875,6417.43310546875,7876.5556640625,9028.9111328125,8938.3125,6148.0205078125,17932.255859375,-67.55193328857422,8606.9111328125,0.0,22492.408203125,7072.2900390625,24639.765625,19730.7265625,9439.7861328125,11585.552734375,22877.8515625,29293.6953125,22220.611328125,19323.826171875,20993.55078125,7177.98876953125,28834.34375,508.62628173828125,0.0,1185.735107421875,13794.1044921875,6682.078125,25660.9921875,16135.3740234375,15061.6962890625,24549.9609375,9202.1630859375,13890.2666015625,8619.6259765625,3944.23828125,22583.802734375,9245.078125,16822.814453125,11471.1123046875,8635.5205078125,12010.7333984375,11768.3408203125,2380.212158203125,10027.0908203125,3193.219482421875,16489.82421875,6226.6982421875,7831.255859375,2523.26318359375,11036.396484375,5048.91064453125,23656.6875,4130.20458984375,17738.341796875,3313.2236328125,9464.4228515625,26158.490234375,21217.6640625,11916.16015625,-0.0,-43904.78125,19346.873046875,4545.05322265625,0.0,6976.12744140625,0.0,0.0
15091.1015625,15178.521484375,33278.46484375,11152.4267578125,27964.115234375,6419.02294921875,7884.50244140625,9029.7060546875,8947.0546875,6149.60986328125,17937.818359375,-61.98883056640625,8602.142578125,0.0,22493.205078125,7073.08447265625,24642.9453125,19737.87890625,9443.759765625,11589.52734375,22878.646484375,29296.875,22222.99609375,19327.798828125,20994.34375,7178.783203125,28834.34375,511.80523681640625,0.0,1200.0401611328125,13798.0771484375,6687.64111328125,25661.787109375,16138.5537109375,15064.080078125,24552.345703125,9205.341796875,13895.03515625,8625.984375,3960.132568359375,22586.98046875,9247.4619140625,16828.37890625,11475.0859375,8641.083984375,12013.1181640625,11761.1884765625,2396.9013671875,10027.8857421875,3194.80908203125,16491.4140625,6229.87744140625,7837.61328125,2519.289794921875,11037.9853515625,5048.1162109375,23655.095703125,4134.17822265625,17742.314453125,3318.78662109375,9474.75390625,26164.0546875,21221.638671875,11926.4921875,-0.0,-43897.62890625,19347.66796875,4546.64208984375,0.0,6973.74365234375,0.0,0.0
15095.8701171875,15181.701171875,33272.90234375,11147.658203125,27962.525390625,6419.02294921875,7884.50244140625,9028.9111328125,8957.3857421875,6151.994140625,17934.640625,-61.19409942626953,8605.3212890625,0.0,22497.177734375,7070.7001953125,24640.560546875,19737.87890625,9445.349609375,11594.2958984375,22875.466796875,29293.6953125,22223.791015625,19327.005859375,20993.55078125,7171.630859375,28835.138671875,508.62628173828125,0.0,1199.2454833984375,13794.1044921875,6684.4619140625,25659.40234375,16132.990234375,15064.080078125,24549.166015625,9210.109375,13895.03515625,8626.7783203125,3966.490234375,22584.595703125,9242.6943359375,16829.966796875,11475.0859375,8645.0576171875,12013.912109375,11758.009765625,2395.31201171875,10029.4755859375,3192.4248046875,16496.9765625,6229.08251953125,7832.8447265625,2515.31591796875,11036.396484375,5042.552734375,23658.275390625,4133.38330078125,17749.46875,3316.40234375,9475.548828125,26164.849609375,21225.611328125,11928.8759765625,-0.0,-43902.3984375,19350.84765625,4541.8740234375,0.0,6974.5380859375,0.0,0.0
15103.0224609375,15194.416015625,33276.875,11154.015625,27969.6796875,6426.97021484375,7891.65478515625,9038.4482421875,8962.94921875,6159.94140625,17938.61328125,-58.80991744995117,8611.6787109375,0.0,22500.357421875,7080.23681640625,24646.91796875,19745.03125,9454.88671875,11603.0380859375,22882.619140625,29300.84765625,22230.943359375,19334.158203125,21000.703125,7178.783203125,28842.291015625,517.3682861328125,0.0,1202.4244384765625,13801.2568359375,6688.43603515625,25663.375,16138.5537109375,15072.0283203125,24554.728515625,9218.8515625,13902.9814453125,8631.546875,3966.490234375,22590.16015625,9249.05078125,16835.53125,11482.23828125,8654.5947265625,12022.654296875,11758.8046875,2393.72265625,10035.83203125,3201.166748046875,16504.923828125,6238.619140625,7832.05029296875,2523.26318359375,11045.138671875,5056.06298828125,23663.044921875,4142.12548828125,17755.03125,3326.73388671875,9482.701171875,26172.001953125,21235.1484375,11930.4658203125,-0.0,-43900.01171875,19355.615234375,4549.8212890625,0.0,6988.04833984375,0.0,0.0
15095.8701171875,15184.0849609375,33272.10546875,11148.453125,27964.115234375,6423.79150390625,7883.7080078125,9033.6796875,8953.412109375,6157.55712890625,17925.8984375,-69.14138793945312,8604.5263671875,0.0,22491.61328125,7071.4951171875,24640.560546875,19741.05859375,9450.912109375,11596.6796875,22876.26171875,29296.080078125,22227.763671875,19328.59375,20998.3203125,7172.42578125,28835.931640625,511.0104675292969,0.0,1194.47705078125,13796.48828125,6682.078125,25658.607421875,16132.990234375,15064.080078125,24548.373046875,9211.69921875,13898.2138671875,8626.7783203125,3948.211669921875,22583.0078125,9246.6669921875,16830.763671875,11476.67578125,8647.44140625,12017.0908203125,11751.6513671875,2375.443603515625,10030.26953125,3192.4248046875,16495.38671875,6231.466796875,7831.255859375,2522.468505859375,11034.01171875,5044.93701171875,23656.6875,4129.40966796875,17743.111328125,3324.349609375,9476.34375,26164.849609375,21228.791015625,11934.439453125,-0.0,-43912.7265625,19348.462890625,4539.48974609375,0.0,6994.40625,0.0,0.0
15073.6171875,15153.0908203125,33257.0078125,11131.763671875,27947.42578125,6403.1279296875,7870.99169921875,9013.8125,8945.46484375,6141.66259765625,17901.26171875,-97.75161743164062,8591.015625,0.0,22483.66796875,7046.06396484375,24621.486328125,19725.95703125,9432.6337890625,11586.3486328125,22859.57421875,29277.80078125,22214.25390625,19309.521484375,20990.37109375,7154.146484375,28824.01171875,483.9897155761719,0.0,1169.8404541015625,13779.00390625,6661.4150390625,25641.123046875,16114.7119140625,15048.1865234375,24529.298828125,9197.39453125,13880.7294921875,8604.5263671875,3921.190673828125,22567.908203125,9226.798828125,16814.07421875,11459.19140625,8633.13671875,11998.017578125,11738.9365234375,2356.3701171875,10019.9384765625,3170.967041015625,16483.46484375,6206.03564453125,7809.00341796875,2501.010986328125,11014.1435546875,5012.353515625,23648.73828125,4099.21044921875,17732.779296875,3303.686767578125,9453.296875,26145.77734375,21211.3046875,11932.0556640625,-0.0,-43944.51953125,19341.310546875,4506.90625,0.0,6975.33251953125,0.0,0.0
15082.359375,15160.2431640625,33269.72265625,11144.478515625,27954.578125,6406.30712890625,7878.14404296875,9019.375,8955.001953125,6151.994140625,17912.388671875,-81.85704803466797,8598.9638671875,0.0,22487.640625,7052.42138671875,24631.818359375,19735.494140625,9441.3759765625,11597.4736328125,22867.521484375,29282.5703125,22222.99609375,19315.876953125,20994.34375,7162.09423828125,28829.57421875,491.14227294921875,0.0,1182.55615234375,13787.74609375,6670.95166015625,25649.0703125,16123.453125,15056.927734375,24536.451171875,9204.546875,13886.2919921875,8618.83203125,3934.701416015625,22575.060546875,9230.7734375,16822.01953125,11465.5498046875,8641.083984375,12008.349609375,11750.0615234375,2377.827880859375,10023.9111328125,3178.914306640625,16489.029296875,6213.18798828125,7812.97705078125,2505.779296875,11022.8857421875,5023.4794921875,23653.5078125,4105.56787109375,17739.931640625,3310.04443359375,9463.6279296875,26155.314453125,21219.25390625,11946.3603515625,-0.0,-43934.18359375,19340.515625,4510.08447265625,0.0,6982.4853515625,0.0,0.0
15099.8427734375,15181.701171875,33286.41015625,11164.34765625,27969.6796875,6418.22802734375,7889.27099609375,9035.26953125,8958.9755859375,6164.70947265625,17940.203125,-53.2468147277832,8611.6787109375,0.0,22493.998046875,7069.11083984375,24649.30078125,19754.568359375,9455.6806640625,11603.83203125,22885.798828125,29300.0546875,22241.2734375,19333.36328125,21007.060546875,7174.81005859375,28838.31640625,509.4210510253906,0.0,1206.39794921875,13806.8203125,6687.64111328125,25668.14453125,16140.142578125,15076.796875,24553.140625,9219.646484375,13902.9814453125,8624.39453125,3957.74853515625,22593.33984375,9246.6669921875,16833.94140625,11480.6494140625,8650.6201171875,12021.859375,11766.7509765625,2400.080322265625,10036.6279296875,3198.78271484375,16497.76953125,6228.2880859375,7832.05029296875,2527.23681640625,11041.958984375,5045.73193359375,23659.865234375,4122.25732421875,17743.111328125,3327.52880859375,9479.5224609375,26173.591796875,21232.763671875,11955.8974609375,-0.0,-43907.9609375,19348.462890625,4529.158203125,0.0,7001.55859375,0.0,0.0
15099.8427734375,15177.7265625,33284.02734375,11161.9638671875,27969.6796875,6423.79150390625,7886.88671875,9036.064453125,8959.7705078125,6157.55712890625,17939.41015625,-54.04154586791992,8610.0888671875,0.0,22493.205078125,7067.521484375,24647.712890625,19758.54296875,9453.296875,11597.4736328125,22885.798828125,29300.84765625,22242.865234375,19335.74609375,21003.880859375,7180.37255859375,28835.931640625,511.80523681640625,0.0,1207.1927490234375,13808.41015625,6687.64111328125,25668.14453125,16138.5537109375,15077.5908203125,24554.728515625,9218.056640625,13900.59765625,8619.6259765625,3959.337646484375,22593.33984375,9250.640625,16831.556640625,11483.033203125,8649.826171875,12017.8857421875,11763.572265625,2399.28564453125,10036.6279296875,3204.345703125,16496.181640625,6223.52001953125,7827.28173828125,2532.800048828125,11040.3701171875,5048.91064453125,23658.275390625,4123.8466796875,17742.314453125,3320.376220703125,9470.7802734375,26174.38671875,21230.37890625,11943.1806640625,-0.0,-43907.1640625,19353.23046875,4525.9794921875,0.0,6991.2275390625,0.0,0.0
15100.638671875,15184.87890625,33288.00390625,11159.5791015625,27973.65234375,6430.94384765625,7886.88671875,9036.064453125,8955.7958984375,6151.19921875,17943.3828125,-46.09425735473633,8610.0888671875,0.0,22490.025390625,7067.521484375,24650.892578125,19762.515625,9454.88671875,11587.142578125,22888.18359375,29304.02734375,22246.04296875,19338.130859375,21005.47265625,7188.3203125,28837.5234375,514.984130859375,0.0,1217.524169921875,13811.587890625,6693.9990234375,25672.1171875,16143.322265625,15080.76953125,24557.11328125,9218.056640625,13902.1875,8634.7265625,3964.106201171875,22594.9296875,9256.9990234375,16833.146484375,11488.5966796875,8649.03125,12013.912109375,11773.109375,2401.669677734375,10040.6005859375,3212.29296875,16494.591796875,6224.314453125,7832.8447265625,2548.694580078125,11043.548828125,5055.2685546875,23657.48046875,4126.23095703125,17740.7265625,3316.40234375,9480.3173828125,26178.359375,21227.201171875,11917.75,-0.0,-43900.01171875,19350.84765625,4525.1845703125,0.0,6985.66455078125,0.0,0.0
