16202.130859375,15764.236328125,33837.16015625,11663.4365234375,28560.162109375,6979.306640625,8437.6337890625,9542.3056640625,9145.736328125,6248.15625,17902.056640625,443.45855712890625,8894.6025390625,0.0,22850.037109375,7203.419921875,25258.859375,20423.73046875,9946.8232421875,11653.900390625,23469.92578125,29929.48046875,22791.2265625,19960.404296875,21517.27734375,7348.85546875,29402.57421875,955.2637939453125,0.0,1846.154541015625,14446.576171875,7303.55615234375,26256.2421875,16695.658203125,15633.9013671875,25219.91796875,9543.1015625,14473.59765625,9143.3525390625,4519.62158203125,23092.427734375,9748.1416015625,17304.419921875,11932.0556640625,9151.2998046875,12450.2177734375,12086.232421875,3063.6787109375,10399.0244140625,3515.87939453125,16855.3984375,6724.9931640625,8672.873046875,3171.76171875,11356.6708984375,5424.8173828125,24011.134765625,4332.0654296875,17995.833984375,3512.700439453125,10202.7255859375,26836.39453125,21610.259765625,11935.234375,-0.0,-43723.58203125,19546.349609375,4596.7099609375,0.0,7152.5576171875,0.0,0.0
16199.7470703125,15765.8251953125,33835.5703125,11665.0263671875,28560.95703125,6980.89599609375,8433.6591796875,9542.3056640625,9141.7626953125,6246.56689453125,17907.619140625,447.43218994140625,8882.681640625,0.0,22845.267578125,7201.83056640625,25259.65234375,20421.345703125,9945.2333984375,11652.310546875,23471.513671875,29931.068359375,22788.84375,19960.404296875,21515.6875,7353.6240234375,29400.189453125,955.2637939453125,0.0,1850.128173828125,14448.9599609375,7302.76123046875,26257.833984375,16698.837890625,15633.9013671875,25221.505859375,9542.3056640625,14471.212890625,9126.6630859375,4520.416015625,23090.044921875,9749.73046875,17303.625,11932.849609375,9148.12109375,12451.8076171875,12091.0009765625,3067.65234375,10392.666015625,3518.263671875,16850.62890625,6723.40380859375,8678.4365234375,3178.11962890625,11364.619140625,5432.7646484375,24007.955078125,4332.0654296875,17992.654296875,3513.4951171875,10198.751953125,26836.39453125,21611.0546875,11932.0556640625,-0.0,-43719.609375,19540.787109375,4594.326171875,0.0,7148.583984375,0.0,0.0
16198.158203125,15770.59375,33841.1328125,11671.3837890625,28566.51953125,6987.25390625,8436.0439453125,9543.8955078125,9139.37890625,6247.36181640625,17907.619140625,454.5847473144531,8897.78125,0.0,22849.2421875,7204.21435546875,25262.83203125,20424.5234375,9949.20703125,11655.490234375,23477.078125,29937.42578125,22791.2265625,19964.376953125,21522.83984375,7362.36572265625,29401.779296875,960.826904296875,0.0,1854.896484375,14453.728515625,7305.93994140625,26263.39453125,16703.60546875,15640.2587890625,25227.865234375,9546.2802734375,14474.3916015625,9133.8154296875,4525.9794921875,23096.40234375,9758.47265625,17309.189453125,11938.4130859375,9148.12109375,12454.1923828125,12096.564453125,3074.804931640625,10405.380859375,3526.210693359375,16853.013671875,6725.7880859375,8676.0517578125,3184.4775390625,11377.3349609375,5439.9169921875,24013.51953125,4334.44970703125,17993.44921875,3511.90576171875,10201.9306640625,26842.751953125,21611.0546875,11932.0556640625,-0.0,-43710.8671875,19540.787109375,4595.12109375,0.0,7149.37841796875,0.0,0.0
16194.978515625,15766.62109375,33841.1328125,11673.767578125,28571.287109375,6989.6376953125,8440.8125,9545.4853515625,9135.4052734375,6248.951171875,17905.234375,449.8163757324219,8898.576171875,0.0,22854.009765625,7205.80419921875,25265.216796875,20426.115234375,9950.796875,11657.8740234375,23478.666015625,29939.015625,22792.81640625,19966.759765625,21517.27734375,7362.36572265625,29409.7265625,964.0057983398438,0.0,1855.6912841796875,14456.11328125,7307.529296875,26263.39453125,16705.990234375,15641.0537109375,25230.25,9547.07421875,14475.9814453125,9135.4052734375,4525.1845703125,23097.9921875,9759.2666015625,17314.751953125,11938.4130859375,9149.7109375,12453.396484375,12094.974609375,3075.599609375,10404.5869140625,3528.594970703125,16855.3984375,6727.37744140625,8673.66796875,3183.6826171875,11363.82421875,5435.14892578125,24015.904296875,4338.42333984375,17997.423828125,3507.931884765625,10201.13671875,26845.13671875,21612.64453125,11936.0283203125,-0.0,-43714.046875,19547.14453125,4587.96826171875,0.0,7147.7890625,0.0,0.0
16192.5947265625,15762.6474609375,33837.16015625,11670.58984375,28568.109375,6984.86962890625,8439.2236328125,9547.07421875,9134.6103515625,6251.3349609375,17902.056640625,446.6374816894531,8899.37109375,0.0,22849.2421875,7209.77783203125,25262.83203125,20422.935546875,9951.591796875,11659.462890625,23476.28125,29935.8359375,22790.431640625,19964.376953125,21512.5078125,7356.80224609375,29401.779296875,964.800537109375,0.0,1850.9229736328125,14454.5244140625,7305.1455078125,26261.806640625,16702.810546875,15639.4638671875,25227.865234375,9546.2802734375,14478.3662109375,9129.0478515625,4521.2109375,23094.8125,9753.7041015625,17313.162109375,11935.234375,9148.9150390625,12454.986328125,12088.6162109375,3067.65234375,10388.6923828125,3523.82666015625,16853.013671875,6729.76171875,8664.92578125,3181.298583984375,11357.466796875,5432.7646484375,24013.51953125,4340.8076171875,17999.013671875,3515.87939453125,10201.13671875,26842.751953125,21613.439453125,11942.38671875,-0.0,-43714.83984375,19544.759765625,4591.94189453125,0.0,7143.0205078125,0.0,0.0
16194.978515625,15761.8525390625,33837.16015625,11667.4111328125,28564.134765625,6980.10107421875,8433.6591796875,9542.3056640625,9129.0478515625,6245.77197265625,17908.4140625,449.8163757324219,8909.7021484375,0.0,22846.857421875,7200.2412109375,25258.859375,20419.755859375,9947.6171875,11655.490234375,23473.8984375,29931.86328125,22786.458984375,19958.814453125,21515.6875,7352.8291015625,29388.26953125,960.0321655273438,0.0,1849.3333740234375,14448.9599609375,7304.3505859375,26260.216796875,16700.42578125,15635.490234375,25224.685546875,9542.3056640625,14475.1865234375,9128.2529296875,4518.0322265625,23091.634765625,9749.73046875,17306.8046875,11932.0556640625,9144.146484375,12451.0126953125,12086.232421875,3061.29443359375,10380.7451171875,3519.05810546875,16847.453125,6725.7880859375,8665.720703125,3175.7353515625,11359.0556640625,5426.40673828125,24011.9296875,4335.24462890625,17991.861328125,3508.726806640625,10203.5205078125,26838.779296875,21608.671875,11932.849609375,-0.0,-43715.63671875,19539.197265625,4588.7626953125,0.0,7136.6630859375,0.0,0.0
16200.5419921875,15770.59375,33843.515625,11672.9736328125,28563.341796875,6988.04833984375,8432.865234375,9544.6904296875,9127.4580078125,6241.00341796875,17925.103515625,456.1742248535156,8919.2392578125,0.0,22846.064453125,7205.00927734375,25265.216796875,20422.935546875,9950.001953125,11652.310546875,23477.873046875,29938.220703125,22785.6640625,19963.58203125,21527.609375,7359.1865234375,29391.447265625,964.800537109375,0.0,1857.28076171875,14451.3447265625,7308.32421875,26264.986328125,16705.990234375,15636.2861328125,25228.658203125,9543.1015625,14474.3916015625,9140.96875,4522.80029296875,23096.40234375,9756.8828125,17306.009765625,11936.82421875,9143.3525390625,12451.8076171875,12097.3583984375,3070.831298828125,10394.255859375,3525.416015625,16847.453125,6729.76171875,8676.8466796875,3184.4775390625,11373.3603515625,5432.7646484375,24011.9296875,4341.6025390625,17991.861328125,3503.16357421875,10212.26171875,26843.546875,21609.46484375,11919.3388671875,-0.0,-43706.89453125,19547.14453125,4583.99462890625,0.0,7137.45751953125,0.0,0.0
16201.337890625,15778.5419921875,33843.515625,11676.947265625,28564.134765625,6991.2275390625,8433.6591796875,9545.4853515625,9126.6630859375,6239.4140625,17922.720703125,457.763671875,8923.212890625,0.0,22848.447265625,7208.98291015625,25266.8046875,20423.73046875,9951.591796875,11649.92578125,23480.2578125,29941.400390625,22784.07421875,19966.759765625,21530.787109375,7360.7763671875,29397.01171875,966.3899536132812,0.0,1860.459716796875,14453.728515625,7309.91357421875,26268.1640625,16708.375,15638.669921875,25231.04296875,9543.8955078125,14474.3916015625,9144.9423828125,4525.1845703125,23096.40234375,9761.6513671875,17307.599609375,11938.4130859375,9141.7626953125,12452.6025390625,12096.564453125,3075.599609375,10402.2021484375,3528.594970703125,16849.041015625,6728.17236328125,8676.0517578125,3189.245849609375,11375.7451171875,5437.53271484375,24014.314453125,4341.6025390625,17993.44921875,3504.753173828125,10215.44140625,26842.751953125,21607.875,11924.107421875,-0.0,-43704.5078125,19547.14453125,4583.99462890625,0.0,7128.71533203125,0.0,0.0
16204.515625,15784.8984375,33840.33984375,11676.947265625,28565.724609375,6992.02197265625,8432.0703125,9544.6904296875,9111.5634765625,6235.44091796875,17914.771484375,464.1214904785156,8912.880859375,0.0,22843.6796875,7204.21435546875,25267.6015625,20422.140625,9948.4130859375,11638.80078125,23479.4609375,29942.193359375,22780.099609375,19965.171875,21527.609375,7365.544921875,29396.21484375,967.1846923828125,0.0,1862.8438720703125,14456.11328125,7313.0927734375,26268.1640625,16708.375,15637.875,25231.04296875,9540.716796875,14473.59765625,9142.5576171875,4532.33740234375,23094.8125,9762.4462890625,17306.8046875,11939.2080078125,9135.4052734375,12449.423828125,12087.02734375,3078.778564453125,10399.818359375,3533.36328125,16845.861328125,6722.60888671875,8675.2578125,3196.3984375,11376.5400390625,5443.09619140625,24012.724609375,4343.986328125,17982.32421875,3500.779296875,10217.826171875,26840.369140625,21603.107421875,11919.3388671875,-0.0,-43699.7421875,19539.197265625,4585.583984375,0.0,7127.92041015625,0.0,0.0
16206.1064453125,15785.6943359375,33841.1328125,11674.5634765625,28564.134765625,6992.02197265625,8429.6865234375,9546.2802734375,9103.6162109375,6237.82470703125,17910.798828125,464.9162292480469,8906.5234375,0.0,22838.91015625,7201.0361328125,25268.396484375,20423.73046875,9947.6171875,11636.416015625,23478.666015625,29943.78515625,22778.51171875,19964.376953125,21526.814453125,7367.13427734375,29395.421875,967.9794311523438,0.0,1863.6385498046875,14454.5244140625,7313.0927734375,26268.1640625,16707.578125,15634.6953125,25231.04296875,9538.3330078125,14474.3916015625,9142.5576171875,4536.310546875,23093.22265625,9759.2666015625,17306.8046875,11940.796875,9129.841796875,12449.423828125,12084.6435546875,3077.189208984375,10395.8447265625,3534.952880859375,16842.68359375,6725.7880859375,8672.873046875,3194.80908203125,11376.5400390625,5445.48046875,24011.9296875,4347.16552734375,17975.96484375,3506.342529296875,10218.6201171875,26840.369140625,21603.107421875,11916.16015625,-0.0,-43700.53515625,19537.607421875,4585.583984375,0.0,7132.68896484375,0.0,0.0
16202.130859375,15779.3369140625,33837.95703125,11670.58984375,28559.3671875,6984.86962890625,8424.91796875,9540.716796875,9099.642578125,6233.85107421875,17906.03125,455.3794860839844,8897.78125,0.0,22835.732421875,7193.08837890625,25263.62890625,20414.98828125,9942.0546875,11634.826171875,23473.103515625,29939.015625,22770.5625,19957.224609375,21521.25,7359.9814453125,29389.857421875,960.826904296875,0.0,1857.28076171875,14448.9599609375,7309.11865234375,26263.39453125,16702.017578125,15627.54296875,25224.685546875,9533.564453125,14468.0341796875,9133.021484375,4522.00537109375,23089.25,9752.1142578125,17301.240234375,11932.849609375,9125.869140625,12444.6552734375,12087.02734375,3070.03662109375,10388.6923828125,3526.210693359375,16837.916015625,6721.01953125,8669.6943359375,3189.245849609375,11365.4140625,5439.9169921875,24009.546875,4332.8603515625,17972.787109375,3502.368896484375,10208.2890625,26832.421875,21598.33984375,11916.955078125,-0.0,-43714.046875,19536.017578125,4587.96826171875,0.0,7135.8681640625,0.0,0.0
16208.490234375,15783.3095703125,33843.515625,11675.357421875,28562.544921875,6988.84326171875,8429.6865234375,9547.8701171875,9107.58984375,6240.208984375,17905.234375,462.53204345703125,8897.78125,0.0,22842.087890625,7205.00927734375,25269.984375,20412.603515625,9946.8232421875,11645.158203125,23477.078125,29939.015625,22773.7421875,19960.404296875,21521.25,7363.16064453125,29396.21484375,967.1846923828125,0.0,1865.22802734375,14451.3447265625,7314.68212890625,26268.1640625,16706.78515625,15630.7216796875,25225.48046875,9537.537109375,14472.8017578125,9137.7900390625,4521.2109375,23092.427734375,9757.677734375,17304.419921875,11935.234375,9132.2255859375,12452.6025390625,12092.58984375,3074.01025390625,10390.28125,3529.3896484375,16843.4765625,6727.37744140625,8677.6416015625,3194.80908203125,11359.8505859375,5443.89111328125,24014.314453125,4336.0390625,17980.734375,3507.13720703125,10206.69921875,26835.599609375,21605.4921875,11922.5185546875,-0.0,-43710.8671875,19540.787109375,4591.14697265625,0.0,7134.27880859375,0.0,0.0
16214.0517578125,15790.462890625,33849.078125,11682.5107421875,28567.314453125,6992.02197265625,8432.0703125,9546.2802734375,9111.5634765625,6237.0302734375,17910.00390625,465.7109680175781,8908.1123046875,0.0,22847.65234375,7199.4462890625,25274.75390625,20414.193359375,9949.20703125,11645.158203125,23478.666015625,29942.193359375,22775.33203125,19962.787109375,21532.376953125,7367.13427734375,29404.1640625,968.774169921875,0.0,1866.022705078125,14453.728515625,7318.6552734375,26270.548828125,16711.552734375,15633.1064453125,25228.658203125,9541.51171875,14475.1865234375,9143.3525390625,4525.9794921875,23097.9921875,9760.8564453125,17310.77734375,11936.82421875,9135.4052734375,12453.396484375,12093.384765625,3080.3681640625,10399.818359375,3530.979248046875,16849.041015625,6728.17236328125,8680.8203125,3199.577392578125,11375.7451171875,5443.89111328125,24017.4921875,4334.44970703125,17986.296875,3501.57421875,10221.0048828125,26835.599609375,21607.080078125,11920.134765625,-0.0,-43704.5078125,19547.14453125,4591.14697265625,0.0,7129.51025390625,0.0,0.0
16219.6162109375,15801.587890625,33841.1328125,11687.2783203125,28561.75,6989.6376953125,8431.275390625,9541.51171875,9106.0,6229.87744140625,17911.591796875,463.3267822265625,8903.34375,0.0,22842.884765625,7185.93603515625,25272.369140625,20411.810546875,9943.64453125,11638.80078125,23472.30859375,29939.810546875,22770.5625,19959.607421875,21518.072265625,7366.33935546875,29404.1640625,962.4163208007812,0.0,1862.049072265625,14450.5498046875,7319.4501953125,26268.1640625,16712.34765625,15627.54296875,25227.0703125,9538.3330078125,14469.6240234375,9145.736328125,4522.80029296875,23088.455078125,9762.4462890625,17306.8046875,11933.64453125,9132.2255859375,12447.0400390625,12083.0537109375,3082.752197265625,10391.87109375,3529.3896484375,16845.861328125,6724.19873046875,8679.23046875,3205.140380859375,11368.591796875,5435.943359375,24011.134765625,4321.73388671875,17982.32421875,3497.6005859375,10234.515625,26831.626953125,21604.6953125,11912.1865234375,-0.0,-43705.3046875,19543.966796875,4583.2001953125,0.0,7127.1259765625,0.0,0.0
16229.9482421875,15809.5361328125,33842.72265625,11688.0732421875,28565.724609375,6990.4326171875,8436.8388671875,9542.3056640625,9108.3837890625,6229.87744140625,17915.568359375,466.50567626953125,8894.6025390625,0.0,22846.064453125,7182.7568359375,25273.958984375,20411.013671875,9946.0283203125,11636.416015625,23473.8984375,29942.193359375,22772.947265625,19960.404296875,21518.072265625,7367.92919921875,29415.2890625,963.2110595703125,0.0,1866.022705078125,14452.1396484375,7325.013671875,26269.75390625,16715.52734375,15628.337890625,25227.0703125,9540.716796875,14470.41796875,9149.7109375,4514.85302734375,23090.044921875,9764.8310546875,17312.369140625,11935.234375,9135.4052734375,12450.2177734375,12084.6435546875,3080.3681640625,10391.87109375,3530.1845703125,16851.42578125,6724.19873046875,8688.767578125,3209.90869140625,11367.7978515625,5437.53271484375,24009.546875,4319.349609375,17985.501953125,3496.010986328125,10245.640625,26834.806640625,21607.080078125,11910.59765625,-0.0,-43706.1015625,19545.5546875,4580.02099609375,0.0,7124.7421875,0.0,0.0
16225.97265625,15805.5625,33847.4921875,11687.2783203125,28572.876953125,6992.81689453125,8441.607421875,9543.1015625,9112.3583984375,6229.08251953125,17910.798828125,464.9162292480469,8891.4228515625,0.0,22851.625,7187.525390625,25274.75390625,20413.3984375,9950.796875,11637.2109375,23476.28125,29941.400390625,22776.921875,19962.787109375,21527.609375,7368.7236328125,29424.03125,966.3899536132812,0.0,1866.022705078125,14452.1396484375,7323.423828125,26273.7265625,16716.322265625,15633.1064453125,25226.275390625,9544.6904296875,14472.0078125,9146.53125,4520.416015625,23095.607421875,9764.8310546875,17319.521484375,11937.6181640625,9140.96875,12451.0126953125,12087.02734375,3076.394287109375,10394.255859375,3532.568603515625,16860.9609375,6728.17236328125,8682.41015625,3206.72998046875,11364.619140625,5441.5068359375,24018.287109375,4326.50244140625,17988.681640625,3495.21630859375,10243.2568359375,26836.39453125,21610.259765625,11911.392578125,-0.0,-43710.0703125,19544.759765625,4582.4052734375,0.0,7118.3837890625,0.0,0.0
16231.537109375,15801.587890625,33852.26171875,11691.2529296875,28575.26171875,6992.81689453125,8445.580078125,9546.2802734375,9119.5107421875,6233.85107421875,17913.9765625,468.09515380859375,8894.6025390625,0.0,22856.39453125,7194.677734375,25278.7265625,20417.37109375,9954.7705078125,11645.953125,23479.4609375,29942.990234375,22780.89453125,19965.966796875,21541.9140625,7368.7236328125,29412.111328125,969.5689086914062,0.0,1867.6121826171875,14453.728515625,7328.1923828125,26276.111328125,16715.52734375,15634.6953125,25228.658203125,9548.6640625,14476.7763671875,9142.5576171875,4528.36376953125,23098.787109375,9764.03515625,17325.08203125,11940.001953125,9147.326171875,12454.1923828125,12098.1533203125,3074.804931640625,10394.255859375,3532.568603515625,16864.140625,6732.9404296875,8675.2578125,3211.498291015625,11369.3876953125,5444.685546875,24021.466796875,4332.8603515625,17995.833984375,3499.190185546875,10242.4619140625,26839.57421875,21615.029296875,11918.544921875,-0.0,-43710.0703125,19549.52734375,4591.94189453125,0.0,7120.76806640625,0.0,0.0
16227.5634765625,15803.97265625,33851.46484375,11681.7158203125,28563.341796875,6988.04833984375,8435.2490234375,9540.716796875,9117.9208984375,6230.67236328125,17909.208984375,465.7109680175781,8906.5234375,0.0,22854.009765625,7190.7041015625,25273.958984375,20411.013671875,9948.4130859375,11642.7734375,23473.8984375,29936.6328125,22771.359375,19958.814453125,21547.4765625,7360.7763671875,29397.01171875,964.0057983398438,0.0,1862.049072265625,14448.9599609375,7323.423828125,26272.138671875,16710.7578125,15627.54296875,25222.30078125,9541.51171875,14470.41796875,9140.173828125,4540.28466796875,23094.8125,9760.0625,17309.189453125,11934.439453125,9139.37890625,12449.423828125,12092.58984375,3063.6787109375,10406.970703125,3523.82666015625,16850.62890625,6730.556640625,8659.36328125,3212.29296875,11383.6923828125,5439.12255859375,24025.439453125,4331.2705078125,17993.44921875,3493.626953125,10235.3095703125,26834.01171875,21609.46484375,11920.9287109375,-0.0,-43707.6875,19555.88671875,4589.5576171875,0.0,7108.84716796875,0.0,0.0
16218.8203125,15811.919921875,33849.078125,11666.615234375,28558.572265625,6984.0751953125,8428.8916015625,9538.3330078125,9117.126953125,6221.93017578125,17910.00390625,465.7109680175781,8900.166015625,0.0,22853.216796875,7186.73095703125,25273.958984375,20405.451171875,9945.2333984375,11635.62109375,23468.3359375,29934.248046875,22765.794921875,19953.25,21534.76171875,7357.59716796875,29404.1640625,962.4163208007812,0.0,1861.25439453125,14445.78125,7321.83447265625,26268.958984375,16709.169921875,15621.9794921875,25218.328125,9535.94921875,14465.6494140625,9145.736328125,4548.2314453125,23090.83984375,9756.8828125,17301.240234375,11928.8759765625,9134.6103515625,12444.6552734375,12085.4375,3058.11572265625,10398.228515625,3519.05810546875,16845.861328125,6726.5830078125,8657.7734375,3217.061279296875,11368.591796875,5438.32763671875,24017.4921875,4331.2705078125,17991.06640625,3485.6796875,10236.8994140625,26828.447265625,21605.4921875,11912.982421875,-0.0,-43699.7421875,19555.091796875,4587.17333984375,0.0,7094.5419921875,0.0,0.0
16218.02734375,15811.125,33852.26171875,11676.947265625,28560.162109375,6988.84326171875,8436.8388671875,9539.126953125,9117.126953125,6221.93017578125,17923.513671875,467.3004150390625,8882.681640625,0.0,22851.625,7190.7041015625,25274.75390625,20411.013671875,9948.4130859375,11635.62109375,23472.30859375,29938.220703125,22768.1796875,19957.224609375,21522.83984375,7356.80224609375,29413.69921875,967.9794311523438,0.0,1870.7911376953125,14448.166015625,7325.013671875,26272.138671875,16713.9375,15624.3642578125,25220.712890625,9539.126953125,14468.8291015625,9151.2998046875,4543.46337890625,23091.634765625,9760.0625,17308.392578125,11932.0556640625,9136.994140625,12444.6552734375,12087.822265625,3058.910400390625,10390.28125,3519.852783203125,16854.60546875,6729.76171875,8678.4365234375,3217.061279296875,11361.439453125,5442.30126953125,24000.009765625,4338.42333984375,17990.271484375,3486.474365234375,10238.48828125,26830.037109375,21607.080078125,11908.2138671875,-0.0,-43694.97265625,19547.939453125,4591.14697265625,0.0,7092.15771484375,0.0,0.0
16224.384765625,15801.587890625,33859.4140625,11691.2529296875,28572.08203125,6995.99609375,8451.9384765625,9547.8701171875,9126.6630859375,6233.056640625,17923.513671875,476.837158203125,8889.0390625,0.0,22861.162109375,7204.21435546875,25280.31640625,20418.962890625,9957.154296875,11642.7734375,23480.2578125,29944.578125,22780.89453125,19965.171875,21531.58203125,7369.51806640625,29426.416015625,977.5161743164062,0.0,1878.7384033203125,14453.728515625,7331.37109375,26276.111328125,16720.294921875,15634.6953125,25226.275390625,9549.458984375,14478.3662109375,9144.146484375,4533.1318359375,23100.376953125,9765.625,17324.2890625,11942.38671875,9149.7109375,12454.986328125,12090.2060546875,3072.4208984375,10410.9453125,3530.1845703125,16873.677734375,6739.29833984375,8687.1787109375,3213.88232421875,11370.181640625,5451.837890625,24012.724609375,4350.34423828125,17999.013671875,3496.805908203125,10233.7197265625,26840.369140625,21615.82421875,11912.1865234375,-0.0,-43683.84375,19551.119140625,4595.91552734375,0.0,7112.0263671875,0.0,0.0
16218.02734375,15796.0263671875,33853.84765625,11690.45703125,28572.876953125,6995.201171875,8449.5546875,9547.07421875,9133.021484375,6236.2353515625,17925.8984375,468.8898620605469,8900.166015625,0.0,22863.546875,7204.21435546875,25278.7265625,20416.578125,9956.359375,11646.748046875,23477.873046875,29939.810546875,22782.484375,19962.787109375,21526.017578125,7367.13427734375,29416.87890625,974.3372802734375,0.0,1869.9964599609375,14452.9345703125,7332.166015625,26272.138671875,16717.91015625,15634.6953125,25223.09765625,9549.458984375,14475.9814453125,9145.736328125,4532.33740234375,23101.171875,9764.8310546875,17325.08203125,11941.591796875,9150.5048828125,12455.78125,12088.6162109375,3078.778564453125,10412.5341796875,3528.594970703125,16869.703125,6736.9140625,8685.5888671875,3216.2666015625,11362.2353515625,5443.89111328125,24031.796875,4344.78125,18002.19140625,3499.190185546875,10237.693359375,26839.57421875,21617.412109375,11922.5185546875,-0.0,-43694.1796875,19555.091796875,4583.2001953125,0.0,7117.58935546875,0.0,0.0
16208.490234375,15803.1787109375,33839.54296875,11685.689453125,28557.77734375,6986.45947265625,8428.0966796875,9538.3330078125,9129.841796875,6232.26171875,17913.9765625,462.53204345703125,8896.9873046875,0.0,22852.419921875,7191.4990234375,25273.1640625,20408.630859375,9946.0283203125,11643.5693359375,23468.3359375,29931.86328125,22771.359375,19953.25,21514.09765625,7356.0078125,29393.83203125,964.800537109375,0.0,1867.6121826171875,14446.576171875,7328.9873046875,26264.986328125,16714.73046875,15623.5693359375,25215.1484375,9535.94921875,14465.6494140625,9152.8896484375,4525.1845703125,23088.455078125,9758.47265625,17306.8046875,11932.849609375,9137.7900390625,12447.0400390625,12075.1064453125,3085.93115234375,10391.87109375,3518.263671875,16840.298828125,6729.76171875,8683.9990234375,3222.62451171875,11361.439453125,5434.3544921875,24034.181640625,4328.88671875,17989.4765625,3496.010986328125,10243.2568359375,26828.447265625,21607.875,11928.8759765625,-0.0,-43706.89453125,19552.70703125,4567.30517578125,0.0,7119.1787109375,0.0,0.0
16229.9482421875,15818.27734375,33842.72265625,11680.1259765625,28553.8046875,6984.86962890625,8428.0966796875,9534.359375,9136.2001953125,6235.44091796875,17918.744140625,457.763671875,8899.37109375,0.0,22847.65234375,7176.3994140625,25271.57421875,20407.041015625,9942.849609375,11643.5693359375,23466.74609375,29930.2734375,22768.974609375,19950.8671875,21526.017578125,7356.80224609375,29394.626953125,956.8532104492188,0.0,1866.8175048828125,14444.9873046875,7327.39794921875,26267.37109375,16713.9375,15621.9794921875,25211.96875,9533.564453125,14462.470703125,9148.12109375,4522.00537109375,23086.8671875,9756.8828125,17302.83203125,11929.6708984375,9140.173828125,12444.6552734375,12083.0537109375,3085.93115234375,10390.28125,3511.90576171875,16841.09375,6725.7880859375,8689.5625,3224.2138671875,11380.513671875,5432.7646484375,24027.029296875,4312.9921875,17987.88671875,3496.805908203125,10249.6142578125,26823.6796875,21605.4921875,11937.6181640625,-0.0,-43715.63671875,19548.734375,4552.20556640625,0.0,7128.71533203125,0.0,0.0
16235.509765625,15811.919921875,33842.72265625,11683.3046875,28555.392578125,6976.12744140625,8432.0703125,9531.1806640625,9146.53125,6239.4140625,17904.439453125,448.2269287109375,8898.576171875,0.0,22852.419921875,7168.45166015625,25263.62890625,20403.861328125,9943.64453125,11647.5419921875,23464.361328125,29926.30078125,22770.5625,19946.89453125,21531.58203125,7346.47119140625,29401.779296875,947.3164672851562,0.0,1854.896484375,14441.8076171875,7317.86083984375,26263.39453125,16705.990234375,15621.185546875,25207.99609375,9532.76953125,14461.6767578125,9148.12109375,4510.08447265625,23085.275390625,9748.935546875,17306.009765625,11923.3134765625,9145.736328125,12445.4501953125,12072.72265625,3072.4208984375,10399.818359375,3499.190185546875,16847.453125,6721.814453125,8680.0263671875,3217.061279296875,11370.9765625,5419.25439453125,24025.439453125,4289.150390625,17994.24609375,3496.010986328125,10237.693359375,26822.08984375,21605.4921875,11951.12890625,-0.0,-43739.48046875,19553.50390625,4548.2314453125,0.0,7135.8681640625,0.0,0.0
16208.490234375,15803.97265625,33845.109375,11685.689453125,28560.95703125,6976.12744140625,8433.6591796875,9529.5908203125,9144.146484375,6233.056640625,17886.95703125,449.8163757324219,8894.6025390625,0.0,22852.419921875,7168.45166015625,25262.83203125,20403.861328125,9942.0546875,11645.158203125,23465.951171875,29927.888671875,22772.947265625,19946.09765625,21536.349609375,7343.2919921875,29403.3671875,943.3428344726562,0.0,1842.9755859375,14443.3974609375,7313.88720703125,26263.39453125,16707.578125,15623.5693359375,25206.408203125,9532.76953125,14461.6767578125,9131.431640625,4499.75341796875,23090.044921875,9748.935546875,17308.392578125,11922.5185546875,9142.5576171875,12444.6552734375,12060.005859375,3058.11572265625,10399.818359375,3499.98486328125,16848.24609375,6717.04638671875,8662.541015625,3217.856201171875,11345.5458984375,5414.48583984375,24024.64453125,4280.408203125,17995.0390625,3494.421630859375,10227.3623046875,26822.884765625,21603.107421875,11946.3603515625,-0.0,-43747.42578125,19552.70703125,4553.794921875,0.0,7131.099609375,0.0,0.0
16193.3896484375,15801.587890625,33859.4140625,11687.2783203125,28564.9296875,6983.2802734375,8436.0439453125,9534.359375,9141.7626953125,6229.08251953125,17902.056640625,449.8163757324219,8896.9873046875,0.0,22853.216796875,7173.22021484375,25270.78125,20411.013671875,9945.2333984375,11644.36328125,23473.8984375,29935.041015625,22776.126953125,19952.455078125,21544.298828125,7349.64990234375,29405.751953125,952.0848388671875,0.0,1842.180908203125,14448.166015625,7319.4501953125,26272.931640625,16716.322265625,15628.337890625,25215.1484375,9535.94921875,14464.85546875,9130.63671875,4511.67431640625,23097.197265625,9761.6513671875,17311.572265625,11927.287109375,9143.3525390625,12444.6552734375,12079.080078125,3054.14208984375,10399.818359375,3512.700439453125,16852.220703125,6721.01953125,8664.130859375,3216.2666015625,11365.4140625,5418.45947265625,24024.64453125,4289.9453125,17996.62890625,3494.421630859375,10222.5947265625,26826.0625,21606.287109375,11941.591796875,-0.0,-43745.0390625,19556.681640625,4560.15234375,0.0,7127.1259765625,0.0,0.0
16189.4169921875,15801.587890625,33859.4140625,11688.8681640625,28560.95703125,6983.2802734375,8437.6337890625,9535.1533203125,9141.7626953125,6231.466796875,17903.646484375,451.4058532714844,8894.6025390625,0.0,22853.216796875,7177.98876953125,25273.1640625,20409.42578125,9946.0283203125,11644.36328125,23473.8984375,29934.248046875,22772.947265625,19954.046875,21537.146484375,7349.64990234375,29406.546875,956.0584716796875,0.0,1842.180908203125,14448.9599609375,7328.9873046875,26272.931640625,16715.52734375,15626.7490234375,25217.533203125,9534.359375,14466.4453125,9162.42578125,4532.33740234375,23094.8125,9761.6513671875,17309.984375,11929.6708984375,9143.3525390625,12447.833984375,12079.080078125,3045.39990234375,10395.0498046875,3510.316162109375,16851.42578125,6724.19873046875,8667.3095703125,3212.29296875,11378.12890625,5421.638671875,24024.64453125,4301.8662109375,17994.24609375,3496.805908203125,10225.7724609375,26823.6796875,21607.080078125,11943.1806640625,-0.0,-43737.09375,19557.4765625,4561.7421875,0.0,7126.33154296875,0.0,0.0
16211.66796875,15798.41015625,33855.4375,11688.8681640625,28563.341796875,6984.86962890625,8438.427734375,9539.126953125,9141.7626953125,6233.056640625,17910.798828125,457.763671875,8896.9873046875,0.0,22854.009765625,7185.14111328125,25274.75390625,20410.21875,9946.0283203125,11644.36328125,23473.8984375,29937.42578125,22774.537109375,19954.83984375,21533.169921875,7352.0341796875,29410.521484375,956.8532104492188,0.0,1847.7440185546875,14451.3447265625,7335.3447265625,26274.5234375,16714.73046875,15628.337890625,25216.73828125,9534.359375,14467.2392578125,9159.2470703125,4533.92626953125,23095.607421875,9764.8310546875,17312.369140625,11932.0556640625,9144.9423828125,12450.2177734375,12075.1064453125,3054.936767578125,10399.0244140625,3503.95849609375,16853.80859375,6727.37744140625,8671.2841796875,3195.603515625,11381.30859375,5431.17529296875,24026.236328125,4312.197265625,17993.44921875,3497.6005859375,10232.92578125,26824.474609375,21606.287109375,11943.1806640625,-0.0,-43727.55859375,19555.091796875,4558.5634765625,0.0,7127.1259765625,0.0,0.0
16232.33203125,15807.947265625,33857.02734375,11674.5634765625,28568.109375,6988.04833984375,8437.6337890625,9542.3056640625,9141.7626953125,6233.85107421875,17925.103515625,466.50567626953125,8895.3974609375,0.0,22857.984375,7190.7041015625,25273.1640625,20413.3984375,9946.8232421875,11645.158203125,23474.693359375,29938.220703125,22774.537109375,19958.01953125,21536.349609375,7352.8291015625,29414.49609375,960.0321655273438,0.0,1856.4859619140625,14449.755859375,7331.37109375,26276.90625,16713.9375,15627.54296875,25216.73828125,9535.1533203125,14469.6240234375,9139.37890625,4521.2109375,23095.607421875,9764.8310546875,17314.751953125,11935.234375,9144.9423828125,12451.8076171875,12089.412109375,3062.884033203125,10405.380859375,3505.5478515625,16856.98828125,6729.76171875,8688.767578125,3182.887939453125,11387.666015625,5430.38037109375,24028.619140625,4318.55517578125,17995.0390625,3499.190185546875,10244.8466796875,26827.654296875,21608.671875,11944.7705078125,-0.0,-43714.046875,19551.912109375,4555.38427734375,0.0,7124.7421875,0.0,0.0
16255.37890625,15811.125,33857.02734375,11661.8466796875,28568.109375,6984.0751953125,8436.0439453125,9539.126953125,9140.96875,6233.85107421875,17934.640625,468.8898620605469,8886.6552734375,0.0,22860.369140625,7186.73095703125,25269.189453125,20407.8359375,9945.2333984375,11645.158203125,23471.513671875,29931.068359375,22771.359375,19953.25,21537.146484375,7349.64990234375,29413.69921875,959.2374267578125,0.0,1854.896484375,14445.78125,7326.60302734375,26272.931640625,16707.578125,15624.3642578125,25211.17578125,9534.359375,14465.6494140625,9147.326171875,4498.95849609375,23093.22265625,9760.8564453125,17315.546875,11932.0556640625,9144.9423828125,12448.62890625,12092.58984375,3055.7314453125,10400.61328125,3504.753173828125,16857.783203125,6727.37744140625,8707.046875,3194.80908203125,11382.8974609375,5424.8173828125,24026.236328125,4312.9921875,17994.24609375,3498.395263671875,10252.79296875,26825.26953125,21607.080078125,11946.3603515625,-0.0,-43714.83984375,19552.70703125,4558.5634765625,0.0,7119.9736328125,0.0,0.0
16265.7109375,15812.7158203125,33844.3125,11654.6943359375,28565.724609375,6973.74365234375,8434.455078125,9533.564453125,9137.7900390625,6229.08251953125,17927.48828125,467.3004150390625,8877.1181640625,0.0,22856.39453125,7180.37255859375,25261.244140625,20397.50390625,9940.46484375,11642.7734375,23461.9765625,29922.326171875,22765.794921875,19945.302734375,21537.939453125,7332.166015625,29412.111328125,951.2901611328125,0.0,1846.94921875,14437.0390625,7318.6552734375,26264.19140625,16698.837890625,15621.9794921875,25202.43359375,9528.0009765625,14461.6767578125,9143.3525390625,4487.03759765625,23086.8671875,9745.7568359375,17312.369140625,11924.107421875,9140.96875,12444.6552734375,12094.1796875,3066.857666015625,10389.4873046875,3497.6005859375,16854.60546875,6720.22509765625,8703.072265625,3201.96142578125,11355.876953125,5422.43359375,24022.259765625,4305.04443359375,17993.44921875,3494.421630859375,10241.66796875,26817.322265625,21600.72265625,11943.9765625,-0.0,-43721.19921875,19547.14453125,4560.15234375,0.0,7118.3837890625,0.0,0.0
16280.8095703125,15833.3779296875,33850.66796875,11672.9736328125,28572.876953125,6987.25390625,8444.7861328125,9547.8701171875,9148.12109375,6243.3876953125,17937.025390625,481.60552978515625,8882.681640625,0.0,22865.13671875,7196.267578125,25273.1640625,20407.8359375,9951.591796875,11653.900390625,23472.30859375,29933.453125,22776.126953125,19958.814453125,21551.451171875,7336.9345703125,29421.6484375,967.1846923828125,0.0,1866.8175048828125,14448.166015625,7334.55029296875,26274.5234375,16710.7578125,15631.517578125,25213.560546875,9539.921875,14474.3916015625,9152.0947265625,4514.05859375,23097.9921875,9755.2939453125,17321.904296875,11938.4130859375,9152.0947265625,12458.9609375,12111.6640625,3099.44140625,10403.7919921875,3511.90576171875,16864.935546875,6735.32470703125,8706.251953125,3224.2138671875,11374.9501953125,5435.14892578125,24030.208984375,4320.939453125,18004.576171875,3510.316162109375,10242.4619140625,26827.654296875,21613.439453125,11952.7177734375,-0.0,-43703.71484375,19559.064453125,4577.63671875,0.0,7134.27880859375,0.0,0.0
16268.888671875,15838.146484375,33848.28515625,11669.0,28565.724609375,6990.4326171875,8446.3759765625,9549.458984375,9144.9423828125,6240.208984375,17944.177734375,480.810791015625,8893.8076171875,0.0,22867.521484375,7197.06201171875,25273.958984375,20407.8359375,9951.591796875,11652.310546875,23473.103515625,29932.658203125,22773.7421875,19960.404296875,21541.119140625,7361.57080078125,29427.208984375,971.9530639648438,0.0,1874.7647705078125,14448.166015625,7336.9345703125,26272.931640625,16709.962890625,15628.337890625,25215.1484375,9539.126953125,14475.9814453125,9150.5048828125,4533.92626953125,23094.8125,9756.087890625,17317.9296875,11939.2080078125,9150.5048828125,12458.9609375,12103.716796875,3112.1572265625,10422.0703125,3518.263671875,16866.525390625,6736.9140625,8707.046875,3229.777099609375,11386.0771484375,5434.3544921875,24031.796875,4325.7080078125,18006.166015625,3511.111083984375,10241.66796875,26830.037109375,21612.64453125,11947.94921875,-0.0,-43694.1796875,19566.216796875,4575.25244140625,0.0,7127.92041015625,0.0,0.0
16252.19921875,15822.251953125,33841.1328125,11652.310546875,28564.9296875,6984.86962890625,8444.7861328125,9543.1015625,9138.583984375,6234.64599609375,17933.05078125,470.4793395996094,8894.6025390625,0.0,22862.751953125,7187.525390625,25266.01171875,20401.478515625,9949.20703125,11649.92578125,23467.541015625,29926.30078125,22768.1796875,19954.83984375,21534.76171875,7359.1865234375,29431.185546875,965.59521484375,0.0,1871.5858154296875,14440.21875,7328.1923828125,26269.75390625,16702.017578125,15625.158203125,25210.380859375,9535.94921875,14471.212890625,9140.96875,4522.00537109375,23090.044921875,9751.3203125,17317.9296875,11934.439453125,9148.12109375,12453.396484375,12088.6162109375,3102.620361328125,10410.1494140625,3515.08447265625,16863.345703125,6730.556640625,8700.6884765625,3221.034912109375,11382.8974609375,5427.20166015625,24028.619140625,4315.37646484375,18004.576171875,3502.368896484375,10233.7197265625,26826.859375,21608.671875,11943.9765625,-0.0,-43708.484375,19559.859375,4565.7158203125,0.0,7120.76806640625,0.0,0.0
16237.89453125,15803.1787109375,33832.390625,11636.416015625,28553.8046875,6969.77001953125,8429.6865234375,9527.2060546875,9125.0732421875,6222.72509765625,17908.4140625,452.99530029296875,8889.0390625,0.0,22850.83203125,7171.630859375,25249.322265625,20388.76171875,9935.6962890625,11637.2109375,23451.646484375,29911.19921875,22753.873046875,19939.740234375,21526.814453125,7345.67626953125,29412.111328125,949.70068359375,0.0,1854.896484375,14425.9140625,7308.32421875,26253.859375,16684.53125,15613.23828125,25194.486328125,9524.02734375,14455.318359375,9113.9482421875,4496.57421875,23078.123046875,9733.8359375,17304.419921875,11918.544921875,9135.4052734375,12441.4755859375,12071.9267578125,3082.752197265625,10387.103515625,3501.57421875,16848.24609375,6713.072265625,8677.6416015625,3209.114013671875,11367.00390625,5408.9228515625,24020.671875,4294.71337890625,17994.24609375,3483.29541015625,10221.0048828125,26812.552734375,21595.955078125,11933.64453125,-0.0,-43727.55859375,19547.14453125,4550.61572265625,0.0,7106.462890625,0.0,0.0
16254.5830078125,15815.8935546875,33837.95703125,11645.158203125,28556.982421875,6976.12744140625,8433.6591796875,9535.94921875,9123.484375,6228.2880859375,17915.568359375,466.50567626953125,8901.7548828125,0.0,22856.39453125,7178.783203125,25255.6796875,20398.298828125,9941.2607421875,11640.3896484375,23457.208984375,29919.1484375,22757.052734375,19949.27734375,21523.634765625,7349.64990234375,29406.546875,958.4426879882812,0.0,1859.6649169921875,14433.06640625,7313.0927734375,26258.626953125,16690.095703125,15614.8271484375,25201.638671875,9529.5908203125,14460.880859375,9126.6630859375,4504.52197265625,23081.302734375,9740.98828125,17306.8046875,11924.9033203125,9136.2001953125,12446.244140625,12081.4638671875,3085.136474609375,10387.103515625,3507.931884765625,16850.62890625,6720.22509765625,8691.947265625,3225.0087890625,11373.3603515625,5408.9228515625,24027.82421875,4303.45556640625,17995.0390625,3489.6533203125,10241.66796875,26818.91015625,21602.3125,11935.234375,-0.0,-43712.45703125,19553.50390625,4551.41064453125,0.0,7112.0263671875,0.0,0.0
16268.0947265625,15832.58203125,33843.515625,11654.6943359375,28560.162109375,6988.84326171875,8442.40234375,9547.07421875,9132.2255859375,6238.619140625,17948.9453125,482.4002685546875,8908.908203125,0.0,22864.341796875,7193.88330078125,25266.8046875,20407.041015625,9952.3857421875,11649.92578125,23464.361328125,29928.68359375,22765.794921875,19959.607421875,21539.529296875,7359.9814453125,29416.87890625,971.1583251953125,0.0,1869.20166015625,14444.1923828125,7319.4501953125,26269.75390625,16701.220703125,15623.5693359375,25212.765625,9539.921875,14472.8017578125,9148.12109375,4514.05859375,23088.455078125,9752.9091796875,17315.546875,11939.2080078125,9146.53125,12455.78125,12100.537109375,3093.083740234375,10406.1767578125,3519.05810546875,16860.166015625,6736.11962890625,8720.5576171875,3236.134765625,11389.255859375,5412.896484375,24036.56640625,4321.73388671875,18002.986328125,3500.779296875,10258.357421875,26830.83203125,21615.029296875,11946.3603515625,-0.0,-43696.5625,19561.44921875,4560.947265625,0.0,7118.3837890625,0.0,0.0
16252.994140625,15831.7890625,33837.95703125,11656.2841796875,28563.341796875,6991.2275390625,8443.9912109375,9549.458984375,9133.021484375,6238.619140625,17947.35546875,483.1949768066406,8911.2919921875,0.0,22861.95703125,7191.4990234375,25263.62890625,20408.630859375,9953.9755859375,11653.10546875,23465.951171875,29931.068359375,22768.974609375,19961.9921875,21542.70703125,7362.36572265625,29424.826171875,973.5425415039062,0.0,1871.5858154296875,14444.9873046875,7317.86083984375,26267.37109375,16702.017578125,15625.9541015625,25214.353515625,9541.51171875,14474.3916015625,9141.7626953125,4505.31640625,23087.66015625,9755.2939453125,17320.314453125,11939.2080078125,9148.9150390625,12456.576171875,12093.384765625,3091.494384765625,10412.5341796875,3522.237060546875,16861.7578125,6737.708984375,8718.1728515625,3231.366455078125,11395.61328125,5417.6650390625,24031.796875,4324.9130859375,18002.19140625,3501.57421875,10253.5888671875,26832.421875,21617.412109375,11947.1552734375,-0.0,-43692.58984375,19559.064453125,4568.89501953125,0.0,7121.56298828125,0.0,0.0
16244.2529296875,15830.1982421875,33844.3125,11663.4365234375,28573.671875,6994.40625,8450.3486328125,9550.25390625,9131.431640625,6239.4140625,17940.203125,484.7844543457031,8910.4970703125,0.0,22861.162109375,7189.90966796875,25268.396484375,20411.013671875,9957.94921875,11653.10546875,23469.92578125,29935.041015625,22774.537109375,19963.58203125,21549.06640625,7363.955078125,29439.130859375,971.9530639648438,0.0,1877.943603515625,14448.166015625,7317.06640625,26269.75390625,16705.1953125,15632.310546875,25216.73828125,9544.6904296875,14476.7763671875,9132.2255859375,4501.3427734375,23094.01953125,9760.0625,17329.05859375,11938.4130859375,9150.5048828125,12457.37109375,12091.7958984375,3087.5205078125,10413.3291015625,3519.05810546875,16865.73046875,6738.50390625,8708.63671875,3230.57177734375,11409.9189453125,5423.22802734375,24027.82421875,4321.73388671875,18001.3984375,3499.190185546875,10254.3828125,26835.599609375,21621.384765625,11944.7705078125,-0.0,-43689.41015625,19559.064453125,4569.689453125,0.0,7123.15234375,0.0,0.0
16251.4052734375,15823.8408203125,33853.0546875,11668.205078125,28577.646484375,6995.201171875,8456.70703125,9551.0478515625,9132.2255859375,6241.00341796875,17948.150390625,487.16864013671875,8907.318359375,0.0,22865.13671875,7193.08837890625,25271.57421875,20413.3984375,9961.9228515625,11653.10546875,23474.693359375,29939.810546875,22779.306640625,19966.759765625,21547.4765625,7366.33935546875,29441.515625,971.9530639648438,0.0,1878.7384033203125,14450.5498046875,7323.423828125,26275.31640625,16707.578125,15637.875,25220.712890625,9547.8701171875,14478.3662109375,9136.994140625,4501.3427734375,23098.787109375,9764.03515625,17336.2109375,11939.2080078125,9153.68359375,12456.576171875,12096.564453125,3088.315185546875,10407.765625,3516.674072265625,16872.087890625,6739.29833984375,8709.4306640625,3232.161376953125,11399.5869140625,5420.84375,24030.208984375,4323.32373046875,18002.19140625,3500.779296875,10253.5888671875,26838.779296875,21623.76953125,11946.3603515625,-0.0,-43684.64453125,19561.44921875,4568.10009765625,0.0,7122.35791015625,0.0,0.0
16250.6103515625,15819.8681640625,33843.515625,11667.4111328125,28569.69921875,6994.40625,8449.5546875,9549.458984375,9129.0478515625,6237.82470703125,17934.640625,487.9633483886719,8905.728515625,0.0,22861.95703125,7195.47265625,25268.396484375,20412.603515625,9958.744140625,11649.92578125,23471.513671875,29938.220703125,22774.537109375,19965.171875,21536.349609375,7365.544921875,29420.056640625,973.5425415039062,0.0,1871.5858154296875,14448.166015625,7321.83447265625,26269.75390625,16707.578125,15632.310546875,25219.12109375,9544.6904296875,14477.5703125,9130.63671875,4503.72705078125,23090.044921875,9764.03515625,17330.646484375,11940.001953125,9149.7109375,12457.37109375,12079.875,3082.752197265625,10401.408203125,3515.08447265625,16868.115234375,6740.09326171875,8688.767578125,3233.75048828125,11376.5400390625,5412.1015625,24033.388671875,4328.88671875,17999.806640625,3503.16357421875,10244.0517578125,26837.19140625,21619.796875,11943.1806640625,-0.0,-43683.05078125,19557.4765625,4566.5107421875,0.0,7118.3837890625,0.0,0.0
16254.5830078125,15819.072265625,33841.92578125,11668.205078125,28559.3671875,6989.6376953125,8433.6591796875,9544.6904296875,9118.7158203125,6231.466796875,17943.3828125,485.57916259765625,8907.318359375,0.0,22854.8046875,7190.7041015625,25267.6015625,20407.8359375,9950.796875,11644.36328125,23466.74609375,29935.8359375,22762.6171875,19960.404296875,21534.76171875,7363.955078125,29408.931640625,970.3636474609375,0.0,1867.6121826171875,14445.78125,7320.2451171875,26269.75390625,16704.400390625,15625.158203125,25214.353515625,9535.1533203125,14472.0078125,9136.2001953125,4506.90625,23085.275390625,9760.8564453125,17313.95703125,11935.234375,9138.583984375,12452.6025390625,12083.0537109375,3088.315185546875,10413.3291015625,3513.4951171875,16849.8359375,6735.32470703125,8683.205078125,3231.366455078125,11384.4873046875,5418.45947265625,24034.9765625,4323.32373046875,17992.654296875,3499.190185546875,10240.8720703125,26831.626953125,21613.439453125,11936.0283203125,-0.0,-43684.64453125,19555.091796875,4556.97412109375,0.0,7107.2578125,0.0,0.0
16250.6103515625,15809.5361328125,33844.3125,11673.767578125,28563.341796875,6992.02197265625,8438.427734375,9545.4853515625,9117.126953125,6232.26171875,17951.330078125,483.9897155761719,8900.166015625,0.0,22857.984375,7186.73095703125,25270.78125,20408.630859375,9953.181640625,11645.953125,23472.30859375,29939.015625,22764.205078125,19961.9921875,21538.734375,7366.33935546875,29420.056640625,971.1583251953125,0.0,1868.4068603515625,14448.9599609375,7321.03955078125,26272.931640625,16707.578125,15629.1328125,25218.328125,9537.537109375,14472.8017578125,9136.2001953125,4505.31640625,23088.455078125,9762.4462890625,17315.546875,11933.64453125,9139.37890625,12453.396484375,12089.412109375,3097.057373046875,10414.123046875,3515.08447265625,16852.220703125,6734.52978515625,8680.0263671875,3224.2138671875,11390.0498046875,5426.40673828125,24031.796875,4318.55517578125,17995.0390625,3494.421630859375,10241.66796875,26831.626953125,21615.82421875,11939.2080078125,-0.0,-43690.203125,19559.859375,4560.15234375,0.0,7111.2314453125,0.0,0.0
16237.89453125,15795.23046875,33845.90234375,11672.9736328125,28568.90234375,6995.201171875,8444.7861328125,9548.6640625,9120.3046875,6234.64599609375,17955.302734375,485.57916259765625,8896.9873046875,0.0,22863.546875,7190.7041015625,25271.57421875,20411.810546875,9958.744140625,11649.1318359375,23473.8984375,29940.60546875,22768.1796875,19962.787109375,21542.70703125,7366.33935546875,29429.59375,971.9530639648438,0.0,1866.8175048828125,14451.3447265625,7322.62939453125,26273.7265625,16709.962890625,15630.7216796875,25220.712890625,9540.716796875,14475.1865234375,9130.63671875,4506.111328125,23092.427734375,9764.03515625,17324.2890625,11936.0283203125,9144.146484375,12456.576171875,12089.412109375,3093.87841796875,10414.91796875,3518.263671875,16858.578125,6739.29833984375,8687.1787109375,3218.65087890625,11390.0498046875,5429.5859375,24035.771484375,4319.349609375,17998.21875,3495.21630859375,10232.92578125,26834.806640625,21619.796875,11943.9765625,-0.0,-43691.0,19557.4765625,4560.15234375,0.0,7116.79443359375,0.0,0.0
16233.9208984375,15793.6416015625,33844.3125,11669.0,28565.724609375,6990.4326171875,8441.607421875,9547.07421875,9121.1005859375,6233.85107421875,17948.9453125,480.810791015625,8892.21875,0.0,22863.546875,7189.115234375,25266.8046875,20406.24609375,9954.7705078125,11648.3369140625,23468.3359375,29934.248046875,22765.001953125,19959.607421875,21541.119140625,7359.9814453125,29429.59375,970.3636474609375,0.0,1862.049072265625,14445.78125,7317.06640625,26267.37109375,16703.60546875,15626.7490234375,25215.943359375,9539.921875,14472.8017578125,9139.37890625,4504.52197265625,23088.455078125,9758.47265625,17322.69921875,11934.439453125,9143.3525390625,12454.1923828125,12085.4375,3084.341796875,10406.970703125,3512.700439453125,16856.98828125,6737.708984375,8698.3037109375,3208.3193359375,11382.1025390625,5421.638671875,24034.181640625,4319.349609375,17998.21875,3496.805908203125,10221.798828125,26830.83203125,21618.20703125,11943.9765625,-0.0,-43694.1796875,19561.44921875,4546.64208984375,0.0,7111.2314453125,0.0,0.0
16235.509765625,15801.587890625,33843.515625,11668.205078125,28565.724609375,6989.6376953125,8441.607421875,9546.2802734375,9121.1005859375,6233.85107421875,17940.203125,474.4529724121094,8894.6025390625,0.0,22860.369140625,7189.90966796875,25265.216796875,20403.861328125,9953.181640625,11647.5419921875,23468.3359375,29932.658203125,22762.6171875,19958.01953125,21540.32421875,7356.80224609375,29423.236328125,971.9530639648438,0.0,1861.25439453125,14443.3974609375,7313.88720703125,26264.986328125,16702.017578125,15625.158203125,25214.353515625,9538.3330078125,14472.8017578125,9127.4580078125,4509.2900390625,23090.044921875,9757.677734375,17321.109375,11934.439453125,9142.5576171875,12453.396484375,12082.2587890625,3080.3681640625,10402.9970703125,3511.90576171875,16857.783203125,6739.29833984375,8699.8935546875,3203.551025390625,11382.8974609375,5418.45947265625,24024.64453125,4321.73388671875,17996.62890625,3496.805908203125,10224.978515625,26829.2421875,21618.20703125,11945.5654296875,-0.0,-43696.5625,19561.44921875,4543.46337890625,0.0,7108.052734375,0.0,0.0
16223.5888671875,15798.41015625,33844.3125,11664.2314453125,28570.494140625,6992.81689453125,8445.580078125,9549.458984375,9124.279296875,6234.64599609375,17940.203125,476.04241943359375,8896.19140625,0.0,22859.57421875,7192.29345703125,25263.62890625,20406.24609375,9957.154296875,11648.3369140625,23470.720703125,29932.658203125,22766.58984375,19961.9921875,21550.65625,7356.80224609375,29424.826171875,972.747802734375,0.0,1862.8438720703125,14444.9873046875,7311.5029296875,26268.958984375,16703.60546875,15627.54296875,25215.943359375,9539.921875,14475.1865234375,9120.3046875,4502.93212890625,23094.8125,9757.677734375,17324.2890625,11936.0283203125,9145.736328125,12454.1923828125,12087.822265625,3080.3681640625,10409.35546875,3514.289794921875,16860.9609375,6743.2724609375,8695.919921875,3203.551025390625,11386.0771484375,5421.638671875,24015.904296875,4322.52880859375,17998.21875,3497.6005859375,10226.5673828125,26831.626953125,21621.384765625,11944.7705078125,-0.0,-43693.3828125,19559.859375,4556.17919921875,0.0,7105.66845703125,0.0,0.0
16209.2841796875,15788.8740234375,33855.4375,11668.205078125,28578.439453125,6996.79052734375,8456.70703125,9554.2265625,9129.841796875,6237.82470703125,17956.09765625,483.9897155761719,8901.7548828125,0.0,22866.7265625,7193.88330078125,25269.189453125,20413.3984375,9963.5126953125,11652.310546875,23478.666015625,29938.220703125,22776.126953125,19969.939453125,21553.0390625,7360.7763671875,29432.7734375,976.721435546875,0.0,1869.20166015625,14452.1396484375,7317.06640625,26278.49609375,16709.962890625,15635.490234375,25223.890625,9549.458984375,14480.75,9129.0478515625,4489.421875,23101.171875,9763.2412109375,17334.619140625,11943.1806640625,9156.0673828125,12458.9609375,12095.7685546875,3086.725830078125,10418.09765625,3520.647705078125,16876.0625,6746.45068359375,8690.357421875,3210.70361328125,11397.998046875,5420.04931640625,24029.4140625,4320.14453125,18003.783203125,3500.779296875,10236.8994140625,26840.369140625,21626.154296875,11947.1552734375,-0.0,-43685.4375,19560.65625,4571.27880859375,0.0,7112.8212890625,0.0,0.0
16225.1796875,15777.74609375,33855.4375,11667.4111328125,28576.0546875,6996.79052734375,8450.3486328125,9554.2265625,9131.431640625,6237.82470703125,17949.740234375,483.1949768066406,8901.7548828125,0.0,22865.13671875,7190.7041015625,25271.57421875,20414.193359375,9961.9228515625,11651.515625,23477.873046875,29941.400390625,22775.33203125,19969.14453125,21541.119140625,7361.57080078125,29422.44140625,977.5161743164062,0.0,1871.5858154296875,14452.9345703125,7315.47705078125,26277.701171875,16710.7578125,15634.6953125,25223.09765625,9547.8701171875,14479.955078125,9129.841796875,4471.14306640625,23101.96484375,9765.625,17331.44140625,11944.7705078125,9153.68359375,12458.9609375,12090.2060546875,3082.752197265625,10413.3291015625,3522.237060546875,16867.318359375,6748.04052734375,8678.4365234375,3213.88232421875,11394.0234375,5420.84375,24042.92578125,4317.76025390625,18001.3984375,3501.57421875,10235.3095703125,26837.19140625,21626.154296875,11943.9765625,-0.0,-43682.2578125,19560.65625,4569.689453125,0.0,7112.0263671875,0.0,0.0
16237.89453125,15784.10546875,33855.4375,11670.58984375,28576.0546875,6995.99609375,8440.017578125,9555.0224609375,9129.841796875,6238.619140625,17942.5859375,483.9897155761719,8904.1396484375,0.0,22862.751953125,7189.90966796875,25273.958984375,20412.603515625,9958.744140625,11649.92578125,23478.666015625,29942.193359375,22769.76953125,19968.3515625,21539.529296875,7361.57080078125,29418.46875,980.6951293945312,0.0,1867.6121826171875,14452.9345703125,7315.47705078125,26279.291015625,16709.962890625,15631.517578125,25223.09765625,9542.3056640625,14476.7763671875,9133.021484375,4487.83251953125,23101.96484375,9767.21484375,17323.494140625,11943.1806640625,9146.53125,12458.9609375,12091.0009765625,3066.857666015625,10413.3291015625,3523.82666015625,16850.62890625,6746.45068359375,8680.8203125,3217.856201171875,11385.28125,5421.638671875,24049.28125,4318.55517578125,17996.62890625,3499.98486328125,10236.1044921875,26835.599609375,21622.9765625,11947.1552734375,-0.0,-43681.4609375,19557.4765625,4556.97412109375,0.0,7107.2578125,0.0,0.0
16232.33203125,15799.9990234375,33861.796875,11673.767578125,28583.208984375,6997.58544921875,8449.5546875,9558.201171875,9132.2255859375,6240.208984375,17943.3828125,487.16864013671875,8912.0869140625,0.0,22869.90625,7194.677734375,25277.138671875,20413.3984375,9964.306640625,11653.10546875,23482.640625,29942.990234375,22775.33203125,19972.32421875,21553.0390625,7354.41845703125,29435.158203125,982.2845458984375,0.0,1870.7911376953125,14455.318359375,7317.86083984375,26284.05859375,16711.552734375,15636.2861328125,25225.48046875,9550.25390625,14482.3388671875,9132.2255859375,4503.72705078125,23108.32421875,9764.8310546875,17331.44140625,11944.7705078125,9152.0947265625,12462.93359375,12097.3583984375,3066.857666015625,10424.455078125,3523.031982421875,16862.55078125,6748.04052734375,8685.5888671875,3225.803466796875,11377.3349609375,5426.40673828125,24053.255859375,4320.939453125,18003.783203125,3500.779296875,10233.7197265625,26840.369140625,21628.5390625,11951.923828125,-0.0,-43683.84375,19556.681640625,4548.2314453125,0.0,7100.900390625,0.0,0.0
16236.3056640625,15807.947265625,33863.3828125,11674.5634765625,28584.798828125,6999.9697265625,8456.70703125,9564.55859375,9141.7626953125,6246.56689453125,17953.71484375,490.3475646972656,8912.0869140625,0.0,22874.673828125,7208.1884765625,25280.31640625,20419.755859375,9973.048828125,11661.8466796875,23486.61328125,29946.962890625,22780.099609375,19979.4765625,21564.166015625,7363.16064453125,29441.515625,988.642333984375,0.0,1872.380615234375,14461.6767578125,7321.03955078125,26285.6484375,16717.115234375,15642.642578125,25230.25,9555.81640625,14490.287109375,9135.4052734375,4505.31640625,23108.32421875,9771.9833984375,17339.388671875,11950.333984375,9159.2470703125,12470.0859375,12098.1533203125,3080.3681640625,10426.8388671875,3523.82666015625,16871.294921875,6755.98779296875,8697.509765625,3228.982177734375,11382.1025390625,5432.7646484375,24051.666015625,4334.44970703125,18010.935546875,3508.726806640625,10231.3359375,26846.7265625,21635.69140625,11958.28125,-0.0,-43675.10546875,19565.423828125,4561.7421875,0.0,7104.87353515625,0.0,0.0
16233.9208984375,15803.1787109375,33864.9765625,11672.9736328125,28589.56640625,7006.3271484375,8459.8857421875,9569.3271484375,9145.736328125,6248.15625,17952.123046875,486.3739013671875,8914.470703125,0.0,22874.673828125,7208.1884765625,25282.701171875,20426.908203125,9976.2275390625,11661.8466796875,23492.177734375,29953.322265625,22784.07421875,19981.06640625,21569.728515625,7377.4658203125,29439.130859375,995.000244140625,0.0,1866.022705078125,14464.85546875,7323.423828125,26288.033203125,16721.08984375,15646.6162109375,25235.810546875,9557.40625,14492.6708984375,9135.4052734375,4506.111328125,23113.091796875,9781.51953125,17343.36328125,11955.1015625,9162.42578125,12471.67578125,12092.58984375,3081.95751953125,10431.607421875,3527.00537109375,16874.470703125,6759.16650390625,8692.7412109375,3215.471923828125,11400.3818359375,5435.943359375,24049.28125,4342.39697265625,18013.318359375,3510.316162109375,10231.3359375,26851.49609375,21638.07421875,11955.8974609375,-0.0,-43670.3359375,19567.80859375,4572.8681640625,0.0,7106.462890625,0.0,0.0
16217.2314453125,15796.0263671875,33863.3828125,11676.15234375,28591.15625,7007.9169921875,8463.0654296875,9569.3271484375,9155.2734375,6247.36181640625,17942.5859375,488.7580871582031,8915.2646484375,0.0,22880.236328125,7204.21435546875,25283.494140625,20425.3203125,9978.6123046875,11669.0,23490.587890625,29954.115234375,22787.251953125,19981.861328125,21555.423828125,7374.28662109375,29440.720703125,995.000244140625,0.0,1868.4068603515625,14464.85546875,7322.62939453125,26288.033203125,16721.8828125,15646.6162109375,25235.810546875,9562.96875,14492.6708984375,9136.2001953125,4506.90625,23111.501953125,9779.9296875,17345.74609375,11955.8974609375,9167.1943359375,12474.060546875,12087.822265625,3083.546875,10433.9912109375,3525.416015625,16879.240234375,6757.57763671875,8686.3828125,3201.166748046875,11400.3818359375,5433.5595703125,24049.28125,4338.42333984375,18022.85546875,3508.726806640625,10230.541015625,26854.673828125,21640.458984375,11967.0224609375,-0.0,-43671.1328125,19572.576171875,4572.8681640625,0.0,7100.900390625,0.0,0.0
16210.875,15784.10546875,33861.796875,11685.689453125,28592.744140625,7007.9169921875,8467.0380859375,9570.916015625,9166.400390625,6248.15625,17941.79296875,483.9897155761719,8905.728515625,0.0,22885.798828125,7207.3935546875,25283.494140625,20426.908203125,9981.791015625,11676.947265625,23492.177734375,29953.322265625,22788.046875,19984.24609375,21547.4765625,7372.697265625,29441.515625,996.5896606445312,0.0,1869.20166015625,14464.060546875,7321.83447265625,26288.033203125,16721.8828125,15649.0,25236.607421875,9566.943359375,14495.0556640625,9129.0478515625,4504.52197265625,23112.296875,9778.3408203125,17348.923828125,11958.28125,9172.7568359375,12475.6494140625,12076.6953125,3088.315185546875,10425.25,3525.416015625,16883.21484375,6759.16650390625,8678.4365234375,3190.04052734375,11401.1767578125,5430.38037109375,24050.078125,4336.0390625,18031.59765625,3508.726806640625,10224.1826171875,26857.056640625,21643.638671875,11978.1494140625,-0.0,-43671.92578125,19577.345703125,4570.484375,0.0,7090.568359375,0.0,0.0
16224.384765625,15780.130859375,33866.56640625,11688.0732421875,28597.513671875,7007.1220703125,8469.421875,9570.916015625,9170.373046875,6248.15625,17938.61328125,472.863525390625,8900.9599609375,0.0,22889.771484375,7203.419921875,25282.701171875,20428.5,9982.5859375,11675.357421875,23492.970703125,29953.322265625,22790.431640625,19984.24609375,21551.451171875,7370.31298828125,29447.078125,995.794921875,0.0,1863.6385498046875,14464.85546875,7318.6552734375,26288.033203125,16721.8828125,15652.974609375,25236.607421875,9567.7373046875,14496.6435546875,9121.89453125,4497.369140625,23114.681640625,9776.751953125,17353.693359375,11958.28125,9174.3466796875,12474.060546875,12083.84765625,3088.315185546875,10416.5078125,3524.621337890625,16885.599609375,6758.3720703125,8668.8994140625,3180.50390625,11381.30859375,5427.99609375,24051.666015625,4335.24462890625,18033.98046875,3507.13720703125,10214.646484375,26858.6484375,21644.43359375,11972.5869140625,-0.0,-43679.875,19577.345703125,4570.484375,0.0,7093.74755859375,0.0,0.0
16225.1796875,15788.8740234375,33870.53515625,11692.046875,28591.951171875,7011.095703125,8466.244140625,9574.095703125,9156.86328125,6250.5400390625,17937.025390625,479.2213439941406,8889.833984375,0.0,22881.03125,7206.5986328125,25285.0859375,20426.908203125,9980.99609375,11666.615234375,23495.35546875,29955.705078125,22790.431640625,19986.62890625,21557.01171875,7375.8759765625,29441.515625,998.1790771484375,0.0,1871.5858154296875,14469.6240234375,7321.03955078125,26290.416015625,16725.0625,15652.974609375,25238.990234375,9566.1474609375,14497.439453125,9129.0478515625,4494.1904296875,23116.26953125,9780.724609375,17348.130859375,11959.8701171875,9171.16796875,12474.8544921875,12096.564453125,3097.85205078125,10408.560546875,3528.594970703125,16880.830078125,6762.345703125,8660.1572265625,3189.245849609375,11377.3349609375,5437.53271484375,24045.30859375,4337.62890625,18023.6484375,3511.90576171875,10209.083984375,26857.853515625,21644.43359375,11957.486328125,-0.0,-43673.515625,19568.6015625,4581.6103515625,0.0,7109.64208984375,0.0,0.0
16214.84765625,15799.2041015625,33881.6640625,11688.0732421875,28599.103515625,7014.2744140625,8467.0380859375,9575.6845703125,9133.8154296875,6255.30859375,17947.35546875,485.57916259765625,8899.37109375,0.0,22875.466796875,7215.34130859375,25292.23828125,20434.85546875,9984.17578125,11657.8740234375,23503.302734375,29961.267578125,22792.81640625,19989.80859375,21584.830078125,7374.28662109375,29449.462890625,1001.3580322265625,0.0,1871.5858154296875,14474.3916015625,7328.9873046875,26299.158203125,16730.626953125,15656.9482421875,25244.5546875,9566.1474609375,14499.0283203125,9142.5576171875,4510.08447265625,23128.986328125,9784.6982421875,17350.515625,11963.0498046875,9165.6044921875,12479.623046875,12109.279296875,3097.85205078125,10445.912109375,3530.979248046875,16878.447265625,6767.90869140625,8664.92578125,3202.756103515625,11391.6396484375,5435.14892578125,24046.8984375,4340.8076171875,18009.34375,3519.852783203125,10213.0576171875,26860.236328125,21642.84375,11955.1015625,-0.0,-43669.5390625,19564.62890625,4595.91552734375,0.0,7128.71533203125,0.0,0.0
16225.97265625,15799.9990234375,33883.25390625,11683.3046875,28613.408203125,7015.0693359375,8473.396484375,9578.068359375,9134.6103515625,6256.103515625,17952.123046875,485.57916259765625,8910.4970703125,0.0,22881.826171875,7215.34130859375,25297.005859375,20441.212890625,9988.1484375,11659.462890625,23509.66015625,29966.03515625,22799.173828125,19992.986328125,21590.390625,7376.6708984375,29466.15234375,1002.9474487304688,0.0,1868.4068603515625,14478.3662109375,7332.96044921875,26304.72265625,16732.216796875,15664.896484375,25248.52734375,9572.505859375,14502.2080078125,9150.5048828125,4515.64794921875,23137.728515625,9784.6982421875,17362.435546875,11964.638671875,9170.373046875,12482.0068359375,12106.1005859375,3093.87841796875,10459.4228515625,3531.77392578125,16884.8046875,6771.88232421875,8671.2841796875,3212.29296875,11394.0234375,5434.3544921875,24052.4609375,4338.42333984375,18013.318359375,3519.05810546875,10217.826171875,26864.2109375,21644.43359375,11959.076171875,-0.0,-43673.515625,19569.396484375,4587.17333984375,0.0,7126.33154296875,0.0,0.0
16242.662109375,15803.1787109375,33881.6640625,11686.484375,28609.43359375,7019.04296875,8475.7802734375,9580.453125,9140.96875,6256.8984375,17958.482421875,490.3475646972656,8915.2646484375,0.0,22885.798828125,7212.95703125,25297.005859375,20440.419921875,9989.73828125,11664.2314453125,23507.27734375,29969.21484375,22799.173828125,19993.78125,21574.498046875,7381.439453125,29463.767578125,1002.9474487304688,0.0,1874.7647705078125,14480.75,7336.1396484375,26305.517578125,16734.599609375,15663.3056640625,25251.70703125,9574.095703125,14506.9765625,9152.0947265625,4517.2373046875,23131.37109375,9787.0830078125,17361.640625,11967.818359375,9174.3466796875,12483.5966796875,12105.3056640625,3098.64697265625,10441.1435546875,3532.568603515625,16887.982421875,6772.6767578125,8683.205078125,3225.0087890625,11404.35546875,5441.5068359375,24053.255859375,4334.44970703125,18019.67578125,3521.4423828125,10222.5947265625,26865.80078125,21651.5859375,11965.43359375,-0.0,-43672.72265625,19574.9609375,4572.0732421875,0.0,7123.947265625,0.0,0.0
16249.8154296875,15798.41015625,33877.6875,11683.3046875,28603.873046875,7014.2744140625,8472.6015625,9578.8642578125,9144.9423828125,6260.8720703125,17963.251953125,485.57916259765625,8927.185546875,0.0,22885.00390625,7209.77783203125,25293.03125,20434.85546875,9988.9443359375,11670.58984375,23500.919921875,29963.65234375,22793.611328125,19992.193359375,21567.34375,7376.6708984375,29447.078125,1000.5632934570312,0.0,1872.380615234375,14474.3916015625,7331.37109375,26300.748046875,16730.626953125,15656.9482421875,25247.732421875,9573.30078125,14503.796875,9143.3525390625,4502.1376953125,23124.21875,9783.1083984375,17356.873046875,11965.43359375,9175.1416015625,12484.3916015625,12106.8955078125,3095.4677734375,10426.044921875,3527.80029296875,16881.625,6769.49853515625,8687.97265625,3221.034912109375,11409.9189453125,5434.3544921875,24054.845703125,4324.9130859375,18019.67578125,3522.237060546875,10226.5673828125,26863.416015625,21651.5859375,11978.1494140625,-0.0,-43679.875,19577.345703125,4572.8681640625,0.0,7133.48388671875,0.0,0.0
16249.8154296875,15799.2041015625,33866.56640625,11683.3046875,28590.361328125,7010.30126953125,8468.6279296875,9577.2744140625,9150.5048828125,6261.6669921875,17959.275390625,485.57916259765625,8920.8291015625,0.0,22885.00390625,7206.5986328125,25286.673828125,20424.5234375,9986.5595703125,11675.357421875,23493.767578125,29957.294921875,22787.251953125,19989.013671875,21560.19140625,7373.49169921875,29440.720703125,998.1790771484375,0.0,1869.20166015625,14468.0341796875,7325.80810546875,26292.80078125,16724.267578125,15648.20703125,25240.580078125,9570.1220703125,14502.2080078125,9132.2255859375,4487.03759765625,23114.681640625,9779.1357421875,17347.3359375,11961.4599609375,9175.1416015625,12484.3916015625,12094.974609375,3092.2890625,10426.8388671875,3525.416015625,16880.03515625,6767.1142578125,8685.5888671875,3213.88232421875,11408.3291015625,5429.5859375,24051.666015625,4321.73388671875,18021.265625,3519.05810546875,10229.7470703125,26857.853515625,21650.791015625,11987.6865234375,-0.0,-43677.48828125,19575.75390625,4574.45751953125,0.0,7133.48388671875,0.0,0.0
16254.5830078125,15803.97265625,33872.921875,11693.63671875,28591.15625,7015.86376953125,8471.01171875,9581.248046875,9152.8896484375,6261.6669921875,17962.455078125,493.5264587402344,8916.8544921875,0.0,22885.798828125,7208.98291015625,25290.6484375,20427.703125,9989.73828125,11674.5634765625,23496.150390625,29959.677734375,22790.431640625,19992.193359375,21567.34375,7378.26025390625,29441.515625,1001.3580322265625,0.0,1870.7911376953125,14471.212890625,7330.57666015625,26297.568359375,16730.626953125,15651.384765625,25244.5546875,9572.505859375,14506.1806640625,9144.146484375,4502.93212890625,23119.44921875,9785.4931640625,17350.515625,11964.638671875,9177.525390625,12485.9814453125,12096.564453125,3097.85205078125,10432.40234375,3527.80029296875,16881.625,6769.49853515625,8692.7412109375,3221.82958984375,11403.560546875,5431.97021484375,24054.05078125,4328.09228515625,18022.85546875,3519.852783203125,10238.48828125,26859.44140625,21652.380859375,11986.8916015625,-0.0,-43668.74609375,19576.548828125,4575.25244140625,0.0,7127.1259765625,0.0,0.0
16250.6103515625,15795.23046875,33880.07421875,11694.431640625,28596.720703125,7012.68505859375,8474.1904296875,9582.8369140625,9153.68359375,6260.8720703125,17967.224609375,484.7844543457031,8912.880859375,0.0,22884.2109375,7206.5986328125,25289.853515625,20430.087890625,9991.328125,11674.5634765625,23499.330078125,29959.677734375,22794.404296875,19993.78125,21572.11328125,7371.90234375,29450.2578125,998.1790771484375,0.0,1864.433349609375,14471.212890625,7328.9873046875,26298.365234375,16726.65234375,15652.974609375,25245.34765625,9574.095703125,14506.9765625,9152.0947265625,4502.93212890625,23125.013671875,9781.51953125,17353.693359375,11964.638671875,9178.3212890625,12485.9814453125,12103.716796875,3093.083740234375,10432.40234375,3524.621337890625,16884.0078125,6769.49853515625,8692.7412109375,3220.240234375,11403.560546875,5428.791015625,24049.28125,4322.52880859375,18026.033203125,3520.647705078125,10228.951171875,26861.033203125,21655.55859375,11990.0703125,-0.0,-43676.69140625,19578.138671875,4569.689453125,0.0,7123.947265625,0.0,0.0
16241.0732421875,15789.6669921875,33880.87109375,11684.1005859375,28603.873046875,7015.86376953125,8486.111328125,9591.5791015625,9174.3466796875,6281.53466796875,17956.09765625,478.4266052246094,8912.0869140625,0.0,22893.748046875,7211.3671875,25289.853515625,20435.65234375,10001.6591796875,11696.8154296875,23503.302734375,29962.857421875,22801.556640625,19999.345703125,21577.677734375,7371.107421875,29467.740234375,1002.9474487304688,0.0,1861.25439453125,14473.59765625,7324.21875,26297.568359375,16727.447265625,15657.7431640625,25250.912109375,9585.2216796875,14515.7177734375,9131.431640625,4498.16357421875,23125.806640625,9782.314453125,17367.205078125,11970.9970703125,9192.6259765625,12498.6962890625,12103.716796875,3088.315185546875,10433.9912109375,3527.00537109375,16898.314453125,6778.240234375,8676.0517578125,3211.498291015625,11405.150390625,5424.0224609375,24046.1015625,4322.52880859375,18040.337890625,3535.74755859375,10220.2099609375,26865.80078125,21669.068359375,12018.6806640625,-0.0,-43681.4609375,19589.265625,4568.10009765625,0.0,7137.45751953125,0.0,0.0
16237.1005859375,15791.2578125,33883.25390625,11692.841796875,28615.79296875,7026.1953125,8501.2119140625,9607.474609375,9187.857421875,6318.88720703125,17945.765625,480.0160827636719,8908.908203125,0.0,22903.283203125,7230.4404296875,25297.005859375,20446.77734375,10015.96484375,11720.6572265625,23510.45703125,29973.984375,22814.2734375,20012.060546875,21574.498046875,7379.05517578125,29482.841796875,1014.07373046875,0.0,1867.6121826171875,14480.75,7326.60302734375,26302.337890625,16736.189453125,15667.2802734375,25260.44921875,9600.3212890625,14530.0224609375,9115.537109375,4506.90625,23129.78125,9794.2353515625,17383.89453125,11982.123046875,9206.1357421875,12521.744140625,12087.02734375,3093.083740234375,10435.5810546875,3534.157958984375,16914.208984375,6795.724609375,8654.5947265625,3211.498291015625,11401.970703125,5428.791015625,24050.87109375,4332.8603515625,18049.875,3567.53662109375,10222.5947265625,26879.310546875,21685.7578125,12036.1640625,-0.0,-43682.2578125,19590.05859375,4582.4052734375,0.0,7174.01513671875,0.0,0.0
16237.1005859375,15800.794921875,33883.25390625,11706.3525390625,28620.5625,7034.14306640625,8513.927734375,9622.57421875,9198.9833984375,6350.67626953125,17940.203125,491.9369812011719,8904.1396484375,0.0,22911.23046875,7252.693359375,25304.158203125,20450.75,10028.6796875,11741.3203125,23518.404296875,29982.724609375,22823.015625,20023.98046875,21574.498046875,7390.18115234375,29481.251953125,1027.5841064453125,0.0,1875.5594482421875,14487.90234375,7332.96044921875,26309.490234375,16744.13671875,15676.021484375,25269.189453125,9611.447265625,14544.328125,9125.0732421875,4518.8271484375,23136.138671875,9803.771484375,17391.83984375,11994.0439453125,9219.646484375,12540.8173828125,12082.2587890625,3100.236083984375,10432.40234375,3546.078857421875,16926.923828125,6811.61865234375,8655.388671875,3220.240234375,11391.6396484375,5443.89111328125,24042.92578125,4351.93408203125,18059.412109375,3596.941650390625,10228.1572265625,26888.84765625,21699.26953125,12048.0849609375,-0.0,-43671.1328125,19590.85546875,4600.68359375,0.0,7208.1884765625,0.0,0.0
16222.7958984375,15784.8984375,33874.51171875,11708.736328125,28613.408203125,7029.37451171875,8503.5966796875,9616.2158203125,9181.4990234375,6334.78173828125,17927.48828125,492.73175048828125,8913.67578125,0.0,22904.873046875,7251.10400390625,25301.775390625,20442.8046875,10019.1435546875,11723.8359375,23513.634765625,29977.1640625,22813.478515625,20016.03515625,21583.23828125,7388.591796875,29466.947265625,1025.199951171875,0.0,1868.4068603515625,14483.9287109375,7332.166015625,26307.90234375,16738.572265625,15667.2802734375,25263.62890625,9603.5,14534.791015625,9130.63671875,4518.0322265625,23131.37109375,9797.4140625,17377.53515625,11987.6865234375,9208.51953125,12531.2802734375,12083.0537109375,3096.2626953125,10447.501953125,3544.489501953125,16917.38671875,6806.8505859375,8653.7998046875,3218.65087890625,11395.61328125,5444.685546875,24050.078125,4350.34423828125,18051.466796875,3588.19970703125,10223.388671875,26881.6953125,21690.52734375,12009.9384765625,-0.0,-43675.10546875,19581.318359375,4591.94189453125,0.0,7197.85693359375,0.0,0.0
16201.337890625,15785.6943359375,33872.921875,11700.7890625,28610.23046875,7022.22216796875,8486.111328125,9593.1689453125,9148.9150390625,6264.05078125,17930.666015625,492.73175048828125,8921.623046875,0.0,22892.951171875,7228.056640625,25297.80078125,20438.830078125,9999.275390625,11671.3837890625,23509.66015625,29973.1875,22800.763671875,20004.11328125,21595.16015625,7386.20751953125,29452.642578125,1011.6895141601562,0.0,1853.30712890625,14480.75,7326.60302734375,26304.72265625,16736.189453125,15660.1279296875,25257.26953125,9588.400390625,14516.5126953125,9120.3046875,4506.111328125,23135.34375,9796.619140625,17366.41015625,11973.380859375,9183.8837890625,12497.107421875,12083.84765625,3066.857666015625,10450.6806640625,3536.542236328125,16898.314453125,6782.2138671875,8663.3369140625,3208.3193359375,11398.7919921875,5441.5068359375,24065.970703125,4339.21826171875,18032.392578125,3536.542236328125,10216.236328125,26871.36328125,21663.5078125,11955.1015625,-0.0,-43670.3359375,19580.5234375,4580.81591796875,0.0,7131.89453125,0.0,0.0
16214.84765625,15810.3310546875,33890.40625,11710.326171875,28616.5859375,7030.9638671875,8476.5751953125,9589.9892578125,9125.869140625,6242.59326171875,17965.634765625,499.8843078613281,8928.775390625,0.0,22886.595703125,7223.2880859375,25310.515625,20446.77734375,9998.48046875,11651.515625,23519.197265625,29981.931640625,22802.353515625,20004.908203125,21604.6953125,7395.744140625,29451.84765625,1012.4841918945312,0.0,1862.8438720703125,14490.287109375,7336.9345703125,26316.642578125,16747.31640625,15667.2802734375,25262.83203125,9583.6328125,14514.12890625,9136.994140625,4511.67431640625,23144.880859375,9807.74609375,17364.8203125,11974.970703125,9171.962890625,12485.9814453125,12102.126953125,3066.857666015625,10457.8330078125,3543.69482421875,16877.650390625,6775.85595703125,8676.8466796875,3215.471923828125,11430.5810546875,5447.06982421875,24076.302734375,4346.37060546875,18015.703125,3513.4951171875,10222.5947265625,26873.74609375,21654.763671875,11948.7451171875,-0.0,-43657.62109375,19579.728515625,4600.68359375,0.0,7116.79443359375,0.0,0.0
16223.5888671875,15802.3837890625,33879.28125,11703.173828125,28603.076171875,7019.837890625,8464.654296875,9576.4794921875,9118.7158203125,6225.90380859375,17964.044921875,496.7053527832031,8902.5498046875,0.0,22879.44140625,7205.80419921875,25300.98046875,20435.65234375,9988.9443359375,11643.5693359375,23509.66015625,29971.599609375,22789.63671875,19992.986328125,21572.11328125,7386.20751953125,29447.078125,1002.9474487304688,0.0,1860.459716796875,14480.75,7329.7822265625,26307.10546875,16737.779296875,15656.9482421875,25251.70703125,9571.7119140625,14501.412109375,9136.2001953125,4503.72705078125,23128.19140625,9797.4140625,17352.900390625,11965.43359375,9163.220703125,12473.265625,12091.7958984375,3076.394287109375,10437.1708984375,3534.952880859375,16872.087890625,6763.14013671875,8656.1845703125,3209.90869140625,11418.66015625,5438.32763671875,24058.818359375,4334.44970703125,18008.55078125,3489.6533203125,10219.4150390625,26863.416015625,21641.25390625,11955.1015625,-0.0,-43660.00390625,19575.75390625,4583.99462890625,0.0,7075.46875,0.0,0.0
16237.1005859375,15788.078125,33877.6875,11711.12109375,28606.255859375,7019.837890625,8474.986328125,9579.658203125,9135.4052734375,6240.208984375,17965.634765625,502.26849365234375,8900.9599609375,0.0,22889.771484375,7202.62548828125,25303.36328125,20442.009765625,9995.30078125,11661.8466796875,23511.251953125,29974.779296875,22796.7890625,19996.9609375,21562.576171875,7385.41259765625,29457.41015625,1002.9474487304688,0.0,1865.22802734375,14483.1337890625,7333.75537109375,26308.6953125,16740.95703125,15660.9208984375,25257.26953125,9577.2744140625,14505.38671875,9138.583984375,4498.95849609375,23129.78125,9800.59375,17361.640625,11966.228515625,9173.552734375,12480.41796875,12093.384765625,3077.189208984375,10438.759765625,3534.952880859375,16887.982421875,6765.5244140625,8657.7734375,3207.524658203125,11398.7919921875,5436.73828125,24061.998046875,4328.09228515625,18024.4453125,3501.57421875,10223.388671875,26867.390625,21650.791015625,11976.5595703125,-0.0,-43660.80078125,19582.11328125,4571.27880859375,0.0,7087.3896484375,0.0,0.0
16237.1005859375,15784.8984375,33878.48828125,11692.046875,28614.998046875,7011.890625,8481.34375,9576.4794921875,9144.146484375,6252.1298828125,17966.4296875,487.9633483886719,8920.033203125,0.0,22897.720703125,7195.47265625,25299.390625,20441.212890625,9996.0966796875,11671.3837890625,23512.83984375,29971.599609375,22799.173828125,19993.78125,21572.908203125,7373.49169921875,29473.3046875,991.0265502929688,0.0,1858.075439453125,14483.9287109375,7329.7822265625,26308.6953125,16736.189453125,15662.51171875,25253.296875,9580.453125,14505.38671875,9139.37890625,4500.5478515625,23132.958984375,9791.056640625,17367.205078125,11959.076171875,9179.115234375,12481.212890625,12094.974609375,3085.93115234375,10453.8603515625,3523.031982421875,16895.9296875,6760.755859375,8664.130859375,3203.551025390625,11390.0498046875,5423.22802734375,24069.150390625,4309.0185546875,18033.98046875,3511.90576171875,10223.388671875,26867.390625,21655.55859375,11982.123046875,-0.0,-43683.05078125,19585.291015625,4561.7421875,0.0,7113.61572265625,0.0,0.0
16233.9208984375,15798.41015625,33871.3359375,11676.947265625,28601.48828125,7003.94287109375,8469.421875,9568.5322265625,9133.8154296875,6244.9775390625,17964.83984375,483.9897155761719,8906.5234375,0.0,22889.771484375,7194.677734375,25293.826171875,20432.47265625,9987.3544921875,11660.2578125,23503.302734375,29964.447265625,22787.251953125,19986.62890625,21550.65625,7364.75,29455.02734375,986.2581787109375,0.0,1856.4859619140625,14475.9814453125,7325.80810546875,26301.54296875,16729.037109375,15653.7685546875,25246.142578125,9572.505859375,14498.2333984375,9133.8154296875,4502.1376953125,23120.244140625,9779.9296875,17355.283203125,11949.5390625,9168.7841796875,12474.060546875,12091.7958984375,3097.85205078125,10431.607421875,3513.4951171875,16884.8046875,6756.78271484375,8676.0517578125,3207.524658203125,11382.1025390625,5420.84375,24058.818359375,4305.83935546875,18023.6484375,3505.5478515625,10219.4150390625,26860.236328125,21647.611328125,11970.2021484375,-0.0,-43687.8203125,19582.11328125,4564.12646484375,0.0,7111.2314453125,0.0,0.0
16232.33203125,15800.794921875,33861.0,11672.9736328125,28584.798828125,6995.99609375,8455.1171875,9562.1748046875,9117.126953125,6232.26171875,17964.83984375,483.1949768066406,8898.576171875,0.0,22877.8515625,7188.3203125,25287.470703125,20422.140625,9975.43359375,11647.5419921875,23493.767578125,29957.294921875,22774.537109375,19977.888671875,21537.939453125,7358.39208984375,29428.005859375,981.4898071289062,0.0,1856.4859619140625,14466.4453125,7323.423828125,26294.390625,16723.474609375,15642.642578125,25238.1953125,9561.3798828125,14488.697265625,9129.0478515625,4501.3427734375,23109.912109375,9771.9833984375,17338.59375,11942.38671875,9156.0673828125,12462.93359375,12087.822265625,3101.82568359375,10403.7919921875,3506.342529296875,16868.91015625,6749.6298828125,8682.41015625,3213.88232421875,11386.87109375,5419.25439453125,24050.078125,4308.2236328125,18012.5234375,3493.626953125,10214.646484375,26850.701171875,21635.69140625,11966.228515625,-0.0,-43687.8203125,19572.576171875,4557.7685546875,0.0,7100.10546875,0.0,0.0
16237.89453125,15804.767578125,33868.94921875,11684.1005859375,28598.30859375,7005.53271484375,8465.44921875,9570.1220703125,9123.484375,6241.00341796875,17964.044921875,490.3475646972656,8907.318359375,0.0,22886.595703125,7200.2412109375,25296.2109375,20430.087890625,9984.9697265625,11657.0791015625,23503.302734375,29966.83203125,22783.279296875,19988.21875,21564.166015625,7370.31298828125,29440.720703125,991.0265502929688,0.0,1864.433349609375,14475.9814453125,7326.60302734375,26302.337890625,16733.01171875,15651.384765625,25247.732421875,9570.1220703125,14496.6435546875,9136.994140625,4503.72705078125,23121.833984375,9780.724609375,17349.720703125,11952.7177734375,9164.015625,12471.67578125,12087.822265625,3107.388671875,10416.5078125,3517.46875,16879.240234375,6759.96142578125,8684.7939453125,3225.803466796875,11392.4345703125,5427.99609375,24058.0234375,4321.73388671875,18021.265625,3500.779296875,10225.7724609375,26860.236328125,21646.0234375,11977.35546875,-0.0,-43676.69140625,19582.11328125,4562.53662109375,0.0,7109.64208984375,0.0,0.0
16249.8154296875,15803.97265625,33876.89453125,11687.2783203125,28602.28125,7008.71142578125,8471.806640625,9573.30078125,9123.484375,6246.56689453125,17971.197265625,490.3475646972656,8913.67578125,0.0,22891.36328125,7205.00927734375,25300.18359375,20437.240234375,9990.533203125,11662.642578125,23506.482421875,29972.39453125,22785.6640625,19993.78125,21569.728515625,7373.49169921875,29451.05078125,994.2054443359375,0.0,1864.433349609375,14480.75,7328.9873046875,26307.10546875,16736.984375,15655.359375,25253.296875,9574.890625,14499.0283203125,9152.8896484375,4489.421875,23121.0390625,9784.6982421875,17356.873046875,11955.8974609375,9164.810546875,12474.8544921875,12087.822265625,3105.004638671875,10427.6337890625,3520.647705078125,16885.599609375,6762.345703125,8687.1787109375,3217.856201171875,11400.3818359375,5427.99609375,24063.587890625,4319.349609375,18026.033203125,3507.13720703125,10232.130859375,26865.005859375,21652.380859375,11984.5078125,-0.0,-43678.28515625,19586.880859375,4572.0732421875,0.0,7118.3837890625,0.0,0.0
16240.2783203125,15799.2041015625,33875.3046875,11682.5107421875,28605.4609375,7007.1220703125,8469.421875,9570.916015625,9116.33203125,6241.00341796875,17958.482421875,483.9897155761719,8912.0869140625,0.0,22889.771484375,7199.4462890625,25298.595703125,20439.625,9988.9443359375,11659.462890625,23506.482421875,29970.01171875,22784.07421875,19992.986328125,21564.166015625,7370.31298828125,29456.615234375,988.642333984375,0.0,1860.459716796875,14478.3662109375,7325.80810546875,26305.517578125,16733.8046875,15654.5634765625,25251.70703125,9574.890625,14496.6435546875,9123.484375,4484.6533203125,23121.833984375,9781.51953125,17359.255859375,11954.3076171875,9161.6318359375,12470.8818359375,12088.6162109375,3096.2626953125,10437.9658203125,3516.674072265625,16884.8046875,6755.98779296875,8680.0263671875,3202.756103515625,11406.7392578125,5423.22802734375,24062.791015625,4310.60791015625,18022.060546875,3501.57421875,10227.3623046875,26863.416015625,21647.611328125,11977.35546875,-0.0,-43688.61328125,19586.0859375,4570.484375,0.0,7113.61572265625,0.0,0.0
16224.384765625,15807.947265625,33876.1015625,11679.33203125,28609.43359375,7015.86376953125,8474.1904296875,9574.890625,9121.89453125,6244.9775390625,17951.330078125,491.14227294921875,8902.5498046875,0.0,22892.951171875,7205.80419921875,25300.98046875,20442.8046875,9995.30078125,11663.4365234375,23511.251953125,29977.1640625,22789.63671875,19998.55078125,21558.603515625,7379.85009765625,29459.0,995.000244140625,0.0,1867.6121826171875,14482.3388671875,7327.39794921875,26307.90234375,16736.189453125,15659.33203125,25258.064453125,9580.453125,14503.796875,9124.279296875,4502.1376953125,23125.806640625,9790.26171875,17365.61328125,11960.666015625,9167.1943359375,12476.4443359375,12086.232421875,3090.699462890625,10430.0185546875,3525.416015625,16888.77734375,6763.14013671875,8662.541015625,3215.471923828125,11398.7919921875,5429.5859375,24059.61328125,4315.37646484375,18026.828125,3505.5478515625,10228.951171875,26868.185546875,21653.17578125,11982.91796875,-0.0,-43677.48828125,19592.443359375,4572.8681640625,0.0,7116.79443359375,0.0,0.0
16233.9208984375,15822.251953125,33888.81640625,11688.0732421875,28625.330078125,7028.57958984375,8484.5224609375,9586.8115234375,9128.2529296875,6251.3349609375,17964.83984375,507.036865234375,8911.2919921875,0.0,22899.30859375,7214.54638671875,25312.10546875,20452.341796875,10005.6337890625,11667.4111328125,23523.966796875,29988.2890625,22803.1484375,20010.470703125,21572.11328125,7390.97607421875,29470.125,1007.7158203125,0.0,1881.12255859375,14494.259765625,7340.11328125,26319.822265625,16747.31640625,15672.048828125,25269.189453125,9589.9892578125,14514.12890625,9141.7626953125,4522.00537109375,23138.5234375,9801.3876953125,17379.919921875,11972.5869140625,9175.1416015625,12483.5966796875,12102.921875,3094.673095703125,10425.25,3539.72119140625,16895.9296875,6774.2666015625,8669.6943359375,3240.1083984375,11390.0498046875,5439.9169921875,24063.587890625,4328.09228515625,18033.98046875,3512.700439453125,10240.078125,26879.310546875,21660.328125,11988.48046875,-0.0,-43659.2109375,19592.443359375,4582.4052734375,0.0,7122.35791015625,0.0,0.0
16236.3056640625,15815.8935546875,33894.37890625,11699.19921875,28626.91796875,7030.9638671875,8482.9326171875,9585.2216796875,9124.279296875,6248.15625,17973.58203125,505.4473876953125,8910.4970703125,0.0,22895.3359375,7208.98291015625,25313.6953125,20451.544921875,10004.0439453125,11661.052734375,23523.171875,29985.904296875,22802.353515625,20010.470703125,21590.390625,7389.38671875,29471.716796875,1009.3053588867188,0.0,1877.943603515625,14495.849609375,7339.31884765625,26321.41015625,16748.109375,15672.841796875,25269.189453125,9587.60546875,14514.12890625,9141.7626953125,4514.85302734375,23144.0859375,9800.59375,17379.919921875,11974.17578125,9172.7568359375,12480.41796875,12119.6103515625,3097.057373046875,10433.197265625,3540.515869140625,16895.13671875,6771.88232421875,8678.4365234375,3244.876953125,11389.255859375,5436.73828125,24061.998046875,4327.29736328125,18028.41796875,3509.521484375,10240.078125,26879.310546875,21654.763671875,11982.91796875,-0.0,-43660.80078125,19586.880859375,4581.6103515625,0.0,7119.1787109375,0.0,0.0
16229.9482421875,15814.3046875,33891.19921875,11699.994140625,28614.998046875,7028.57958984375,8477.3701171875,9582.04296875,9121.89453125,6244.9775390625,17963.251953125,502.26849365234375,8908.908203125,0.0,22893.748046875,7207.3935546875,25309.720703125,20451.544921875,10000.865234375,11657.0791015625,23519.9921875,29984.31640625,22796.7890625,20008.8828125,21592.775390625,7389.38671875,29475.689453125,1006.921142578125,0.0,1878.7384033203125,14492.6708984375,7335.3447265625,26316.642578125,16745.7265625,15666.484375,25267.6015625,9582.8369140625,14513.3330078125,9137.7900390625,4506.90625,23140.111328125,9799.7978515625,17371.177734375,11971.791015625,9167.9892578125,12478.0341796875,12114.0478515625,3105.004638671875,10456.244140625,3538.1318359375,16894.33984375,6771.087890625,8672.078125,3242.49267578125,11388.4609375,5435.943359375,24062.791015625,4328.88671875,18024.4453125,3508.726806640625,10234.515625,26876.92578125,21652.380859375,11979.7392578125,-0.0,-43663.18359375,19586.0859375,4579.22607421875,0.0,7116.79443359375,0.0,0.0
16233.9208984375,15817.484375,33895.96875,11699.19921875,28618.177734375,7030.9638671875,8484.5224609375,9586.8115234375,9123.484375,6244.9775390625,17963.251953125,506.2420959472656,8929.5703125,0.0,22900.900390625,7212.95703125,25312.900390625,20454.724609375,10006.427734375,11657.8740234375,23523.171875,29987.494140625,22801.556640625,20012.85546875,21601.51953125,7390.97607421875,29482.841796875,1009.3053588867188,0.0,1885.09619140625,14495.849609375,7340.908203125,26320.615234375,16748.109375,15669.6640625,25269.189453125,9586.0166015625,14516.5126953125,9144.146484375,4511.67431640625,23143.291015625,9802.9775390625,17377.53515625,11974.17578125,9172.7568359375,12479.623046875,12109.279296875,3114.541259765625,10472.93359375,3538.1318359375,16899.904296875,6773.4716796875,8668.8994140625,3247.260986328125,11412.302734375,5441.5068359375,24071.53515625,4333.65478515625,18029.212890625,3512.700439453125,10230.541015625,26881.6953125,21656.35546875,11981.328125,-0.0,-43656.03125,19590.05859375,4580.81591796875,0.0,7116.79443359375,0.0,0.0
16235.509765625,15814.3046875,33894.37890625,11695.2255859375,28609.43359375,7025.40087890625,8475.7802734375,9584.4267578125,9120.3046875,6241.79833984375,17964.83984375,508.62628173828125,8914.470703125,0.0,22893.748046875,7212.162109375,25308.1328125,20445.982421875,10002.4541015625,11653.10546875,23516.01953125,29981.931640625,22794.404296875,20008.087890625,21582.4453125,7385.41259765625,29465.357421875,1006.1264038085938,0.0,1882.7120361328125,14489.4912109375,7336.1396484375,26314.2578125,16743.341796875,15662.51171875,25262.037109375,9579.658203125,14511.744140625,9146.53125,4510.87939453125,23134.55078125,9797.4140625,17369.587890625,11969.4072265625,9167.9892578125,12476.4443359375,12096.564453125,3111.362548828125,10448.296875,3530.979248046875,16891.16015625,6771.88232421875,8670.4892578125,3241.697998046875,11403.560546875,5441.5068359375,24062.791015625,4332.0654296875,18023.6484375,3512.700439453125,10228.1572265625,26876.92578125,21650.791015625,11978.943359375,-0.0,-43657.62109375,19586.880859375,4575.25244140625,0.0,7112.0263671875,0.0,0.0
16243.4580078125,15811.919921875,33884.84375,11698.4052734375,28604.666015625,7026.990234375,8472.6015625,9587.60546875,9122.689453125,6243.3876953125,17970.404296875,505.4473876953125,8915.2646484375,0.0,22891.36328125,7215.34130859375,25309.720703125,20445.982421875,10001.6591796875,11654.6943359375,23512.83984375,29983.51953125,22792.81640625,20008.8828125,21570.5234375,7394.94921875,29445.490234375,1009.3053588867188,0.0,1870.7911376953125,14488.697265625,7336.9345703125,26312.669921875,16744.931640625,15660.9208984375,25263.62890625,9578.068359375,14510.94921875,9136.2001953125,4511.67431640625,23128.19140625,9802.9775390625,17362.435546875,11971.791015625,9166.400390625,12480.41796875,12094.974609375,3108.18359375,10426.044921875,3532.568603515625,16887.1875,6775.06103515625,8684.7939453125,3231.366455078125,11404.35546875,5445.48046875,24064.3828125,4336.0390625,18022.85546875,3511.111083984375,10236.1044921875,26876.92578125,21653.17578125,11983.7119140625,-0.0,-43656.82421875,19586.880859375,4572.0732421875,0.0,7117.58935546875,0.0,0.0
16247.4306640625,15805.5625,33890.40625,11701.583984375,28615.79296875,7036.52734375,8482.9326171875,9594.7578125,9134.6103515625,6251.3349609375,17974.376953125,508.62628173828125,8922.41796875,0.0,22900.10546875,7224.0830078125,25317.66796875,20454.724609375,10011.1962890625,11662.642578125,23521.58203125,29990.673828125,22801.556640625,20015.240234375,21580.060546875,7402.10205078125,29459.794921875,1015.6631469726562,0.0,1875.5594482421875,14494.259765625,7342.49755859375,26320.615234375,16752.87890625,15669.6640625,25272.369140625,9587.60546875,14519.69140625,9138.583984375,4514.05859375,23136.138671875,9814.8984375,17371.97265625,11981.328125,9178.3212890625,12489.955078125,12105.3056640625,3108.18359375,10437.9658203125,3541.310546875,16895.13671875,6783.0087890625,8691.1513671875,3232.9560546875,11415.4814453125,5455.81201171875,24068.35546875,4344.78125,18030.802734375,3518.263671875,10244.0517578125,26882.490234375,21661.916015625,11989.2763671875,-0.0,-43649.671875,19590.85546875,4572.8681640625,0.0,7122.35791015625,0.0,0.0
16250.6103515625,15805.5625,33895.96875,11707.9423828125,28624.53515625,7037.32177734375,8490.0859375,9597.9375,9140.96875,6258.48779296875,17979.939453125,511.80523681640625,8929.5703125,0.0,22903.283203125,7222.49365234375,25320.84765625,20456.314453125,10016.7587890625,11669.794921875,23525.556640625,29994.646484375,22807.916015625,20018.419921875,21587.212890625,7398.92333984375,29476.484375,1016.4578857421875,0.0,1876.354248046875,14498.2333984375,7344.88134765625,26326.974609375,16755.26171875,15674.4326171875,25273.1640625,9593.9638671875,14524.4599609375,9145.736328125,4517.2373046875,23144.0859375,9811.71875,17382.302734375,11984.5078125,9184.677734375,12494.7236328125,12118.021484375,3115.336181640625,10449.091796875,3543.69482421875,16903.876953125,6786.1875,8691.1513671875,3231.366455078125,11422.6337890625,5449.45361328125,24066.767578125,4342.39697265625,18035.5703125,3523.82666015625,10247.23046875,26888.052734375,21669.068359375,11992.4541015625,-0.0,-43649.671875,19592.443359375,4576.841796875,0.0,7123.15234375,0.0,0.0
16240.2783203125,15802.3837890625,33887.2265625,11698.4052734375,28622.150390625,7026.990234375,8487.701171875,9592.3740234375,9142.5576171875,6256.103515625,17977.556640625,502.26849365234375,8919.2392578125,0.0,22900.10546875,7211.3671875,25310.515625,20445.189453125,10011.990234375,11669.0,23519.9921875,29985.109375,22807.12109375,20012.85546875,21584.033203125,7387.00244140625,29482.841796875,1010.1000366210938,0.0,1864.433349609375,14491.0810546875,7332.96044921875,26319.02734375,16745.7265625,15668.0732421875,25262.83203125,9589.9892578125,14518.8974609375,9141.7626953125,4506.111328125,23139.318359375,9801.3876953125,17383.09765625,11975.765625,9184.677734375,12493.1337890625,12113.25390625,3109.77294921875,10442.7333984375,3534.952880859375,16903.08203125,6778.240234375,8681.615234375,3215.471923828125,11417.8662109375,5433.5595703125,24058.818359375,4330.47607421875,18032.392578125,3522.237060546875,10235.3095703125,26880.900390625,21665.095703125,11989.2763671875,-0.0,-43663.98046875,19585.291015625,4570.484375,0.0,7122.35791015625,0.0,0.0
16239.484375,15800.794921875,33887.2265625,11695.2255859375,28625.330078125,7027.78466796875,8490.0859375,9588.400390625,9145.736328125,6255.30859375,17968.01953125,491.9369812011719,8904.1396484375,0.0,22900.10546875,7208.1884765625,25308.927734375,20444.392578125,10010.4013671875,11667.4111328125,23519.197265625,29981.13671875,22808.7109375,20008.8828125,21591.1875,7386.20751953125,29487.609375,1006.921142578125,0.0,1859.6649169921875,14488.697265625,7331.37109375,26319.02734375,16744.931640625,15669.6640625,25262.83203125,9590.78515625,14518.1015625,9143.3525390625,4506.111328125,23141.703125,9799.00390625,17388.662109375,11974.17578125,9187.857421875,12489.955078125,12108.4853515625,3104.2099609375,10442.7333984375,3530.979248046875,16905.466796875,6775.85595703125,8680.0263671875,3207.524658203125,11401.970703125,5433.5595703125,24058.818359375,4324.9130859375,18030.0078125,3519.05810546875,10231.3359375,26877.72265625,21665.095703125,11983.7119140625,-0.0,-43677.48828125,19582.11328125,4558.5634765625,0.0,7113.61572265625,0.0,0.0
16245.841796875,15803.97265625,33890.40625,11698.4052734375,28625.330078125,7031.7587890625,8494.853515625,9595.5537109375,9156.86328125,6261.6669921875,17970.404296875,493.5264587402344,8913.67578125,0.0,22899.30859375,7212.95703125,25311.3125,20452.341796875,10014.375,11672.1796875,23521.58203125,29985.109375,22814.2734375,20012.85546875,21591.1875,7390.18115234375,29475.689453125,1012.4841918945312,0.0,1859.6649169921875,14492.6708984375,7336.1396484375,26319.822265625,16748.109375,15673.6376953125,25265.216796875,9593.9638671875,14524.4599609375,9155.2734375,4503.72705078125,23143.291015625,9802.9775390625,17391.046875,11979.7392578125,9195.8046875,12496.3125,12110.07421875,3101.82568359375,10445.1181640625,3534.157958984375,16907.056640625,6783.0087890625,8680.8203125,3210.70361328125,11405.150390625,5441.5068359375,24065.970703125,4327.29736328125,18032.392578125,3523.031982421875,10232.92578125,26883.283203125,21670.66015625,11986.0966796875,-0.0,-43674.30859375,19586.0859375,4559.35791015625,0.0,7112.0263671875,0.0,0.0
16239.484375,15796.8193359375,33880.87109375,11687.2783203125,28604.666015625,7023.0166015625,8478.958984375,9590.78515625,9154.4794921875,6256.8984375,17962.455078125,486.3739013671875,8920.8291015625,0.0,22891.36328125,7208.98291015625,25300.18359375,20442.8046875,10006.427734375,11666.615234375,23508.072265625,29975.572265625,22800.763671875,20005.703125,21574.498046875,7379.05517578125,29454.23046875,1008.5106201171875,0.0,1851.7176513671875,14484.72265625,7323.423828125,26307.90234375,16740.1640625,15658.537109375,25256.474609375,9582.8369140625,14514.9228515625,9135.4052734375,4488.626953125,23127.3984375,9795.8251953125,17367.205078125,11971.791015625,9187.857421875,12490.7490234375,12099.7431640625,3089.110107421875,10448.296875,3524.621337890625,16887.982421875,6779.82958984375,8674.4619140625,3209.114013671875,11410.712890625,5429.5859375,24070.740234375,4321.73388671875,18025.240234375,3519.852783203125,10218.6201171875,26875.337890625,21663.5078125,11980.533203125,-0.0,-43676.69140625,19578.93359375,4556.97412109375,0.0,7108.052734375,0.0,0.0
16232.33203125,15797.615234375,33876.1015625,11684.1005859375,28603.076171875,7023.0166015625,8478.1650390625,9591.5791015625,9160.0419921875,6260.0771484375,17952.919921875,484.7844543457031,8912.880859375,0.0,22892.15625,7212.95703125,25298.595703125,20441.212890625,10007.22265625,11671.3837890625,23506.482421875,29973.1875,22799.96875,20006.498046875,21569.728515625,7375.8759765625,29465.357421875,1010.1000366210938,0.0,1850.128173828125,14482.3388671875,7319.4501953125,26305.517578125,16738.572265625,15656.15234375,25257.26953125,9584.4267578125,14517.3076171875,9121.1005859375,4484.6533203125,23123.421875,9793.4404296875,17364.025390625,11973.380859375,9188.65234375,12494.7236328125,12086.232421875,3085.93115234375,10442.7333984375,3525.416015625,16890.3671875,6783.80322265625,8668.10546875,3210.70361328125,11405.150390625,5424.8173828125,24054.845703125,4324.1181640625,18025.240234375,3524.621337890625,10216.236328125,26874.54296875,21666.685546875,11987.6865234375,-0.0,-43674.30859375,19581.318359375,4558.5634765625,0.0,7112.8212890625,0.0,0.0
16234.716796875,15802.3837890625,33887.2265625,11693.63671875,28617.3828125,7034.14306640625,8497.23828125,9604.294921875,9174.3466796875,6271.20361328125,17964.83984375,493.5264587402344,8920.8291015625,0.0,22902.48828125,7225.67236328125,25309.720703125,20454.724609375,10022.322265625,11682.5107421875,23519.9921875,29985.904296875,22814.2734375,20017.623046875,21586.41796875,7387.00244140625,29478.869140625,1022.815673828125,0.0,1857.28076171875,14495.849609375,7328.1923828125,26316.642578125,16747.31640625,15671.2529296875,25266.8046875,9597.142578125,14528.43359375,9133.021484375,4497.369140625,23136.93359375,9803.771484375,17383.09765625,11985.3017578125,9203.751953125,12508.2333984375,12099.7431640625,3093.87841796875,10449.88671875,3534.952880859375,16911.029296875,6797.3134765625,8668.8994140625,3217.856201171875,11417.8662109375,5436.73828125,24053.255859375,4340.01318359375,18037.955078125,3535.74755859375,10222.5947265625,26886.462890625,21680.197265625,11997.22265625,-0.0,-43669.5390625,19590.85546875,4570.484375,0.0,7120.76806640625,0.0,0.0
16222.7958984375,15792.0517578125,33877.6875,11686.484375,28612.61328125,7024.6064453125,8493.2646484375,9595.5537109375,9167.1943359375,6260.8720703125,17951.330078125,483.9897155761719,8913.67578125,0.0,22899.30859375,7212.162109375,25299.390625,20443.59765625,10015.96484375,11676.15234375,23511.251953125,29974.779296875,22807.12109375,20008.8828125,21582.4453125,7375.8759765625,29466.15234375,1010.894775390625,0.0,1846.154541015625,14483.9287109375,7320.2451171875,26306.310546875,16736.189453125,15662.51171875,25258.064453125,9592.3740234375,14517.3076171875,9124.279296875,4491.01123046875,23129.78125,9793.4404296875,17379.919921875,11975.765625,9199.7783203125,12497.90234375,12087.822265625,3084.341796875,10446.7080078125,3525.416015625,16910.234375,6787.77685546875,8653.0048828125,3207.524658203125,11399.5869140625,5424.0224609375,24060.408203125,4326.50244140625,18033.98046875,3523.82666015625,10214.646484375,26876.92578125,21671.453125,11986.0966796875,-0.0,-43675.10546875,19581.318359375,4557.7685546875,0.0,7110.43701171875,0.0,0.0
16219.6162109375,15784.8984375,33874.51171875,11678.5361328125,28609.43359375,7015.86376953125,8479.7548828125,9586.8115234375,9159.2470703125,6252.92431640625,17951.330078125,475.2477111816406,8917.6494140625,0.0,22893.748046875,7198.65185546875,25293.826171875,20436.4453125,10007.22265625,11670.58984375,23507.27734375,29970.01171875,22798.380859375,20001.73046875,21586.41796875,7368.7236328125,29455.8203125,1001.3580322265625,0.0,1840.5914306640625,14478.3662109375,7315.47705078125,26303.92578125,16729.83203125,15656.9482421875,25253.296875,9582.8369140625,14509.3603515625,9121.1005859375,4482.26953125,23129.78125,9785.4931640625,17371.177734375,11967.0224609375,9189.4462890625,12489.1591796875,12076.6953125,3078.778564453125,10448.296875,3516.674072265625,16888.77734375,6777.4453125,8649.03125,3199.577392578125,11398.7919921875,5408.12841796875,24073.919921875,4313.787109375,18026.033203125,3511.90576171875,10209.8779296875,26868.978515625,21662.712890625,11984.5078125,-0.0,-43681.4609375,19580.5234375,4546.64208984375,0.0,7104.87353515625,0.0,0.0
16214.0517578125,15779.3369140625,33880.87109375,11676.15234375,28612.61328125,7015.0693359375,8476.5751953125,9586.0166015625,9161.6318359375,6252.1298828125,17956.892578125,475.2477111816406,8923.212890625,0.0,22892.15625,7197.06201171875,25293.03125,20438.03515625,10007.22265625,11669.794921875,23509.66015625,29972.39453125,22799.96875,20002.5234375,21589.59765625,7367.13427734375,29462.1796875,1001.3580322265625,0.0,1841.38623046875,14479.955078125,7314.68212890625,26305.517578125,16732.216796875,15658.537109375,25252.5,9582.8369140625,14510.154296875,9115.537109375,4483.06396484375,23132.958984375,9786.2880859375,17369.587890625,11963.8447265625,9190.2421875,12488.365234375,12088.6162109375,3079.573486328125,10451.4765625,3513.4951171875,16884.8046875,6778.240234375,8644.263671875,3194.80908203125,11411.5078125,5408.9228515625,24075.5078125,4310.60791015625,18026.033203125,3512.700439453125,10207.494140625,26869.7734375,21664.30078125,11986.0966796875,-0.0,-43681.4609375,19582.11328125,4544.25830078125,0.0,7100.10546875,0.0,0.0
16213.2587890625,15776.953125,33888.81640625,11672.9736328125,28614.203125,7011.095703125,8482.9326171875,9583.6328125,9166.400390625,6253.71923828125,17956.892578125,477.63189697265625,8923.212890625,0.0,22894.541015625,7195.47265625,25293.826171875,20441.212890625,10009.6064453125,11669.794921875,23510.45703125,29970.8046875,22803.1484375,20001.73046875,21583.23828125,7356.0078125,29466.15234375,997.3843994140625,0.0,1836.6177978515625,14479.955078125,7313.0927734375,26307.10546875,16731.419921875,15660.1279296875,25250.912109375,9586.0166015625,14509.3603515625,9109.9736328125,4483.8583984375,23135.34375,9783.904296875,17371.177734375,11962.2548828125,9192.6259765625,12489.955078125,12098.9482421875,3074.804931640625,10449.88671875,3506.342529296875,16891.16015625,6776.65087890625,8642.673828125,3187.656494140625,11411.5078125,5407.33349609375,24068.35546875,4306.63427734375,18029.212890625,3513.4951171875,10197.95703125,26872.158203125,21665.892578125,11990.0703125,-0.0,-43681.4609375,19583.701171875,4545.05322265625,0.0,7100.900390625,0.0,0.0
16218.8203125,15774.568359375,33882.45703125,11673.767578125,28609.43359375,7011.095703125,8482.9326171875,9581.248046875,9167.1943359375,6252.1298828125,17948.9453125,478.4266052246094,8908.1123046875,0.0,22895.3359375,7197.06201171875,25293.826171875,20439.625,10008.017578125,11670.58984375,23508.8671875,29968.419921875,22803.94140625,20001.73046875,21563.37109375,7356.0078125,29465.357421875,995.794921875,0.0,1838.207275390625,14479.16015625,7313.88720703125,26307.10546875,16730.626953125,15657.7431640625,25251.70703125,9586.8115234375,14509.3603515625,9106.794921875,4478.2958984375,23130.57421875,9780.724609375,17371.97265625,11962.2548828125,9193.419921875,12487.5703125,12094.974609375,3074.01025390625,10438.759765625,3506.342529296875,16891.95703125,6772.6767578125,8644.263671875,3189.245849609375,11398.7919921875,5408.9228515625,24068.35546875,4306.63427734375,18030.0078125,3511.90576171875,10189.2158203125,26872.158203125,21666.685546875,11991.66015625,-0.0,-43683.05078125,19584.498046875,4547.43701171875,0.0,7101.69482421875,0.0,0.0
16216.4365234375,15772.1845703125,33880.87109375,11676.15234375,28611.025390625,7011.095703125,8482.9326171875,9578.8642578125,9164.810546875,6247.36181640625,17945.765625,475.2477111816406,8908.908203125,0.0,22892.15625,7199.4462890625,25293.826171875,20438.830078125,10007.22265625,11667.4111328125,23510.45703125,29968.419921875,22803.94140625,20000.935546875,21571.318359375,7363.16064453125,29467.740234375,995.794921875,0.0,1833.4388427734375,14479.955078125,7314.68212890625,26307.10546875,16731.419921875,15657.7431640625,25252.5,9586.0166015625,14507.7705078125,9106.0,4465.580078125,23133.75390625,9783.1083984375,17372.765625,11961.4599609375,9193.419921875,12484.3916015625,12089.412109375,3069.24169921875,10445.1181640625,3507.13720703125,16893.544921875,6772.6767578125,8638.69921875,3186.86181640625,11400.3818359375,5406.53857421875,24068.35546875,4311.40283203125,18026.828125,3505.5478515625,10192.39453125,26870.568359375,21663.5078125,11990.0703125,-0.0,-43683.05078125,19581.318359375,4530.748046875,0.0,7099.310546875,0.0,0.0
16214.0517578125,15772.1845703125,33885.640625,11670.58984375,28612.61328125,7011.095703125,8482.138671875,9578.8642578125,9158.4521484375,6247.36181640625,17951.330078125,474.4529724121094,8901.7548828125,0.0,22888.978515625,7201.83056640625,25294.623046875,20438.830078125,10005.6337890625,11665.0263671875,23509.66015625,29969.21484375,22800.763671875,19999.345703125,21587.212890625,7365.544921875,29465.357421875,995.000244140625,0.0,1829.4652099609375,14480.75,7313.0927734375,26305.517578125,16733.01171875,15657.7431640625,25252.5,9583.6328125,14506.9765625,9110.7685546875,4469.5537109375,23134.55078125,9785.4931640625,17370.3828125,11962.2548828125,9190.2421875,12482.802734375,12087.02734375,3067.65234375,10446.7080078125,3510.316162109375,16891.95703125,6771.88232421875,8638.69921875,3186.06689453125,11397.998046875,5406.53857421875,24061.203125,4312.197265625,18026.033203125,3503.95849609375,10201.9306640625,26868.185546875,21661.123046875,11989.2763671875,-0.0,-43679.078125,19584.498046875,4535.51611328125,0.0,7087.3896484375,0.0,0.0
16222.7958984375,15772.1845703125,33872.921875,11667.4111328125,28608.640625,7009.50634765625,8478.958984375,9574.095703125,9153.68359375,6243.3876953125,17959.275390625,474.4529724121094,8896.19140625,0.0,22885.798828125,7184.3466796875,25293.826171875,20434.85546875,10002.4541015625,11661.8466796875,23508.072265625,29969.21484375,22796.7890625,19997.755859375,21577.677734375,7367.13427734375,29457.41015625,990.2318725585938,0.0,1823.902099609375,14479.955078125,7312.2978515625,26303.92578125,16731.419921875,15656.15234375,25250.1171875,9582.04296875,14503.001953125,9122.689453125,4485.4482421875,23128.986328125,9787.0830078125,17367.205078125,11959.076171875,9184.677734375,12477.23828125,12081.4638671875,3060.5,10443.5283203125,3507.931884765625,16887.982421875,6764.72998046875,8644.263671875,3181.298583984375,11398.7919921875,5406.53857421875,24056.435546875,4304.25,18021.265625,3499.190185546875,10205.9052734375,26865.005859375,21656.35546875,11986.0966796875,-0.0,-43682.2578125,19583.701171875,4540.28466796875,0.0,7085.80029296875,0.0,0.0
16226.7685546875,15778.5419921875,33875.3046875,11672.1796875,28611.818359375,7013.4794921875,8479.7548828125,9578.068359375,9153.68359375,6243.3876953125,17962.455078125,481.60552978515625,8899.37109375,0.0,22889.771484375,7186.73095703125,25298.595703125,20438.830078125,10004.837890625,11663.4365234375,23511.251953125,29973.1875,22799.173828125,20000.935546875,21571.318359375,7371.107421875,29462.1796875,994.2054443359375,0.0,1827.0810546875,14481.544921875,7315.47705078125,26306.310546875,16734.599609375,15658.537109375,25254.091796875,9582.8369140625,14506.1806640625,9125.869140625,4494.98486328125,23129.78125,9789.466796875,17372.765625,11960.666015625,9185.4736328125,12478.828125,12087.822265625,3058.910400390625,10441.1435546875,3513.4951171875,16890.3671875,6765.5244140625,8649.03125,3186.06689453125,11408.3291015625,5411.306640625,24060.408203125,4309.81298828125,18022.85546875,3499.98486328125,10206.69921875,26868.185546875,21656.35546875,11985.3017578125,-0.0,-43679.078125,19586.0859375,4549.8212890625,0.0,7090.568359375,0.0,0.0
16226.7685546875,15784.10546875,33879.28125,11676.947265625,28614.998046875,7014.2744140625,8478.958984375,9576.4794921875,9148.9150390625,6238.619140625,17963.251953125,484.7844543457031,8896.9873046875,0.0,22889.771484375,7189.90966796875,25297.80078125,20437.240234375,10003.2490234375,11658.6689453125,23511.251953125,29973.1875,22796.7890625,19999.345703125,21564.9609375,7370.31298828125,29466.15234375,995.000244140625,0.0,1832.6441650390625,14480.75,7314.68212890625,26307.90234375,16735.39453125,15657.7431640625,25254.091796875,9582.04296875,14504.591796875,9121.1005859375,4494.1904296875,23127.3984375,9788.6728515625,17374.357421875,11961.4599609375,9182.2939453125,12476.4443359375,12089.412109375,3066.06298828125,10425.25,3514.289794921875,16890.3671875,6766.3193359375,8656.978515625,3188.451171875,11394.0234375,5413.69091796875,24061.998046875,4312.197265625,18022.060546875,3497.6005859375,10209.8779296875,26868.978515625,21652.380859375,11977.35546875,-0.0,-43674.30859375,19582.90625,4545.84765625,0.0,7085.00537109375,0.0,0.0
16228.357421875,15789.6669921875,33879.28125,11681.7158203125,28612.61328125,7017.45361328125,8475.7802734375,9579.658203125,9144.9423828125,6239.4140625,17965.634765625,490.3475646972656,8896.9873046875,0.0,22888.978515625,7193.88330078125,25299.390625,20434.060546875,10001.6591796875,11657.8740234375,23509.66015625,29973.1875,22793.611328125,19999.345703125,21572.908203125,7374.28662109375,29462.1796875,998.973876953125,0.0,1842.9755859375,14481.544921875,7317.06640625,26309.490234375,16739.369140625,15655.359375,25253.296875,9578.8642578125,14503.796875,9120.3046875,4497.369140625,23128.19140625,9791.056640625,17370.3828125,11963.8447265625,9181.4990234375,12476.4443359375,12097.3583984375,3079.573486328125,10421.2763671875,3519.852783203125,16890.3671875,6769.49853515625,8664.130859375,3194.80908203125,11386.87109375,5422.43359375,24059.61328125,4316.9658203125,18021.265625,3500.779296875,10215.44140625,26865.005859375,21651.5859375,11977.35546875,-0.0,-43662.38671875,19580.5234375,4552.20556640625,0.0,7086.59521484375,0.0,0.0
16223.5888671875,15792.8466796875,33881.6640625,11680.9208984375,28605.4609375,7017.45361328125,8473.396484375,9577.2744140625,9142.5576171875,6237.0302734375,17974.376953125,493.5264587402344,8897.78125,0.0,22887.388671875,7194.677734375,25300.18359375,20432.47265625,10000.865234375,11655.490234375,23508.072265625,29973.984375,22791.2265625,20000.138671875,21580.853515625,7376.6708984375,29461.384765625,1000.5632934570312,0.0,1848.5386962890625,14479.955078125,7318.6552734375,26310.28515625,16739.369140625,15652.974609375,25251.70703125,9574.890625,14504.591796875,9120.3046875,4500.5478515625,23126.6015625,9791.056640625,17365.61328125,11962.2548828125,9180.705078125,12474.8544921875,12106.1005859375,3085.93115234375,10434.787109375,3521.4423828125,16887.1875,6770.29296875,8665.720703125,3199.577392578125,11387.666015625,5424.0224609375,24058.0234375,4319.349609375,18021.265625,3498.395263671875,10217.0302734375,26864.2109375,21649.203125,11976.5595703125,-0.0,-43657.62109375,19581.318359375,4553.0,0.0,7081.03173828125,0.0,0.0
16210.0791015625,15791.2578125,33881.6640625,11680.1259765625,28602.28125,7015.86376953125,8469.421875,9574.890625,9134.6103515625,6228.2880859375,17969.607421875,494.3211669921875,8906.5234375,0.0,22885.798828125,7189.90966796875,25299.390625,20429.29296875,9996.890625,11645.158203125,23508.072265625,29973.984375,22787.251953125,19996.166015625,21591.982421875,7375.8759765625,29462.1796875,999.7686157226562,0.0,1846.94921875,14476.7763671875,7317.06640625,26307.90234375,16736.189453125,15650.5908203125,25249.322265625,9571.7119140625,14500.6181640625,9117.126953125,4498.95849609375,23126.6015625,9791.8505859375,17363.23046875,11961.4599609375,9175.9365234375,12469.2919921875,12101.3330078125,3084.341796875,10450.6806640625,3522.237060546875,16884.0078125,6764.72998046875,8654.5947265625,3198.78271484375,11409.123046875,5423.22802734375,24058.818359375,4318.55517578125,18018.087890625,3489.6533203125,10213.0576171875,26862.62109375,21645.2265625,11959.8701171875,-0.0,-43652.05859375,19570.986328125,4545.05322265625,0.0,7062.75341796875,0.0,0.0
16218.8203125,15790.462890625,33868.94921875,11672.9736328125,28596.720703125,7015.86376953125,8467.0380859375,9574.095703125,9131.431640625,6225.90380859375,17951.330078125,490.3475646972656,8908.908203125,0.0,22885.798828125,7191.4990234375,25293.826171875,20425.3203125,9993.712890625,11643.5693359375,23500.919921875,29969.21484375,22782.484375,19992.986328125,21576.880859375,7375.8759765625,29459.0,1002.9474487304688,0.0,1845.35986328125,14473.59765625,7313.88720703125,26299.953125,16733.01171875,15645.02734375,25247.732421875,9569.3271484375,14499.0283203125,9108.3837890625,4498.95849609375,23118.654296875,9788.6728515625,17358.4609375,11961.4599609375,9171.16796875,12469.2919921875,12079.875,3077.189208984375,10443.5283203125,3525.416015625,16882.419921875,6767.1142578125,8640.2890625,3197.193115234375,11393.2294921875,5422.43359375,24060.408203125,4319.349609375,18014.908203125,3492.832275390625,10209.8779296875,26858.6484375,21642.84375,11955.8974609375,-0.0,-43652.8515625,19565.423828125,4543.46337890625,0.0,7061.16357421875,0.0,0.0
16237.1005859375,15800.794921875,33884.046875,11688.8681640625,28607.05078125,7032.55322265625,8480.548828125,9593.1689453125,9147.326171875,6248.15625,17961.66015625,499.08953857421875,8903.34375,0.0,22893.748046875,7212.95703125,25307.3359375,20441.212890625,10008.8115234375,11664.2314453125,23512.83984375,29984.31640625,22797.583984375,20009.67578125,21579.265625,7390.18115234375,29468.537109375,1020.4315185546875,0.0,1855.6912841796875,14487.90234375,7325.013671875,26314.2578125,16746.521484375,15659.33203125,25263.62890625,9584.4267578125,14514.9228515625,9125.0732421875,4507.70068359375,23130.57421875,9803.771484375,17371.177734375,11978.1494140625,9186.267578125,12489.955078125,12096.564453125,3090.699462890625,10437.1708984375,3542.900146484375,16894.33984375,6786.1875,8650.6201171875,3208.3193359375,11401.970703125,5435.14892578125,24057.23046875,4335.24462890625,18028.41796875,3515.08447265625,10221.798828125,26874.54296875,21659.533203125,11979.7392578125,-0.0,-43648.87890625,19584.498046875,4559.35791015625,0.0,7090.568359375,0.0,0.0
16229.15234375,15799.9990234375,33892.79296875,11693.63671875,28614.203125,7032.55322265625,8487.701171875,9596.34765625,9156.0673828125,6258.48779296875,17964.044921875,497.5001220703125,8893.8076171875,0.0,22896.130859375,7216.93017578125,25312.10546875,20444.392578125,10014.375,11672.9736328125,23519.197265625,29990.673828125,22803.94140625,20013.650390625,21591.1875,7388.591796875,29479.662109375,1017.2525634765625,0.0,1855.6912841796875,14491.8759765625,7326.60302734375,26319.822265625,16750.494140625,15666.484375,25267.6015625,9590.78515625,14518.8974609375,9140.173828125,4504.52197265625,23140.111328125,9806.15625,17380.71484375,11978.943359375,9193.419921875,12494.7236328125,12098.9482421875,3092.2890625,10437.9658203125,3536.542236328125,16901.4921875,6787.77685546875,8649.826171875,3210.70361328125,11415.4814453125,5431.97021484375,24038.15625,4331.2705078125,18033.185546875,3516.674072265625,10224.978515625,26880.900390625,21665.095703125,11996.4287109375,-0.0,-43657.62109375,19594.828125,4555.38427734375,0.0,7109.64208984375,0.0,0.0
16201.337890625,15783.3095703125,33884.84375,11690.45703125,28618.970703125,7026.990234375,8495.6484375,9589.9892578125,9156.0673828125,6253.71923828125,17952.123046875,495.1159362792969,8894.6025390625,0.0,22900.10546875,7207.3935546875,25310.515625,20445.189453125,10014.375,11671.3837890625,23518.404296875,29987.494140625,22805.533203125,20012.060546875,21584.830078125,7381.439453125,29495.55859375,1010.894775390625,0.0,1850.9229736328125,14491.8759765625,7321.03955078125,26314.2578125,16749.701171875,15668.0732421875,25266.01171875,9593.9638671875,14515.7177734375,9111.5634765625,4497.369140625,23135.34375,9800.59375,17390.251953125,11974.17578125,9197.39453125,12490.7490234375,12083.0537109375,3089.110107421875,10442.7333984375,3523.031982421875,16916.59375,6781.41943359375,8641.083984375,3204.345703125,11400.3818359375,5429.5859375,24044.513671875,4324.9130859375,18037.16015625,3511.111083984375,10217.826171875,26880.10546875,21665.095703125,11995.6328125,-0.0,-43661.59375,19591.650390625,4548.2314453125,0.0,7107.2578125,0.0,0.0
16201.337890625,15767.416015625,33874.51171875,11687.2783203125,28617.3828125,7020.63232421875,8494.853515625,9584.4267578125,9152.8896484375,6251.3349609375,17945.765625,485.57916259765625,8892.21875,0.0,22901.693359375,7197.85693359375,25304.953125,20443.59765625,10012.7861328125,11670.58984375,23513.634765625,29982.724609375,22802.353515625,20007.291015625,21577.677734375,7375.08154296875,29489.19921875,1002.1527709960938,0.0,1842.180908203125,14487.107421875,7314.68212890625,26308.6953125,16743.341796875,15664.1005859375,25262.037109375,9590.78515625,14510.154296875,9096.462890625,4487.03759765625,23129.78125,9794.2353515625,17388.662109375,11968.6123046875,9194.21484375,12485.1865234375,12062.390625,3078.778564453125,10437.9658203125,3515.08447265625,16913.4140625,6773.4716796875,8638.69921875,3198.78271484375,11378.12890625,5418.45947265625,24063.587890625,4312.9921875,18036.365234375,3507.931884765625,10209.083984375,26876.92578125,21663.5078125,12000.4013671875,-0.0,-43673.515625,19591.650390625,4545.05322265625,0.0,7105.66845703125,0.0,0.0
16214.84765625,15767.416015625,33866.56640625,11682.5107421875,28599.896484375,7011.095703125,8471.01171875,9574.095703125,9142.5576171875,6244.1826171875,17947.35546875,473.6582336425781,8898.576171875,0.0,22888.978515625,7185.93603515625,25297.80078125,20433.267578125,10001.6591796875,11662.642578125,23503.302734375,29975.572265625,22787.251953125,19997.755859375,21572.11328125,7363.955078125,29447.875,989.4371337890625,0.0,1836.6177978515625,14479.16015625,7309.91357421875,26302.337890625,16735.39453125,15651.384765625,25254.091796875,9574.890625,14500.6181640625,9101.2314453125,4480.68017578125,23118.654296875,9784.6982421875,17365.61328125,11958.28125,9178.3212890625,12474.8544921875,12061.595703125,3070.03662109375,10419.6865234375,3504.753173828125,16880.830078125,6762.345703125,8644.263671875,3192.4248046875,11390.0498046875,5403.35986328125,24068.35546875,4297.89208984375,18023.6484375,3501.57421875,10205.109375,26865.005859375,21653.17578125,11999.607421875,-0.0,-43692.58984375,19589.265625,4536.310546875,0.0,7105.66845703125,0.0,0.0
