16277.6318359375,16055.90234375,34563.54296875,11750.857421875,28514.06640625,7214.54638671875,8463.0654296875,9626.5478515625,9744.1669921875,6575.58447265625,17971.9921875,-439.48492431640625,8908.1123046875,0.0,23018.517578125,8112.58984375,25282.701171875,20510.35546875,10049.3427734375,12378.6923828125,23419.857421875,29815.0390625,24158.16015625,20156.701171875,21646.0234375,8020.40087890625,29431.185546875,996.5896606445312,0.0,2578.099609375,14215.310546875,7428.328125,26300.748046875,16593.138671875,15663.3056640625,25370.12109375,9786.2880859375,14687.37890625,9804.56640625,4895.5283203125,23163.16015625,9707.6103515625,17421.24609375,12095.7685546875,9403.228515625,12630.6220703125,12027.4228515625,2788.70263671875,10774.1357421875,3960.927490234375,17274.220703125,6779.82958984375,9109.1796875,3747.93994140625,11955.1015625,5701.38330078125,24011.9296875,4412.3330078125,18848.578125,3623.96240234375,10264.7138671875,27081.171875,21792.25390625,12272.1982421875,-0.0,-44077.234375,20097.890625,5806.287109375,0.0,7119.1787109375,0.0,0.0
16293.525390625,16059.875,34561.94921875,11746.8837890625,28511.681640625,7210.57275390625,8459.8857421875,9620.984375,9746.5517578125,6570.02099609375,17978.349609375,-442.663818359375,8902.5498046875,0.0,23016.134765625,8104.64208984375,25281.111328125,20509.5625,10046.1640625,12375.513671875,23419.0625,29814.244140625,24156.5703125,20151.93359375,21642.84375,8017.22216796875,29428.005859375,992.6160278320312,0.0,2569.357666015625,14215.310546875,7429.91796875,26302.337890625,16591.548828125,15662.51171875,25368.53125,9781.51953125,14681.81640625,9840.3291015625,4882.017578125,23161.5703125,9706.814453125,17416.4765625,12094.1796875,9400.8447265625,12626.6484375,12038.548828125,2768.039794921875,10770.162109375,3957.74853515625,17272.630859375,6775.06103515625,9131.431640625,3720.91943359375,11956.69140625,5697.4091796875,24011.134765625,4405.1806640625,18846.193359375,3615.22021484375,10264.7138671875,27077.994140625,21785.1015625,12274.5830078125,-0.0,-44086.7734375,20093.123046875,5805.4921875,0.0,7115.205078125,0.0,0.0
16293.525390625,16052.72265625,34553.2109375,11730.1943359375,28503.736328125,7201.83056640625,8448.759765625,9609.0634765625,9737.0146484375,6558.10009765625,17968.8125,-456.96893310546875,8896.19140625,0.0,23005.0078125,8092.72119140625,25269.984375,20502.408203125,10033.4482421875,12365.181640625,23414.29296875,29801.52734375,24147.828125,20139.216796875,21636.486328125,8005.30126953125,29420.853515625,979.1055908203125,0.0,2555.052490234375,14206.568359375,7419.5859375,26294.390625,16580.423828125,15656.15234375,25358.19921875,9768.8037109375,14669.1005859375,9829.998046875,4878.8388671875,23152.033203125,9698.0732421875,17406.94140625,12083.0537109375,9389.7177734375,12613.1376953125,12028.2177734375,2750.5556640625,10762.21484375,3948.211669921875,17262.30078125,6760.755859375,9125.0732421875,3697.8720703125,11949.5390625,5682.3095703125,24004.77734375,4389.2861328125,18832.68359375,3599.325927734375,10254.3828125,27067.662109375,21772.384765625,12270.609375,-0.0,-44098.6953125,20076.43359375,5799.92919921875,0.0,7112.0263671875,0.0,0.0
16295.1142578125,16047.1591796875,34561.94921875,11727.8095703125,28508.50390625,7205.80419921875,8450.3486328125,9610.6533203125,9736.220703125,6556.5107421875,17939.41015625,-450.6111145019531,8901.7548828125,0.0,23008.1875,8099.87353515625,25273.958984375,20503.998046875,10035.0380859375,12363.5927734375,23420.65234375,29807.08984375,24151.802734375,20143.986328125,21641.25390625,8004.50634765625,29422.44140625,983.0792846679688,0.0,2559.82080078125,14212.1318359375,7419.5859375,26297.568359375,16584.396484375,15660.1279296875,25361.37890625,9769.5986328125,14670.689453125,9821.255859375,4879.63330078125,23159.185546875,9702.841796875,17409.32421875,12085.4375,9390.513671875,12612.3427734375,12029.01171875,2757.708251953125,10766.9833984375,3952.18505859375,17262.30078125,6761.55078125,9106.794921875,3708.20361328125,11955.8974609375,5683.10400390625,24007.162109375,4392.46533203125,18832.68359375,3601.7099609375,10248.8203125,27069.25,21772.384765625,12272.994140625,-0.0,-44093.92578125,20078.81640625,5795.16064453125,0.0,7107.2578125,0.0,0.0
16307.8310546875,16061.4638671875,34575.4609375,11743.705078125,28522.013671875,7219.314453125,8459.0908203125,9621.779296875,9748.1416015625,6564.45849609375,17973.58203125,-433.1270751953125,8916.060546875,0.0,23013.75,8112.58984375,25290.6484375,20513.53515625,10045.369140625,12369.15625,23432.57421875,29821.396484375,24164.517578125,20155.90625,21657.943359375,8018.0166015625,29434.36328125,997.3843994140625,0.0,2570.947021484375,14228.0263671875,7433.89111328125,26314.2578125,16601.0859375,15673.6376953125,25374.888671875,9779.9296875,14681.021484375,9832.3818359375,4894.7333984375,23175.875,9718.7353515625,17421.24609375,12098.1533203125,9400.0498046875,12623.4697265625,12040.9326171875,2772.013427734375,10780.494140625,3968.080078125,17271.041015625,6775.06103515625,9122.689453125,3743.171630859375,11969.4072265625,5709.330078125,24015.904296875,4405.9755859375,18838.248046875,3616.809814453125,10262.330078125,27079.58203125,21778.7421875,12275.3779296875,-0.0,-44077.234375,20088.353515625,5797.544921875,0.0,7107.2578125,0.0,0.0
16303.0625,16078.94921875,34581.0234375,11760.39453125,28529.962890625,7228.056640625,8463.0654296875,9621.779296875,9759.2666015625,6566.8427734375,18016.49609375,-425.1798095703125,8924.0078125,0.0,23017.724609375,8105.4375,25299.390625,20523.8671875,10048.548828125,12373.923828125,23441.314453125,29830.93359375,24170.875,20159.87890625,21667.48046875,8041.85888671875,29439.92578125,998.1790771484375,0.0,2575.71533203125,14235.9736328125,7443.42822265625,26322.20703125,16611.41796875,15678.40625,25382.041015625,9783.904296875,14682.6103515625,9837.9453125,4899.501953125,23185.412109375,9733.8359375,17426.80859375,12102.126953125,9404.818359375,12622.673828125,12037.75390625,2758.5029296875,10790.0302734375,3974.437744140625,17275.810546875,6771.087890625,9140.173828125,3749.529541015625,11974.970703125,5718.072265625,24020.671875,4407.564453125,18841.42578125,3615.22021484375,10273.45703125,27083.5546875,21781.921875,12285.708984375,-0.0,-44070.08203125,20092.328125,5803.9033203125,0.0,7110.43701171875,0.0,0.0
16268.888671875,16077.3603515625,34575.4609375,11752.4462890625,28521.21875,7220.109375,8456.70703125,9609.8583984375,9761.6513671875,6551.74267578125,18007.755859375,-433.92181396484375,8920.033203125,0.0,23015.33984375,8095.900390625,25289.853515625,20515.123046875,10039.806640625,12367.56640625,23435.75,29823.779296875,24161.337890625,20149.548828125,21662.712890625,8031.52734375,29433.568359375,987.84765625,0.0,2567.76806640625,14226.4365234375,7433.89111328125,26314.2578125,16599.49609375,15668.869140625,25371.708984375,9774.3671875,14673.07421875,9836.3564453125,4866.91796875,23179.0546875,9725.09375,17419.65625,12092.58984375,9400.0498046875,12611.548828125,12021.064453125,2744.992431640625,10784.466796875,3963.311767578125,17271.837890625,6761.55078125,9128.2529296875,3740.78759765625,11967.818359375,5701.38330078125,24015.107421875,4399.61767578125,18839.041015625,3600.915283203125,10269.482421875,27075.609375,21773.1796875,12288.09375,-0.0,-44079.62109375,20089.9453125,5788.80322265625,0.0,7085.80029296875,0.0,0.0
16282.400390625,16067.8232421875,34571.48828125,11746.0888671875,28519.630859375,7215.34130859375,8456.70703125,9609.0634765625,9771.1875,6554.126953125,18000.603515625,-445.8427429199219,8914.470703125,0.0,23017.724609375,8097.4892578125,25283.494140625,20510.35546875,10038.216796875,12371.5400390625,23430.982421875,29819.01171875,24160.54296875,20147.166015625,21655.55859375,8029.1435546875,29432.7734375,988.642333984375,0.0,2563.79443359375,14221.66796875,7421.97021484375,26310.28515625,16597.11328125,15664.896484375,25366.94140625,9772.77734375,14673.07421875,9832.3818359375,4870.8916015625,23173.490234375,9718.7353515625,17418.861328125,12089.412109375,9402.4345703125,12610.7529296875,12027.4228515625,2756.11865234375,10782.8779296875,3958.543212890625,17272.630859375,6763.14013671875,9121.1005859375,3742.376953125,11963.8447265625,5691.05126953125,24013.51953125,4401.20703125,18845.400390625,3601.7099609375,10269.482421875,27072.4296875,21773.1796875,12295.24609375,-0.0,-44088.36328125,20099.482421875,5794.3662109375,0.0,7086.59521484375,0.0,0.0
16316.572265625,16070.2080078125,34577.84765625,11746.0888671875,28526.783203125,7223.2880859375,8462.26953125,9617.8056640625,9770.3935546875,6562.86865234375,18010.935546875,-438.690185546875,8927.9814453125,0.0,23016.134765625,8108.61572265625,25294.623046875,20516.71484375,10043.7802734375,12369.15625,23437.341796875,29826.958984375,24168.4921875,20153.5234375,21662.712890625,8041.064453125,29439.92578125,999.7686157226562,0.0,2574.920654296875,14234.3837890625,7433.09619140625,26319.02734375,16609.826171875,15672.841796875,25374.09375,9779.1357421875,14680.2265625,9846.6875,4874.07080078125,23180.642578125,9726.68359375,17425.21875,12097.3583984375,9407.9970703125,12616.31640625,12055.2373046875,2779.166015625,10793.208984375,3968.87451171875,17275.810546875,6771.88232421875,9134.6103515625,3747.93994140625,11972.5869140625,5694.23046875,24018.287109375,4413.9228515625,18843.015625,3615.22021484375,10275.8408203125,27078.787109375,21777.15234375,12276.1728515625,-0.0,-44078.828125,20093.123046875,5821.38671875,0.0,7114.41015625,0.0,0.0
16310.21484375,16059.875,34584.20703125,11750.857421875,28529.962890625,7225.67236328125,8459.8857421875,9618.599609375,9762.4462890625,6558.10009765625,18010.138671875,-431.5376281738281,8931.9541015625,0.0,23011.365234375,8109.41015625,25299.390625,20515.91796875,10043.7802734375,12356.4404296875,23442.109375,29827.75390625,24169.287109375,20153.5234375,21668.275390625,8039.474609375,29443.8984375,1001.3580322265625,0.0,2583.662841796875,14235.9736328125,7437.86474609375,26324.58984375,16613.005859375,15673.6376953125,25374.888671875,9779.1357421875,14677.841796875,9850.6611328125,4873.27587890625,23186.20703125,9729.8623046875,17426.80859375,12097.3583984375,9403.228515625,12614.7265625,12070.337890625,2790.2919921875,10796.3876953125,3971.258544921875,17273.42578125,6770.29296875,9136.2001953125,3739.197998046875,11979.7392578125,5707.74072265625,24019.083984375,4414.71728515625,18831.095703125,3612.836181640625,10273.45703125,27078.787109375,21773.1796875,12264.251953125,-0.0,-44066.90625,20081.201171875,5819.79736328125,0.0,7118.3837890625,0.0,0.0
16317.3671875,16055.90234375,34585.79296875,11754.0361328125,28529.962890625,7224.8779296875,8459.0908203125,9618.599609375,9766.4189453125,6559.68994140625,17995.833984375,-425.9745178222656,8927.185546875,0.0,23012.162109375,8107.8212890625,25300.98046875,20512.73828125,10044.5751953125,12362.7978515625,23442.904296875,29826.958984375,24169.287109375,20151.138671875,21671.453125,8031.52734375,29441.515625,998.973876953125,0.0,2585.251953125,14233.5888671875,7441.8388671875,26322.20703125,16612.2109375,15672.841796875,25374.09375,9776.751953125,14679.431640625,9869.734375,4935.2646484375,23186.20703125,9729.0673828125,17426.013671875,12095.7685546875,9403.228515625,12613.9326171875,12058.4169921875,2787.11328125,10795.59375,3971.258544921875,17272.630859375,6768.70361328125,9119.5107421875,3745.555908203125,11974.970703125,5715.68798828125,24018.287109375,4409.154296875,18829.50390625,3612.836181640625,10264.7138671875,27077.197265625,21772.384765625,12284.119140625,-0.0,-44062.13671875,20083.5859375,5807.87646484375,0.0,7120.76806640625,0.0,0.0
16335.6455078125,16059.875,34600.89453125,11763.572265625,28541.087890625,7230.4404296875,8462.26953125,9621.779296875,9756.8828125,6564.45849609375,18015.703125,-417.2325134277344,8933.5439453125,0.0,23008.982421875,8111.79443359375,25310.515625,20523.0703125,10050.9326171875,12358.8251953125,23454.03125,29837.2890625,24178.02734375,20156.701171875,21688.9375,8034.7060546875,29447.078125,1002.1527709960938,0.0,2589.225830078125,14243.1259765625,7451.37548828125,26332.537109375,16620.158203125,15683.9697265625,25382.041015625,9779.9296875,14683.40625,9849.8662109375,4925.72802734375,23198.126953125,9733.8359375,17433.9609375,12102.921875,9403.228515625,12619.4951171875,12073.5166015625,2788.70263671875,10805.9248046875,3976.027099609375,17273.42578125,6771.88232421875,9129.841796875,3754.2978515625,11987.6865234375,5722.0458984375,24021.466796875,4408.359375,18823.94140625,3617.6044921875,10266.3037109375,27085.146484375,21775.564453125,12280.146484375,-0.0,-44064.5234375,20078.0234375,5805.4921875,0.0,7135.0732421875,0.0,0.0
16336.44140625,16069.412109375,34607.25,11760.39453125,28543.47265625,7228.8515625,8463.0654296875,9624.1640625,9752.1142578125,6567.63720703125,18033.98046875,-415.64306640625,8935.1337890625,0.0,23007.392578125,8107.8212890625,25312.10546875,20530.224609375,10051.7275390625,12358.8251953125,23456.416015625,29841.265625,24180.412109375,20159.87890625,21683.375,8040.26904296875,29447.875,998.973876953125,0.0,2592.404541015625,14245.509765625,7453.759765625,26338.896484375,16622.54296875,15688.73828125,25382.837890625,9782.314453125,14684.2001953125,9845.09765625,4899.501953125,23201.306640625,9734.630859375,17434.755859375,12106.1005859375,9400.0498046875,12623.4697265625,12089.412109375,2795.060302734375,10805.1298828125,3979.2060546875,17272.630859375,6772.6767578125,9144.9423828125,3759.861083984375,11992.4541015625,5721.2509765625,24023.8515625,4402.001953125,18817.583984375,3619.194091796875,10269.482421875,27089.119140625,21777.15234375,12288.8876953125,-0.0,-44067.69921875,20080.408203125,5808.67138671875,0.0,7139.841796875,0.0,0.0
16336.44140625,16094.0498046875,34619.96875,11756.419921875,28552.212890625,7238.38818359375,8473.396484375,9632.9052734375,9763.2412109375,6574.78955078125,18043.517578125,-402.1326599121094,8943.875,0.0,23016.9296875,8114.1787109375,25321.642578125,20541.349609375,10062.05859375,12373.1298828125,23466.74609375,29846.826171875,24189.154296875,20170.2109375,21692.1171875,8052.18994140625,29456.615234375,1008.5106201171875,0.0,2601.94140625,14255.8408203125,7460.1171875,26349.2265625,16628.900390625,15698.2744140625,25393.16796875,9793.4404296875,14696.12109375,9852.25,4930.49609375,23213.228515625,9742.5771484375,17444.29296875,12116.4326171875,9411.17578125,12633.80078125,12102.126953125,2806.186767578125,10813.8720703125,3988.742919921875,17280.578125,6780.62451171875,9147.326171875,3767.80810546875,12005.169921875,5726.814453125,24030.208984375,4407.564453125,18831.888671875,3624.757080078125,10282.19921875,27101.0390625,21789.869140625,12295.24609375,-0.0,-44058.9609375,20088.353515625,5815.82421875,0.0,7135.8681640625,0.0,0.0
16330.083984375,16104.3798828125,34615.9921875,11763.572265625,28554.59765625,7243.951171875,8478.1650390625,9640.0576171875,9761.6513671875,6578.763671875,18033.98046875,-397.3642883300781,8944.6708984375,0.0,23018.517578125,8120.53662109375,25327.205078125,20549.296875,10067.6220703125,12374.71875,23471.513671875,29850.80078125,24189.154296875,20176.568359375,21693.70703125,8060.1376953125,29459.0,1014.07373046875,0.0,2606.709716796875,14261.4052734375,7466.47509765625,26352.40625,16632.875,15703.04296875,25400.3203125,9799.7978515625,14703.2734375,9860.1982421875,4950.36474609375,23215.61328125,9752.1142578125,17447.470703125,12119.6103515625,9413.5595703125,12639.36328125,12093.384765625,2805.39208984375,10814.6669921875,3995.8955078125,17284.55078125,6785.392578125,9143.3525390625,3771.781982421875,12005.96484375,5728.40380859375,24031.00390625,4413.9228515625,18834.271484375,3628.730712890625,10290.9404296875,27108.98828125,21793.841796875,12286.50390625,-0.0,-44054.19140625,20087.560546875,5819.79736328125,0.0,7135.0732421875,0.0,0.0
16322.1357421875,16102.791015625,34604.8671875,11762.7783203125,28549.03515625,7243.15625,8471.806640625,9642.44140625,9752.9091796875,6579.55810546875,18019.67578125,-410.0799560546875,8937.5185546875,0.0,23014.544921875,8122.9208984375,25323.232421875,20546.1171875,10064.4423828125,12372.3349609375,23468.3359375,29850.005859375,24185.1796875,20178.16015625,21684.96484375,8053.77978515625,29455.02734375,1015.6631469726562,0.0,2605.9150390625,14255.8408203125,7458.52783203125,26348.431640625,16631.28515625,15699.86328125,25398.73046875,9796.619140625,14701.68359375,9860.9921875,4939.23828125,23208.458984375,9748.935546875,17443.498046875,12118.021484375,9407.203125,12638.5693359375,12068.748046875,2806.186767578125,10806.7197265625,3995.8955078125,17281.373046875,6784.59765625,9140.173828125,3772.57666015625,11997.22265625,5726.814453125,24028.619140625,4416.30712890625,18830.298828125,3629.525390625,10286.171875,27105.80859375,21793.046875,12283.3251953125,-0.0,-44054.984375,20085.17578125,5819.79736328125,0.0,7135.0732421875,0.0,0.0
16331.6728515625,16099.611328125,34613.609375,11774.69921875,28556.982421875,7254.28271484375,8476.5751953125,9651.18359375,9752.9091796875,6588.30029296875,18025.240234375,-403.7221374511719,8939.107421875,0.0,23016.9296875,8130.8681640625,25330.384765625,20549.296875,10070.80078125,12378.6923828125,23475.48828125,29859.54296875,24192.333984375,20186.900390625,21693.70703125,8064.11083984375,29459.0,1025.99462890625,0.0,2616.24658203125,14263.7890625,7464.0908203125,26355.5859375,16637.64453125,15706.220703125,25409.0625,9801.3876953125,14711.220703125,9870.529296875,4922.548828125,23215.61328125,9759.2666015625,17449.85546875,12129.1474609375,9409.5869140625,12650.490234375,12079.080078125,2814.9287109375,10811.48828125,4007.021484375,17282.962890625,6795.724609375,9150.5048828125,3770.9873046875,12001.197265625,5742.70849609375,24029.4140625,4428.22802734375,18833.478515625,3639.062255859375,10290.1455078125,27112.9609375,21800.19921875,12290.4775390625,-0.0,-44055.77734375,20089.150390625,5815.82421875,0.0,7143.8154296875,0.0,0.0
16336.44140625,16090.07421875,34619.171875,11786.6201171875,28561.75,7260.640625,8480.548828125,9657.5419921875,9753.7041015625,6594.65771484375,18030.802734375,-394.9801025390625,8945.46484375,0.0,23018.517578125,8134.04736328125,25335.947265625,20554.06640625,10075.5693359375,12383.4609375,23479.4609375,29869.080078125,24195.513671875,20193.2578125,21701.654296875,8072.85302734375,29460.587890625,1033.147216796875,0.0,2605.9150390625,14271.736328125,7468.859375,26360.353515625,16644.796875,15713.373046875,25416.216796875,9806.9501953125,14715.9892578125,9874.5029296875,4916.19091796875,23219.5859375,9764.8310546875,17454.625,12135.505859375,9413.5595703125,12657.642578125,12092.58984375,2799.0341796875,10816.2568359375,4013.379638671875,17285.34765625,6803.67138671875,9154.4794921875,3759.06640625,12005.96484375,5751.451171875,24031.796875,4432.201171875,18834.271484375,3643.83056640625,10291.7353515625,27119.318359375,21804.96875,12295.24609375,-0.0,-44052.6015625,20089.150390625,5809.4658203125,0.0,7149.37841796875,0.0,0.0
16326.904296875,16100.40625,34624.73828125,11789.00390625,28566.51953125,7262.22998046875,8484.5224609375,9662.310546875,9756.087890625,6599.42626953125,18041.9296875,-393.3906555175781,8952.6171875,0.0,23021.697265625,8138.0205078125,25342.306640625,20558.833984375,10080.337890625,12389.8193359375,23484.23046875,29870.66796875,24197.896484375,20195.642578125,21703.244140625,8077.62158203125,29463.767578125,1036.3260498046875,0.0,2594.788818359375,14276.5048828125,7472.8330078125,26365.916015625,16647.974609375,15716.552734375,25419.392578125,9810.1298828125,14719.962890625,9879.271484375,4940.033203125,23225.1484375,9765.625,17457.8046875,12140.2744140625,9416.7392578125,12661.6162109375,12097.3583984375,2795.060302734375,10819.435546875,4014.96875,17289.3203125,6810.029296875,9157.6572265625,3773.371337890625,12005.96484375,5752.24560546875,24033.388671875,4429.8173828125,18839.041015625,3652.57275390625,10290.1455078125,27122.498046875,21809.736328125,12297.6298828125,-0.0,-44046.2421875,20094.712890625,5804.69775390625,0.0,7145.40478515625,0.0,0.0
16308.6259765625,16107.5595703125,34628.70703125,11784.236328125,28570.494140625,7265.4091796875,8487.701171875,9667.0791015625,9756.8828125,6604.19482421875,18040.337890625,-392.5959167480469,8947.849609375,0.0,23028.0546875,8141.99462890625,25344.689453125,20562.013671875,10083.5166015625,12392.998046875,23489.79296875,29873.84765625,24200.28125,20202.001953125,21708.01171875,8077.62158203125,29467.740234375,1038.710205078125,0.0,2598.762451171875,14278.888671875,7476.806640625,26371.478515625,16650.357421875,15719.732421875,25423.369140625,9814.8984375,14725.525390625,9882.4501953125,4942.4169921875,23229.91796875,9768.8037109375,17460.1875,12144.248046875,9421.5078125,12667.1787109375,12095.7685546875,2813.33935546875,10823.4091796875,4017.35302734375,17292.5,6814.7978515625,9152.8896484375,3778.9345703125,12003.5810546875,5751.451171875,24037.361328125,4433.79052734375,18845.400390625,3657.341064453125,10293.32421875,27125.677734375,21814.50390625,12293.65625,-0.0,-44041.47265625,20096.302734375,5815.82421875,0.0,7146.19970703125,0.0,0.0
16311.8037109375,16101.2021484375,34624.73828125,11778.671875,28567.314453125,7263.8193359375,8488.49609375,9669.462890625,9754.498046875,6606.57861328125,18022.85546875,-393.3906555175781,8936.72265625,0.0,23029.646484375,8145.96826171875,25343.099609375,20564.3984375,10085.10546875,12395.3818359375,23485.025390625,29873.84765625,24196.306640625,20200.41015625,21709.599609375,8073.6474609375,29466.947265625,1039.5050048828125,0.0,2601.146728515625,14278.0947265625,7472.8330078125,26367.505859375,16649.564453125,15718.1416015625,25420.189453125,9815.693359375,14727.91015625,9869.734375,4932.88037109375,23227.533203125,9764.8310546875,17459.392578125,12142.658203125,9419.1240234375,12667.9736328125,12091.0009765625,2827.644287109375,10820.2294921875,4012.584716796875,17292.5,6814.7978515625,9130.63671875,3768.60302734375,11995.6328125,5749.861328125,24033.388671875,4434.58544921875,18849.373046875,3657.341064453125,10287.76171875,27127.265625,21816.095703125,12295.24609375,-0.0,-44038.296875,20099.482421875,5826.9501953125,0.0,7152.5576171875,0.0,0.0
16320.546875,16090.07421875,34622.3515625,11773.109375,28562.544921875,7259.845703125,8486.9072265625,9669.462890625,9748.935546875,6604.19482421875,18017.29296875,-394.1853942871094,8930.365234375,0.0,23027.26171875,8147.55712890625,25339.126953125,20561.21875,10084.3115234375,12392.203125,23479.4609375,29868.28515625,24189.94921875,20198.02734375,21705.626953125,8072.85302734375,29460.587890625,1042.6839599609375,0.0,2604.325439453125,14273.326171875,7468.859375,26363.53125,16646.384765625,15712.580078125,25417.009765625,9812.5146484375,14726.3212890625,9860.9921875,4936.0595703125,23223.55859375,9759.2666015625,17457.0078125,12141.8642578125,9417.5341796875,12669.5634765625,12089.412109375,2826.849609375,10813.0771484375,4008.611083984375,17290.115234375,6816.38720703125,9122.689453125,3758.271484375,11994.0439453125,5748.27197265625,24029.4140625,4438.55908203125,18849.373046875,3654.956787109375,10282.19921875,27124.880859375,21816.888671875,12288.8876953125,-0.0,-44034.3203125,20101.865234375,5823.77099609375,0.0,7147.7890625,0.0,0.0
16310.21484375,16078.1533203125,34612.81640625,11768.3408203125,28558.572265625,7258.25634765625,8484.5224609375,9669.462890625,9744.1669921875,6604.98974609375,18002.19140625,-388.6222839355469,8927.9814453125,0.0,23026.466796875,8149.14697265625,25334.357421875,20549.296875,10081.1318359375,12392.203125,23473.8984375,29862.72265625,24185.1796875,20196.4375,21700.064453125,8072.05859375,29457.41015625,1044.2734375,0.0,2609.888671875,14267.76171875,7460.912109375,26357.96875,16643.205078125,15706.220703125,25415.419921875,9809.3349609375,14723.1416015625,9853.83984375,4942.4169921875,23215.61328125,9755.2939453125,17452.240234375,12142.658203125,9414.35546875,12669.5634765625,12081.4638671875,2817.31298828125,10805.9248046875,4008.611083984375,17289.3203125,6816.38720703125,9116.33203125,3747.93994140625,11990.0703125,5749.861328125,24030.208984375,4443.32763671875,18849.373046875,3656.54638671875,10280.609375,27120.11328125,21815.30078125,12284.9150390625,-0.0,-44027.96484375,20103.455078125,5819.79736328125,0.0,7140.63623046875,0.0,0.0
16321.3408203125,16071.796875,34611.2265625,11775.4931640625,28558.572265625,7265.4091796875,8486.111328125,9676.615234375,9748.1416015625,6611.34716796875,18004.576171875,-377.49609375,8931.16015625,0.0,23032.82421875,8157.88916015625,25334.357421875,20551.681640625,10086.6953125,12397.765625,23475.48828125,29867.490234375,24184.384765625,20201.20703125,21698.474609375,8081.59521484375,29460.587890625,1051.4259033203125,0.0,2620.22021484375,14268.5576171875,7464.8857421875,26357.173828125,16644.796875,15706.220703125,25417.8046875,9813.30859375,14729.5,9855.4296875,4948.77490234375,23213.228515625,9763.2412109375,17453.828125,12147.4267578125,9417.5341796875,12677.5107421875,12073.5166015625,2804.59716796875,10806.7197265625,4017.35302734375,17294.087890625,6824.33447265625,9116.33203125,3754.2978515625,11983.7119140625,5760.19287109375,24033.388671875,4453.6591796875,18854.140625,3664.49365234375,10288.5556640625,27123.29296875,21820.068359375,12291.2724609375,-0.0,-44017.6328125,20103.455078125,5825.36083984375,0.0,7143.0205078125,0.0,0.0
16329.2880859375,16063.8486328125,34602.48046875,11762.7783203125,28552.212890625,7262.22998046875,8485.3173828125,9675.0263671875,9751.3203125,6612.9365234375,18010.935546875,-391.0064697265625,8926.3916015625,0.0,23033.619140625,8160.2734375,25326.41015625,20546.9140625,10084.3115234375,12400.150390625,23466.74609375,29860.337890625,24178.82421875,20198.02734375,21688.9375,8076.03173828125,29457.41015625,1049.8365478515625,0.0,2604.325439453125,14260.609375,7456.9384765625,26349.2265625,16636.84765625,15699.068359375,25413.037109375,9811.71875,14727.91015625,9847.4814453125,4939.23828125,23205.28125,9757.677734375,17451.4453125,12145.0419921875,9420.712890625,12677.5107421875,12055.2373046875,2791.881591796875,10801.951171875,4014.174072265625,17292.5,6825.12890625,9104.4111328125,3746.3505859375,11980.533203125,5750.65625,24026.236328125,4452.8642578125,18858.91015625,3664.49365234375,10282.19921875,27118.525390625,21821.65625,12295.24609375,-0.0,-44027.96484375,20106.634765625,5827.7451171875,0.0,7141.43115234375,0.0,0.0
16318.9560546875,16067.0283203125,34596.125,11760.39453125,28548.240234375,7260.640625,8486.9072265625,9674.2314453125,9757.677734375,6614.5263671875,18009.34375,-401.33795166015625,8923.212890625,0.0,23032.82421875,8158.68359375,25322.4375,20539.759765625,10084.3115234375,12405.712890625,23461.9765625,29857.953125,24179.6171875,20197.232421875,21678.60546875,8070.46875,29456.615234375,1049.041748046875,0.0,2597.9677734375,14255.046875,7448.1962890625,26342.869140625,16632.080078125,15695.890625,25410.65234375,9811.71875,14727.91015625,9836.3564453125,4925.72802734375,23199.716796875,9752.9091796875,17450.650390625,12143.453125,9425.48046875,12677.5107421875,12045.701171875,2799.828857421875,10797.9775390625,4011.789794921875,17294.8828125,6825.12890625,9099.642578125,3754.2978515625,11981.328125,5741.9140625,24022.259765625,4452.06982421875,18862.08984375,3664.49365234375,10265.509765625,27116.93359375,21826.42578125,12299.2197265625,-0.0,-44035.91015625,20112.9921875,5835.69189453125,0.0,7143.8154296875,0.0,0.0
16304.6513671875,16067.8232421875,34594.53515625,11768.3408203125,28547.4453125,7258.25634765625,8487.701171875,9673.4365234375,9755.2939453125,6611.34716796875,17995.833984375,-400.543212890625,8921.623046875,0.0,23033.619140625,8157.09423828125,25318.46484375,20533.404296875,10082.7216796875,12400.9443359375,23456.416015625,29853.185546875,24178.02734375,20197.232421875,21677.8125,8068.87890625,29456.615234375,1049.8365478515625,0.0,2595.583740234375,14251.8681640625,7440.2490234375,26336.51171875,16629.6953125,15693.505859375,25406.6796875,9810.1298828125,14726.3212890625,9832.3818359375,4910.6279296875,23197.33203125,9749.73046875,17449.060546875,12142.658203125,9423.8916015625,12674.33203125,12042.5224609375,2810.160400390625,10795.59375,4012.584716796875,17295.6796875,6822.74462890625,9101.2314453125,3752.70849609375,11980.533203125,5744.29833984375,24027.82421875,4450.47998046875,18862.8828125,3659.72509765625,10254.3828125,27115.345703125,21822.453125,12287.298828125,-0.0,-44033.52734375,20113.787109375,5834.1025390625,0.0,7146.19970703125,0.0,0.0
16292.73046875,16060.6708984375,34591.359375,11765.95703125,28546.65234375,7256.66650390625,8486.111328125,9670.2578125,9748.935546875,6608.962890625,17989.4765625,-401.33795166015625,8919.2392578125,0.0,23032.029296875,8157.09423828125,25314.490234375,20533.404296875,10082.7216796875,12396.1767578125,23454.82421875,29850.80078125,24174.0546875,20194.849609375,21678.60546875,8069.67431640625,29455.02734375,1049.041748046875,0.0,2592.404541015625,14248.6884765625,7435.48046875,26334.919921875,16624.927734375,15691.9150390625,25402.705078125,9808.5400390625,14725.525390625,9838.740234375,4905.859375,23195.744140625,9744.9619140625,17448.267578125,12141.068359375,9420.712890625,12672.7421875,12042.5224609375,2806.9814453125,10794.00390625,4013.379638671875,17291.705078125,6820.36083984375,9107.58984375,3743.96630859375,11978.943359375,5745.8876953125,24028.619140625,4449.685546875,18858.11328125,3655.75146484375,10251.2041015625,27112.166015625,21819.2734375,12276.1728515625,-0.0,-44035.1171875,20109.017578125,5831.71826171875,0.0,7147.7890625,0.0,0.0
16285.578125,16058.287109375,34589.765625,11749.267578125,28545.857421875,7252.693359375,8488.49609375,9666.283203125,9751.3203125,6607.37353515625,17987.09375,-402.1326599121094,8919.2392578125,0.0,23034.4140625,8153.91552734375,25310.515625,20534.9921875,10085.10546875,12396.9716796875,23450.8515625,29846.826171875,24173.259765625,20192.46484375,21684.96484375,8069.67431640625,29456.615234375,1045.068115234375,0.0,2589.225830078125,14246.3046875,7435.48046875,26331.744140625,16618.5703125,15691.1220703125,25400.3203125,9809.3349609375,14724.7314453125,9833.1767578125,4919.3701171875,23194.154296875,9741.783203125,17449.060546875,12139.4794921875,9423.8916015625,12671.947265625,12045.701171875,2799.828857421875,10792.4150390625,4008.611083984375,17292.5,6815.59228515625,9102.8212890625,3736.01904296875,11976.5595703125,5745.8876953125,24027.82421875,4446.50634765625,18860.498046875,3654.162109375,10248.025390625,27112.9609375,21823.248046875,12288.09375,-0.0,-44040.6796875,20110.607421875,5826.9501953125,0.0,7143.0205078125,0.0,0.0
16282.400390625,16050.3388671875,34577.84765625,11734.962890625,28537.115234375,7241.56689453125,8480.548828125,9659.9267578125,9742.5771484375,6600.22119140625,17976.76171875,-407.6957702636719,8913.67578125,0.0,23024.08203125,8145.1728515625,25299.390625,20528.634765625,10075.5693359375,12388.2294921875,23439.7265625,29834.90625,24167.6953125,20185.3125,21680.197265625,8059.34228515625,29449.462890625,1034.736572265625,0.0,2581.278564453125,14236.767578125,7425.94384765625,26319.822265625,16607.443359375,15680.7900390625,25392.375,9802.1826171875,14715.9892578125,9812.5146484375,4904.27001953125,23185.412109375,9729.0673828125,17441.908203125,12129.943359375,9417.5341796875,12664.794921875,12040.138671875,2786.318603515625,10788.4404296875,3994.30615234375,17286.142578125,6806.0556640625,9086.1318359375,3715.356201171875,11962.2548828125,5741.119140625,24020.671875,4441.73828125,18850.16796875,3646.21484375,10238.48828125,27105.013671875,21817.68359375,12285.708984375,-0.0,-44048.625,20105.04296875,5819.00244140625,0.0,7139.04736328125,0.0,0.0
16290.345703125,16055.107421875,34573.87109375,11731.7841796875,28536.3203125,7237.59326171875,8482.138671875,9659.130859375,9745.7568359375,6599.42626953125,17981.529296875,-410.0799560546875,8911.2919921875,0.0,23026.466796875,8138.81591796875,25297.005859375,20529.427734375,10077.953125,12388.2294921875,23441.314453125,29833.31640625,24169.287109375,20185.3125,21675.427734375,8054.57421875,29451.05078125,1032.3524169921875,0.0,2576.51025390625,14234.3837890625,7424.3544921875,26318.232421875,16605.05859375,15680.7900390625,25391.578125,9802.9775390625,14715.1943359375,9808.5400390625,4900.296875,23183.02734375,9723.50390625,17441.908203125,12128.353515625,9419.91796875,12662.4111328125,12043.31640625,2789.497314453125,10789.2353515625,3989.53759765625,17286.935546875,6802.08203125,9078.9794921875,3701.051025390625,11958.28125,5729.1982421875,24020.671875,4433.79052734375,18852.552734375,3644.62548828125,10239.283203125,27104.21875,21818.48046875,12278.556640625,-0.0,-44050.21484375,20103.455078125,5825.36083984375,0.0,7140.63623046875,0.0,0.0
16300.6787109375,16071.796875,34584.20703125,11742.115234375,28545.060546875,7245.54052734375,8494.0595703125,9670.2578125,9759.2666015625,6608.962890625,17994.24609375,-402.1326599121094,8923.212890625,0.0,23036.00390625,8147.55712890625,25306.54296875,20539.759765625,10089.080078125,12399.35546875,23449.26171875,29842.05859375,24178.02734375,20194.052734375,21680.990234375,8065.70068359375,29463.767578125,1041.094482421875,0.0,2582.867919921875,14244.7158203125,7432.3017578125,26328.564453125,16616.185546875,15691.9150390625,25401.115234375,9813.30859375,14727.91015625,9815.693359375,4912.2177734375,23191.771484375,9733.8359375,17453.828125,12137.8896484375,9430.2490234375,12671.947265625,12052.853515625,2800.62353515625,10797.9775390625,3995.8955078125,17298.857421875,6810.82373046875,9085.337890625,3720.12451171875,11969.4072265625,5732.37744140625,24027.029296875,4438.55908203125,18866.0625,3652.57275390625,10252.79296875,27114.548828125,21829.60546875,12284.119140625,-0.0,-44046.2421875,20115.375,5842.8447265625,0.0,7152.5576171875,0.0,0.0
16299.8828125,16071.0009765625,34585.79296875,11741.3203125,28543.47265625,7247.9248046875,8491.67578125,9673.4365234375,9757.677734375,6608.962890625,17995.0390625,-404.516845703125,8918.4443359375,0.0,23035.20703125,8152.32568359375,25308.1328125,20539.759765625,10088.2841796875,12398.560546875,23448.466796875,29842.05859375,24177.232421875,20194.052734375,21671.453125,8065.70068359375,29458.205078125,1045.068115234375,0.0,2582.867919921875,14243.919921875,7430.71240234375,26326.974609375,16618.5703125,15691.1220703125,25401.91015625,9814.103515625,14729.5,9826.0244140625,4914.6015625,23189.38671875,9740.193359375,17451.4453125,12139.4794921875,9431.044921875,12674.33203125,12059.2119140625,2799.828857421875,10791.619140625,3999.074462890625,17298.0625,6816.38720703125,9091.6953125,3736.01904296875,11970.9970703125,5731.58251953125,24027.82421875,4442.533203125,18863.677734375,3653.3671875,10252.79296875,27116.93359375,21830.400390625,12282.53125,-0.0,-44040.6796875,20114.580078125,5842.8447265625,0.0,7152.5576171875,0.0,0.0
16307.03515625,16067.8232421875,34585.0,11742.9091796875,28540.29296875,7255.0771484375,8491.67578125,9677.41015625,9756.8828125,6609.7578125,17993.44921875,-395.77484130859375,8915.2646484375,0.0,23032.029296875,8158.68359375,25309.720703125,20538.96484375,10090.6689453125,12396.9716796875,23450.056640625,29846.826171875,24179.6171875,20198.02734375,21664.30078125,8059.34228515625,29454.23046875,1053.015380859375,0.0,2590.815185546875,14245.509765625,7434.68603515625,26327.767578125,16620.955078125,15691.9150390625,25404.294921875,9814.8984375,14733.4736328125,9826.8193359375,4917.7802734375,23187.794921875,9744.1669921875,17452.240234375,12145.8369140625,9432.6337890625,12677.5107421875,12056.8271484375,2800.62353515625,10787.646484375,4010.995361328125,17297.267578125,6822.74462890625,9097.2587890625,3747.93994140625,11971.791015625,5750.65625,24027.82421875,4453.6591796875,18859.705078125,3654.162109375,10252.79296875,27118.525390625,21830.400390625,12279.3515625,-0.0,-44020.015625,20109.017578125,5836.48681640625,0.0,7144.60986328125,0.0,0.0
16304.6513671875,16063.8486328125,34588.17578125,11749.267578125,28541.087890625,7256.66650390625,8494.0595703125,9679.7939453125,9768.8037109375,6613.7314453125,17995.0390625,-391.80120849609375,8916.8544921875,0.0,23032.82421875,8157.09423828125,25311.3125,20537.376953125,10093.052734375,12402.5341796875,23451.646484375,29850.005859375,24182.001953125,20200.41015625,21666.685546875,8073.6474609375,29458.205078125,1052.220703125,0.0,2591.60986328125,14248.6884765625,7436.275390625,26331.744140625,16626.515625,15690.3271484375,25405.8828125,9815.693359375,14735.8583984375,9812.5146484375,4922.548828125,23190.974609375,9744.9619140625,17453.828125,12149.810546875,9438.9912109375,12679.89453125,12056.8271484375,2799.828857421875,10790.8251953125,4014.174072265625,17299.65234375,6826.71875,9099.642578125,3750.32421875,11978.1494140625,5750.65625,24027.82421875,4450.47998046875,18862.8828125,3660.519775390625,10246.4365234375,27120.908203125,21833.578125,12284.119140625,-0.0,-44022.3984375,20111.40234375,5824.56591796875,0.0,7148.583984375,0.0,0.0
16292.73046875,16061.4638671875,34588.97265625,11753.2412109375,28536.3203125,7255.0771484375,8490.0859375,9676.615234375,9773.572265625,6612.9365234375,17991.06640625,-404.516845703125,8914.470703125,0.0,23031.234375,8157.09423828125,25307.3359375,20529.427734375,10088.2841796875,12401.740234375,23447.671875,29850.005859375,24176.439453125,20198.02734375,21666.685546875,8077.62158203125,29455.02734375,1048.2469482421875,0.0,2586.841552734375,14244.7158203125,7431.50732421875,26327.767578125,16623.337890625,15684.7626953125,25401.115234375,9809.3349609375,14731.08984375,9804.56640625,4908.24365234375,23187.001953125,9743.373046875,17450.650390625,12147.4267578125,9438.197265625,12679.099609375,12049.6748046875,2796.64990234375,10789.2353515625,4012.584716796875,17296.47265625,6825.923828125,9084.5419921875,3747.1455078125,11975.765625,5734.76171875,24027.029296875,4443.32763671875,18861.29296875,3658.930419921875,10233.7197265625,27112.9609375,21830.400390625,12285.708984375,-0.0,-44038.296875,20110.607421875,5811.85009765625,0.0,7147.7890625,0.0,0.0
16287.9619140625,16059.875,34579.4375,11742.115234375,28529.962890625,7246.33544921875,8486.111328125,9671.84765625,9770.3935546875,6608.16796875,17983.9140625,-416.4377746582031,8908.908203125,0.0,23028.849609375,8151.53125,25297.005859375,20519.892578125,10081.1318359375,12396.1767578125,23438.134765625,29838.880859375,24169.287109375,20189.28515625,21665.095703125,8067.29052734375,29447.875,1041.88916015625,0.0,2577.304931640625,14236.767578125,7425.94384765625,26319.822265625,16615.390625,15676.021484375,25393.16796875,9802.1826171875,14723.1416015625,9799.00390625,4897.11767578125,23177.46484375,9733.041015625,17443.498046875,12138.6845703125,9431.8388671875,12674.33203125,12041.7275390625,2786.318603515625,10782.8779296875,4005.43212890625,17290.91015625,6818.771484375,9069.4423828125,3731.250732421875,11973.380859375,5729.1982421875,24023.056640625,4441.73828125,18855.73046875,3654.956787109375,10227.3623046875,27102.62890625,21827.220703125,12287.298828125,-0.0,-44047.83203125,20107.427734375,5817.4130859375,0.0,7139.04736328125,0.0,0.0
16281.6044921875,16058.287109375,34577.0546875,11743.705078125,28530.755859375,7239.9775390625,8484.5224609375,9667.873046875,9772.77734375,6609.7578125,17980.734375,-414.84832763671875,8909.7021484375,0.0,23028.849609375,8132.45751953125,25297.005859375,20520.6875,10079.54296875,12397.765625,23437.341796875,29835.701171875,24167.6953125,20183.720703125,21662.712890625,8058.5478515625,29447.078125,1033.147216796875,0.0,2576.51025390625,14235.9736328125,7421.17529296875,26319.02734375,16613.005859375,15674.4326171875,25389.1953125,9800.59375,14719.962890625,9799.7978515625,4898.70703125,23178.259765625,9729.0673828125,17441.908203125,12132.3271484375,9429.455078125,12671.1533203125,12044.90625,2787.11328125,10781.2880859375,3994.30615234375,17290.115234375,6811.61865234375,9058.31640625,3724.09814453125,11973.380859375,5720.45654296875,24023.8515625,4433.79052734375,18857.3203125,3653.3671875,10234.515625,27101.0390625,21828.015625,12289.68359375,-0.0,-44047.0390625,20106.634765625,5824.56591796875,0.0,7145.40478515625,0.0,0.0
16275.248046875,16048.75,34573.078125,11745.2939453125,28527.578125,7233.61962890625,8481.34375,9663.10546875,9772.77734375,6606.57861328125,17957.6875,-415.64306640625,8910.4970703125,0.0,23028.849609375,8128.48388671875,25293.03125,20518.302734375,10077.1591796875,12398.560546875,23434.162109375,29834.90625,24165.3125,20179.748046875,21662.712890625,8050.60107421875,29447.078125,1029.96826171875,0.0,2568.562744140625,14232.794921875,7414.81787109375,26315.0546875,16609.033203125,15672.048828125,25385.220703125,9797.4140625,14716.7841796875,9792.6455078125,4887.5810546875,23177.46484375,9725.888671875,17437.935546875,12123.5849609375,9427.0703125,12668.7685546875,12036.1640625,2776.78173828125,10778.904296875,3984.769287109375,17289.3203125,6809.234375,9044.0107421875,3724.09814453125,11967.0224609375,5721.2509765625,24020.671875,4427.43310546875,18856.525390625,3648.598876953125,10235.3095703125,27099.451171875,21824.8359375,12294.4521484375,-0.0,-44051.01171875,20112.9921875,5819.79736328125,0.0,7140.63623046875,0.0,0.0
16280.8095703125,16044.775390625,34581.8203125,11737.3466796875,28531.55078125,7235.208984375,8486.111328125,9665.4892578125,9775.9560546875,6608.16796875,17941.79296875,-412.4641418457031,8915.2646484375,0.0,23033.619140625,8136.431640625,25297.005859375,20519.892578125,10080.337890625,12403.3291015625,23438.9296875,29838.0859375,24169.287109375,20182.927734375,21669.068359375,8053.77978515625,29452.642578125,1034.736572265625,0.0,2571.74169921875,14235.9736328125,7418.79150390625,26321.41015625,16611.41796875,15677.6103515625,25389.1953125,9802.1826171875,14718.373046875,9808.5400390625,4906.654296875,23183.02734375,9731.4521484375,17442.703125,12127.55859375,9431.8388671875,12671.1533203125,12047.291015625,2764.06591796875,10784.466796875,3989.53759765625,17295.6796875,6814.0029296875,9063.0849609375,3729.6611328125,11972.5869140625,5728.40380859375,24025.439453125,4432.99609375,18860.498046875,3650.983154296875,10243.2568359375,27101.0390625,21828.015625,12294.4521484375,-0.0,-44045.44921875,20120.14453125,5821.38671875,0.0,7139.04736328125,0.0,0.0
16272.068359375,16040.0068359375,34587.3828125,11738.9365234375,28537.115234375,7234.41455078125,8488.49609375,9667.873046875,9773.572265625,6608.962890625,17989.4765625,-415.64306640625,8912.880859375,0.0,23034.4140625,8139.6103515625,25299.390625,20520.6875,10082.7216796875,12403.3291015625,23443.69921875,29838.0859375,24169.287109375,20184.517578125,21677.8125,8052.9853515625,29455.02734375,1036.3260498046875,0.0,2575.71533203125,14237.5634765625,7418.79150390625,26323.794921875,16612.2109375,15681.5849609375,25389.990234375,9803.771484375,14719.962890625,9808.5400390625,4905.859375,23189.38671875,9732.24609375,17448.267578125,12128.353515625,9432.6337890625,12671.947265625,12053.6494140625,2754.529296875,10789.2353515625,3989.53759765625,17295.6796875,6815.59228515625,9082.158203125,3732.84033203125,11972.5869140625,5727.609375,24026.236328125,4433.79052734375,18863.677734375,3650.1884765625,10236.1044921875,27101.8359375,21828.015625,12285.708984375,-0.0,-44043.859375,20123.32421875,5822.9765625,0.0,7142.2255859375,0.0,0.0
16272.068359375,16043.1865234375,34587.3828125,11750.857421875,28537.115234375,7234.41455078125,8483.7275390625,9665.4892578125,9761.6513671875,6605.7841796875,18006.166015625,-414.0535888671875,8908.908203125,0.0,23030.439453125,8138.0205078125,25299.390625,20520.6875,10079.54296875,12394.587890625,23442.109375,29837.2890625,24166.107421875,20181.337890625,21673.837890625,8049.8056640625,29451.05078125,1032.3524169921875,0.0,2570.15234375,14238.357421875,7417.2021484375,26322.20703125,16612.2109375,15679.201171875,25387.60546875,9799.7978515625,14719.1689453125,9806.15625,4898.70703125,23190.1796875,9729.8623046875,17445.8828125,12125.1748046875,9426.2763671875,12668.7685546875,12048.880859375,2768.83447265625,10784.466796875,3988.742919921875,17290.91015625,6814.7978515625,9084.5419921875,3724.892822265625,11967.0224609375,5722.8408203125,24020.671875,4432.99609375,18855.73046875,3647.80419921875,10221.0048828125,27101.0390625,21823.248046875,12276.966796875,-0.0,-44046.2421875,20112.9921875,5826.1552734375,0.0,7146.19970703125,0.0,0.0
16272.068359375,16038.41796875,34576.25390625,11741.3203125,28530.755859375,7231.2353515625,8476.5751953125,9659.130859375,9754.498046875,6600.22119140625,17995.0390625,-422.7956237792969,8903.34375,0.0,23025.671875,8134.841796875,25292.23828125,20516.71484375,10074.7744140625,12390.61328125,23436.546875,29834.90625,24162.927734375,20174.98046875,21660.328125,8047.42138671875,29443.8984375,1029.1734619140625,0.0,2562.205078125,14231.9990234375,7410.84423828125,26313.462890625,16607.443359375,15673.6376953125,25385.220703125,9794.2353515625,14713.6044921875,9801.3876953125,4893.14404296875,23181.4375,9726.68359375,17439.5234375,12120.40625,9419.91796875,12664.0009765625,12043.31640625,2774.397705078125,10774.9296875,3986.358642578125,17285.34765625,6808.43994140625,9077.3896484375,3708.20361328125,11955.1015625,5714.8935546875,24018.287109375,4427.43310546875,18847.783203125,3642.2412109375,10213.0576171875,27095.4765625,21819.2734375,12282.53125,-0.0,-44053.39453125,20109.8125,5826.1552734375,0.0,7146.19970703125,0.0,0.0
16279.220703125,16042.390625,34577.84765625,11732.578125,28533.935546875,7237.59326171875,8480.548828125,9663.10546875,9757.677734375,6606.57861328125,17998.21875,-417.2325134277344,8907.318359375,0.0,23028.849609375,8142.7890625,25295.416015625,20522.275390625,10078.748046875,12392.998046875,23442.109375,29840.46875,24167.6953125,20185.3125,21661.916015625,8056.16357421875,29447.078125,1033.94189453125,0.0,2565.3837890625,14236.767578125,7415.61279296875,26318.232421875,16610.623046875,15679.201171875,25393.16796875,9798.208984375,14719.1689453125,9807.74609375,4905.06494140625,23183.02734375,9730.65625,17443.498046875,12128.353515625,9423.8916015625,12668.7685546875,12041.7275390625,2786.318603515625,10777.314453125,3997.484619140625,17288.52734375,6814.0029296875,9069.4423828125,3716.15087890625,11957.486328125,5720.45654296875,24023.8515625,4433.79052734375,18852.552734375,3649.393798828125,10226.5673828125,27101.8359375,21822.453125,12284.119140625,-0.0,-44045.44921875,20117.759765625,5835.69189453125,0.0,7150.96826171875,0.0,0.0
16285.578125,16040.8017578125,34577.84765625,11732.578125,28534.73046875,7239.18310546875,8478.958984375,9662.310546875,9745.7568359375,6601.810546875,17998.21875,-410.0799560546875,8906.5234375,0.0,23025.671875,8144.37890625,25297.80078125,20523.8671875,10076.36328125,12383.4609375,23440.51953125,29838.880859375,24165.3125,20187.697265625,21664.30078125,8060.1376953125,29450.2578125,1036.3260498046875,0.0,2568.562744140625,14236.767578125,7416.4072265625,26319.02734375,16610.623046875,15680.7900390625,25393.962890625,9797.4140625,14719.1689453125,9807.74609375,4911.4228515625,23183.02734375,9727.478515625,17441.908203125,12130.7373046875,9419.91796875,12664.0009765625,12036.1640625,2799.0341796875,10780.494140625,4003.0478515625,17288.52734375,6815.59228515625,9053.5478515625,3708.20361328125,11963.8447265625,5729.1982421875,24024.64453125,4436.9697265625,18847.783203125,3650.1884765625,10235.3095703125,27105.013671875,21817.68359375,12263.45703125,-0.0,-44039.88671875,20112.1953125,5837.28173828125,0.0,7149.37841796875,0.0,0.0
16282.400390625,16039.212890625,34574.66796875,11732.578125,28533.140625,7239.9775390625,8478.1650390625,9662.310546875,9740.98828125,6598.63134765625,17995.0390625,-406.9010314941406,8903.34375,0.0,23025.671875,8148.3525390625,25296.2109375,20519.892578125,10075.5693359375,12381.0771484375,23438.9296875,29835.701171875,24161.337890625,20185.3125,21667.48046875,8063.31640625,29449.462890625,1038.710205078125,0.0,2576.51025390625,14234.3837890625,7415.61279296875,26319.822265625,16609.033203125,15679.201171875,25391.578125,9795.029296875,14716.7841796875,9808.5400390625,4909.83349609375,23179.849609375,9728.2724609375,17441.115234375,12129.1474609375,9415.1494140625,12662.4111328125,12040.138671875,2802.212890625,10778.904296875,4003.8427734375,17285.34765625,6814.7978515625,9063.0849609375,3716.15087890625,11963.8447265625,5737.14599609375,24023.056640625,4444.9169921875,18847.783203125,3647.009521484375,10233.7197265625,27103.423828125,21816.888671875,12266.6357421875,-0.0,-44031.14453125,20105.837890625,5843.63916015625,0.0,7146.19970703125,0.0,0.0
16270.4794921875,16044.775390625,34577.0546875,11727.8095703125,28533.140625,7236.798828125,8478.1650390625,9659.130859375,9737.8095703125,6595.45263671875,17994.24609375,-401.33795166015625,8905.728515625,0.0,23031.234375,8151.53125,25294.623046875,20518.302734375,10074.7744140625,12384.255859375,23438.134765625,29834.111328125,24158.955078125,20183.720703125,21669.865234375,8059.34228515625,29451.05078125,1036.3260498046875,0.0,2576.51025390625,14231.9990234375,7414.02294921875,26319.822265625,16605.853515625,15676.021484375,25388.3984375,9793.4404296875,14713.6044921875,9811.71875,4906.654296875,23182.234375,9726.68359375,17440.318359375,12125.96875,9413.5595703125,12662.4111328125,12042.5224609375,2798.239501953125,10779.6982421875,3995.8955078125,17286.142578125,6814.7978515625,9086.1318359375,3721.714111328125,11962.2548828125,5738.7353515625,24027.029296875,4449.685546875,18852.552734375,3645.420166015625,10230.541015625,27101.8359375,21815.30078125,12271.404296875,-0.0,-44031.14453125,20107.427734375,5846.0234375,0.0,7141.43115234375,0.0,0.0
16265.7109375,16059.875,34575.4609375,11721.4521484375,28531.55078125,7230.4404296875,8473.396484375,9659.130859375,9732.24609375,6597.0419921875,17985.501953125,-402.1326599121094,8904.93359375,0.0,23029.646484375,8157.09423828125,25290.6484375,20513.53515625,10072.390625,12381.0771484375,23434.95703125,29826.958984375,24154.982421875,20179.748046875,21670.66015625,8052.9853515625,29447.875,1036.3260498046875,0.0,2577.304931640625,14226.4365234375,7411.638671875,26314.2578125,16601.0859375,15673.6376953125,25385.220703125,9792.6455078125,14711.220703125,9809.3349609375,4895.5283203125,23179.849609375,9719.53125,17437.935546875,12122.7900390625,9410.380859375,12661.6162109375,12039.34375,2799.828857421875,10778.109375,3991.126953125,17285.34765625,6815.59228515625,9086.9267578125,3720.91943359375,11959.8701171875,5740.32470703125,24024.64453125,4452.8642578125,18850.16796875,3648.598876953125,10232.92578125,27098.65625,21812.916015625,12265.841796875,-0.0,-44027.96484375,20109.017578125,5849.9970703125,0.0,7142.2255859375,0.0,0.0
16277.6318359375,16069.412109375,34572.28515625,11720.6572265625,28529.962890625,7230.4404296875,8471.806640625,9658.3369140625,9729.0673828125,6593.86279296875,17975.171875,-402.9273986816406,8902.5498046875,0.0,23026.466796875,8160.2734375,25287.470703125,20511.9453125,10070.0068359375,12377.8984375,23430.982421875,29825.369140625,24151.802734375,20179.748046875,21672.248046875,8052.9853515625,29446.283203125,1035.5313720703125,0.0,2584.45751953125,14221.66796875,7408.4599609375,26310.28515625,16597.11328125,15671.2529296875,25382.837890625,9790.26171875,14709.6318359375,9814.103515625,4878.8388671875,23174.28515625,9714.7626953125,17437.138671875,12121.9951171875,9407.9970703125,12660.8212890625,12032.19140625,2803.802490234375,10776.51953125,3993.51123046875,17283.7578125,6816.38720703125,9071.0322265625,3712.17724609375,11959.076171875,5744.29833984375,24022.259765625,4456.04345703125,18848.578125,3646.21484375,10238.48828125,27095.4765625,21812.12109375,12257.8935546875,-0.0,-44023.9921875,20115.375,5846.818359375,0.0,7139.841796875,0.0,0.0
16278.4248046875,16057.4912109375,34566.71875,11723.8359375,28528.37109375,7228.056640625,8474.986328125,9656.7470703125,9742.5771484375,6594.65771484375,17966.4296875,-407.6957702636719,8909.7021484375,0.0,23030.439453125,8166.630859375,25281.90625,20507.177734375,10070.0068359375,12389.8193359375,23427.8046875,29819.01171875,24151.005859375,20175.775390625,21668.275390625,8049.01123046875,29450.2578125,1035.5313720703125,0.0,2587.63623046875,14217.6943359375,7398.92333984375,26307.10546875,16591.548828125,15668.869140625,25380.453125,9791.056640625,14710.4267578125,9783.1083984375,4874.07080078125,23171.90234375,9713.9677734375,17439.5234375,12119.6103515625,9411.970703125,12660.8212890625,12025.8330078125,2793.47119140625,10777.314453125,3991.921875,17286.935546875,6817.9765625,9059.90625,3699.461669921875,11960.666015625,5743.50341796875,24026.236328125,4454.4541015625,18858.91015625,3645.420166015625,10232.130859375,27093.88671875,21814.50390625,12274.5830078125,-0.0,-44031.14453125,20119.34765625,5841.25537109375,0.0,7135.8681640625,0.0,0.0
16269.68359375,16045.5703125,34565.1328125,11719.0673828125,28529.16796875,7228.8515625,8479.7548828125,9658.3369140625,9752.9091796875,6602.60546875,17959.275390625,-408.4905090332031,8916.8544921875,0.0,23037.591796875,8165.83642578125,25285.0859375,20508.765625,10072.390625,12401.740234375,23429.39453125,29820.599609375,24151.005859375,20175.775390625,21664.30078125,8047.42138671875,29457.41015625,1037.120849609375,0.0,2587.63623046875,14218.4892578125,7400.5126953125,26307.90234375,16593.138671875,15670.4580078125,25379.658203125,9793.4404296875,14711.220703125,9785.4931640625,4884.40185546875,23173.490234375,9716.3515625,17441.908203125,12118.81640625,9419.1240234375,12664.0009765625,12018.6806640625,2782.3447265625,10778.109375,3993.51123046875,17292.5,6821.9501953125,9059.111328125,3705.8193359375,11960.666015625,5742.70849609375,24030.208984375,4449.685546875,18866.857421875,3650.983154296875,10228.1572265625,27095.4765625,21820.068359375,12300.0146484375,-0.0,-44029.55078125,20118.5546875,5842.8447265625,0.0,7137.45751953125,0.0,0.0
16271.2724609375,16030.4697265625,34572.28515625,11721.4521484375,28533.935546875,7234.41455078125,8479.7548828125,9656.7470703125,9748.935546875,6605.7841796875,17962.455078125,-401.33795166015625,8910.4970703125,0.0,23038.38671875,8160.2734375,25289.853515625,20515.123046875,10073.9794921875,12401.740234375,23435.75,29825.369140625,24154.185546875,20178.953125,21669.865234375,8057.75341796875,29458.205078125,1040.2998046875,0.0,2575.71533203125,14225.642578125,7407.6650390625,26314.2578125,16599.49609375,15674.4326171875,25385.220703125,9796.619140625,14712.015625,9802.1826171875,4889.96484375,23182.234375,9723.50390625,17444.29296875,12119.6103515625,9419.1240234375,12665.5888671875,12017.0908203125,2785.523681640625,10782.8779296875,3998.279541015625,17293.294921875,6823.53955078125,9056.7275390625,3709.79296875,11956.69140625,5745.8876953125,24029.4140625,4452.06982421875,18862.8828125,3654.956787109375,10231.3359375,27100.244140625,21821.65625,12293.65625,-0.0,-44024.78515625,20115.375,5841.25537109375,0.0,7139.841796875,0.0,0.0
16276.041015625,16024.908203125,34583.41015625,11724.630859375,28537.115234375,7235.208984375,8474.1904296875,9656.7470703125,9725.888671875,6603.39990234375,17978.349609375,-394.9801025390625,8903.34375,0.0,23031.234375,8157.09423828125,25296.2109375,20517.5078125,10072.390625,12385.05078125,23440.51953125,29830.93359375,24152.59765625,20182.1328125,21673.837890625,8062.52197265625,29456.615234375,1037.120849609375,0.0,2573.3310546875,14230.41015625,7415.61279296875,26321.41015625,16604.265625,15676.021484375,25387.60546875,9793.4404296875,14710.4267578125,9820.4609375,4910.6279296875,23186.20703125,9725.888671875,17444.29296875,12118.81640625,9411.17578125,12664.794921875,12040.138671875,2791.881591796875,10786.056640625,3999.074462890625,17287.73046875,6820.36083984375,9060.7001953125,3712.971923828125,11952.7177734375,5748.27197265625,24027.029296875,4448.890625,18849.373046875,3657.341064453125,10238.48828125,27100.244140625,21817.68359375,12261.8671875,-0.0,-44031.14453125,20112.1953125,5844.43408203125,0.0,7156.53076171875,0.0,0.0
16286.373046875,16043.1865234375,34596.125,11735.7568359375,28543.47265625,7243.951171875,8476.5751953125,9664.6943359375,9708.404296875,6608.962890625,17993.44921875,-385.443359375,8912.0869140625,0.0,23028.0546875,8165.83642578125,25306.54296875,20525.455078125,10074.7744140625,12377.1025390625,23448.466796875,29841.265625,24155.775390625,20186.10546875,21684.169921875,8074.44287109375,29459.794921875,1041.88916015625,0.0,2586.046875,14239.15234375,7425.1494140625,26331.744140625,16615.390625,15683.173828125,25394.7578125,9796.619140625,14716.7841796875,9817.2822265625,4929.701171875,23194.947265625,9735.4248046875,17446.67578125,12126.763671875,9406.4072265625,12671.1533203125,12058.4169921875,2803.802490234375,10788.4404296875,4007.81640625,17285.34765625,6827.51318359375,9065.46875,3736.813720703125,11959.8701171875,5753.04052734375,24030.208984375,4452.8642578125,18842.220703125,3670.056640625,10241.66796875,27105.013671875,21820.86328125,12254.71484375,-0.0,-44017.6328125,20110.607421875,5856.35498046875,0.0,7174.01513671875,0.0,0.0
16299.08984375,16064.6435546875,34604.07421875,11742.9091796875,28549.03515625,7244.74560546875,8481.34375,9669.462890625,9707.6103515625,6612.14208984375,18009.34375,-384.6486511230469,8921.623046875,0.0,23028.849609375,8169.01513671875,25315.28515625,20532.607421875,10080.337890625,12380.2822265625,23455.619140625,29849.2109375,24159.75,20191.669921875,21684.96484375,8073.6474609375,29463.767578125,1043.4786376953125,0.0,2593.994140625,14247.099609375,7433.09619140625,26341.279296875,16621.748046875,15690.3271484375,25401.91015625,9800.59375,14721.552734375,9821.255859375,4930.49609375,23200.51171875,9740.193359375,17453.03515625,12130.7373046875,9407.9970703125,12676.7158203125,12068.748046875,2814.1337890625,10792.4150390625,4003.0478515625,17290.115234375,6833.07666015625,9071.8271484375,3751.913818359375,11971.791015625,5746.6826171875,24033.388671875,4455.24853515625,18842.220703125,3671.64599609375,10248.025390625,27112.166015625,21824.041015625,12261.0732421875,-0.0,-44012.86328125,20109.017578125,5852.38134765625,0.0,7172.42578125,0.0,0.0
16298.2939453125,16071.796875,34598.51171875,11738.9365234375,28547.4453125,7235.208984375,8481.34375,9665.4892578125,9709.19921875,6608.962890625,18002.19140625,-396.569580078125,8923.212890625,0.0,23032.029296875,8158.68359375,25316.080078125,20531.8125,10079.54296875,12382.6669921875,23454.82421875,29846.033203125,24159.75,20189.28515625,21683.375,8061.7265625,29464.5625,1034.736572265625,0.0,2583.662841796875,14246.3046875,7435.48046875,26341.279296875,16620.158203125,15688.73828125,25399.52734375,9799.00390625,14717.5791015625,9821.255859375,4920.95947265625,23197.33203125,9733.8359375,17453.828125,12122.7900390625,9407.203125,12672.7421875,12065.5703125,2805.39208984375,10792.4150390625,3982.38525390625,17292.5,6825.923828125,9063.0849609375,3727.277099609375,11972.5869140625,5736.35107421875,24031.796875,4445.71142578125,18845.400390625,3660.519775390625,10244.0517578125,27112.166015625,21822.453125,12265.841796875,-0.0,-44030.3515625,20106.634765625,5834.8974609375,0.0,7166.0673828125,0.0,0.0
16283.193359375,16073.384765625,34596.921875,11748.4736328125,28550.625,7241.56689453125,8485.3173828125,9663.8994140625,9710.7890625,6608.16796875,17992.654296875,-400.543212890625,8919.2392578125,0.0,23034.4140625,8158.68359375,25320.84765625,20536.580078125,10082.7216796875,12383.4609375,23461.18359375,29852.390625,24162.134765625,20191.669921875,21685.7578125,8064.11083984375,29467.740234375,1034.736572265625,0.0,2581.278564453125,14252.6630859375,7433.89111328125,26342.869140625,16627.3125,15691.9150390625,25405.087890625,9802.9775390625,14719.962890625,9807.74609375,4927.3173828125,23204.484375,9742.5771484375,17457.0078125,12123.5849609375,9410.380859375,12672.7421875,12057.6220703125,2794.265625,10794.798828125,3993.51123046875,17291.705078125,6824.33447265625,9067.8525390625,3716.15087890625,11973.380859375,5738.7353515625,24034.9765625,4440.943359375,18846.193359375,3658.1357421875,10236.1044921875,27112.9609375,21825.6328125,12261.8671875,-0.0,-44040.6796875,20105.04296875,5834.8974609375,0.0,7164.478515625,0.0,0.0
16292.73046875,16079.744140625,34613.609375,11759.5986328125,28562.544921875,7255.8720703125,8492.4697265625,9674.2314453125,9715.556640625,6612.14208984375,18005.37109375,-386.23809814453125,8923.212890625,0.0,23037.591796875,8172.98876953125,25335.154296875,20548.501953125,10093.052734375,12385.05078125,23473.8984375,29871.462890625,24173.259765625,20202.794921875,21696.88671875,8079.21142578125,29476.484375,1048.2469482421875,0.0,2590.0205078125,14269.3515625,7444.22314453125,26355.5859375,16643.205078125,15704.6318359375,25417.8046875,9810.1298828125,14730.2939453125,9826.0244140625,4933.67529296875,23216.40625,9756.087890625,17467.33984375,12137.8896484375,9418.328125,12682.2783203125,12072.72265625,2807.776123046875,10802.74609375,4008.611083984375,17296.47265625,6833.07666015625,9086.1318359375,3736.01904296875,11987.6865234375,5753.04052734375,24041.333984375,4448.095703125,18847.783203125,3666.877685546875,10250.4091796875,27124.0859375,21831.990234375,12258.6884765625,-0.0,-44027.16796875,20106.634765625,5849.9970703125,0.0,7166.0673828125,0.0,0.0
16296.705078125,16062.259765625,34605.6640625,11744.4990234375,28556.189453125,7246.33544921875,8485.3173828125,9663.8994140625,9713.9677734375,6601.015625,17999.013671875,-393.3906555175781,8915.2646484375,0.0,23032.029296875,8157.09423828125,25325.6171875,20536.580078125,10081.1318359375,12377.1025390625,23464.361328125,29861.130859375,24165.3125,20194.052734375,21688.142578125,8068.0849609375,29468.537109375,1037.91552734375,0.0,2573.3310546875,14261.4052734375,7433.89111328125,26348.431640625,16636.84765625,15695.0947265625,25408.267578125,9800.59375,14720.7578125,9827.6142578125,4924.138671875,23207.6640625,9742.5771484375,17459.392578125,12128.353515625,9414.35546875,12670.357421875,12064.7744140625,2805.39208984375,10796.3876953125,3999.868896484375,17292.5,6820.36083984375,9069.4423828125,3734.4296875,11983.7119140625,5745.0927734375,24036.56640625,4437.7646484375,18840.630859375,3654.162109375,10248.025390625,27115.345703125,21821.65625,12254.71484375,-0.0,-44033.52734375,20099.482421875,5834.1025390625,0.0,7141.43115234375,0.0,0.0
16306.2421875,16054.3115234375,34611.2265625,11750.0615234375,28558.572265625,7250.30908203125,8489.291015625,9666.283203125,9730.65625,6606.57861328125,18000.603515625,-393.3906555175781,8918.4443359375,0.0,23038.38671875,8152.32568359375,25328.794921875,20538.96484375,10084.3115234375,12385.05078125,23467.541015625,29865.107421875,24172.46484375,20196.4375,21690.52734375,8069.67431640625,29472.509765625,1037.120849609375,0.0,2566.973388671875,14262.994140625,7440.2490234375,26353.994140625,16640.822265625,15698.2744140625,25411.447265625,9802.9775390625,14723.1416015625,9832.3818359375,4920.95947265625,23211.63671875,9745.7568359375,17465.75,12131.53125,9423.0966796875,12674.33203125,12068.748046875,2810.160400390625,10800.361328125,3999.074462890625,17299.65234375,6821.15576171875,9066.263671875,3720.12451171875,11982.123046875,5744.29833984375,24041.333984375,4437.7646484375,18849.373046875,3653.3671875,10246.4365234375,27120.908203125,21825.6328125,12261.8671875,-0.0,-44031.14453125,20101.865234375,5828.53955078125,0.0,7144.60986328125,0.0,0.0
16319.751953125,16062.259765625,34624.73828125,11769.9306640625,28573.671875,7266.20361328125,8503.5966796875,9681.3837890625,9751.3203125,6621.6787109375,18014.908203125,-379.0855407714844,8932.75,0.0,23051.896484375,8166.630859375,25344.689453125,20555.654296875,10099.4111328125,12396.9716796875,23481.05078125,29881.0,24189.94921875,20209.947265625,21705.626953125,8084.77392578125,29488.404296875,1052.220703125,0.0,2580.483642578125,14278.0947265625,7454.55419921875,26367.505859375,16655.921875,15712.580078125,25425.751953125,9818.0771484375,14738.2421875,9845.892578125,4925.72802734375,23225.1484375,9765.625,17479.26171875,12147.4267578125,9438.9912109375,12689.431640625,12070.337890625,2817.31298828125,10814.6669921875,4014.96875,17313.95703125,6834.666015625,9079.7734375,3728.072021484375,11994.0439453125,5757.013671875,24052.4609375,4448.890625,18865.267578125,3672.440673828125,10243.2568359375,27133.623046875,21839.9375,12267.4306640625,-0.0,-44013.66015625,20117.759765625,5842.8447265625,0.0,7158.9150390625,0.0,0.0
16303.857421875,16071.0009765625,34621.5546875,11763.572265625,28570.494140625,7263.02490234375,8503.5966796875,9677.41015625,9761.6513671875,6619.29443359375,18018.880859375,-387.0328369140625,8927.9814453125,0.0,23048.71875,8157.88916015625,25339.921875,20554.06640625,10098.6162109375,12397.765625,23477.078125,29874.642578125,24189.154296875,20206.76953125,21700.064453125,8073.6474609375,29484.4296875,1048.2469482421875,0.0,2581.278564453125,14273.326171875,7452.96484375,26364.326171875,16651.94921875,15708.6044921875,25422.572265625,9815.693359375,14735.0625,9842.712890625,4928.90673828125,23222.765625,9764.03515625,17479.26171875,12145.8369140625,9439.7861328125,12683.07421875,12079.080078125,2809.365478515625,10810.6923828125,4011.789794921875,17310.77734375,6829.8974609375,9077.3896484375,3725.687744140625,11997.22265625,5756.21923828125,24046.8984375,4442.533203125,18866.857421875,3669.261962890625,10236.8994140625,27128.060546875,21839.142578125,12269.814453125,-0.0,-44016.04296875,20121.732421875,5842.8447265625,0.0,7157.32568359375,0.0,0.0
16302.2666015625,16078.1533203125,34621.5546875,11744.4990234375,28568.109375,7260.640625,8502.0068359375,9674.2314453125,9760.8564453125,6616.11572265625,18010.935546875,-389.4170227050781,8927.9814453125,0.0,23047.12890625,8160.2734375,25337.537109375,20548.501953125,10096.232421875,12395.3818359375,23474.693359375,29868.28515625,24185.1796875,20202.794921875,21703.244140625,8065.70068359375,29484.4296875,1049.041748046875,0.0,2583.662841796875,14269.3515625,7448.9912109375,26361.146484375,16646.384765625,15704.6318359375,25415.419921875,9808.5400390625,14732.6787109375,9834.7666015625,4947.185546875,23220.380859375,9757.677734375,17476.876953125,12141.8642578125,9437.4013671875,12681.484375,12087.822265625,2806.9814453125,10811.48828125,4010.995361328125,17308.392578125,6833.07666015625,9069.4423828125,3719.329833984375,11992.4541015625,5759.39794921875,24047.693359375,4445.71142578125,18862.8828125,3664.49365234375,10244.0517578125,27122.498046875,21836.7578125,12267.4306640625,-0.0,-44016.04296875,20122.52734375,5842.05029296875,0.0,7154.94140625,0.0,0.0
16314.9833984375,16080.5380859375,34621.5546875,11750.0615234375,28568.90234375,7265.4091796875,8496.443359375,9678.2041015625,9744.9619140625,6611.34716796875,18012.5234375,-379.8802795410156,8930.365234375,0.0,23038.38671875,8172.1943359375,25339.921875,20545.32421875,10092.2587890625,12379.4873046875,23475.48828125,29869.080078125,24184.384765625,20204.38671875,21707.216796875,8085.568359375,29483.63671875,1056.1943359375,0.0,2590.0205078125,14270.146484375,7448.9912109375,26361.94140625,16650.357421875,15703.8369140625,25416.216796875,9808.5400390625,14732.6787109375,9836.3564453125,4947.185546875,23220.380859375,9763.2412109375,17473.697265625,12148.220703125,9431.044921875,12682.2783203125,12086.232421875,2813.33935546875,10813.0771484375,4016.55810546875,17302.83203125,6838.6396484375,9077.3896484375,3715.356201171875,11990.865234375,5765.75634765625,24047.693359375,4454.4541015625,18848.578125,3666.0830078125,10249.6142578125,27121.703125,21830.400390625,12255.509765625,-0.0,-44009.68359375,20108.22265625,5849.20263671875,0.0,7157.32568359375,0.0,0.0
16315.7783203125,16070.2080078125,34615.9921875,11746.0888671875,28564.134765625,7259.845703125,8494.0595703125,9673.4365234375,9744.9619140625,6608.16796875,18012.5234375,-384.6486511230469,8928.775390625,0.0,23039.9765625,8171.39892578125,25331.177734375,20533.404296875,10085.900390625,12377.1025390625,23468.3359375,29861.927734375,24181.20703125,20197.232421875,21704.0390625,8080.80029296875,29480.45703125,1055.3995361328125,0.0,2589.225830078125,14264.583984375,7443.42822265625,26354.7890625,16644.796875,15699.068359375,25409.0625,9804.56640625,14727.115234375,9831.587890625,4939.23828125,23216.40625,9756.087890625,17468.134765625,12144.248046875,9428.66015625,12679.099609375,12080.6689453125,2818.90234375,10810.6923828125,4013.379638671875,17301.240234375,6834.666015625,9080.5693359375,3705.8193359375,11994.8388671875,5760.98779296875,24046.1015625,4453.6591796875,18850.16796875,3666.877685546875,10246.4365234375,27117.728515625,21826.42578125,12255.509765625,-0.0,-44008.09375,20104.25,5853.17626953125,0.0,7150.17333984375,0.0,0.0
16314.1884765625,16055.90234375,34607.25,11738.9365234375,28559.3671875,7259.05078125,8492.4697265625,9671.0517578125,9748.1416015625,6609.7578125,18000.603515625,-386.23809814453125,8928.775390625,0.0,23039.9765625,8164.24658203125,25325.6171875,20523.8671875,10084.3115234375,12379.4873046875,23464.361328125,29859.54296875,24177.232421875,20194.849609375,21692.1171875,8083.18408203125,29475.689453125,1053.015380859375,0.0,2579.68896484375,14258.2255859375,7435.48046875,26350.021484375,16640.02734375,15695.890625,25406.6796875,9802.1826171875,14725.525390625,9823.6396484375,4938.44384765625,23209.25390625,9752.9091796875,17465.75,12141.8642578125,9429.455078125,12678.3056640625,12071.1328125,2816.51806640625,10805.9248046875,4012.584716796875,17301.240234375,6831.4873046875,9082.158203125,3708.20361328125,11990.865234375,5758.603515625,24045.30859375,4452.8642578125,18847.783203125,3666.877685546875,10248.8203125,27112.9609375,21825.6328125,12257.099609375,-0.0,-44012.0703125,20107.427734375,5855.560546875,0.0,7158.9150390625,0.0,0.0
16317.3671875,16050.3388671875,34610.43359375,11738.140625,28561.75,7259.05078125,8493.2646484375,9672.6416015625,9753.7041015625,6612.9365234375,18008.55078125,-387.0328369140625,8927.9814453125,0.0,23038.38671875,8165.0419921875,25325.6171875,20527.83984375,10086.6953125,12383.4609375,23465.951171875,29857.158203125,24177.232421875,20196.4375,21694.501953125,8083.18408203125,29477.27734375,1054.6048583984375,0.0,2579.68896484375,14256.63671875,7433.09619140625,26350.81640625,16639.232421875,15697.4794921875,25406.6796875,9803.771484375,14727.115234375,9822.845703125,4928.11181640625,23210.84375,9755.2939453125,17470.517578125,12142.658203125,9431.044921875,12679.89453125,12072.72265625,2810.955078125,10806.7197265625,4014.96875,17302.037109375,6831.4873046875,9089.310546875,3718.53515625,11992.4541015625,5760.19287109375,24044.513671875,4453.6591796875,18846.98828125,3668.46728515625,10251.2041015625,27112.166015625,21828.015625,12265.841796875,-0.0,-44012.86328125,20112.9921875,5853.17626953125,0.0,7168.45166015625,0.0,0.0
16319.751953125,16054.3115234375,34613.609375,11739.73046875,28564.134765625,7258.25634765625,8493.2646484375,9671.84765625,9752.9091796875,6609.7578125,18014.11328125,-378.2908020019531,8934.3388671875,0.0,23036.798828125,8162.65771484375,25327.205078125,20535.787109375,10085.900390625,12381.0771484375,23468.3359375,29857.953125,24181.20703125,20195.642578125,21703.244140625,8083.18408203125,29480.45703125,1054.6048583984375,0.0,2586.046875,14258.2255859375,7437.0703125,26353.994140625,16639.232421875,15698.2744140625,25405.8828125,9804.56640625,14725.525390625,9823.6396484375,4911.4228515625,23215.61328125,9753.7041015625,17472.109375,12144.248046875,9431.044921875,12678.3056640625,12074.3115234375,2821.286376953125,10811.48828125,4017.35302734375,17302.037109375,6829.8974609375,9090.1064453125,3728.072021484375,12004.375,5763.3720703125,24046.8984375,4452.8642578125,18846.193359375,3662.904052734375,10252.79296875,27112.166015625,21826.42578125,12265.841796875,-0.0,-44002.53125,20112.9921875,5846.818359375,0.0,7164.478515625,0.0,0.0
16307.03515625,16054.3115234375,34601.6875,11725.42578125,28558.572265625,7253.48828125,8489.291015625,9666.283203125,9753.7041015625,6601.015625,17999.013671875,-379.8802795410156,8927.185546875,0.0,23035.20703125,8161.8623046875,25316.873046875,20529.427734375,10079.54296875,12376.30859375,23460.388671875,29849.2109375,24177.232421875,20186.900390625,21700.859375,8076.8271484375,29475.689453125,1050.6312255859375,0.0,2581.278564453125,14249.484375,7429.123046875,26345.25390625,16626.515625,15691.1220703125,25397.935546875,9799.00390625,14717.5791015625,9816.4873046875,4913.01220703125,23207.6640625,9745.7568359375,17465.75,12139.4794921875,9428.66015625,12671.1533203125,12059.2119140625,2810.160400390625,10806.7197265625,4015.763671875,17298.857421875,6824.33447265625,9068.6484375,3731.250732421875,11996.4287109375,5758.603515625,24045.30859375,4454.4541015625,18846.193359375,3655.75146484375,10243.2568359375,27107.396484375,21820.86328125,12260.27734375,-0.0,-44002.53125,20112.1953125,5834.8974609375,0.0,7148.583984375,0.0,0.0
16299.8828125,16052.72265625,34600.09765625,11709.53125,28556.189453125,7247.9248046875,8486.111328125,9660.720703125,9752.1142578125,6597.0419921875,17994.24609375,-384.6486511230469,8924.8017578125,0.0,23033.619140625,8157.88916015625,25308.927734375,20524.66015625,10075.5693359375,12372.3349609375,23457.208984375,29842.05859375,24172.46484375,20182.927734375,21704.83203125,8072.05859375,29472.509765625,1046.6575927734375,0.0,2574.920654296875,14244.7158203125,7421.97021484375,26339.689453125,16616.98046875,15691.1220703125,25394.7578125,9795.029296875,14713.6044921875,9809.3349609375,4911.4228515625,23205.28125,9740.193359375,17460.98046875,12133.12109375,9424.6865234375,12665.5888671875,12057.6220703125,2787.11328125,10802.74609375,4011.789794921875,17294.8828125,6816.38720703125,9050.369140625,3736.813720703125,11990.865234375,5756.21923828125,24043.71875,4455.24853515625,18843.015625,3649.393798828125,10232.92578125,27104.21875,21816.888671875,12256.3046875,-0.0,-44007.30078125,20112.9921875,5830.12890625,0.0,7138.25244140625,0.0,0.0
16303.0625,16063.8486328125,34611.2265625,11714.298828125,28556.982421875,7247.1298828125,8487.701171875,9658.3369140625,9752.1142578125,6596.2470703125,18002.986328125,-386.23809814453125,8927.185546875,0.0,23034.4140625,8149.94140625,25312.10546875,20531.01953125,10077.953125,12372.3349609375,23462.771484375,29843.6484375,24175.64453125,20185.3125,21700.064453125,8070.46875,29472.509765625,1045.86279296875,0.0,2577.304931640625,14250.2783203125,7423.5595703125,26342.869140625,16619.36328125,15693.505859375,25396.34765625,9795.8251953125,14713.6044921875,9806.9501953125,4919.3701171875,23207.6640625,9737.0146484375,17461.77734375,12129.1474609375,9426.2763671875,12660.8212890625,12071.9267578125,2799.0341796875,10801.15625,4008.611083984375,17295.6796875,6812.41357421875,9055.1376953125,3739.992919921875,11990.865234375,5756.21923828125,24042.92578125,4452.06982421875,18843.80859375,3645.420166015625,10233.7197265625,27107.396484375,21816.888671875,12261.8671875,-0.0,-44005.7109375,20114.580078125,5830.92333984375,0.0,7143.8154296875,0.0,0.0
16298.2939453125,16054.3115234375,34611.2265625,11724.630859375,28555.392578125,7243.951171875,8488.49609375,9656.7470703125,9753.7041015625,6595.45263671875,18014.11328125,-389.4170227050781,8930.365234375,0.0,23034.4140625,8140.40478515625,25311.3125,20534.9921875,10077.1591796875,12373.923828125,23462.771484375,29846.033203125,24177.232421875,20184.517578125,21696.88671875,8068.0849609375,29473.3046875,1041.88916015625,0.0,2578.099609375,14251.8681640625,7421.17529296875,26343.6640625,16620.158203125,15693.505859375,25398.73046875,9795.8251953125,14712.810546875,9800.59375,4916.98583984375,23208.458984375,9733.8359375,17462.572265625,12126.763671875,9426.2763671875,12659.232421875,12070.337890625,2810.955078125,10803.5400390625,4004.63720703125,17298.0625,6810.029296875,9061.49609375,3713.766845703125,11994.0439453125,5751.451171875,24042.92578125,4442.533203125,18846.193359375,3643.035888671875,10232.130859375,27108.193359375,21816.888671875,12262.662109375,-0.0,-44014.453125,20118.5546875,5827.7451171875,0.0,7146.994140625,0.0,0.0
16291.9365234375,16036.033203125,34607.25,11720.6572265625,28551.419921875,7236.798828125,8485.3173828125,9650.3896484375,9748.935546875,6589.8896484375,18009.34375,-396.569580078125,8925.59765625,0.0,23032.82421875,8134.841796875,25307.3359375,20533.404296875,10072.390625,12368.361328125,23457.208984375,29840.46875,24171.671875,20178.16015625,21691.322265625,8061.7265625,29469.33203125,1034.736572265625,0.0,2569.357666015625,14248.6884765625,7415.61279296875,26341.279296875,16617.775390625,15692.7109375,25395.55078125,9792.6455078125,14708.0419921875,9801.3876953125,4909.03857421875,23205.28125,9729.0673828125,17458.59765625,12120.40625,9421.5078125,12655.2578125,12060.005859375,2804.59716796875,10800.361328125,3996.690185546875,17294.8828125,6802.876953125,9063.0849609375,3689.925048828125,11990.865234375,5739.5302734375,24042.12890625,4432.99609375,18845.400390625,3634.293701171875,10228.1572265625,27105.013671875,21813.7109375,12257.099609375,-0.0,-44026.375,20118.5546875,5820.59228515625,0.0,7141.43115234375,0.0,0.0
16296.705078125,16046.3662109375,34608.83984375,11714.298828125,28551.419921875,7241.56689453125,8486.9072265625,9652.7734375,9749.73046875,6589.8896484375,17999.806640625,-393.3906555175781,8927.185546875,0.0,23035.20703125,8140.40478515625,25311.3125,20532.607421875,10074.7744140625,12369.15625,23460.388671875,29844.44140625,24174.0546875,20182.927734375,21698.474609375,8069.67431640625,29470.919921875,1036.3260498046875,0.0,2572.536376953125,14252.6630859375,7421.17529296875,26343.6640625,16620.955078125,15693.505859375,25397.142578125,9794.2353515625,14708.8369140625,9807.74609375,4909.83349609375,23209.25390625,9734.630859375,17459.392578125,12121.2001953125,9422.302734375,12656.84765625,12059.2119140625,2806.186767578125,10802.74609375,3998.279541015625,17295.6796875,6806.8505859375,9063.8798828125,3706.6142578125,11990.0703125,5737.14599609375,24045.30859375,4436.9697265625,18846.193359375,3638.267578125,10233.7197265625,27106.603515625,21816.095703125,12253.9208984375,-0.0,-44020.8125,20117.759765625,5822.9765625,0.0,7139.04736328125,0.0,0.0
16299.08984375,16059.080078125,34608.83984375,11711.9150390625,28551.419921875,7244.74560546875,8486.111328125,9654.3623046875,9748.1416015625,6589.0947265625,17998.21875,-390.21173095703125,8923.212890625,0.0,23036.00390625,8143.58447265625,25316.080078125,20532.607421875,10075.5693359375,12367.56640625,23462.771484375,29848.41796875,24172.46484375,20184.517578125,21697.6796875,8074.44287109375,29471.716796875,1040.2998046875,0.0,2582.0732421875,14256.63671875,7427.53369140625,26346.048828125,16626.515625,15691.1220703125,25400.3203125,9791.8505859375,14709.6318359375,9814.8984375,4916.19091796875,23209.25390625,9741.783203125,17458.59765625,12125.96875,9423.8916015625,12658.4365234375,12063.185546875,2816.51806640625,10803.5400390625,4007.021484375,17294.8828125,6810.82373046875,9062.2900390625,3723.303466796875,11994.8388671875,5742.70849609375,24044.513671875,4441.73828125,18844.60546875,3643.035888671875,10235.3095703125,27106.603515625,21816.888671875,12249.9462890625,-0.0,-44012.0703125,20115.375,5825.36083984375,0.0,7136.6630859375,0.0,0.0
16295.1142578125,16062.259765625,34604.8671875,11717.478515625,28549.830078125,7243.951171875,8482.138671875,9651.978515625,9744.9619140625,6587.50537109375,18001.3984375,-388.6222839355469,8922.41796875,0.0,23034.4140625,8139.6103515625,25314.490234375,20531.01953125,10072.390625,12365.181640625,23461.18359375,29848.41796875,24168.4921875,20182.927734375,21700.064453125,8074.44287109375,29470.125,1039.5050048828125,0.0,2587.63623046875,14253.45703125,7425.94384765625,26345.25390625,16624.927734375,15687.9423828125,25397.935546875,9789.466796875,14708.0419921875,9810.1298828125,4916.98583984375,23206.869140625,9742.5771484375,17454.625,12124.37890625,9420.712890625,12657.642578125,12064.7744140625,2812.544677734375,10802.74609375,4009.405517578125,17292.5,6809.234375,9052.75390625,3720.91943359375,11994.0439453125,5751.451171875,24039.74609375,4442.533203125,18843.80859375,3636.677978515625,10231.3359375,27103.423828125,21814.50390625,12251.5361328125,-0.0,-44012.0703125,20116.169921875,5822.9765625,0.0,7137.45751953125,0.0,0.0
16294.3212890625,16056.6962890625,34608.83984375,11718.2734375,28551.419921875,7241.56689453125,8483.7275390625,9653.568359375,9753.7041015625,6593.068359375,18005.37109375,-387.0328369140625,8925.59765625,0.0,23040.771484375,8137.22607421875,25313.6953125,20529.427734375,10074.7744140625,12374.71875,23460.388671875,29850.005859375,24167.6953125,20183.720703125,21706.421875,8068.87890625,29474.099609375,1038.710205078125,0.0,2571.74169921875,14251.8681640625,7421.97021484375,26345.25390625,16622.54296875,15689.53125,25397.935546875,9790.26171875,14708.8369140625,9804.56640625,4915.39599609375,23209.25390625,9739.3994140625,17457.8046875,12122.7900390625,9423.0966796875,12659.232421875,12072.72265625,2800.62353515625,10803.5400390625,4007.021484375,17296.47265625,6808.43994140625,9047.1904296875,3717.740234375,11998.017578125,5756.21923828125,24043.71875,4438.55908203125,18851.7578125,3636.677978515625,10230.541015625,27104.21875,21819.2734375,12265.841796875,-0.0,-44025.58203125,20123.32421875,5824.56591796875,0.0,7142.2255859375,0.0,0.0
16298.2939453125,16052.72265625,34606.45703125,11715.888671875,28553.009765625,7241.56689453125,8486.111328125,9652.7734375,9750.525390625,6591.47900390625,17999.013671875,-381.4697265625,8925.59765625,0.0,23042.359375,8137.22607421875,25312.900390625,20526.25,10074.7744140625,12376.30859375,23459.59375,29850.005859375,24165.3125,20182.927734375,21702.447265625,8069.67431640625,29474.099609375,1039.5050048828125,0.0,2560.615478515625,14252.6630859375,7417.2021484375,26342.869140625,16624.1328125,15689.53125,25397.142578125,9791.056640625,14709.6318359375,9799.7978515625,4920.16455078125,23209.25390625,9740.193359375,17460.1875,12121.2001953125,9423.8916015625,12657.642578125,12067.9541015625,2809.365478515625,10803.5400390625,4007.81640625,17298.0625,6809.234375,9038.4482421875,3718.53515625,11998.017578125,5761.7822265625,24045.30859375,4438.55908203125,18852.552734375,3635.88330078125,10231.3359375,27103.423828125,21818.48046875,12260.27734375,-0.0,-44022.3984375,20119.34765625,5822.181640625,0.0,7135.0732421875,0.0,0.0
16301.4736328125,16055.90234375,34604.07421875,11726.2197265625,28550.625,7239.18310546875,8486.111328125,9654.3623046875,9747.345703125,6591.47900390625,17995.0390625,-383.8539123535156,8921.623046875,0.0,23044.744140625,8137.22607421875,25313.6953125,20527.044921875,10072.390625,12374.71875,23457.208984375,29848.41796875,24162.927734375,20180.54296875,21694.501953125,8066.4951171875,29474.89453125,1039.5050048828125,0.0,2562.999755859375,14250.2783203125,7417.9970703125,26341.279296875,16624.1328125,15686.353515625,25395.55078125,9791.056640625,14708.0419921875,9805.361328125,4919.3701171875,23202.1015625,9740.193359375,17460.1875,12118.81640625,9421.5078125,12658.4365234375,12057.6220703125,2821.286376953125,10800.361328125,4002.253173828125,17296.47265625,6809.234375,9045.6005859375,3720.12451171875,11990.865234375,5760.98779296875,24046.1015625,4436.1748046875,18854.9375,3636.677978515625,10231.3359375,27101.0390625,21819.2734375,12251.5361328125,-0.0,-44016.04296875,20123.32421875,5822.181640625,0.0,7133.48388671875,0.0,0.0
16301.4736328125,16058.287109375,34607.25,11734.16796875,28552.212890625,7239.18310546875,8486.9072265625,9654.3623046875,9742.5771484375,6590.6845703125,18011.728515625,-389.4170227050781,8924.0078125,0.0,23046.3359375,8141.2001953125,25316.080078125,20527.83984375,10073.9794921875,12373.1298828125,23457.208984375,29848.41796875,24162.134765625,20178.16015625,21700.064453125,8068.0849609375,29477.27734375,1039.5050048828125,0.0,2574.1259765625,14249.484375,7423.5595703125,26342.869140625,16625.72265625,15687.1474609375,25394.7578125,9792.6455078125,14710.4267578125,9816.4873046875,4920.16455078125,23206.076171875,9740.98828125,17459.392578125,12119.6103515625,9422.302734375,12659.232421875,12063.185546875,2822.8759765625,10802.74609375,3999.868896484375,17296.47265625,6810.82373046875,9061.49609375,3713.766845703125,11995.6328125,5757.80859375,24046.8984375,4438.55908203125,18856.525390625,3635.88330078125,10234.515625,27100.244140625,21820.86328125,12244.3837890625,-0.0,-44014.453125,20120.14453125,5829.33447265625,0.0,7131.89453125,0.0,0.0
16296.705078125,16058.287109375,34608.83984375,11739.73046875,28555.392578125,7239.9775390625,8487.701171875,9655.9521484375,9732.24609375,6589.8896484375,18023.6484375,-394.9801025390625,8924.8017578125,0.0,23042.359375,8145.96826171875,25314.490234375,20527.044921875,10073.1845703125,12369.15625,23454.03125,29848.41796875,24160.54296875,20179.748046875,21706.421875,8072.05859375,29476.484375,1041.094482421875,0.0,2570.947021484375,14244.7158203125,7422.76513671875,26341.279296875,16624.927734375,15687.1474609375,25391.578125,9792.6455078125,14712.015625,9810.1298828125,4908.24365234375,23208.458984375,9743.373046875,17457.8046875,12121.2001953125,9416.7392578125,12662.4111328125,12069.54296875,2808.57080078125,10805.9248046875,4003.8427734375,17295.6796875,6812.41357421875,9068.6484375,3697.077392578125,11996.4287109375,5756.21923828125,24046.1015625,4443.32763671875,18850.9609375,3637.472900390625,10229.7470703125,27100.244140625,21820.068359375,12245.97265625,-0.0,-44016.04296875,20121.732421875,5830.12890625,0.0,7129.51025390625,0.0,0.0
16302.2666015625,16057.4912109375,34613.609375,11758.8046875,28563.341796875,7254.28271484375,8490.8798828125,9667.0791015625,9728.2724609375,6598.63134765625,18024.4453125,-388.6222839355469,8928.775390625,0.0,23046.3359375,8163.4521484375,25322.4375,20533.404296875,10081.1318359375,12372.3349609375,23461.9765625,29860.337890625,24166.90234375,20190.875,21709.599609375,8095.10498046875,29483.63671875,1055.3995361328125,0.0,2582.867919921875,14253.45703125,7429.123046875,26350.021484375,16636.052734375,15694.2998046875,25401.115234375,9800.59375,14720.7578125,9805.361328125,4913.80712890625,23213.228515625,9760.0625,17465.75,12133.916015625,9423.0966796875,12673.537109375,12071.9267578125,2820.49169921875,10811.48828125,4021.32666015625,17299.65234375,6826.71875,9076.595703125,3700.25634765625,11995.6328125,5768.9345703125,24050.87109375,4456.837890625,18853.345703125,3647.80419921875,10236.8994140625,27110.576171875,21828.810546875,12244.3837890625,-0.0,-44008.890625,20123.32421875,5844.43408203125,0.0,7137.45751953125,0.0,0.0
16292.73046875,16044.775390625,34603.27734375,11736.5517578125,28550.625,7250.30908203125,8483.7275390625,9664.6943359375,9721.9150390625,6601.810546875,18003.783203125,-392.5959167480469,8918.4443359375,0.0,23039.9765625,8163.4521484375,25314.490234375,20524.66015625,10077.1591796875,12369.9501953125,23451.646484375,29853.185546875,24161.337890625,20186.10546875,21688.9375,8089.54248046875,29474.89453125,1052.220703125,0.0,2573.3310546875,14247.099609375,7421.97021484375,26338.896484375,16628.107421875,15685.55859375,25394.7578125,9795.029296875,14718.373046875,9806.15625,4908.24365234375,23200.51171875,9752.9091796875,17460.1875,12129.943359375,9419.1240234375,12672.7421875,12052.0595703125,2819.697021484375,10796.3876953125,4016.55810546875,17293.294921875,6825.12890625,9056.7275390625,3701.845947265625,11980.533203125,5760.98779296875,24046.8984375,4451.27490234375,18846.193359375,3649.393798828125,10231.3359375,27103.423828125,21824.8359375,12245.177734375,-0.0,-44017.6328125,20114.580078125,5849.20263671875,0.0,7146.994140625,0.0,0.0
16290.345703125,16043.1865234375,34600.89453125,11726.2197265625,28549.03515625,7246.33544921875,8482.9326171875,9663.10546875,9717.94140625,6598.63134765625,17991.06640625,-386.23809814453125,8920.8291015625,0.0,23035.20703125,8160.2734375,25308.1328125,20516.71484375,10075.5693359375,12366.771484375,23446.87890625,29846.033203125,24158.16015625,20182.927734375,21690.52734375,8078.416015625,29474.099609375,1049.8365478515625,0.0,2573.3310546875,14242.3310546875,7417.9970703125,26334.919921875,16622.54296875,15683.173828125,25389.990234375,9791.8505859375,14715.9892578125,9795.029296875,4916.19091796875,23200.51171875,9742.5771484375,17459.392578125,12129.1474609375,9415.9443359375,12672.7421875,12052.853515625,2816.51806640625,10795.59375,4014.96875,17289.3203125,6821.9501953125,9053.5478515625,3712.971923828125,11985.3017578125,5757.013671875,24045.30859375,4453.6591796875,18841.42578125,3647.80419921875,10224.1826171875,27100.244140625,21821.65625,12241.2041015625,-0.0,-44016.04296875,20111.40234375,5836.48681640625,0.0,7143.8154296875,0.0,0.0
16283.9892578125,16039.212890625,34591.359375,11711.9150390625,28545.857421875,7239.18310546875,8479.7548828125,9659.9267578125,9718.7353515625,6590.6845703125,17970.404296875,-389.4170227050781,8916.8544921875,0.0,23033.619140625,8147.55712890625,25300.98046875,20508.765625,10071.5947265625,12365.9775390625,23440.51953125,29835.701171875,24154.982421875,20178.953125,21691.322265625,8067.29052734375,29470.919921875,1043.4786376953125,0.0,2572.536376953125,14235.1787109375,7408.4599609375,26327.767578125,16614.595703125,15678.40625,25384.42578125,9788.6728515625,14712.015625,9783.904296875,4909.83349609375,23195.744140625,9734.630859375,17457.8046875,12124.37890625,9414.35546875,12668.7685546875,12043.31640625,2810.160400390625,10794.00390625,4007.021484375,17287.73046875,6817.18212890625,9043.216796875,3712.17724609375,11982.91796875,5749.06689453125,24040.541015625,4444.1220703125,18842.220703125,3639.85693359375,10216.236328125,27095.4765625,21820.068359375,12240.41015625,-0.0,-44016.04296875,20105.04296875,5813.43994140625,0.0,7131.89453125,0.0,0.0
16279.220703125,16043.9814453125,34597.71484375,11705.5576171875,28553.8046875,7240.7724609375,8490.0859375,9667.873046875,9735.4248046875,6604.19482421875,18002.986328125,-394.1853942871094,8925.59765625,0.0,23043.951171875,8154.7099609375,25303.36328125,20519.892578125,10081.1318359375,12379.4873046875,23447.671875,29838.0859375,24162.134765625,20184.517578125,21699.26953125,8066.4951171875,29480.45703125,1047.4522705078125,0.0,2568.562744140625,14239.15234375,7413.228515625,26332.537109375,16616.185546875,15684.7626953125,25391.578125,9799.00390625,14721.552734375,9796.619140625,4910.6279296875,23199.716796875,9735.4248046875,17466.544921875,12129.1474609375,9424.6865234375,12678.3056640625,12048.0849609375,2805.39208984375,10803.5400390625,4002.253173828125,17298.0625,6824.33447265625,9043.216796875,3705.8193359375,11990.0703125,5746.6826171875,24047.693359375,4438.55908203125,18854.9375,3649.393798828125,10217.826171875,27102.62890625,21831.193359375,12257.099609375,-0.0,-44016.04296875,20116.96484375,5820.59228515625,0.0,7149.37841796875,0.0,0.0
16283.193359375,16047.9541015625,34600.09765625,11707.146484375,28556.982421875,7243.951171875,8493.2646484375,9672.6416015625,9740.98828125,6608.962890625,18018.087890625,-395.77484130859375,8924.0078125,0.0,23047.923828125,8164.24658203125,25305.748046875,20529.427734375,10086.6953125,12383.4609375,23450.056640625,29840.46875,24166.107421875,20189.28515625,21702.447265625,8066.4951171875,29486.021484375,1050.6312255859375,0.0,2563.79443359375,14240.7421875,7413.228515625,26334.919921875,16615.390625,15688.73828125,25393.16796875,9802.1826171875,14725.525390625,9797.4140625,4905.859375,23200.51171875,9734.630859375,17469.724609375,12132.3271484375,9427.0703125,12682.2783203125,12060.005859375,2795.060302734375,10806.7197265625,4003.0478515625,17302.83203125,6829.10302734375,9053.5478515625,3701.845947265625,11995.6328125,5747.47705078125,24052.4609375,4443.32763671875,18858.91015625,3654.956787109375,10211.4677734375,27108.193359375,21835.962890625,12260.27734375,-0.0,-44023.9921875,20126.501953125,5831.71826171875,0.0,7156.53076171875,0.0,0.0
16280.015625,16034.4443359375,34585.0,11702.3779296875,28547.4453125,7236.798828125,8486.111328125,9667.873046875,9737.0146484375,6602.60546875,17988.681640625,-403.7221374511719,8912.0869140625,0.0,23041.56640625,8161.8623046875,25294.623046875,20524.66015625,10081.1318359375,12377.1025390625,23438.134765625,29826.958984375,24160.54296875,20182.1328125,21691.322265625,8059.34228515625,29482.046875,1045.86279296875,0.0,2555.84716796875,14231.9990234375,7402.10205078125,26323.0,16605.853515625,15681.5849609375,25385.220703125,9794.2353515625,14720.7578125,9775.9560546875,4876.45458984375,23190.974609375,9726.68359375,17464.16015625,12127.55859375,9421.5078125,12677.5107421875,12041.7275390625,2775.98681640625,10797.9775390625,3996.690185546875,17298.0625,6823.53955078125,9036.064453125,3693.8984375,11983.7119140625,5742.70849609375,24046.1015625,4441.73828125,18854.140625,3649.393798828125,10196.3681640625,27102.62890625,21830.400390625,12257.099609375,-0.0,-44032.734375,20123.32421875,5830.12890625,0.0,7142.2255859375,0.0,0.0
16302.2666015625,16039.212890625,34595.328125,11721.4521484375,28558.572265625,7250.30908203125,8499.6220703125,9682.97265625,9759.2666015625,6615.32080078125,17995.833984375,-393.3906555175781,8915.2646484375,0.0,23051.896484375,8173.783203125,25304.158203125,20535.787109375,10097.0263671875,12395.3818359375,23451.646484375,29842.05859375,24176.439453125,20196.4375,21700.859375,8073.6474609375,29490.7890625,1061.7574462890625,0.0,2562.205078125,14243.919921875,7413.228515625,26335.716796875,16620.955078125,15695.0947265625,25397.142578125,9809.3349609375,14735.0625,9793.4404296875,4876.45458984375,23198.923828125,9743.373046875,17475.287109375,12142.658203125,9438.197265625,12691.0205078125,12052.0595703125,2783.934326171875,10805.1298828125,4011.789794921875,17308.392578125,6835.46044921875,9054.3427734375,3693.103759765625,11985.3017578125,5752.24560546875,24049.28125,4457.63232421875,18866.857421875,3662.109375,10213.8515625,27117.728515625,21845.5,12272.1982421875,-0.0,-44017.6328125,20128.884765625,5840.46044921875,0.0,7151.7626953125,0.0,0.0
16303.857421875,16020.93359375,34592.9453125,11716.68359375,28559.3671875,7248.7197265625,8503.5966796875,9683.7685546875,9763.2412109375,6618.5,17996.62890625,-398.9537658691406,8917.6494140625,0.0,23053.48828125,8169.81005859375,25302.568359375,20532.607421875,10098.6162109375,12397.765625,23451.646484375,29843.6484375,24179.6171875,20199.6171875,21700.859375,8068.87890625,29494.76171875,1059.373291015625,0.0,2555.052490234375,14241.5361328125,7409.25439453125,26333.33203125,16617.775390625,15698.2744140625,25397.142578125,9812.5146484375,14736.65234375,9797.4140625,4886.7861328125,23199.716796875,9737.8095703125,17478.466796875,12143.453125,9440.5810546875,12693.4052734375,12049.6748046875,2788.70263671875,10805.1298828125,4010.200439453125,17310.77734375,6835.46044921875,9056.7275390625,3680.38818359375,11981.328125,5749.06689453125,24050.87109375,4452.06982421875,18869.2421875,3662.109375,10213.0576171875,27121.703125,21850.267578125,12269.0205078125,-0.0,-44020.015625,20131.26953125,5831.71826171875,0.0,7155.736328125,0.0,0.0
16299.08984375,16008.21875,34593.7421875,11699.19921875,28553.009765625,7242.361328125,8500.4169921875,9682.97265625,9754.498046875,6613.7314453125,17983.9140625,-402.9273986816406,8915.2646484375,0.0,23047.12890625,8175.373046875,25297.80078125,20532.607421875,10097.8212890625,12389.8193359375,23447.671875,29835.701171875,24176.439453125,20197.232421875,21685.7578125,8060.93212890625,29488.404296875,1054.6048583984375,0.0,2556.641845703125,14239.15234375,7405.28125,26328.564453125,16608.23828125,15695.890625,25395.55078125,9810.9248046875,14734.2685546875,9791.056640625,4915.39599609375,23194.154296875,9730.65625,17474.4921875,12141.068359375,9435.017578125,12692.6103515625,12046.49609375,2785.523681640625,10794.798828125,4005.43212890625,17306.009765625,6835.46044921875,9050.369140625,3678.798583984375,11978.1494140625,5744.29833984375,24046.1015625,4456.04345703125,18863.677734375,3662.904052734375,10205.9052734375,27120.11328125,21846.294921875,12256.3046875,-0.0,-44024.78515625,20130.4765625,5826.1552734375,0.0,7150.17333984375,0.0,0.0
16280.8095703125,16027.2919921875,34594.53515625,11690.45703125,28551.419921875,7242.361328125,8497.23828125,9685.357421875,9753.7041015625,6616.91064453125,17979.939453125,-404.516845703125,8933.5439453125,0.0,23043.15625,8182.525390625,25297.80078125,20534.9921875,10100.205078125,12392.203125,23448.466796875,29835.701171875,24174.84765625,20199.6171875,21680.990234375,8060.1376953125,29474.89453125,1057.78369140625,0.0,2553.462890625,14239.947265625,7400.5126953125,26330.947265625,16607.443359375,15693.505859375,25396.34765625,9809.3349609375,14737.447265625,9780.724609375,4913.80712890625,23191.771484375,9728.2724609375,17471.3125,12143.453125,9435.017578125,12693.4052734375,12052.853515625,2786.318603515625,10790.8251953125,4005.43212890625,17300.447265625,6840.22900390625,9047.1904296875,3684.36181640625,11980.533203125,5742.70849609375,24044.513671875,4458.42724609375,18859.705078125,3670.056640625,10203.5205078125,27121.703125,21847.08984375,12261.0732421875,-0.0,-44024.78515625,20126.501953125,5822.181640625,0.0,7158.12060546875,0.0,0.0
16283.193359375,16039.212890625,34600.89453125,11693.63671875,28555.392578125,7248.7197265625,8497.23828125,9690.9208984375,9745.7568359375,6623.26806640625,18000.603515625,-398.1590270996094,8935.1337890625,0.0,23041.56640625,8189.67822265625,25307.3359375,20541.349609375,10104.1796875,12389.0234375,23454.03125,29841.265625,24178.82421875,20205.1796875,21688.9375,8067.29052734375,29475.689453125,1065.7310791015625,0.0,2558.2314453125,14247.099609375,7407.6650390625,26338.099609375,16616.98046875,15698.2744140625,25401.91015625,9811.71875,14743.8046875,9795.029296875,4909.03857421875,23198.923828125,9734.630859375,17472.109375,12147.4267578125,9435.8125,12698.173828125,12054.443359375,2782.3447265625,10796.3876953125,4013.379638671875,17299.65234375,6845.79248046875,9037.654296875,3692.30908203125,11979.7392578125,5749.861328125,24049.28125,4463.19580078125,18853.345703125,3680.38818359375,10215.44140625,27126.470703125,21847.08984375,12257.8935546875,-0.0,-44012.86328125,20122.52734375,5847.61279296875,0.0,7169.24658203125,0.0,0.0
16283.9892578125,16028.0859375,34595.328125,11696.8154296875,28553.8046875,7244.74560546875,8494.0595703125,9684.5625,9745.7568359375,6620.0888671875,17999.806640625,-404.516845703125,8920.033203125,0.0,23040.771484375,8174.57861328125,25304.953125,20538.171875,10100.205078125,12385.8447265625,23451.646484375,29840.46875,24174.84765625,20201.20703125,21686.5546875,8064.90625,29474.89453125,1059.373291015625,0.0,2555.052490234375,14243.919921875,7406.87060546875,26334.126953125,16616.185546875,15694.2998046875,25399.52734375,9808.5400390625,14737.447265625,9782.314453125,4897.91259765625,23198.923828125,9736.220703125,17468.134765625,12143.453125,9431.8388671875,12694.19921875,12041.7275390625,2778.37109375,10794.00390625,4007.81640625,17298.0625,6837.8447265625,9024.1435546875,3685.156494140625,11978.943359375,5745.8876953125,24046.8984375,4456.04345703125,18851.7578125,3673.235595703125,10214.646484375,27121.703125,21844.705078125,12253.125,-0.0,-44017.6328125,20109.8125,5854.765625,0.0,7166.0673828125,0.0,0.0
16276.8359375,16022.5234375,34590.5625,11692.046875,28544.267578125,7236.798828125,8484.5224609375,9675.0263671875,9739.3994140625,6608.962890625,17984.708984375,-412.4641418457031,8904.93359375,0.0,23036.00390625,8164.24658203125,25298.595703125,20526.25,10088.2841796875,12376.30859375,23445.287109375,29835.701171875,24166.107421875,20190.875,21680.197265625,8055.369140625,29466.947265625,1049.8365478515625,0.0,2547.89990234375,14236.767578125,7401.3076171875,26327.767578125,16610.623046875,15684.7626953125,25389.990234375,9799.00390625,14727.115234375,9772.77734375,4889.17041015625,23191.771484375,9726.68359375,17459.392578125,12134.7109375,9423.8916015625,12685.4580078125,12040.9326171875,2790.2919921875,10784.466796875,3998.279541015625,17290.115234375,6826.71875,9021.7587890625,3676.41455078125,11973.380859375,5740.32470703125,24039.74609375,4446.50634765625,18845.400390625,3663.698974609375,10209.083984375,27112.166015625,21835.962890625,12243.5888671875,-0.0,-44030.3515625,20105.837890625,5845.228515625,0.0,7154.94140625,0.0,0.0
16285.578125,16037.6220703125,34599.3046875,11704.7626953125,28549.830078125,7245.54052734375,8489.291015625,9683.7685546875,9744.1669921875,6616.91064453125,17983.1171875,-400.543212890625,8909.7021484375,0.0,23039.9765625,8176.962890625,25308.1328125,20534.197265625,10095.4375,12384.255859375,23454.03125,29845.23828125,24172.46484375,20198.02734375,21687.349609375,8064.90625,29472.509765625,1060.962646484375,0.0,2555.052490234375,14247.89453125,7414.02294921875,26337.3046875,16623.337890625,15694.2998046875,25398.73046875,9805.361328125,14733.4736328125,9778.3408203125,4897.91259765625,23199.716796875,9735.4248046875,17465.75,12141.8642578125,9430.2490234375,12691.0205078125,12050.4697265625,2811.749755859375,10790.8251953125,4007.81640625,17294.8828125,6837.0498046875,9036.064453125,3685.156494140625,11979.7392578125,5754.62939453125,24043.71875,4457.63232421875,18849.373046875,3672.440673828125,10213.8515625,27119.318359375,21840.73046875,12251.5361328125,-0.0,-44019.22265625,20119.34765625,5855.560546875,0.0,7162.09423828125,0.0,0.0
16291.1416015625,16045.5703125,34607.25,11709.53125,28556.982421875,7253.48828125,8494.0595703125,9690.125,9746.5517578125,6622.47314453125,17990.271484375,-390.21173095703125,8916.8544921875,0.0,23042.359375,8184.115234375,25316.080078125,20543.734375,10100.205078125,12388.2294921875,23460.388671875,29855.5703125,24178.02734375,20205.1796875,21693.70703125,8076.8271484375,29479.662109375,1066.5257568359375,0.0,2557.436767578125,14256.63671875,7419.5859375,26345.25390625,16630.4921875,15700.6591796875,25405.087890625,9808.5400390625,14739.0361328125,9786.2880859375,4911.4228515625,23206.076171875,9744.1669921875,17471.3125,12149.810546875,9432.6337890625,12695.7890625,12055.2373046875,2818.107666015625,10796.3876953125,4019.7373046875,17302.037109375,6844.20263671875,9045.6005859375,3685.156494140625,11986.8916015625,5760.98779296875,24046.1015625,4463.99072265625,18852.552734375,3677.209228515625,10219.4150390625,27124.880859375,21846.294921875,12257.099609375,-0.0,-44004.125,20127.296875,5860.32861328125,0.0,7162.88916015625,0.0,0.0
16297.4990234375,16051.927734375,34612.01953125,11712.7099609375,28558.572265625,7258.25634765625,8494.0595703125,9690.9208984375,9742.5771484375,6620.8837890625,17994.24609375,-385.443359375,8918.4443359375,0.0,23040.771484375,8187.2939453125,25320.052734375,20545.32421875,10099.4111328125,12386.6396484375,23461.9765625,29860.337890625,24178.02734375,20208.359375,21698.474609375,8072.85302734375,29480.45703125,1068.9100341796875,0.0,2566.178466796875,14259.0205078125,7423.5595703125,26351.609375,16632.080078125,15700.6591796875,25408.267578125,9809.3349609375,14739.8310546875,9793.4404296875,4916.98583984375,23210.048828125,9750.525390625,17472.109375,12151.400390625,9433.4287109375,12698.173828125,12060.8017578125,2810.955078125,10800.361328125,4026.094970703125,17301.240234375,6844.99755859375,9044.806640625,3686.745849609375,11986.8916015625,5758.603515625,24046.8984375,4465.580078125,18850.9609375,3678.00390625,10224.978515625,27126.470703125,21846.294921875,12251.5361328125,-0.0,-43996.97265625,20124.912109375,5857.1494140625,0.0,7161.29931640625,0.0,0.0
16299.08984375,16060.6708984375,34611.2265625,11722.2470703125,28557.77734375,7259.845703125,8493.2646484375,9690.125,9736.220703125,6619.29443359375,17993.44921875,-389.4170227050781,8917.6494140625,0.0,23039.9765625,8188.08837890625,25323.232421875,20546.9140625,10099.4111328125,12380.2822265625,23463.568359375,29860.337890625,24176.439453125,20207.5625,21701.654296875,8072.85302734375,29481.251953125,1070.4993896484375,0.0,2572.536376953125,14261.4052734375,7425.1494140625,26352.40625,16636.84765625,15700.6591796875,25409.857421875,9806.9501953125,14740.6259765625,9797.4140625,4922.548828125,23210.048828125,9754.498046875,17471.3125,12151.400390625,9431.8388671875,12696.583984375,12067.9541015625,2806.9814453125,10800.361328125,4026.889892578125,17299.65234375,6846.5869140625,9042.421875,3705.8193359375,11982.123046875,5763.3720703125,24047.693359375,4462.40087890625,18848.578125,3678.00390625,10229.7470703125,27126.470703125,21843.115234375,12242.7939453125,-0.0,-44001.73828125,20118.5546875,5853.17626953125,0.0,7162.88916015625,0.0,0.0
16304.6513671875,16059.080078125,34611.2265625,11719.0673828125,28560.162109375,7261.43505859375,8497.23828125,9690.125,9742.5771484375,6621.6787109375,17994.24609375,-386.23809814453125,8920.8291015625,0.0,23042.359375,8182.525390625,25325.6171875,20548.501953125,10099.4111328125,12385.05078125,23465.15625,29864.310546875,24177.232421875,20205.974609375,21708.01171875,8087.158203125,29482.841796875,1070.4993896484375,0.0,2575.71533203125,14262.994140625,7425.94384765625,26353.201171875,16639.232421875,15702.248046875,25411.447265625,9806.15625,14743.0107421875,9802.1826171875,4924.138671875,23212.43359375,9756.8828125,17474.4921875,12152.1953125,9435.8125,12698.173828125,12069.54296875,2814.1337890625,10802.74609375,4028.47900390625,17302.83203125,6845.79248046875,9042.421875,3717.740234375,11984.5078125,5768.9345703125,24050.87109375,4457.63232421875,18849.373046875,3679.59326171875,10230.541015625,27125.677734375,21843.91015625,12254.71484375,-0.0,-44008.890625,20117.759765625,5853.97119140625,0.0,7170.04150390625,0.0,0.0
16300.6787109375,16046.3662109375,34611.2265625,11718.2734375,28560.95703125,7253.48828125,8498.0322265625,9688.537109375,9751.3203125,6620.8837890625,17989.4765625,-387.0328369140625,8919.2392578125,0.0,23046.3359375,8181.7314453125,25321.642578125,20546.1171875,10098.6162109375,12388.2294921875,23460.388671875,29858.748046875,24174.84765625,20201.20703125,21711.984375,8077.62158203125,29485.2265625,1065.7310791015625,0.0,2565.3837890625,14258.2255859375,7420.380859375,26351.609375,16636.052734375,15699.86328125,25404.294921875,9806.15625,14738.2421875,9794.2353515625,4920.16455078125,23212.43359375,9750.525390625,17474.4921875,12145.8369140625,9437.4013671875,12698.9677734375,12057.6220703125,2810.955078125,10804.3359375,4014.174072265625,17304.419921875,6843.408203125,9040.83203125,3702.640625,11987.6865234375,5760.98779296875,24050.87109375,4456.04345703125,18854.9375,3679.59326171875,10227.3623046875,27121.703125,21843.115234375,12257.8935546875,-0.0,-44011.27734375,20120.939453125,5852.38134765625,0.0,7167.6572265625,0.0,0.0
16296.705078125,16036.8291015625,34614.40234375,11721.4521484375,28562.544921875,7251.10400390625,8499.6220703125,9688.537109375,9756.087890625,6621.6787109375,17986.296875,-388.6222839355469,8916.8544921875,0.0,23049.513671875,8184.115234375,25320.84765625,20542.14453125,10098.6162109375,12389.8193359375,23459.59375,29857.158203125,24177.232421875,20200.41015625,21705.626953125,8076.03173828125,29486.814453125,1066.5257568359375,0.0,2562.205078125,14257.4306640625,7421.17529296875,26350.81640625,16636.052734375,15701.4521484375,25405.087890625,9807.74609375,14737.447265625,9786.2880859375,4919.3701171875,23213.228515625,9751.3203125,17475.287109375,12144.248046875,9438.9912109375,12698.173828125,12060.8017578125,2806.186767578125,10802.74609375,4010.200439453125,17308.392578125,6843.408203125,9036.064453125,3688.33544921875,11981.328125,5755.42431640625,24050.87109375,4459.22216796875,18859.705078125,3681.182861328125,10226.5673828125,27124.0859375,21845.5,12255.509765625,-0.0,-44008.890625,20125.70703125,5852.38134765625,0.0,7166.8623046875,0.0,0.0
16306.2421875,16043.1865234375,34619.171875,11726.2197265625,28567.314453125,7257.46142578125,8505.98046875,9692.509765625,9759.2666015625,6625.65234375,17990.271484375,-384.6486511230469,8922.41796875,0.0,23054.28125,8189.67822265625,25327.205078125,20546.9140625,10104.1796875,12390.61328125,23464.361328125,29865.107421875,24182.796875,20205.974609375,21708.01171875,8081.59521484375,29493.173828125,1070.4993896484375,0.0,2566.973388671875,14263.7890625,7428.328125,26355.5859375,16641.6171875,15707.8115234375,25411.447265625,9813.30859375,14741.4208984375,9791.056640625,4925.72802734375,23216.40625,9756.087890625,17483.234375,12147.4267578125,9443.759765625,12702.94140625,12075.9013671875,2814.9287109375,10807.5146484375,4014.174072265625,17313.162109375,6847.3818359375,9040.0380859375,3682.7724609375,11982.123046875,5760.19287109375,24057.23046875,4465.580078125,18863.677734375,3685.156494140625,10224.1826171875,27129.650390625,21851.857421875,12257.8935546875,-0.0,-44004.125,20131.26953125,5853.97119140625,0.0,7169.24658203125,0.0,0.0
16306.2421875,16041.59765625,34615.19921875,11718.2734375,28561.75,7250.30908203125,8502.0068359375,9686.15234375,9756.087890625,6617.705078125,17983.1171875,-394.9801025390625,8920.033203125,0.0,23054.28125,8183.31982421875,25318.46484375,20546.9140625,10097.8212890625,12385.8447265625,23460.388671875,29857.953125,24176.439453125,20201.20703125,21703.244140625,8071.26318359375,29488.404296875,1062.5521240234375,0.0,2555.052490234375,14256.63671875,7420.380859375,26348.431640625,16632.080078125,15702.248046875,25405.087890625,9809.3349609375,14734.2685546875,9783.904296875,4911.4228515625,23211.63671875,9748.1416015625,17480.0546875,12141.068359375,9439.7861328125,12697.37890625,12075.9013671875,2814.1337890625,10804.3359375,4007.021484375,17311.572265625,6842.61328125,9032.8857421875,3670.056640625,11978.1494140625,5752.24560546875,24054.845703125,4454.4541015625,18863.677734375,3678.00390625,10211.4677734375,27124.0859375,21846.294921875,12250.7412109375,-0.0,-44011.27734375,20127.296875,5841.25537109375,0.0,7157.32568359375,0.0,0.0
16302.2666015625,16053.5185546875,34615.19921875,11715.888671875,28563.341796875,7253.48828125,8504.390625,9686.947265625,9750.525390625,6621.6787109375,17975.96484375,-391.0064697265625,8916.060546875,0.0,23051.896484375,8180.1416015625,25318.46484375,20549.296875,10097.8212890625,12385.8447265625,23461.9765625,29857.158203125,24178.02734375,20202.794921875,21702.447265625,8075.2373046875,29487.609375,1063.346923828125,0.0,2560.615478515625,14258.2255859375,7420.380859375,26349.2265625,16635.259765625,15703.04296875,25406.6796875,9809.3349609375,14737.447265625,9782.314453125,4912.2177734375,23210.84375,9751.3203125,17480.849609375,12144.248046875,9436.607421875,12697.37890625,12060.005859375,2826.849609375,10801.951171875,4010.995361328125,17311.572265625,6841.818359375,9020.96484375,3681.9775390625,11977.35546875,5757.013671875,24053.255859375,4455.24853515625,18859.705078125,3676.41455078125,10216.236328125,27125.677734375,21847.08984375,12245.97265625,-0.0,-44007.30078125,20124.1171875,5849.9970703125,0.0,7168.45166015625,0.0,0.0
16293.525390625,16052.72265625,34611.2265625,11719.0673828125,28564.134765625,7255.0771484375,8503.5966796875,9689.3310546875,9745.7568359375,6620.8837890625,17961.66015625,-387.8275451660156,8911.2919921875,0.0,23050.30859375,8181.7314453125,25321.642578125,20545.32421875,10099.4111328125,12385.05078125,23461.18359375,29861.130859375,24177.232421875,20205.1796875,21699.26953125,8075.2373046875,29489.994140625,1064.936279296875,0.0,2567.76806640625,14259.0205078125,7417.9970703125,26346.841796875,16636.052734375,15703.04296875,25409.0625,9810.9248046875,14738.2421875,9788.6728515625,4914.6015625,23208.458984375,9752.9091796875,17479.26171875,12144.248046875,9436.607421875,12697.37890625,12048.0849609375,2829.23388671875,10801.951171875,4014.96875,17309.984375,6843.408203125,9007.4541015625,3678.00390625,11972.5869140625,5757.013671875,24052.4609375,4457.63232421875,18857.3203125,3678.00390625,10220.2099609375,27126.470703125,21846.294921875,12241.2041015625,-0.0,-44007.30078125,20122.52734375,5853.97119140625,0.0,7167.6572265625,0.0,0.0
16291.9365234375,16036.8291015625,34614.40234375,11726.2197265625,28565.724609375,7254.28271484375,8497.23828125,9686.15234375,9734.630859375,6613.7314453125,17970.404296875,-390.21173095703125,8911.2919921875,0.0,23046.3359375,8180.93603515625,25323.232421875,20542.14453125,10095.4375,12377.1025390625,23459.59375,29860.337890625,24175.64453125,20205.1796875,21704.0390625,8076.03173828125,29488.404296875,1062.5521240234375,0.0,2570.15234375,14259.8154296875,7417.2021484375,26349.2265625,16637.64453125,15702.248046875,25407.47265625,9808.5400390625,14738.2421875,9777.5458984375,4897.11767578125,23211.63671875,9752.9091796875,17478.466796875,12142.658203125,9431.044921875,12694.19921875,12063.98046875,2821.286376953125,10804.3359375,4014.174072265625,17306.8046875,6841.818359375,9018.580078125,3654.162109375,11971.791015625,5754.62939453125,24050.078125,4456.04345703125,18849.373046875,3673.235595703125,10221.0048828125,27125.677734375,21841.525390625,12229.283203125,-0.0,-44008.890625,20116.96484375,5849.20263671875,0.0,7159.7099609375,0.0,0.0
16293.525390625,16047.9541015625,34619.171875,11735.7568359375,28568.90234375,7259.05078125,8499.6220703125,9686.947265625,9732.24609375,6616.11572265625,17983.9140625,-387.0328369140625,8916.060546875,0.0,23047.923828125,8184.115234375,25327.205078125,20548.501953125,10098.6162109375,12378.6923828125,23465.15625,29864.310546875,24178.02734375,20208.359375,21708.01171875,8080.005859375,29489.19921875,1066.5257568359375,0.0,2570.15234375,14264.583984375,7423.5595703125,26356.37890625,16642.412109375,15707.015625,25412.240234375,9808.5400390625,14739.0361328125,9776.751953125,4900.296875,23217.201171875,9760.0625,17480.849609375,12145.8369140625,9432.6337890625,12694.19921875,12072.72265625,2818.107666015625,10805.9248046875,4016.55810546875,17307.599609375,6843.408203125,9027.322265625,3664.49365234375,11982.91796875,5757.013671875,24052.4609375,4454.4541015625,18851.7578125,3677.209228515625,10232.130859375,27128.85546875,21843.115234375,12234.0517578125,-0.0,-44006.5078125,20124.1171875,5858.7392578125,0.0,7170.04150390625,0.0,0.0
16291.9365234375,16062.259765625,34620.76171875,11734.962890625,28572.08203125,7265.4091796875,8503.5966796875,9686.947265625,9736.220703125,6616.91064453125,17997.423828125,-378.2908020019531,8923.212890625,0.0,23049.513671875,8185.7041015625,25331.974609375,20553.26953125,10101.794921875,12379.4873046875,23470.720703125,29867.490234375,24182.796875,20209.154296875,21719.13671875,8087.158203125,29493.966796875,1069.7047119140625,0.0,2575.71533203125,14267.76171875,7427.53369140625,26360.353515625,16646.384765625,15710.9892578125,25413.83203125,9810.9248046875,14740.6259765625,9782.314453125,4938.44384765625,23223.55859375,9762.4462890625,17486.4140625,12150.60546875,9436.607421875,12694.9951171875,12069.54296875,2823.670654296875,10809.8984375,4022.916259765625,17309.189453125,6844.99755859375,9031.2958984375,3687.540771484375,11989.2763671875,5766.55078125,24054.845703125,4456.837890625,18852.552734375,3677.209228515625,10240.078125,27129.650390625,21843.91015625,12240.41015625,-0.0,-43998.55859375,20124.1171875,5865.89208984375,0.0,7174.81005859375,0.0,0.0
16277.6318359375,16059.875,34619.171875,11727.8095703125,28570.494140625,7261.43505859375,8502.80078125,9682.1787109375,9740.193359375,6612.9365234375,18001.3984375,-375.9066162109375,8920.8291015625,0.0,23049.513671875,8179.34716796875,25328.794921875,20550.091796875,10097.8212890625,12378.6923828125,23469.12890625,29861.927734375,24183.591796875,20204.38671875,21717.548828125,8084.77392578125,29493.173828125,1064.1416015625,0.0,2576.51025390625,14263.7890625,7421.17529296875,26357.96875,16640.822265625,15709.400390625,25409.857421875,9809.3349609375,14736.65234375,9795.8251953125,4936.0595703125,23221.173828125,9759.2666015625,17486.4140625,12145.8369140625,9434.2236328125,12690.2265625,12062.390625,2825.26025390625,10807.5146484375,4021.32666015625,17307.599609375,6839.43408203125,9023.3486328125,3689.130126953125,11985.3017578125,5770.5244140625,24051.666015625,4452.06982421875,18853.345703125,3672.440673828125,10234.515625,27127.265625,21840.73046875,12241.2041015625,-0.0,-43996.97265625,20124.912109375,5857.1494140625,0.0,7164.478515625,0.0,0.0
16262.53125,16056.6962890625,34617.5859375,11715.888671875,28569.69921875,7259.05078125,8502.0068359375,9679.0,9744.1669921875,6609.7578125,17991.861328125,-379.8802795410156,8920.8291015625,0.0,23051.103515625,8177.75732421875,25325.6171875,20550.091796875,10094.642578125,12377.8984375,23466.74609375,29858.748046875,24186.76953125,20199.6171875,21707.216796875,8083.18408203125,29491.58203125,1062.5521240234375,0.0,2569.357666015625,14260.609375,7423.5595703125,26357.173828125,16638.4375,15707.015625,25405.8828125,9806.15625,14733.4736328125,9815.693359375,4936.85400390625,23218.791015625,9753.7041015625,17483.234375,12143.453125,9434.2236328125,12688.63671875,12067.1591796875,2824.465576171875,10806.7197265625,4018.9423828125,17309.984375,6835.46044921875,9022.5537109375,3676.41455078125,11984.5078125,5765.75634765625,24054.05078125,4453.6591796875,18856.525390625,3666.0830078125,10229.7470703125,27126.470703125,21839.142578125,12239.615234375,-0.0,-44002.53125,20126.501953125,5848.40771484375,0.0,7156.53076171875,0.0,0.0
16260.1474609375,16046.3662109375,34619.96875,11716.68359375,28570.494140625,7257.46142578125,8504.390625,9679.0,9746.5517578125,6608.962890625,17993.44921875,-381.4697265625,8922.41796875,0.0,23051.896484375,8180.1416015625,25328.001953125,20550.091796875,10094.642578125,12377.8984375,23468.3359375,29859.54296875,24189.154296875,20200.41015625,21709.599609375,8082.3896484375,29490.7890625,1061.7574462890625,0.0,2562.205078125,14261.4052734375,7424.3544921875,26358.763671875,16638.4375,15709.400390625,25405.8828125,9807.74609375,14731.8837890625,9799.7978515625,4929.701171875,23221.96875,9753.7041015625,17482.439453125,12143.453125,9435.8125,12687.8427734375,12071.9267578125,2830.028564453125,10807.5146484375,4015.763671875,17310.77734375,6835.46044921875,9020.1689453125,3657.341064453125,11987.6865234375,5763.3720703125,24055.638671875,4456.04345703125,18855.73046875,3664.49365234375,10220.2099609375,27128.060546875,21839.9375,12237.2314453125,-0.0,-44004.125,20125.70703125,5846.818359375,0.0,7154.146484375,0.0,0.0
16295.1142578125,16047.1591796875,34625.53125,11723.8359375,28578.439453125,7259.845703125,8506.775390625,9679.7939453125,9749.73046875,6610.55224609375,17998.21875,-377.49609375,8929.5703125,0.0,23053.48828125,8183.31982421875,25334.357421875,20553.26953125,10097.0263671875,12379.4873046875,23476.28125,29868.28515625,24193.12890625,20202.794921875,21720.728515625,8084.77392578125,29495.55859375,1063.346923828125,0.0,2564.58935546875,14269.3515625,7425.1494140625,26365.12109375,16645.58984375,15715.7578125,25409.857421875,9812.5146484375,14731.8837890625,9790.26171875,4930.49609375,23228.326171875,9757.677734375,17488.001953125,12143.453125,9439.7861328125,12687.8427734375,12070.337890625,2833.207275390625,10813.8720703125,4016.55810546875,17311.572265625,6835.46044921875,9020.96484375,3659.72509765625,11993.2490234375,5763.3720703125,24056.435546875,4460.8115234375,18857.3203125,3667.67236328125,10220.2099609375,27131.23828125,21841.525390625,12235.6416015625,-0.0,-43996.97265625,20124.912109375,5853.97119140625,0.0,7151.7626953125,0.0,0.0
