16565.322265625,16284.7841796875,34980.7734375,11955.1015625,28985.341796875,7468.859375,8835.79296875,9988.9443359375,9933.3125,6637.5732421875,18149.216796875,-380.67498779296875,9264.1513671875,0.0,23374.556640625,8247.693359375,25710.263671875,20919.640625,10406.1767578125,12533.6650390625,23852.984375,30260.0859375,24282.931640625,20546.9140625,22071.99609375,8169.81005859375,29885.76953125,1355.0123291015625,0.0,2143.383056640625,14642.875,7500.6484375,26757.716796875,17005.6015625,16125.8369140625,25805.630859375,10064.4423828125,15037.0595703125,9961.9228515625,4917.7802734375,23578.0078125,10031.064453125,17902.8515625,12377.1025390625,9759.2666015625,12957.2548828125,12272.994140625,2885.659423828125,11141.2998046875,4130.20458984375,17654.099609375,7099.310546875,8814.3349609375,3488.8583984375,12303.98828125,5869.865234375,24380.68359375,4474.32177734375,19096.533203125,3715.356201171875,10356.9033203125,27426.87890625,22143.521484375,12200.6728515625,-0.0,-43762.5234375,20350.615234375,5851.5869140625,0.0,7095.3369140625,0.0,0.0
16553.40234375,16297.4990234375,34972.03125,11955.8974609375,28982.95703125,7465.6806640625,8834.998046875,9988.1484375,9945.2333984375,6640.75244140625,18118.22265625,-374.3171691894531,9257.79296875,0.0,23377.736328125,8246.8984375,25709.470703125,20917.2578125,10404.5869140625,12536.048828125,23849.009765625,30257.701171875,24283.728515625,20543.734375,22064.05078125,8163.4521484375,29890.537109375,1356.6016845703125,0.0,2162.45654296875,14640.490234375,7500.6484375,26753.744140625,17006.396484375,16124.248046875,25802.453125,10066.8271484375,15039.4443359375,9953.181640625,4924.138671875,23573.240234375,10023.9111328125,17904.439453125,12378.6923828125,9763.2412109375,12958.0498046875,12256.3046875,2893.60693359375,11143.6845703125,4123.8466796875,17655.69140625,7102.4892578125,8793.671875,3497.6005859375,12299.2197265625,5882.5810546875,24379.888671875,4470.34814453125,19101.30078125,3715.356201171875,10354.5185546875,27426.87890625,22147.498046875,12201.46875,-0.0,-43760.140625,20352.998046875,5850.7919921875,0.0,7094.5419921875,0.0,0.0
16548.6328125,16294.3212890625,34972.828125,11963.8447265625,28989.314453125,7479.19091796875,8845.3291015625,10000.0693359375,9965.896484375,6651.87841796875,18119.017578125,-368.7540588378906,9256.2041015625,0.0,23385.68359375,8254.05078125,25712.6484375,20922.818359375,10415.712890625,12550.353515625,23854.57421875,30267.23828125,24291.673828125,20554.06640625,22067.228515625,8175.373046875,29900.869140625,1366.138427734375,0.0,2169.609130859375,14647.6435546875,7502.23779296875,26757.716796875,17014.345703125,16129.8125,25810.400390625,10073.9794921875,15048.98046875,9956.359375,4928.90673828125,23578.802734375,10035.83203125,17910.00390625,12389.8193359375,9774.3671875,12967.5869140625,12257.099609375,2892.017333984375,11150.8369140625,4133.38330078125,17664.431640625,7112.0263671875,8790.4931640625,3492.03759765625,12297.6298828125,5888.14404296875,24383.068359375,4475.11669921875,19110.837890625,3724.892822265625,10352.134765625,27434.826171875,22158.623046875,12222.92578125,-0.0,-43751.3984375,20360.947265625,5851.5869140625,0.0,7100.10546875,0.0,0.0
16534.328125,16280.015625,34967.26171875,11955.1015625,28983.751953125,7482.3701171875,8846.1240234375,10000.0693359375,9967.486328125,6650.2890625,18111.0703125,-374.3171691894531,9256.2041015625,0.0,23385.68359375,8252.4619140625,25706.291015625,20918.05078125,10415.712890625,12552.73828125,23849.009765625,30266.443359375,24286.90625,20553.26953125,22058.486328125,8172.1943359375,29905.638671875,1364.549072265625,0.0,2146.561767578125,14644.4638671875,7494.291015625,26751.359375,17007.986328125,16126.6328125,25808.810546875,10072.390625,15047.390625,9946.8232421875,4917.7802734375,23571.650390625,10039.01171875,17908.4140625,12392.203125,9772.77734375,12967.5869140625,12249.15234375,2880.096435546875,11146.068359375,4134.97314453125,17665.228515625,7112.0263671875,8773.8037109375,3470.579833984375,12283.3251953125,5875.4287109375,24383.86328125,4473.52734375,19110.837890625,3724.09814453125,10340.2138671875,27432.44140625,22157.828125,12226.8994140625,-0.0,-43758.55078125,20360.947265625,5847.61279296875,0.0,7094.5419921875,0.0,0.0
16530.35546875,16277.6318359375,34967.26171875,11947.1552734375,28978.982421875,7469.654296875,8834.998046875,9995.30078125,9942.0546875,6640.75244140625,18116.6328125,-378.2908020019531,9267.330078125,0.0,23374.556640625,8251.6669921875,25706.291015625,20914.078125,10408.560546875,12530.486328125,23845.037109375,30261.67578125,24280.548828125,20547.708984375,22057.69140625,8172.1943359375,29891.33203125,1356.6016845703125,0.0,2136.23046875,14640.490234375,7495.08544921875,26752.154296875,17005.6015625,16121.0693359375,25804.837890625,10066.0322265625,15041.828125,9946.8232421875,4916.19091796875,23566.880859375,10034.2431640625,17901.26171875,12382.6669921875,9761.6513671875,12959.6396484375,12249.9462890625,2877.712158203125,11134.1474609375,4134.97314453125,17654.099609375,7107.2578125,8762.6767578125,3471.37451171875,12288.09375,5872.24951171875,24380.68359375,4471.14306640625,19094.1484375,3720.12451171875,10337.830078125,27426.87890625,22148.291015625,12191.13671875,-0.0,-43757.75390625,20355.3828125,5846.818359375,0.0,7096.1318359375,0.0,0.0
16538.30078125,16283.193359375,34973.62109375,11949.5390625,28978.189453125,7468.06494140625,8827.0498046875,9995.30078125,9930.1337890625,6635.98388671875,18122.1953125,-366.369873046875,9276.8671875,0.0,23364.224609375,8252.4619140625,25710.263671875,20912.48828125,10406.1767578125,12524.9228515625,23847.421875,30263.265625,24277.369140625,20547.708984375,22061.666015625,8178.5517578125,29870.66796875,1361.3701171875,0.0,2156.8935546875,14641.28515625,7499.05908203125,26754.537109375,17007.193359375,16118.6845703125,25804.04296875,10060.4697265625,15041.828125,9954.7705078125,4921.75439453125,23570.85546875,10031.064453125,17892.51953125,12381.0771484375,9753.7041015625,12958.84375,12257.8935546875,2885.659423828125,11132.5576171875,4142.12548828125,17642.1796875,7106.462890625,8769.03515625,3484.090087890625,12298.4248046875,5885.759765625,24378.298828125,4469.5537109375,19083.0234375,3716.945556640625,10346.572265625,27426.083984375,22144.318359375,12184.779296875,-0.0,-43745.0390625,20346.640625,5846.818359375,0.0,7094.5419921875,0.0,0.0
16554.990234375,16293.525390625,34987.1328125,11955.8974609375,28982.95703125,7476.01171875,8832.6142578125,9996.890625,9938.8759765625,6636.7783203125,18141.26953125,-361.60150146484375,9284.01953125,0.0,23368.201171875,8254.05078125,25716.623046875,20912.48828125,10406.970703125,12533.6650390625,23853.779296875,30267.23828125,24280.548828125,20550.091796875,22078.35546875,8177.75732421875,29878.6171875,1366.138427734375,0.0,2160.866943359375,14644.4638671875,7506.2119140625,26762.486328125,17011.166015625,16122.66015625,25811.1953125,10064.4423828125,15043.41796875,9961.9228515625,4924.93310546875,23581.185546875,10039.01171875,17898.87890625,12384.255859375,9756.8828125,12962.0234375,12272.994140625,2885.659423828125,11142.0947265625,4140.53564453125,17646.154296875,7108.052734375,8799.2353515625,3492.832275390625,12309.55078125,5890.5283203125,24379.888671875,4467.96435546875,19086.203125,3718.53515625,10360.08203125,27430.853515625,22147.498046875,12201.46875,-0.0,-43737.09375,20345.052734375,5846.0234375,0.0,7091.36328125,0.0,0.0
16554.197265625,16287.9619140625,34981.56640625,11945.5654296875,28979.77734375,7472.0380859375,8827.845703125,9989.73828125,9940.46484375,6633.599609375,18142.064453125,-379.0855407714844,9281.6357421875,0.0,23368.994140625,8246.8984375,25708.67578125,20906.92578125,10402.9970703125,12530.486328125,23848.21484375,30260.0859375,24273.396484375,20543.734375,22076.765625,8178.5517578125,29881.794921875,1357.396484375,0.0,2144.97265625,14638.900390625,7499.853515625,26756.12890625,17003.216796875,16117.8916015625,25804.04296875,10058.0849609375,15037.8544921875,9952.3857421875,4919.3701171875,23575.625,10035.83203125,17895.69921875,12378.6923828125,9754.498046875,12954.87109375,12266.6357421875,2875.328125,11143.6845703125,4134.97314453125,17646.154296875,7100.900390625,8808.7724609375,3483.29541015625,12310.345703125,5875.4287109375,24379.888671875,4467.16943359375,19087.791015625,3712.971923828125,10357.697265625,27423.701171875,22142.728515625,12195.904296875,-0.0,-43755.37109375,20342.66796875,5842.05029296875,0.0,7085.80029296875,0.0,0.0
16554.990234375,16289.552734375,34975.2109375,11940.001953125,28973.421875,7454.55419921875,8823.8720703125,9982.5859375,9931.7236328125,6629.6259765625,18142.064453125,-383.8539123535156,9276.8671875,0.0,23366.609375,8247.693359375,25701.5234375,20903.74609375,10397.4345703125,12520.94921875,23841.0625,30249.75390625,24267.83203125,20534.9921875,22065.638671875,8176.962890625,29880.205078125,1350.243896484375,0.0,2144.177734375,14630.9541015625,7493.49609375,26750.564453125,16994.4765625,16109.943359375,25791.326171875,10053.3173828125,15030.701171875,9950.001953125,4914.6015625,23565.29296875,10020.732421875,17891.724609375,12369.9501953125,9750.525390625,12952.4873046875,12265.0458984375,2877.712158203125,11139.7099609375,4130.9990234375,17643.76953125,7096.1318359375,8812.7451171875,3481.705810546875,12310.345703125,5876.22314453125,24381.478515625,4473.52734375,19082.228515625,3709.79296875,10356.1083984375,27414.95703125,22138.75390625,12169.6787109375,-0.0,-43760.140625,20341.078125,5845.228515625,0.0,7088.1845703125,0.0,0.0
16570.88671875,16302.2666015625,34972.03125,11943.9765625,28977.39453125,7455.34912109375,8831.818359375,9990.533203125,9936.4921875,6637.5732421875,18153.19140625,-367.9593505859375,9266.5361328125,0.0,23373.76171875,8256.435546875,25708.67578125,20910.10546875,10405.380859375,12527.306640625,23846.626953125,30252.93359375,24274.19140625,20541.349609375,22064.84375,8170.6044921875,29882.58984375,1357.396484375,0.0,2151.330322265625,14635.7216796875,7499.853515625,26758.51171875,17000.041015625,16114.7119140625,25796.890625,10061.263671875,15036.265625,9969.8701171875,4921.75439453125,23572.4453125,10023.1171875,17895.69921875,12373.923828125,9757.677734375,12961.228515625,12267.4306640625,2880.096435546875,11137.326171875,4127.025390625,17650.126953125,7106.462890625,8827.0498046875,3489.6533203125,12304.783203125,5886.5546875,24383.068359375,4477.5009765625,19088.5859375,3718.53515625,10364.849609375,27422.109375,22147.498046875,12175.2421875,-0.0,-43747.42578125,20355.3828125,5849.20263671875,0.0,7093.74755859375,0.0,0.0
16559.759765625,16289.552734375,34963.29296875,11933.64453125,28971.037109375,7451.37548828125,8829.4345703125,9991.328125,9937.2861328125,6639.16259765625,18122.9921875,-383.0591735839844,9252.23046875,0.0,23373.76171875,8256.435546875,25700.7265625,20902.953125,10402.2021484375,12529.6904296875,23837.884765625,30248.166015625,24271.01171875,20539.759765625,22047.361328125,8158.68359375,29877.8203125,1356.6016845703125,0.0,2134.640869140625,14628.5693359375,7487.9326171875,26746.591796875,16992.88671875,16109.943359375,25794.505859375,10059.673828125,15037.0595703125,9957.154296875,4910.6279296875,23566.087890625,10018.3486328125,17892.51953125,12372.3349609375,9757.677734375,12958.84375,12252.3310546875,2865.791259765625,11126.9951171875,4119.873046875,17649.33203125,7107.2578125,8808.7724609375,3473.7587890625,12275.3779296875,5873.04443359375,24379.095703125,4476.7060546875,19092.560546875,3716.945556640625,10352.9287109375,27419.724609375,22149.0859375,12184.779296875,-0.0,-43757.75390625,20362.53515625,5848.40771484375,0.0,7093.74755859375,0.0,0.0
16550.22265625,16285.578125,34965.67578125,11935.234375,28971.830078125,7452.96484375,8830.2294921875,9988.9443359375,9936.4921875,6638.3681640625,18123.78515625,-394.1853942871094,9256.9990234375,0.0,23373.76171875,8259.6142578125,25696.75390625,20901.361328125,10402.9970703125,12529.6904296875,23837.08984375,30247.369140625,24269.421875,20540.556640625,22057.69140625,8161.06787109375,29881.794921875,1355.8070068359375,0.0,2129.077880859375,14628.5693359375,7482.3701171875,26744.20703125,16990.50390625,16109.943359375,25795.30078125,10059.673828125,15037.0595703125,9949.20703125,4900.296875,23561.3203125,10018.3486328125,17893.314453125,12372.3349609375,9756.8828125,12958.0498046875,12257.099609375,2866.5859375,11130.173828125,4126.23095703125,17650.126953125,7106.462890625,8796.8515625,3468.195556640625,12276.966796875,5869.0703125,24379.095703125,4484.6533203125,19092.560546875,3715.356201171875,10344.1875,27420.521484375,22151.470703125,12187.9580078125,-0.0,-43764.11328125,20358.5625,5845.228515625,0.0,7092.15771484375,0.0,0.0
16543.865234375,16276.8359375,34965.67578125,11929.6708984375,28975.009765625,7449.78564453125,8833.408203125,9987.3544921875,9942.0546875,6635.98388671875,18128.552734375,-394.9801025390625,9262.5615234375,0.0,23375.353515625,8258.8193359375,25694.37109375,20898.18359375,10402.2021484375,12532.8701171875,23838.677734375,30242.6015625,24267.83203125,20537.376953125,22068.818359375,8156.2998046875,29884.97265625,1351.03857421875,0.0,2129.87255859375,14623.80078125,7479.19091796875,26741.822265625,16984.14453125,16110.73828125,25791.326171875,10058.8798828125,15034.67578125,9946.0283203125,4895.5283203125,23562.908203125,10012.7861328125,17894.90234375,12368.361328125,9757.677734375,12957.2548828125,12259.4833984375,2861.817626953125,11140.505859375,4124.6416015625,17652.51171875,7104.07861328125,8792.0830078125,3465.8115234375,12292.0673828125,5872.24951171875,24381.478515625,4488.626953125,19094.943359375,3716.15087890625,10340.2138671875,27418.931640625,22149.880859375,12191.13671875,-0.0,-43761.73046875,20356.177734375,5833.3076171875,0.0,7078.6474609375,0.0,0.0
16544.66015625,16272.068359375,34972.03125,11934.439453125,28985.341796875,7448.1962890625,8840.560546875,9990.533203125,9950.796875,6642.341796875,18139.681640625,-393.3906555175781,9264.9462890625,0.0,23382.505859375,8251.6669921875,25699.138671875,20906.12890625,10407.765625,12542.4072265625,23845.830078125,30245.78125,24272.599609375,20540.556640625,22079.1484375,8152.32568359375,29891.33203125,1350.243896484375,0.0,2129.077880859375,14629.3642578125,7481.5751953125,26748.1796875,16987.32421875,16117.8916015625,25794.505859375,10064.4423828125,15038.6494140625,9947.6171875,4900.296875,23574.033203125,10014.375,17901.26171875,12369.15625,9764.03515625,12961.228515625,12264.251953125,2860.228271484375,11146.86328125,4120.66796875,17659.6640625,7104.07861328125,8788.9033203125,3463.42724609375,12309.55078125,5872.24951171875,24385.453125,4479.09033203125,19102.892578125,3716.15087890625,10340.2138671875,27424.494140625,22156.23828125,12206.2373046875,-0.0,-43760.140625,20360.150390625,5844.43408203125,0.0,7084.2109375,0.0,0.0
16546.25,16262.53125,34968.8515625,11924.107421875,28975.009765625,7443.42822265625,8833.408203125,9977.8173828125,9942.0546875,6635.18896484375,18142.064453125,-402.9273986816406,9254.615234375,0.0,23379.326171875,8236.5673828125,25694.37109375,20899.7734375,10400.61328125,12537.638671875,23839.474609375,30241.01171875,24266.2421875,20534.197265625,22062.458984375,8130.8681640625,29887.357421875,1335.9388427734375,0.0,2117.95166015625,14623.80078125,7475.21728515625,26743.412109375,16981.759765625,16111.5322265625,25789.73828125,10058.0849609375,15029.9072265625,9944.4384765625,4893.14404296875,23566.087890625,10006.427734375,17893.314453125,12359.619140625,9757.677734375,12952.4873046875,12261.8671875,2850.691650390625,11130.173828125,4100.0048828125,17652.51171875,7093.74755859375,8791.287109375,3455.47998046875,12306.373046875,5862.712890625,24379.888671875,4455.24853515625,19097.328125,3706.6142578125,10338.6240234375,27417.341796875,22149.0859375,12206.2373046875,-0.0,-43768.08984375,20360.947265625,5838.87109375,0.0,7084.2109375,0.0,0.0
16548.6328125,16262.53125,34965.67578125,11923.3134765625,28974.21484375,7451.37548828125,8830.2294921875,9974.638671875,9937.2861328125,6628.03662109375,18130.14453125,-411.6694030761719,9261.767578125,0.0,23376.94140625,8237.3623046875,25692.78125,20895.00390625,10393.4599609375,12528.1015625,23836.294921875,30242.6015625,24263.859375,20532.607421875,22060.076171875,8127.689453125,29888.15234375,1335.14404296875,0.0,2114.772705078125,14621.4169921875,7473.62744140625,26741.02734375,16984.14453125,16108.3544921875,25791.326171875,10052.521484375,15025.138671875,9942.849609375,4891.55419921875,23563.703125,10007.22265625,17890.9296875,12360.4130859375,9754.498046875,12946.12890625,12259.4833984375,2850.691650390625,11134.9423828125,4097.62060546875,17650.921875,7090.568359375,8791.287109375,3449.916748046875,12294.4521484375,5854.765625,24380.68359375,4448.890625,19092.560546875,3699.461669921875,10339.4189453125,27414.1640625,22143.521484375,12193.5205078125,-0.0,-43776.03515625,20357.767578125,5836.48681640625,0.0,7075.46875,0.0,0.0
16548.6328125,16265.7109375,34972.828125,11925.697265625,28986.134765625,7452.96484375,8831.818359375,9977.0234375,9942.0546875,6628.03662109375,18144.44921875,-406.9010314941406,9270.5087890625,0.0,23376.94140625,8240.5400390625,25696.75390625,20898.18359375,10396.6396484375,12529.6904296875,23841.0625,30245.78125,24267.83203125,20535.787109375,22079.1484375,8143.58447265625,29893.716796875,1338.322998046875,0.0,2108.414794921875,14626.185546875,7476.806640625,26748.1796875,16988.119140625,16113.123046875,25792.91796875,10054.90625,15028.3173828125,9949.20703125,4892.34912109375,23574.033203125,10008.8115234375,17895.69921875,12361.208984375,9756.8828125,12950.1025390625,12272.1982421875,2849.10205078125,11150.04296875,4107.1572265625,17654.099609375,7092.15771484375,8795.26171875,3453.095703125,12306.373046875,5850.7919921875,24379.888671875,4453.6591796875,19094.1484375,3701.051025390625,10341.0078125,27415.751953125,22145.11328125,12196.7001953125,-0.0,-43780.01171875,20353.794921875,5840.46044921875,0.0,7073.08447265625,0.0,0.0
16552.607421875,16270.4794921875,34978.390625,11934.439453125,28987.7265625,7437.86474609375,8830.2294921875,9977.8173828125,9943.64453125,6635.18896484375,18156.37109375,-397.3642883300781,9274.482421875,0.0,23376.94140625,8243.7197265625,25703.111328125,20900.568359375,10396.6396484375,12533.6650390625,23845.830078125,30248.166015625,24267.83203125,20534.197265625,22087.892578125,8162.65771484375,29887.357421875,1340.7071533203125,0.0,2117.95166015625,14630.158203125,7481.5751953125,26752.94921875,16992.88671875,16114.7119140625,25792.91796875,10054.111328125,15029.11328125,9955.5654296875,4893.14404296875,23578.802734375,10010.4013671875,17894.90234375,12357.2353515625,9756.8828125,12951.69140625,12278.556640625,2857.04931640625,11147.658203125,4115.8994140625,17651.716796875,7096.92626953125,8802.4140625,3461.837890625,12323.0615234375,5864.30224609375,24380.68359375,4460.8115234375,19094.1484375,3705.8193359375,10345.7763671875,27415.751953125,22146.701171875,12195.904296875,-0.0,-43768.8828125,20356.974609375,5853.97119140625,0.0,7087.3896484375,0.0,0.0
16543.865234375,16268.0947265625,34968.05859375,11935.234375,28974.21484375,7441.0439453125,8827.0498046875,9981.791015625,9942.0546875,6640.75244140625,18122.9921875,-395.77484130859375,9260.9716796875,0.0,23374.556640625,8252.4619140625,25697.55078125,20898.18359375,10395.0498046875,12535.2548828125,23840.26953125,30247.369140625,24262.26953125,20534.9921875,22056.103515625,8160.2734375,29873.052734375,1346.270263671875,0.0,2122.719970703125,14627.7744140625,7477.6015625,26746.591796875,16992.091796875,16108.3544921875,25792.91796875,10050.9326171875,15028.3173828125,9946.8232421875,4890.759765625,23563.703125,10015.169921875,17885.3671875,12359.619140625,9754.498046875,12954.076171875,12257.8935546875,2857.843994140625,11123.81640625,4119.873046875,17646.154296875,7102.4892578125,8793.671875,3461.837890625,12287.298828125,5864.30224609375,24379.095703125,4466.375,19092.560546875,3714.5615234375,10346.572265625,27414.1640625,22146.701171875,12198.2890625,-0.0,-43763.3203125,20361.7421875,5863.5078125,0.0,7095.3369140625,0.0,0.0
16548.6328125,16268.888671875,34976.00390625,11932.0556640625,28979.77734375,7445.81201171875,8827.845703125,9981.791015625,9939.6708984375,6642.341796875,18138.08984375,-400.543212890625,9263.3564453125,0.0,23374.556640625,8250.873046875,25701.5234375,20902.953125,10397.4345703125,12535.2548828125,23844.2421875,30252.138671875,24264.654296875,20534.9921875,22068.0234375,8149.14697265625,29881.0,1346.270263671875,0.0,2118.74658203125,14630.158203125,7479.19091796875,26750.564453125,16992.091796875,16112.3271484375,25796.890625,10051.7275390625,15028.3173828125,9952.3857421875,4890.759765625,23572.4453125,10014.375,17890.134765625,12359.619140625,9753.7041015625,12955.666015625,12267.4306640625,2853.07568359375,11132.5576171875,4114.3095703125,17647.744140625,7101.69482421875,8802.4140625,3459.45361328125,12300.0146484375,5861.91796875,24382.2734375,4462.40087890625,19092.560546875,3715.356201171875,10346.572265625,27417.341796875,22148.291015625,12204.6474609375,-0.0,-43768.8828125,20361.7421875,5856.35498046875,0.0,7098.51611328125,0.0,0.0
16556.58203125,16276.8359375,34986.3359375,11942.38671875,28987.7265625,7456.14404296875,8829.4345703125,9986.5595703125,9923.775390625,6644.7255859375,18153.986328125,-394.9801025390625,9268.919921875,0.0,23372.96875,8250.873046875,25711.05859375,20908.513671875,10402.2021484375,12528.896484375,23854.57421875,30261.67578125,24269.421875,20541.349609375,22080.740234375,8159.47802734375,29883.384765625,1351.8333740234375,0.0,2118.74658203125,14638.900390625,7487.9326171875,26760.1015625,17002.423828125,16121.0693359375,25806.427734375,10056.49609375,15033.880859375,9958.744140625,4900.296875,23582.77734375,10023.1171875,17895.69921875,12367.56640625,9751.3203125,12958.0498046875,12279.3515625,2865.791259765625,11136.5322265625,4123.05224609375,17646.154296875,7105.66845703125,8808.7724609375,3466.606201171875,12311.935546875,5865.09716796875,24382.2734375,4462.40087890625,19085.408203125,3719.329833984375,10354.5185546875,27424.494140625,22149.0859375,12197.494140625,-0.0,-43764.90625,20357.767578125,5849.9970703125,0.0,7108.84716796875,0.0,0.0
16553.40234375,16275.248046875,34979.98046875,11943.1806640625,28983.751953125,7459.322265625,8826.255859375,9981.791015625,9912.650390625,6635.98388671875,18140.474609375,-403.7221374511719,9265.740234375,0.0,23368.994140625,8234.18359375,25708.67578125,20905.3359375,10397.4345703125,12521.744140625,23852.189453125,30260.880859375,24263.0625,20538.171875,22071.203125,8164.24658203125,29881.794921875,1343.09130859375,0.0,2118.74658203125,14634.9267578125,7486.34326171875,26756.921875,17004.013671875,16116.30078125,25803.248046875,10051.7275390625,15028.3173828125,9952.3857421875,4897.91259765625,23576.41796875,10024.70703125,17894.109375,12364.3876953125,9744.1669921875,12949.3076171875,12270.609375,2872.94384765625,11133.353515625,4119.078125,17639.001953125,7096.92626953125,8800.82421875,3464.221923828125,12307.9619140625,5862.712890625,24378.298828125,4449.685546875,19076.666015625,3712.17724609375,10352.9287109375,27421.31640625,22143.521484375,12192.7265625,-0.0,-43773.65234375,20353.794921875,5832.51318359375,0.0,7098.51611328125,0.0,0.0
16552.607421875,16275.248046875,34978.390625,11943.9765625,28989.314453125,7461.70654296875,8828.6396484375,9987.3544921875,9917.4189453125,6635.98388671875,18133.322265625,-406.1063232421875,9253.025390625,0.0,23370.583984375,8240.5400390625,25711.05859375,20911.693359375,10401.408203125,12526.51171875,23853.779296875,30264.853515625,24265.447265625,20541.349609375,22067.228515625,8171.39892578125,29887.357421875,1349.44921875,0.0,2123.514892578125,14638.1064453125,7486.34326171875,26759.306640625,17007.193359375,16119.48046875,25804.837890625,10055.701171875,15032.291015625,9954.7705078125,4898.70703125,23578.0078125,10030.26953125,17898.87890625,12369.15625,9748.935546875,12951.69140625,12264.251953125,2870.5595703125,11137.326171875,4127.025390625,17642.974609375,7100.900390625,8796.8515625,3470.579833984375,12310.345703125,5868.27587890625,24378.298828125,4453.6591796875,19081.43359375,3712.971923828125,10351.33984375,27424.494140625,22147.498046875,12197.494140625,-0.0,-43767.29296875,20352.998046875,5841.25537109375,0.0,7093.74755859375,0.0,0.0
16564.52734375,16288.7578125,34997.46484375,11947.94921875,29008.388671875,7457.7333984375,8842.150390625,9996.890625,9926.16015625,6642.341796875,18155.57421875,-380.67498779296875,9254.615234375,0.0,23380.12109375,8254.05078125,25723.775390625,20920.435546875,10411.7392578125,12532.8701171875,23868.083984375,30272.0078125,24280.548828125,20552.4765625,22090.27734375,8160.2734375,29903.25390625,1357.396484375,0.0,2122.719970703125,14650.02734375,7499.05908203125,26772.818359375,17013.55078125,16134.5810546875,25812.78515625,10066.8271484375,15044.2119140625,9972.2548828125,4907.44921875,23595.4921875,10026.2958984375,17915.568359375,12375.513671875,9760.8564453125,12961.228515625,12284.9150390625,2862.612548828125,11152.4267578125,4129.40966796875,17657.279296875,7110.43701171875,8810.361328125,3481.705810546875,12319.087890625,5873.8388671875,24381.478515625,4467.16943359375,19090.17578125,3721.714111328125,10360.08203125,27436.4140625,22158.623046875,12196.7001953125,-0.0,-43749.80859375,20351.41015625,5855.560546875,0.0,7097.72119140625,0.0,0.0
16558.169921875,16280.8095703125,34996.66796875,11951.12890625,29013.15625,7456.14404296875,8850.09765625,10000.0693359375,9932.517578125,6647.90478515625,18143.654296875,-382.26446533203125,9267.330078125,0.0,23383.298828125,8259.6142578125,25720.595703125,20922.025390625,10417.3017578125,12536.84375,23869.671875,30272.802734375,24287.701171875,20554.861328125,22089.48046875,8159.47802734375,29915.96875,1360.5753173828125,0.0,2128.283203125,14651.6162109375,7496.6748046875,26772.021484375,17012.75390625,16139.3486328125,25814.375,10070.80078125,15048.1865234375,9970.6650390625,4898.70703125,23594.697265625,10025.5009765625,17924.30859375,12377.1025390625,9766.4189453125,12967.5869140625,12277.7626953125,2864.99658203125,11155.60546875,4122.25732421875,17664.431640625,7117.58935546875,8794.466796875,3481.705810546875,12302.3984375,5881.7861328125,24389.42578125,4474.32177734375,19094.1484375,3727.277099609375,10356.1083984375,27440.388671875,22163.390625,12195.1103515625,-0.0,-43743.44921875,20355.3828125,5867.4814453125,0.0,7101.69482421875,0.0,0.0
16556.58203125,16276.8359375,34992.6953125,11951.923828125,29003.62109375,7462.50146484375,8846.9189453125,10002.4541015625,9932.517578125,6649.494140625,18143.654296875,-386.23809814453125,9276.8671875,0.0,23379.326171875,8259.6142578125,25720.595703125,20923.615234375,10418.09765625,12534.458984375,23868.083984375,30274.390625,24284.521484375,20556.44921875,22086.302734375,8164.24658203125,29908.021484375,1362.164794921875,0.0,2127.48828125,14651.6162109375,7493.49609375,26770.43359375,17012.75390625,16135.3740234375,25814.375,10070.80078125,15049.775390625,9959.5380859375,4885.99169921875,23590.72265625,10031.859375,17917.15625,12381.0771484375,9766.4189453125,12969.970703125,12278.556640625,2867.380859375,11154.810546875,4124.6416015625,17659.6640625,7120.76806640625,8794.466796875,3469.784912109375,12307.1669921875,5881.7861328125,24387.041015625,4475.11669921875,19093.35546875,3729.6611328125,10355.3134765625,27441.978515625,22161.802734375,12193.5205078125,-0.0,-43740.2734375,20357.767578125,5869.865234375,0.0,7101.69482421875,0.0,0.0
16554.197265625,16272.068359375,34989.515625,11946.3603515625,28993.287109375,7459.322265625,8837.3818359375,9997.685546875,9926.955078125,6641.546875,18143.654296875,-394.9801025390625,9286.4033203125,0.0,23371.37890625,8250.0771484375,25716.623046875,20918.845703125,10411.7392578125,12525.7177734375,23861.7265625,30269.623046875,24275.779296875,20553.26953125,22090.27734375,8162.65771484375,29881.0,1359.7806396484375,0.0,2127.48828125,14646.0537109375,7489.5224609375,26765.666015625,17007.986328125,16130.60546875,25810.400390625,10063.6484375,15046.5966796875,9967.486328125,4895.5283203125,23587.544921875,10027.0908203125,17906.03125,12377.8984375,9758.47265625,12962.818359375,12277.7626953125,2867.380859375,11150.8369140625,4120.66796875,17647.744140625,7115.205078125,8796.0556640625,3457.864013671875,12313.525390625,5876.22314453125,24383.86328125,4463.19580078125,19082.228515625,3721.714111328125,10352.9287109375,27435.62109375,22154.650390625,12183.9833984375,-0.0,-43752.1953125,20348.23046875,5853.17626953125,0.0,7090.568359375,0.0,0.0
16569.294921875,16283.9892578125,35001.4375,11962.2548828125,29008.388671875,7472.0380859375,8851.6875,10011.990234375,9945.2333984375,6651.08349609375,18161.931640625,-381.4697265625,9291.966796875,0.0,23383.298828125,8261.998046875,25729.337890625,20930.767578125,10426.044921875,12540.8173828125,23874.44140625,30283.1328125,24288.49609375,20565.986328125,22101.40234375,8176.962890625,29898.484375,1374.8804931640625,0.0,2142.58837890625,14657.1796875,7503.82763671875,26779.17578125,17020.703125,16140.9375,25823.912109375,10077.1591796875,15060.9013671875,9973.048828125,4915.39599609375,23597.875,10042.1904296875,17920.3359375,12392.203125,9769.5986328125,12977.91796875,12290.4775390625,2880.096435546875,11160.3740234375,4135.767578125,17661.25390625,7126.33154296875,8817.513671875,3481.705810546875,12328.625,5888.93896484375,24396.578125,4478.2958984375,19094.943359375,3733.635009765625,10367.234375,27448.3359375,22168.955078125,12193.5205078125,-0.0,-43743.44921875,20359.357421875,5861.91796875,0.0,7098.51611328125,0.0,0.0
16561.349609375,16279.220703125,34991.10546875,11955.8974609375,29002.03125,7471.2431640625,8852.4814453125,10011.990234375,9947.6171875,6655.0576171875,18151.6015625,-384.6486511230469,9282.4296875,0.0,23386.478515625,8264.3828125,25725.365234375,20927.587890625,10426.044921875,12545.5859375,23868.083984375,30279.955078125,24286.111328125,20565.986328125,22089.48046875,8167.42626953125,29903.25390625,1370.112060546875,0.0,2136.23046875,14653.2060546875,7496.6748046875,26772.818359375,17014.345703125,16135.3740234375,25822.3203125,10078.748046875,15060.9013671875,9966.69140625,4910.6279296875,23589.9296875,10039.806640625,17918.744140625,12388.2294921875,9770.3935546875,12980.3017578125,12276.966796875,2874.533447265625,11153.220703125,4138.15185546875,17664.431640625,7125.53662109375,8807.1826171875,3478.527099609375,12317.498046875,5885.759765625,24394.193359375,4479.09033203125,19100.5078125,3738.4033203125,10360.08203125,27446.74609375,22172.1328125,12203.8525390625,-0.0,-43741.86328125,20364.126953125,5860.32861328125,0.0,7108.84716796875,0.0,0.0
16549.4296875,16272.86328125,34983.15625,11943.9765625,28997.263671875,7466.47509765625,8850.09765625,10003.2490234375,9942.849609375,6652.67333984375,18142.064453125,-391.80120849609375,9273.6884765625,0.0,23383.298828125,8259.6142578125,25715.828125,20922.025390625,10418.8916015625,12543.201171875,23858.546875,30271.2109375,24277.369140625,20558.833984375,22084.712890625,8157.09423828125,29900.07421875,1357.396484375,0.0,2122.719970703125,14645.2587890625,7484.75390625,26764.07421875,17003.216796875,16129.0166015625,25815.16796875,10073.1845703125,15053.7490234375,9958.744140625,4895.5283203125,23585.162109375,10030.26953125,17913.18359375,12377.8984375,9767.21484375,12973.1494140625,12273.7880859375,2862.612548828125,11150.8369140625,4131.7939453125,17661.25390625,7118.3837890625,8801.619140625,3465.0166015625,12292.8623046875,5879.40234375,24387.8359375,4471.14306640625,19100.5078125,3733.635009765625,10350.544921875,27441.18359375,22168.16015625,12207.8251953125,-0.0,-43754.578125,20360.947265625,5851.5869140625,0.0,7108.052734375,0.0,0.0
16547.044921875,16272.068359375,34986.3359375,11942.38671875,29005.208984375,7465.6806640625,8850.8916015625,10006.427734375,9938.0810546875,6655.0576171875,18145.2421875,-392.5959167480469,9284.8134765625,0.0,23387.2734375,8259.6142578125,25715.828125,20923.615234375,10420.4814453125,12544.791015625,23862.51953125,30271.2109375,24278.1640625,20559.62890625,22096.634765625,8165.0419921875,29905.638671875,1360.5753173828125,0.0,2113.97802734375,14647.6435546875,7483.16455078125,26767.25390625,17002.423828125,16132.990234375,25815.962890625,10072.390625,15055.3388671875,9955.5654296875,4883.607421875,23590.72265625,10024.70703125,17917.951171875,12381.0771484375,9766.4189453125,12973.1494140625,12278.556640625,2859.433349609375,11161.16796875,4130.20458984375,17662.84375,7120.76806640625,8806.3876953125,3464.221923828125,12311.140625,5875.4287109375,24388.630859375,4462.40087890625,19101.30078125,3735.224365234375,10350.544921875,27441.18359375,22171.33984375,12203.8525390625,-0.0,-43764.90625,20360.150390625,5857.1494140625,0.0,7110.43701171875,0.0,0.0
16548.6328125,16277.6318359375,34986.3359375,11948.7451171875,28998.056640625,7457.7333984375,8850.8916015625,10008.8115234375,9933.3125,6657.44140625,18147.626953125,-380.67498779296875,9278.45703125,0.0,23387.2734375,8261.2041015625,25718.212890625,20919.640625,10421.2763671875,12546.3798828125,23861.7265625,30270.41796875,24275.779296875,20561.21875,22087.09765625,8169.81005859375,29902.458984375,1365.34375,0.0,2126.69384765625,14646.84765625,7483.958984375,26767.25390625,17005.6015625,16130.60546875,25813.580078125,10072.390625,15056.1328125,9956.359375,4889.96484375,23588.337890625,10022.322265625,17916.361328125,12381.87109375,9765.625,12975.533203125,12274.5830078125,2866.5859375,11146.86328125,4129.40966796875,17662.84375,7125.53662109375,8806.3876953125,3468.990234375,12317.498046875,5884.17041015625,24388.630859375,4466.375,19100.5078125,3738.4033203125,10352.9287109375,27441.978515625,22173.72265625,12207.03125,-0.0,-43756.9609375,20364.126953125,5864.30224609375,0.0,7117.58935546875,0.0,0.0
16548.6328125,16277.6318359375,34987.1328125,11951.923828125,28994.87890625,7465.6806640625,8847.7138671875,10008.8115234375,9930.1337890625,6654.2626953125,18152.39453125,-381.4697265625,9273.6884765625,0.0,23384.888671875,8262.7939453125,25717.416015625,20918.845703125,10420.4814453125,12545.5859375,23862.51953125,30273.595703125,24271.806640625,20563.6015625,22083.91796875,8165.0419921875,29897.689453125,1369.3173828125,0.0,2125.104248046875,14646.84765625,7485.54833984375,26766.458984375,17008.78125,16129.0166015625,25815.962890625,10072.390625,15056.1328125,9960.333984375,4899.501953125,23586.75,10031.064453125,17913.9765625,12385.05078125,9764.8310546875,12977.123046875,12274.5830078125,2866.5859375,11134.9423828125,4131.7939453125,17662.84375,7128.71533203125,8807.1826171875,3470.579833984375,12313.525390625,5876.22314453125,24387.8359375,4474.32177734375,19098.123046875,3734.4296875,10352.134765625,27443.56640625,22171.33984375,12211.0048828125,-0.0,-43753.78515625,20359.357421875,5857.9443359375,0.0,7106.462890625,0.0,0.0
16546.25,16268.0947265625,34987.1328125,11949.5390625,28996.466796875,7466.47509765625,8847.7138671875,10006.427734375,9934.90234375,6653.4677734375,18153.19140625,-389.4170227050781,9274.482421875,0.0,23384.888671875,8263.587890625,25717.416015625,20918.05078125,10420.4814453125,12551.1484375,23860.931640625,30274.390625,24271.01171875,20562.806640625,22087.09765625,8168.220703125,29899.279296875,1366.138427734375,0.0,2121.92529296875,14646.0537109375,7483.958984375,26765.666015625,17005.6015625,16129.0166015625,25818.34765625,10071.5947265625,15053.7490234375,9957.94921875,4903.47509765625,23585.955078125,10035.0380859375,17915.568359375,12383.4609375,9764.8310546875,12973.9443359375,12278.556640625,2864.201904296875,11142.8896484375,4134.17822265625,17662.84375,7123.947265625,8803.2080078125,3467.40087890625,12312.7294921875,5869.865234375,24387.8359375,4479.88525390625,19101.30078125,3732.84033203125,10349.7509765625,27445.158203125,22171.33984375,12216.568359375,-0.0,-43749.015625,20359.357421875,5851.5869140625,0.0,7096.1318359375,0.0,0.0
16543.865234375,16265.7109375,34986.3359375,11949.5390625,28994.87890625,7456.14404296875,8848.5078125,10005.6337890625,9940.46484375,6662.2099609375,18156.37109375,-385.443359375,9275.27734375,0.0,23386.478515625,8262.7939453125,25717.416015625,20916.462890625,10421.2763671875,12559.890625,23860.931640625,30272.802734375,24271.806640625,20558.0390625,22087.09765625,8169.01513671875,29899.279296875,1363.7542724609375,0.0,2121.92529296875,14645.2587890625,7482.3701171875,26767.25390625,17005.6015625,16128.2216796875,25815.962890625,10070.80078125,15052.955078125,9952.3857421875,4907.44921875,23586.75,10032.654296875,17914.771484375,12376.30859375,9767.21484375,12977.123046875,12279.3515625,2872.149169921875,11142.8896484375,4134.17822265625,17662.84375,7123.947265625,8803.2080078125,3471.37451171875,12311.140625,5880.99169921875,24389.42578125,4474.32177734375,19105.275390625,3739.197998046875,10350.544921875,27443.56640625,22172.927734375,12228.4892578125,-0.0,-43749.80859375,20362.53515625,5855.560546875,0.0,7107.2578125,0.0,0.0
16543.0703125,16262.53125,34983.15625,11942.38671875,28994.87890625,7456.9384765625,8848.5078125,10007.22265625,9940.46484375,6661.4150390625,18150.01171875,-387.0328369140625,9275.27734375,0.0,23388.86328125,8262.7939453125,25715.033203125,20920.435546875,10419.6865234375,12556.7119140625,23857.751953125,30268.828125,24269.421875,20557.24609375,22083.125,8157.88916015625,29900.869140625,1364.549072265625,0.0,2113.97802734375,14643.6689453125,7479.19091796875,26764.869140625,17003.216796875,16128.2216796875,25812.78515625,10070.80078125,15054.5439453125,9952.3857421875,4902.6806640625,23583.5703125,10026.2958984375,17913.9765625,12376.30859375,9765.625,12978.712890625,12274.5830078125,2865.791259765625,11143.6845703125,4135.767578125,17663.63671875,7125.53662109375,8804.00390625,3461.043212890625,12310.345703125,5886.5546875,24391.015625,4471.14306640625,19106.865234375,3744.76123046875,10348.9560546875,27440.388671875,22171.33984375,12218.158203125,-0.0,-43755.37109375,20364.126953125,5857.9443359375,0.0,7104.87353515625,0.0,0.0
16548.6328125,16267.2998046875,34985.54296875,11940.796875,28998.056640625,7460.912109375,8846.1240234375,10007.22265625,9928.5439453125,6653.4677734375,18150.806640625,-377.49609375,9275.27734375,0.0,23385.68359375,8267.5615234375,25716.623046875,20918.845703125,10418.09765625,12542.4072265625,23860.931640625,30269.623046875,24270.216796875,20561.21875,22087.09765625,8164.24658203125,29903.25390625,1370.112060546875,0.0,2124.3095703125,14643.6689453125,7481.5751953125,26765.666015625,17003.216796875,16129.8125,25813.580078125,10070.0068359375,15053.7490234375,9960.333984375,4902.6806640625,23585.162109375,10019.1435546875,17913.9765625,12381.0771484375,9762.4462890625,12977.123046875,12278.556640625,2864.201904296875,11148.453125,4139.7412109375,17660.458984375,7127.1259765625,8811.15625,3465.8115234375,12311.140625,5891.3232421875,24391.80859375,4479.09033203125,19102.095703125,3741.582275390625,10346.572265625,27439.59375,22169.748046875,12189.5478515625,-0.0,-43740.2734375,20357.767578125,5861.12353515625,0.0,7101.69482421875,0.0,0.0
16554.990234375,16284.7841796875,34992.6953125,11954.3076171875,29005.208984375,7473.62744140625,8847.7138671875,10010.4013671875,9928.5439453125,6647.10986328125,18153.986328125,-363.9856872558594,9278.45703125,0.0,23388.86328125,8270.740234375,25724.568359375,20919.640625,10419.6865234375,12538.4326171875,23867.2890625,30278.36328125,24272.599609375,20565.19140625,22096.634765625,8184.90966796875,29907.2265625,1376.469970703125,0.0,2137.025146484375,14648.4375,7488.7275390625,26773.611328125,17011.9609375,16134.5810546875,25822.3203125,10071.5947265625,15056.1328125,9964.306640625,4904.27001953125,23593.107421875,10036.6279296875,17919.541015625,12387.4345703125,9764.03515625,12975.533203125,12287.298828125,2872.149169921875,11155.60546875,4150.86767578125,17663.63671875,7130.3046875,8819.103515625,3485.6796875,12313.525390625,5893.70703125,24395.78515625,4484.6533203125,19102.095703125,3735.224365234375,10352.134765625,27443.56640625,22169.748046875,12183.189453125,-0.0,-43722.7890625,20358.5625,5865.89208984375,0.0,7095.3369140625,0.0,0.0
16539.09765625,16280.8095703125,34983.15625,11944.7705078125,28998.8515625,7467.27001953125,8846.9189453125,10006.427734375,9935.6962890625,6643.13671875,18130.14453125,-374.3171691894531,9281.6357421875,0.0,23390.451171875,8266.7666015625,25713.443359375,20914.873046875,10417.3017578125,12542.4072265625,23857.751953125,30272.802734375,24266.2421875,20558.0390625,22091.0703125,8177.75732421875,29908.021484375,1375.6751708984375,0.0,2130.66748046875,14640.490234375,7476.01171875,26761.689453125,17002.423828125,16126.6328125,25815.962890625,10067.6220703125,15051.365234375,9950.796875,4891.55419921875,23585.162109375,10029.4755859375,17914.771484375,12383.4609375,9764.03515625,12972.3544921875,12269.0205078125,2853.870361328125,11154.015625,4138.15185546875,17664.431640625,7125.53662109375,8796.0556640625,3479.32177734375,12311.140625,5890.5283203125,24394.98828125,4478.2958984375,19106.0703125,3728.86669921875,10342.59765625,27437.2109375,22168.955078125,12203.0576171875,-0.0,-43735.50390625,20365.71484375,5863.5078125,0.0,7090.568359375,0.0,0.0
16538.30078125,16275.248046875,34979.18359375,11947.94921875,28997.263671875,7468.06494140625,8843.7392578125,10006.427734375,9925.365234375,6642.341796875,18131.732421875,-392.5959167480469,9287.1982421875,0.0,23388.06640625,8268.3564453125,25712.6484375,20912.48828125,10414.91796875,12537.638671875,23856.162109375,30270.41796875,24263.859375,20556.44921875,22093.455078125,8185.7041015625,29906.431640625,1378.059326171875,0.0,2120.3359375,14639.6953125,7473.62744140625,26760.1015625,17001.62890625,16122.66015625,25813.580078125,10062.853515625,15047.390625,9948.4130859375,4887.5810546875,23585.955078125,10034.2431640625,17911.591796875,12385.8447265625,9760.8564453125,12971.560546875,12263.45703125,2853.870361328125,11154.015625,4130.9990234375,17661.25390625,7127.1259765625,8792.876953125,3469.784912109375,12319.087890625,5892.1181640625,24393.400390625,4473.52734375,19102.892578125,3731.250732421875,10342.59765625,27436.4140625,22164.98046875,12197.494140625,-0.0,-43741.06640625,20364.919921875,5856.35498046875,0.0,7089.7734375,0.0,0.0
16538.30078125,16270.4794921875,34971.23828125,11934.439453125,28987.7265625,7452.96484375,8834.998046875,10000.865234375,9911.8544921875,6637.5732421875,18135.705078125,-386.23809814453125,9268.919921875,0.0,23380.9140625,8265.177734375,25707.0859375,20904.541015625,10406.970703125,12526.51171875,23849.009765625,30260.880859375,24255.91015625,20548.501953125,22079.1484375,8169.81005859375,29895.3046875,1372.4962158203125,0.0,2110.799072265625,14630.158203125,7468.06494140625,26753.744140625,16993.681640625,16114.7119140625,25803.248046875,10052.521484375,15040.23828125,9942.849609375,4880.42822265625,23578.0078125,10020.732421875,17902.056640625,12378.6923828125,9754.498046875,12965.2021484375,12253.125,2854.6650390625,11136.5322265625,4123.05224609375,17653.306640625,7124.7421875,8792.0830078125,3457.0693359375,12302.3984375,5886.5546875,24387.041015625,4476.7060546875,19095.740234375,3728.86669921875,10338.6240234375,27428.46875,22157.033203125,12182.39453125,-0.0,-43738.68359375,20355.3828125,5861.91796875,0.0,7085.80029296875,0.0,0.0
16540.685546875,16263.326171875,34974.4140625,11930.4658203125,28986.931640625,7444.22314453125,8833.408203125,9992.123046875,9912.650390625,6635.18896484375,18132.52734375,-383.8539123535156,9268.125,0.0,23380.12109375,8258.025390625,25706.291015625,20901.361328125,10404.5869140625,12524.1279296875,23846.626953125,30257.701171875,24257.501953125,20542.939453125,22075.970703125,8163.4521484375,29896.89453125,1360.5753173828125,0.0,2108.414794921875,14628.5693359375,7467.27001953125,26753.744140625,16991.296875,16113.123046875,25799.275390625,10051.7275390625,15036.265625,9937.2861328125,4882.8125,23574.828125,10015.96484375,17899.671875,12369.15625,9752.9091796875,12961.228515625,12257.099609375,2856.254638671875,11137.326171875,4128.61474609375,17653.306640625,7117.58935546875,8783.3408203125,3457.0693359375,12296.8359375,5881.7861328125,24388.630859375,4478.2958984375,19094.943359375,3728.072021484375,10336.240234375,27424.494140625,22156.23828125,12176.8310546875,-0.0,-43741.86328125,20352.205078125,5862.712890625,0.0,7085.80029296875,0.0,0.0
16548.6328125,16261.736328125,34984.75,11940.796875,28993.287109375,7452.96484375,8842.150390625,9996.890625,9920.5966796875,6643.93115234375,18137.296875,-377.49609375,9276.8671875,0.0,23388.86328125,8261.998046875,25715.033203125,20911.693359375,10410.9453125,12533.6650390625,23852.984375,30264.853515625,24265.447265625,20546.1171875,22079.9453125,8176.962890625,29905.638671875,1362.95947265625,0.0,2121.130615234375,14637.310546875,7477.6015625,26762.486328125,17000.041015625,16121.0693359375,25804.837890625,10060.4697265625,15041.0341796875,9946.8232421875,4903.47509765625,23583.5703125,10027.8857421875,17910.798828125,12369.15625,9760.0625,12965.2021484375,12269.814453125,2869.76513671875,11150.04296875,4142.12548828125,17661.25390625,7123.947265625,8788.9033203125,3469.784912109375,12296.8359375,5891.3232421875,24399.7578125,4482.26953125,19102.095703125,3731.250732421875,10346.572265625,27430.853515625,22161.802734375,12193.5205078125,-0.0,-43736.296875,20363.330078125,5865.09716796875,0.0,7098.51611328125,0.0,0.0
16546.25,16267.2998046875,34987.1328125,11947.1552734375,28997.263671875,7455.34912109375,8846.1240234375,9999.275390625,9925.365234375,6643.93115234375,18132.52734375,-381.4697265625,9288.7880859375,0.0,23393.630859375,8264.3828125,25716.623046875,20909.30859375,10411.7392578125,12537.638671875,23856.162109375,30267.23828125,24267.0390625,20547.708984375,22098.22265625,8178.5517578125,29912.791015625,1366.9332275390625,0.0,2126.69384765625,14638.900390625,7478.39599609375,26765.666015625,17004.80859375,16122.66015625,25808.015625,10062.853515625,15041.0341796875,9950.796875,4905.859375,23590.72265625,10031.859375,17914.771484375,12369.15625,9764.8310546875,12966.7919921875,12278.556640625,2879.3017578125,11165.1416015625,4141.33056640625,17666.81640625,7126.33154296875,8788.9033203125,3476.9375,12306.373046875,5890.5283203125,24406.91015625,4478.2958984375,19106.0703125,3728.86669921875,10348.9560546875,27431.646484375,22164.185546875,12199.87890625,-0.0,-43730.734375,20366.509765625,5865.09716796875,0.0,7098.51611328125,0.0,0.0
16544.66015625,16276.041015625,34987.1328125,11955.1015625,28996.466796875,7458.52783203125,8844.53515625,9998.48046875,9930.1337890625,6641.546875,18136.501953125,-387.8275451660156,9288.7880859375,0.0,23391.24609375,8262.7939453125,25715.828125,20903.74609375,10410.1494140625,12536.048828125,23856.162109375,30271.2109375,24267.0390625,20546.9140625,22116.501953125,8179.34716796875,29910.40625,1366.138427734375,0.0,2130.66748046875,14639.6953125,7479.19091796875,26764.07421875,17006.396484375,16119.48046875,25807.22265625,10060.4697265625,15041.828125,9953.181640625,4901.09130859375,23589.9296875,10033.4482421875,17911.591796875,12369.9501953125,9763.2412109375,12965.9970703125,12285.708984375,2880.89111328125,11163.552734375,4140.53564453125,17665.228515625,7125.53662109375,8791.287109375,3483.29541015625,12327.03515625,5886.5546875,24399.7578125,4477.5009765625,19106.865234375,3725.687744140625,10348.1611328125,27430.853515625,22164.98046875,12197.494140625,-0.0,-43733.9140625,20366.509765625,5861.91796875,0.0,7092.15771484375,0.0,0.0
16547.837890625,16280.8095703125,34992.6953125,11959.076171875,28996.466796875,7463.29638671875,8846.1240234375,9996.890625,9926.16015625,6635.98388671875,18149.216796875,-378.2908020019531,9293.556640625,0.0,23392.04296875,8261.998046875,25718.212890625,20904.541015625,10410.9453125,12531.2802734375,23858.546875,30273.595703125,24267.0390625,20548.501953125,22113.322265625,8183.31982421875,29916.763671875,1366.138427734375,0.0,2129.077880859375,14640.490234375,7480.7802734375,26767.25390625,17007.193359375,16119.48046875,25808.015625,10058.0849609375,15042.623046875,9953.9755859375,4894.7333984375,23589.134765625,10036.6279296875,17912.388671875,12370.74609375,9761.6513671875,12967.5869140625,12292.8623046875,2872.94384765625,11160.3740234375,4142.12548828125,17665.228515625,7123.947265625,8796.0556640625,3478.527099609375,12339.7509765625,5894.501953125,24401.345703125,4478.2958984375,19106.865234375,3722.5087890625,10352.134765625,27430.853515625,22163.390625,12187.9580078125,-0.0,-43733.12109375,20362.53515625,5850.7919921875,0.0,7085.00537109375,0.0,0.0
16537.5078125,16257.7626953125,34986.3359375,11953.5126953125,28988.51953125,7459.322265625,8840.560546875,9992.9169921875,9919.0068359375,6629.6259765625,18144.44921875,-388.6222839355469,9276.072265625,0.0,23392.04296875,8251.6669921875,25714.23828125,20899.7734375,10405.380859375,12528.1015625,23852.189453125,30270.41796875,24260.6796875,20543.734375,22094.25,8180.1416015625,29916.763671875,1362.164794921875,0.0,2123.514892578125,14635.7216796875,7474.42236328125,26760.896484375,17002.423828125,16112.3271484375,25804.04296875,10053.3173828125,15037.0595703125,9947.6171875,4886.7861328125,23583.5703125,10035.0380859375,17908.4140625,12367.56640625,9756.8828125,12964.408203125,12281.7353515625,2860.228271484375,11152.4267578125,4136.5625,17661.25390625,7118.3837890625,8792.876953125,3461.837890625,12319.087890625,5894.501953125,24400.552734375,4470.34814453125,19101.30078125,3720.12451171875,10344.1875,27425.2890625,22156.23828125,12195.904296875,-0.0,-43736.296875,20360.947265625,5852.38134765625,0.0,7081.82666015625,0.0,0.0
16540.685546875,16248.2265625,34988.71875,11948.7451171875,28993.287109375,7456.14404296875,8843.7392578125,9992.123046875,9925.365234375,6635.18896484375,18149.216796875,-383.8539123535156,9276.072265625,0.0,23395.220703125,8247.693359375,25716.623046875,20902.953125,10407.765625,12533.6650390625,23856.162109375,30271.2109375,24265.447265625,20545.32421875,22098.22265625,8169.01513671875,29922.326171875,1357.396484375,0.0,2117.95166015625,14637.310546875,7477.6015625,26765.666015625,17004.80859375,16116.30078125,25802.453125,10054.90625,15037.0595703125,9954.7705078125,4893.14404296875,23588.337890625,10031.064453125,17910.798828125,12366.771484375,9760.8564453125,12964.408203125,12275.3779296875,2858.638671875,11157.1953125,4130.20458984375,17664.431640625,7117.58935546875,8799.2353515625,3463.42724609375,12322.2666015625,5888.93896484375,24403.73046875,4462.40087890625,19103.685546875,3722.5087890625,10347.3662109375,27426.87890625,22160.2109375,12207.03125,-0.0,-43731.52734375,20368.099609375,5861.12353515625,0.0,7088.97900390625,0.0,0.0
16549.4296875,16265.7109375,34989.515625,11955.8974609375,28993.287109375,7462.50146484375,8839.7666015625,9994.5068359375,9922.1865234375,6632.8046875,18146.833984375,-380.67498779296875,9273.6884765625,0.0,23384.888671875,8249.283203125,25720.595703125,20900.568359375,10408.560546875,12523.333984375,23856.958984375,30273.595703125,24265.447265625,20546.1171875,22087.09765625,8176.16748046875,29919.1484375,1362.164794921875,0.0,2130.66748046875,14640.490234375,7481.5751953125,26768.841796875,17010.37109375,16115.5068359375,25807.22265625,10054.90625,15037.0595703125,9959.5380859375,4903.47509765625,23587.544921875,10038.216796875,17910.00390625,12373.1298828125,9757.677734375,12960.43359375,12272.994140625,2868.175537109375,11153.220703125,4129.40966796875,17656.484375,7118.3837890625,8796.0556640625,3473.7587890625,12316.7041015625,5899.2705078125,24395.78515625,4464.78515625,19093.35546875,3720.12451171875,10352.134765625,27427.673828125,22156.23828125,12187.9580078125,-0.0,-43729.94140625,20362.53515625,5858.7392578125,0.0,7088.97900390625,0.0,0.0
16554.990234375,16282.400390625,34991.90234375,11958.28125,28995.671875,7472.8330078125,8841.35546875,10000.0693359375,9924.5712890625,6632.8046875,18145.2421875,-379.8802795410156,9278.45703125,0.0,23383.298828125,8256.435546875,25722.98046875,20900.568359375,10410.9453125,12522.5380859375,23860.13671875,30279.16015625,24269.421875,20553.26953125,22082.328125,8178.5517578125,29911.994140625,1370.9068603515625,0.0,2129.87255859375,14643.6689453125,7481.5751953125,26770.43359375,17015.93359375,16118.6845703125,25812.78515625,10057.2900390625,15041.828125,9962.7177734375,4902.6806640625,23588.337890625,10042.9853515625,17911.591796875,12380.2822265625,9760.8564453125,12963.6123046875,12274.5830078125,2869.76513671875,11144.478515625,4134.17822265625,17658.076171875,7124.7421875,8797.6455078125,3475.34814453125,12303.193359375,5905.62841796875,24387.041015625,4467.96435546875,19090.17578125,3722.5087890625,10356.1083984375,27431.646484375,22158.623046875,12181.599609375,-0.0,-43727.55859375,20364.919921875,5854.765625,0.0,7092.95263671875,0.0,0.0
16554.990234375,16282.400390625,34991.90234375,11949.5390625,29001.236328125,7471.2431640625,8847.7138671875,10002.4541015625,9937.2861328125,6635.18896484375,18143.654296875,-383.8539123535156,9282.4296875,0.0,23386.478515625,8259.6142578125,25722.185546875,20902.15625,10414.91796875,12529.6904296875,23861.7265625,30277.5703125,24274.984375,20555.654296875,22090.27734375,8169.81005859375,29919.1484375,1372.4962158203125,0.0,2119.541259765625,14643.6689453125,7479.98583984375,26771.2265625,17012.75390625,16121.8642578125,25811.990234375,10061.263671875,15044.2119140625,9962.7177734375,4895.5283203125,23592.314453125,10039.01171875,17917.951171875,12383.4609375,9767.21484375,12965.9970703125,12279.3515625,2868.175537109375,11143.6845703125,4133.38330078125,17668.40625,7127.92041015625,8796.8515625,3463.42724609375,12315.1142578125,5891.3232421875,24378.298828125,4456.837890625,19097.328125,3724.09814453125,10349.7509765625,27433.236328125,22163.390625,12195.1103515625,-0.0,-43740.2734375,20364.126953125,5853.97119140625,0.0,7089.7734375,0.0,0.0
16554.990234375,16280.8095703125,34987.1328125,11943.9765625,28995.671875,7455.34912109375,8850.8916015625,10003.2490234375,9947.6171875,6637.5732421875,18143.654296875,-395.77484130859375,9285.609375,0.0,23389.658203125,8254.845703125,25722.185546875,20902.953125,10417.3017578125,12535.2548828125,23861.7265625,30275.1875,24276.57421875,20552.4765625,22096.634765625,8174.57861328125,29908.814453125,1364.549072265625,0.0,2118.74658203125,14643.6689453125,7479.19091796875,26772.818359375,17012.75390625,16121.8642578125,25808.015625,10062.853515625,15045.0068359375,9969.0751953125,4890.759765625,23590.72265625,10036.6279296875,17917.951171875,12377.8984375,9771.9833984375,12966.7919921875,12280.146484375,2868.97021484375,11149.2470703125,4130.9990234375,17672.380859375,7130.3046875,8801.619140625,3461.043212890625,12324.650390625,5886.5546875,24385.453125,4456.04345703125,19102.095703125,3728.072021484375,10348.1611328125,27435.62109375,22164.185546875,12200.6728515625,-0.0,-43745.0390625,20368.099609375,5858.7392578125,0.0,7090.568359375,0.0,0.0
16549.4296875,16277.6318359375,34983.953125,11943.9765625,28991.69921875,7448.9912109375,8842.9453125,9993.712890625,9942.0546875,6631.21533203125,18141.26953125,-394.1853942871094,9281.6357421875,0.0,23384.888671875,8240.5400390625,25719.0078125,20904.541015625,10412.5341796875,12528.896484375,23858.546875,30270.41796875,24270.216796875,20547.708984375,22091.865234375,8165.0419921875,29892.126953125,1353.4227294921875,0.0,2106.82568359375,14639.6953125,7472.8330078125,26770.43359375,17007.986328125,16119.48046875,25804.04296875,10056.49609375,15041.828125,9963.5126953125,4885.19677734375,23587.544921875,10031.064453125,17910.798828125,12369.15625,9764.03515625,12962.0234375,12272.1982421875,2860.228271484375,11151.6318359375,4129.40966796875,17659.6640625,7119.9736328125,8800.82421875,3461.043212890625,12309.55078125,5872.24951171875,24396.578125,4459.22216796875,19096.533203125,3718.53515625,10348.9560546875,27431.646484375,22160.2109375,12194.3154296875,-0.0,-43744.24609375,20366.509765625,5850.7919921875,0.0,7085.80029296875,0.0,0.0
16542.27734375,16277.6318359375,34993.48828125,11950.333984375,29001.236328125,7456.9384765625,8835.79296875,9988.1484375,9926.955078125,6625.65234375,18150.01171875,-387.8275451660156,9294.3505859375,0.0,23382.505859375,8239.74609375,25722.98046875,20912.48828125,10411.7392578125,12520.94921875,23864.904296875,30275.1875,24271.01171875,20550.091796875,22102.197265625,8168.220703125,29899.279296875,1355.0123291015625,0.0,2106.82568359375,14646.0537109375,7475.21728515625,26775.201171875,17010.37109375,16126.6328125,25811.1953125,10054.111328125,15038.6494140625,9965.1025390625,4891.55419921875,23593.90234375,10035.83203125,17910.798828125,12366.771484375,9758.47265625,12957.2548828125,12283.3251953125,2865.791259765625,11166.7314453125,4133.38330078125,17647.744140625,7108.84716796875,8806.3876953125,3465.8115234375,12319.8828125,5875.4287109375,24406.91015625,4465.580078125,19086.203125,3711.382568359375,10351.33984375,27432.44140625,22157.828125,12187.1630859375,-0.0,-43743.44921875,20363.330078125,5842.8447265625,0.0,7081.03173828125,0.0,0.0
16540.685546875,16277.6318359375,35002.23046875,11956.69140625,29009.9765625,7468.06494140625,8846.1240234375,9997.685546875,9924.5712890625,6629.6259765625,18163.5234375,-389.4170227050781,9298.32421875,0.0,23386.478515625,8248.48828125,25731.72265625,20922.818359375,10418.09765625,12524.9228515625,23876.03125,30284.72265625,24279.751953125,20559.62890625,22110.939453125,8179.34716796875,29914.37890625,1361.3701171875,0.0,2109.209716796875,14655.58984375,7480.7802734375,26784.73828125,17017.5234375,16136.169921875,25820.732421875,10062.853515625,15046.5966796875,9975.43359375,4898.70703125,23603.439453125,10044.5751953125,17923.513671875,12376.30859375,9764.03515625,12964.408203125,12297.6298828125,2872.149169921875,11176.2685546875,4138.9462890625,17657.279296875,7117.58935546875,8816.71875,3469.784912109375,12328.625,5879.40234375,24406.115234375,4471.9375,19090.17578125,3716.15087890625,10356.9033203125,27442.7734375,22164.185546875,12189.5478515625,-0.0,-43737.88671875,20362.53515625,5846.818359375,0.0,7081.03173828125,0.0,0.0
16542.27734375,16268.888671875,34993.48828125,11945.5654296875,29002.82421875,7454.55419921875,8846.1240234375,9996.0966796875,9923.775390625,6632.009765625,18152.39453125,-387.0328369140625,9287.9931640625,0.0,23384.888671875,8250.873046875,25724.568359375,20917.2578125,10418.09765625,12528.896484375,23870.46875,30277.5703125,24276.57421875,20555.654296875,22096.634765625,8167.42626953125,29908.814453125,1357.396484375,0.0,2103.646484375,14650.02734375,7474.42236328125,26777.5859375,17011.166015625,16131.4013671875,25812.78515625,10062.853515625,15045.0068359375,9966.69140625,4895.5283203125,23593.90234375,10031.064453125,17919.541015625,12372.3349609375,9763.2412109375,12966.7919921875,12288.8876953125,2857.04931640625,11158.7841796875,4127.8203125,17659.6640625,7121.56298828125,8804.00390625,3460.248291015625,12317.498046875,5889.73388671875,24398.962890625,4468.75927734375,19092.560546875,3718.53515625,10352.9287109375,27440.388671875,22165.775390625,12195.1103515625,-0.0,-43734.7109375,20361.7421875,5842.8447265625,0.0,7079.4423828125,0.0,0.0
16548.6328125,16267.2998046875,34990.3125,11947.94921875,28999.646484375,7448.9912109375,8844.53515625,9997.685546875,9920.5966796875,6633.599609375,18144.44921875,-391.0064697265625,9285.609375,0.0,23385.68359375,8253.2568359375,25724.568359375,20917.2578125,10416.5078125,12531.2802734375,23867.2890625,30278.36328125,24274.19140625,20554.861328125,22087.892578125,8169.01513671875,29906.431640625,1355.0123291015625,0.0,2107.6201171875,14649.2314453125,7472.0380859375,26774.40625,17011.166015625,16129.8125,25811.990234375,10062.853515625,15047.390625,9959.5380859375,4899.501953125,23589.134765625,10031.859375,17917.15625,12372.3349609375,9763.2412109375,12967.5869140625,12281.7353515625,2859.433349609375,11149.2470703125,4130.20458984375,17658.076171875,7123.15234375,8793.671875,3469.784912109375,12311.140625,5890.5283203125,24398.16796875,4464.78515625,19094.1484375,3719.329833984375,10346.572265625,27439.59375,22168.16015625,12194.3154296875,-0.0,-43744.24609375,20363.330078125,5840.46044921875,0.0,7074.67431640625,0.0,0.0
16551.8125,16262.53125,34991.90234375,11947.94921875,29002.82421875,7449.78564453125,8845.3291015625,10000.865234375,9919.0068359375,6632.8046875,18147.626953125,-406.1063232421875,9289.58203125,0.0,23388.06640625,8243.7197265625,25724.568359375,20918.05078125,10418.09765625,12532.8701171875,23868.083984375,30279.955078125,24274.984375,20555.654296875,22093.455078125,8168.220703125,29912.791015625,1355.8070068359375,0.0,2098.878173828125,14649.2314453125,7472.0380859375,26775.99609375,17010.37109375,16132.990234375,25814.375,10062.853515625,15048.98046875,9957.154296875,4896.32275390625,23593.107421875,10034.2431640625,17920.3359375,12371.5400390625,9764.03515625,12969.1767578125,12284.9150390625,2859.433349609375,11158.7841796875,4123.05224609375,17662.048828125,7122.35791015625,8792.0830078125,3471.37451171875,12319.8828125,5879.40234375,24400.552734375,4452.8642578125,19094.1484375,3721.714111328125,10344.1875,27441.18359375,22168.955078125,12192.7265625,-0.0,-43756.16796875,20360.150390625,5843.63916015625,0.0,7077.05810546875,0.0,0.0
16555.78515625,16256.173828125,34995.87109375,11941.591796875,29006.00390625,7454.55419921875,8849.3037109375,10005.6337890625,9926.16015625,6639.16259765625,18143.654296875,-403.7221374511719,9285.609375,0.0,23392.04296875,8245.30859375,25725.365234375,20918.845703125,10422.0703125,12543.99609375,23868.083984375,30282.33984375,24274.984375,20558.0390625,22095.044921875,8169.81005859375,29914.37890625,1359.7806396484375,0.0,2099.673095703125,14649.2314453125,7472.8330078125,26776.791015625,17009.576171875,16133.78515625,25817.552734375,10064.4423828125,15052.1591796875,9957.94921875,4891.55419921875,23595.4921875,10035.0380859375,17921.923828125,12374.71875,9764.03515625,12973.9443359375,12288.8876953125,2851.486328125,11157.1953125,4123.05224609375,17663.63671875,7124.7421875,8796.0556640625,3452.301025390625,12317.498046875,5874.6337890625,24399.7578125,4456.837890625,19100.5078125,3725.687744140625,10346.572265625,27444.36328125,22173.72265625,12207.03125,-0.0,-43758.55078125,20363.330078125,5842.8447265625,0.0,7082.62109375,0.0,0.0
16551.017578125,16252.994140625,34992.6953125,11936.82421875,29003.62109375,7452.169921875,8846.1240234375,10002.4541015625,9928.5439453125,6637.5732421875,18136.501953125,-400.543212890625,9284.8134765625,0.0,23391.24609375,8242.1298828125,25722.185546875,20914.873046875,10419.6865234375,12547.17578125,23865.69921875,30275.98046875,24268.626953125,20554.06640625,22093.455078125,8161.8623046875,29908.021484375,1355.0123291015625,0.0,2094.10986328125,14645.2587890625,7469.654296875,26772.021484375,17003.216796875,16128.2216796875,25813.580078125,10062.05859375,15047.390625,9953.181640625,4880.42822265625,23592.314453125,10024.70703125,17919.541015625,12372.3349609375,9760.8564453125,12969.970703125,12281.7353515625,2840.35986328125,11152.4267578125,4120.66796875,17662.048828125,7122.35791015625,8796.8515625,3439.58544921875,12313.525390625,5864.30224609375,24400.552734375,4457.63232421875,19102.095703125,3723.303466796875,10344.1875,27441.978515625,22172.927734375,12214.18359375,-0.0,-43761.73046875,20366.509765625,5828.53955078125,0.0,7069.90576171875,0.0,0.0
16543.0703125,16257.7626953125,34994.28515625,11947.94921875,29007.59375,7456.9384765625,8846.9189453125,10000.0693359375,9926.955078125,6638.3681640625,18140.474609375,-408.4905090332031,9288.7880859375,0.0,23390.451171875,8243.7197265625,25725.365234375,20916.462890625,10419.6865234375,12546.3798828125,23868.083984375,30278.36328125,24269.421875,20556.44921875,22099.017578125,8170.6044921875,29912.791015625,1352.6280517578125,0.0,2103.646484375,14646.84765625,7472.8330078125,26776.791015625,17007.193359375,16130.60546875,25814.375,10061.263671875,15046.5966796875,9959.5380859375,4885.99169921875,23596.287109375,10031.859375,17921.923828125,12369.15625,9762.4462890625,12969.970703125,12275.3779296875,2855.4599609375,11157.9892578125,4129.40966796875,17661.25390625,7122.35791015625,8786.51953125,3453.095703125,12319.087890625,5879.40234375,24402.9375,4456.837890625,19103.685546875,3724.09814453125,10347.3662109375,27441.18359375,22173.72265625,12213.3896484375,-0.0,-43764.11328125,20365.71484375,5830.92333984375,0.0,7064.34228515625,0.0,0.0
16547.044921875,16258.55859375,34998.2578125,11947.1552734375,29009.18359375,7451.37548828125,8845.3291015625,9999.275390625,9915.0341796875,6637.5732421875,18147.626953125,-406.9010314941406,9291.171875,0.0,23389.658203125,8245.30859375,25726.16015625,20918.05078125,10418.8916015625,12536.048828125,23868.87890625,30277.5703125,24269.421875,20554.861328125,22107.759765625,8172.98876953125,29914.37890625,1353.4227294921875,0.0,2108.414794921875,14645.2587890625,7476.01171875,26776.791015625,17008.78125,16131.4013671875,25812.78515625,10060.4697265625,15045.8017578125,9969.8701171875,4890.759765625,23598.671875,10032.654296875,17921.923828125,12367.56640625,9760.0625,12971.560546875,12281.7353515625,2862.612548828125,11160.3740234375,4131.7939453125,17661.25390625,7120.76806640625,8780.162109375,3457.864013671875,12327.03515625,5890.5283203125,24402.9375,4460.0166015625,19098.91796875,3725.687744140625,10349.7509765625,27440.388671875,22172.1328125,12182.39453125,-0.0,-43753.78515625,20363.330078125,5842.8447265625,0.0,7073.87939453125,0.0,0.0
16547.044921875,16254.5830078125,34993.48828125,11939.2080078125,29002.82421875,7443.42822265625,8840.560546875,9997.685546875,9903.908203125,6633.599609375,18142.064453125,-398.1590270996094,9284.8134765625,0.0,23384.09375,8245.30859375,25722.185546875,20910.8984375,10414.123046875,12526.51171875,23864.111328125,30270.41796875,24265.447265625,20550.091796875,22100.607421875,8163.4521484375,29907.2265625,1352.6280517578125,0.0,2100.4677734375,14641.28515625,7471.2431640625,26772.021484375,17004.013671875,16125.0439453125,25806.427734375,10056.49609375,15041.828125,9953.181640625,4887.5810546875,23593.90234375,10023.9111328125,17917.15625,12363.5927734375,9756.087890625,12968.380859375,12285.708984375,2857.04931640625,11152.4267578125,4130.20458984375,17653.306640625,7118.3837890625,8777.77734375,3451.50634765625,12315.9091796875,5882.5810546875,24398.16796875,4457.63232421875,19089.380859375,3724.892822265625,10347.3662109375,27435.62109375,22165.775390625,12167.294921875,-0.0,-43746.6328125,20360.947265625,5853.97119140625,0.0,7081.82666015625,0.0,0.0
16554.990234375,16261.736328125,34999.84765625,11949.5390625,29008.388671875,7455.34912109375,8844.53515625,10004.0439453125,9909.470703125,6638.3681640625,18146.037109375,-391.0064697265625,9285.609375,0.0,23382.505859375,8253.2568359375,25730.1328125,20914.078125,10418.09765625,12530.486328125,23870.46875,30280.748046875,24271.806640625,20557.24609375,22103.787109375,8175.373046875,29909.611328125,1359.7806396484375,0.0,2111.593994140625,14646.0537109375,7477.6015625,26778.37890625,17011.166015625,16129.8125,25815.16796875,10061.263671875,15047.390625,9963.5126953125,4896.32275390625,23598.671875,10035.83203125,17921.923828125,12373.1298828125,9759.2666015625,12973.9443359375,12291.2724609375,2865.791259765625,11157.1953125,4137.357421875,17656.484375,7125.53662109375,8781.7509765625,3458.658935546875,12307.1669921875,5882.5810546875,24396.578125,4460.8115234375,19086.99609375,3731.250732421875,10354.5185546875,27438.798828125,22170.54296875,12177.626953125,-0.0,-43744.24609375,20359.357421875,5857.9443359375,0.0,7083.416015625,0.0,0.0
16556.58203125,16264.9150390625,35007.0,11955.8974609375,29018.720703125,7462.50146484375,8849.3037109375,10007.22265625,9919.802734375,6641.546875,18153.986328125,-387.0328369140625,9290.3779296875,0.0,23386.478515625,8252.4619140625,25735.697265625,20918.845703125,10421.2763671875,12536.048828125,23878.416015625,30286.3125,24279.751953125,20561.21875,22122.064453125,8181.7314453125,29916.763671875,1365.34375,0.0,2116.3623046875,14652.4111328125,7481.5751953125,26786.328125,17018.318359375,16136.96484375,25820.732421875,10066.0322265625,15052.1591796875,9952.3857421875,4889.96484375,23609.00390625,10044.5751953125,17929.078125,12380.2822265625,9766.4189453125,12977.123046875,12300.80859375,2864.99658203125,11172.294921875,4144.509765625,17662.048828125,7128.71533203125,8791.287109375,3465.8115234375,12315.1142578125,5890.5283203125,24398.962890625,4467.16943359375,19094.1484375,3733.635009765625,10358.4931640625,27445.158203125,22175.3125,12179.2158203125,-0.0,-43736.296875,20362.53515625,5844.43408203125,0.0,7075.46875,0.0,0.0
16554.197265625,16256.9677734375,35000.640625,11953.5126953125,29013.953125,7458.52783203125,8850.09765625,10005.6337890625,9926.955078125,6643.93115234375,18146.833984375,-398.9537658691406,9288.7880859375,0.0,23388.86328125,8253.2568359375,25731.72265625,20915.666015625,10421.2763671875,12536.84375,23873.6484375,30284.72265625,24278.1640625,20560.423828125,22108.5546875,8176.16748046875,29915.96875,1364.549072265625,0.0,2092.5205078125,14648.4375,7476.806640625,26781.55859375,17016.728515625,16132.990234375,25817.552734375,10064.4423828125,15051.365234375,9948.4130859375,4893.9384765625,23602.64453125,10043.7802734375,17928.28125,12377.1025390625,9768.8037109375,12977.91796875,12292.0673828125,2867.380859375,11165.9365234375,4138.9462890625,17665.228515625,7129.51025390625,8792.0830078125,3461.837890625,12296.8359375,5879.40234375,24400.552734375,4463.99072265625,19098.91796875,3736.813720703125,10351.33984375,27443.56640625,22176.900390625,12186.3681640625,-0.0,-43744.24609375,20363.330078125,5853.17626953125,0.0,7080.23681640625,0.0,0.0
16554.990234375,16255.37890625,35002.23046875,11948.7451171875,29020.30859375,7454.55419921875,8854.8662109375,10005.6337890625,9938.0810546875,6641.546875,18152.39453125,-399.74847412109375,9295.9404296875,0.0,23395.220703125,8253.2568359375,25730.927734375,20914.873046875,10423.66015625,12541.611328125,23875.236328125,30282.33984375,24281.34375,20557.24609375,22120.4765625,8178.5517578125,29919.1484375,1365.34375,0.0,2104.44140625,14650.02734375,7476.01171875,26782.353515625,17014.345703125,16135.3740234375,25812.78515625,10065.23828125,15051.365234375,9958.744140625,4900.296875,23607.412109375,10034.2431640625,17931.4609375,12374.71875,9774.3671875,12977.123046875,12293.65625,2869.76513671875,11174.6787109375,4137.357421875,17672.380859375,7130.3046875,8792.876953125,3465.0166015625,12315.9091796875,5886.5546875,24406.91015625,4460.0166015625,19103.685546875,3729.6611328125,10347.3662109375,27443.56640625,22177.6953125,12193.5205078125,-0.0,-43749.015625,20360.150390625,5847.61279296875,0.0,7079.4423828125,0.0,0.0
16551.8125,16249.8154296875,34997.46484375,11943.1806640625,29015.541015625,7453.759765625,8855.66015625,10003.2490234375,9940.46484375,6637.5732421875,18157.1640625,-398.9537658691406,9290.3779296875,0.0,23395.220703125,8252.4619140625,25726.953125,20914.078125,10420.4814453125,12541.611328125,23872.056640625,30279.955078125,24281.34375,20555.654296875,22115.70703125,8171.39892578125,29919.1484375,1365.34375,0.0,2110.799072265625,14645.2587890625,7471.2431640625,26778.37890625,17008.78125,16133.78515625,25812.78515625,10063.6484375,15048.98046875,9961.9228515625,4893.9384765625,23605.02734375,10028.6796875,17929.873046875,12375.513671875,9775.9560546875,12977.123046875,12292.0673828125,2861.02294921875,11171.5,4134.97314453125,17670.7890625,7131.099609375,8792.876953125,3462.63232421875,12333.3935546875,5891.3232421875,24405.3203125,4454.4541015625,19104.48046875,3728.072021484375,10345.7763671875,27440.388671875,22176.900390625,12196.7001953125,-0.0,-43752.1953125,20349.8203125,5838.076171875,0.0,7062.75341796875,0.0,0.0
16560.5546875,16256.173828125,34993.48828125,11950.333984375,29009.9765625,7468.06494140625,8860.4287109375,10009.6064453125,9947.6171875,6643.93115234375,18143.654296875,-399.74847412109375,9276.8671875,0.0,23398.3984375,8252.4619140625,25733.3125,20922.025390625,10426.8388671875,12549.5595703125,23875.236328125,30287.107421875,24285.31640625,20563.6015625,22094.25,8172.1943359375,29921.53125,1374.0858154296875,0.0,2098.08349609375,14650.8212890625,7476.806640625,26780.763671875,17016.728515625,16135.3740234375,25821.52734375,10068.4169921875,15057.72265625,9967.486328125,4893.14404296875,23599.466796875,10046.1640625,17930.666015625,12385.05078125,9780.724609375,12981.09765625,12281.7353515625,2863.4072265625,11158.7841796875,4142.919921875,17673.96875,7135.0732421875,8804.00390625,3459.45361328125,12318.2939453125,5888.93896484375,24404.525390625,4461.6064453125,19110.837890625,3734.4296875,10355.3134765625,27449.130859375,22182.46484375,12205.44140625,-0.0,-43745.0390625,20364.126953125,5850.7919921875,0.0,7069.11083984375,0.0,0.0
16567.70703125,16266.50390625,35003.82421875,11960.666015625,29020.30859375,7479.19091796875,8869.9658203125,10015.96484375,9947.6171875,6651.08349609375,18153.19140625,-402.1326599121094,9295.1455078125,0.0,23405.552734375,8259.6142578125,25744.4375,20930.767578125,10434.787109375,12550.353515625,23883.978515625,30298.232421875,24298.033203125,20573.138671875,22104.58203125,8171.39892578125,29937.42578125,1377.2646484375,0.0,2098.878173828125,14665.126953125,7488.7275390625,26791.890625,17027.05859375,16147.294921875,25832.65234375,10078.748046875,15064.8759765625,9978.6123046875,4896.32275390625,23609.796875,10053.3173828125,17942.5859375,12392.203125,9787.0830078125,12986.66015625,12292.0673828125,2874.533447265625,11175.4736328125,4142.919921875,17683.505859375,7143.0205078125,8813.5400390625,3461.837890625,12323.8564453125,5892.1181640625,24411.677734375,4468.75927734375,19113.22265625,3739.992919921875,10361.671875,27456.283203125,22188.822265625,12199.87890625,-0.0,-43741.06640625,20370.484375,5867.4814453125,0.0,7085.00537109375,0.0,0.0
16567.70703125,16269.68359375,35006.20703125,11958.28125,29017.130859375,7472.0380859375,8866.787109375,10014.375,9950.796875,6649.494140625,18157.958984375,-380.67498779296875,9295.1455078125,0.0,23402.373046875,8265.177734375,25742.849609375,20923.615234375,10433.9912109375,12549.5595703125,23883.18359375,30297.4375,24298.033203125,20569.166015625,22104.58203125,8175.373046875,29934.248046875,1374.8804931640625,0.0,2115.5673828125,14664.33203125,7489.5224609375,26791.095703125,17027.85546875,16145.7060546875,25827.884765625,10077.1591796875,15060.107421875,9975.43359375,4907.44921875,23608.20703125,10042.1904296875,17940.998046875,12386.6396484375,9788.6728515625,12988.25,12295.24609375,2874.533447265625,11165.9365234375,4144.509765625,17682.7109375,7143.0205078125,8814.3349609375,3465.0166015625,12327.03515625,5911.98583984375,24407.705078125,4474.32177734375,19110.837890625,3744.76123046875,10362.4658203125,27454.6953125,22188.029296875,12195.904296875,-0.0,-43724.375,20368.89453125,5873.04443359375,0.0,7085.80029296875,0.0,0.0
16556.58203125,16259.3515625,34994.28515625,11953.5126953125,29004.416015625,7467.27001953125,8858.83984375,10009.6064453125,9953.181640625,6644.7255859375,18138.08984375,-391.80120849609375,9294.3505859375,0.0,23396.015625,8266.7666015625,25734.10546875,20914.873046875,10428.4287109375,12546.3798828125,23872.8515625,30289.4921875,24289.2890625,20562.806640625,22091.865234375,8182.525390625,29908.814453125,1374.8804931640625,0.0,2100.4677734375,14655.58984375,7476.806640625,26782.353515625,17021.498046875,16136.169921875,25820.732421875,10068.4169921875,15055.3388671875,9964.306640625,4904.27001953125,23595.4921875,10044.5751953125,17929.873046875,12379.4873046875,9783.1083984375,12982.6865234375,12280.146484375,2864.201904296875,11146.86328125,4147.6884765625,17671.5859375,7142.2255859375,8799.2353515625,3453.890625,12317.498046875,5893.70703125,24402.140625,4472.732421875,19109.25,3737.608642578125,10352.134765625,27446.74609375,22182.46484375,12195.1103515625,-0.0,-43733.12109375,20368.099609375,5855.560546875,0.0,7077.05810546875,0.0,0.0
16554.990234375,16262.53125,34999.84765625,11958.28125,29009.18359375,7464.0908203125,8862.8134765625,10017.5546875,9957.94921875,6646.31494140625,18136.501953125,-388.6222839355469,9303.8876953125,0.0,23399.1953125,8278.6875,25739.669921875,20919.640625,10432.40234375,12546.3798828125,23876.826171875,30294.259765625,24294.853515625,20566.78125,22099.017578125,8195.2412109375,29908.814453125,1385.2119140625,0.0,2104.44140625,14657.974609375,7480.7802734375,26785.53125,17026.265625,16139.3486328125,25824.705078125,10072.390625,15060.9013671875,9965.896484375,4910.6279296875,23599.466796875,10045.369140625,17931.4609375,12384.255859375,9787.876953125,12986.66015625,12276.1728515625,2869.76513671875,11157.1953125,4155.6357421875,17675.55859375,7151.7626953125,8789.6982421875,3459.45361328125,12317.498046875,5895.29638671875,24405.3203125,4483.8583984375,19114.017578125,3741.582275390625,10355.3134765625,27453.8984375,22185.64453125,12199.87890625,-0.0,-43727.55859375,20363.330078125,5841.25537109375,0.0,7076.263671875,0.0,0.0
16570.091796875,16273.6572265625,35014.9453125,11973.380859375,29022.693359375,7468.06494140625,8877.1181640625,10029.4755859375,9969.8701171875,6662.2099609375,18155.57421875,-382.26446533203125,9310.2451171875,0.0,23406.34765625,8287.4296875,25753.1796875,20932.35546875,10444.3232421875,12558.30078125,23892.720703125,30307.76953125,24309.953125,20579.49609375,22118.091796875,8211.1357421875,29926.30078125,1396.338134765625,0.0,2124.3095703125,14673.07421875,7495.8798828125,26799.04296875,17041.365234375,16153.654296875,25836.626953125,10085.10546875,15073.6171875,9981.791015625,4923.34375,23614.564453125,10060.4697265625,17945.765625,12396.9716796875,9801.3876953125,13001.759765625,12295.24609375,2885.659423828125,11173.0888671875,4164.3779296875,17686.685546875,7162.88916015625,8804.00390625,3475.34814453125,12328.625,5914.3701171875,24410.8828125,4488.626953125,19121.169921875,3759.06640625,10369.6181640625,27465.8203125,22197.564453125,12211.0048828125,-0.0,-43718.01953125,20370.484375,5865.89208984375,0.0,7100.10546875,0.0,0.0
16567.70703125,16268.888671875,35013.359375,11969.4072265625,29018.720703125,7472.8330078125,8873.939453125,10027.0908203125,9980.2021484375,6664.59423828125,18141.26953125,-384.6486511230469,9296.734375,0.0,23403.962890625,8281.8671875,25748.412109375,20929.97265625,10445.1181640625,12560.685546875,23887.953125,30304.58984375,24313.130859375,20580.291015625,22111.734375,8198.4208984375,29927.095703125,1393.1593017578125,0.0,2116.3623046875,14669.8955078125,7492.701171875,26796.66015625,17036.595703125,16152.0634765625,25835.83203125,10084.3115234375,15073.6171875,9976.2275390625,4914.6015625,23612.181640625,10056.49609375,17942.5859375,12399.35546875,9803.771484375,13001.759765625,12288.8876953125,2879.3017578125,11171.5,4157.22509765625,17685.095703125,7162.09423828125,8800.82421875,3473.7587890625,12316.7041015625,5906.4228515625,24408.498046875,4467.16943359375,19117.197265625,3759.06640625,10364.849609375,27465.025390625,22198.359375,12214.18359375,-0.0,-43728.3515625,20375.251953125,5872.24951171875,0.0,7112.0263671875,0.0,0.0
16571.6796875,16268.888671875,35014.9453125,11972.5869140625,29021.8984375,7485.54833984375,8877.1181640625,10034.2431640625,9990.533203125,6666.18359375,18146.833984375,-387.8275451660156,9287.9931640625,0.0,23405.552734375,8284.2509765625,25750.001953125,20934.740234375,10449.88671875,12561.48046875,23888.74609375,30308.564453125,24317.900390625,20587.443359375,22114.119140625,8206.3671875,29929.48046875,1399.51708984375,0.0,2121.130615234375,14673.07421875,7494.291015625,26798.248046875,17039.775390625,16153.654296875,25839.8046875,10086.6953125,15079.9755859375,9980.2021484375,4913.80712890625,23616.15625,10064.4423828125,17945.765625,12408.892578125,9809.3349609375,13004.1435546875,12292.0673828125,2884.86474609375,11174.6787109375,4166.76171875,17686.685546875,7170.04150390625,8804.7978515625,3478.527099609375,12317.498046875,5908.01220703125,24409.294921875,4464.78515625,19117.197265625,3762.2451171875,10362.4658203125,27468.205078125,22202.333984375,12218.158203125,-0.0,-43731.52734375,20371.279296875,5873.8388671875,0.0,7109.64208984375,0.0,0.0
16566.912109375,16268.888671875,35011.76953125,11972.5869140625,29025.873046875,7491.11181640625,8877.9130859375,10034.2431640625,9992.9169921875,6663.00439453125,18150.01171875,-387.8275451660156,9287.9931640625,0.0,23404.755859375,8285.0458984375,25750.794921875,20933.947265625,10449.88671875,12557.5068359375,23889.541015625,30309.359375,24319.490234375,20587.443359375,22114.119140625,8207.95703125,29929.48046875,1398.7222900390625,0.0,2121.92529296875,14672.279296875,7492.701171875,26798.248046875,17037.392578125,16152.8583984375,25841.39453125,10085.900390625,15077.5908203125,9978.6123046875,4916.98583984375,23620.12890625,10066.8271484375,17946.5625,12413.6611328125,9809.3349609375,13003.349609375,12290.4775390625,2884.86474609375,11181.8310546875,4170.73583984375,17687.478515625,7169.24658203125,8800.82421875,3478.527099609375,12320.677734375,5906.4228515625,24408.498046875,4467.16943359375,19116.40234375,3756.68212890625,10360.876953125,27468.205078125,22201.5390625,12213.3896484375,-0.0,-43731.52734375,20368.89453125,5870.66015625,0.0,7108.052734375,0.0,0.0
16564.52734375,16269.68359375,35008.58984375,11968.6123046875,29019.513671875,7485.54833984375,8875.529296875,10031.064453125,9990.533203125,6657.44140625,18154.779296875,-382.26446533203125,9290.3779296875,0.0,23405.552734375,8293.7880859375,25746.822265625,20929.97265625,10445.912109375,12554.328125,23885.568359375,30306.181640625,24314.72265625,20581.880859375,22114.119140625,8201.599609375,29928.68359375,1396.338134765625,0.0,2113.183349609375,14667.5107421875,7489.5224609375,26793.48046875,17031.828125,16148.0908203125,25837.421875,10082.7216796875,15072.822265625,9973.84375,4913.01220703125,23610.591796875,10059.673828125,17941.79296875,12406.5087890625,9807.74609375,12999.375,12289.68359375,2875.328125,11173.0888671875,4168.3515625,17686.685546875,7167.6572265625,8801.619140625,3477.732421875,12324.650390625,5910.396484375,24410.8828125,4476.7060546875,19117.197265625,3751.913818359375,10364.849609375,27465.025390625,22199.154296875,12208.62109375,-0.0,-43734.7109375,20373.662109375,5845.228515625,0.0,7092.15771484375,0.0,0.0
16564.52734375,16259.3515625,35005.41015625,11962.2548828125,29013.953125,7476.806640625,8873.1455078125,10030.26953125,9992.9169921875,6659.03076171875,18157.1640625,-388.6222839355469,9292.76171875,0.0,23405.552734375,8286.6357421875,25742.849609375,20927.587890625,10444.3232421875,12559.0966796875,23883.18359375,30303.001953125,24312.337890625,20581.087890625,22110.939453125,8191.26806640625,29927.095703125,1389.9803466796875,0.0,2104.44140625,14665.126953125,7485.54833984375,26790.30078125,17027.85546875,16145.7060546875,25834.2421875,10080.337890625,15072.0283203125,9972.2548828125,4907.44921875,23602.64453125,10058.0849609375,17939.41015625,12401.740234375,9807.74609375,13000.1708984375,12294.4521484375,2869.76513671875,11165.1416015625,4158.81494140625,17685.095703125,7162.88916015625,8800.029296875,3469.784912109375,12330.21484375,5900.85986328125,24409.294921875,4475.91162109375,19121.169921875,3757.476806640625,10362.4658203125,27462.640625,22198.359375,12212.59375,-0.0,-43738.68359375,20376.83984375,5861.91796875,0.0,7085.80029296875,0.0,0.0
16562.939453125,16254.5830078125,35010.17578125,11965.43359375,29020.30859375,7472.8330078125,8871.5556640625,10026.2958984375,9993.712890625,6661.4150390625,18150.01171875,-394.1853942871094,9283.224609375,0.0,23405.552734375,8269.9462890625,25743.642578125,20926.794921875,10444.3232421875,12563.0693359375,23886.361328125,30300.6171875,24311.54296875,20579.49609375,22115.70703125,8192.0625,29924.7109375,1387.59619140625,0.0,2110.00439453125,14665.9208984375,7483.958984375,26793.48046875,17027.05859375,16146.501953125,25832.65234375,10079.54296875,15070.4384765625,9973.048828125,4908.24365234375,23608.20703125,10058.0849609375,17940.203125,12398.560546875,9805.361328125,12995.40234375,12297.6298828125,2871.354248046875,11166.7314453125,4159.609375,17682.7109375,7153.35205078125,8797.6455078125,3469.784912109375,12331.8037109375,5897.6806640625,24404.525390625,4474.32177734375,19120.375,3756.68212890625,10359.287109375,27461.052734375,22197.564453125,12222.130859375,-0.0,-43737.88671875,20372.8671875,5879.40234375,0.0,7092.95263671875,0.0,0.0
16556.58203125,16256.173828125,35013.359375,11967.818359375,29029.05078125,7472.8330078125,8876.3232421875,10023.9111328125,9996.0966796875,6663.00439453125,18145.2421875,-396.569580078125,9286.4033203125,0.0,23411.908203125,8266.7666015625,25743.642578125,20929.97265625,10444.3232421875,12566.2490234375,23890.337890625,30300.6171875,24313.92578125,20578.703125,22132.396484375,8195.2412109375,29935.8359375,1386.8013916015625,0.0,2108.414794921875,14665.126953125,7480.7802734375,26795.86328125,17026.265625,16150.474609375,25834.2421875,10081.927734375,15070.4384765625,9970.6650390625,4907.44921875,23615.359375,10057.2900390625,17946.5625,12399.35546875,9807.74609375,12994.607421875,12298.4248046875,2871.354248046875,11175.4736328125,4158.81494140625,17688.2734375,7150.96826171875,8792.876953125,3464.221923828125,12334.1875,5898.4755859375,24409.294921875,4473.52734375,19124.349609375,3756.68212890625,10356.1083984375,27463.435546875,22198.359375,12230.0791015625,-0.0,-43739.48046875,20373.662109375,5877.81298828125,0.0,7096.1318359375,0.0,0.0
16553.40234375,16259.3515625,35014.9453125,11965.43359375,29034.615234375,7472.8330078125,8880.2978515625,10023.1171875,9992.123046875,6662.2099609375,18134.912109375,-386.23809814453125,9297.5302734375,0.0,23415.884765625,8271.53515625,25743.642578125,20926.794921875,10441.939453125,12563.0693359375,23889.541015625,30301.412109375,24313.130859375,20577.111328125,22136.369140625,8190.47265625,29947.7578125,1378.8541259765625,0.0,2104.44140625,14665.9208984375,7479.19091796875,26794.275390625,17026.265625,16152.8583984375,25832.65234375,10081.927734375,15070.4384765625,9969.0751953125,4903.47509765625,23616.15625,10050.9326171875,17952.123046875,12397.765625,9806.15625,12993.0185546875,12295.24609375,2871.354248046875,11180.2412109375,4151.662109375,17691.453125,7151.7626953125,8783.3408203125,3465.8115234375,12327.830078125,5901.65478515625,24416.447265625,4472.732421875,19125.9375,3755.88720703125,10356.9033203125,27465.8203125,22198.359375,12217.3623046875,-0.0,-43739.48046875,20375.251953125,5869.865234375,0.0,7095.3369140625,0.0,0.0
16551.017578125,16257.7626953125,35016.53515625,11966.228515625,29025.078125,7472.8330078125,8875.529296875,10020.732421875,9985.7646484375,6657.44140625,18153.19140625,-385.443359375,9301.5029296875,0.0,23411.115234375,8271.53515625,25742.0546875,20923.615234375,10437.9658203125,12558.30078125,23888.74609375,30299.822265625,24306.7734375,20573.93359375,22127.62890625,8191.26806640625,29939.015625,1379.6488037109375,0.0,2095.69921875,14665.126953125,7479.19091796875,26793.48046875,17026.265625,16149.6787109375,25829.47265625,10076.36328125,15068.0546875,9970.6650390625,4901.8857421875,23614.564453125,10054.111328125,17945.765625,12394.587890625,9799.7978515625,12989.8388671875,12302.3984375,2872.94384765625,11177.857421875,4150.86767578125,17685.890625,7149.37841796875,8784.134765625,3460.248291015625,12343.724609375,5893.70703125,24414.0625,4468.75927734375,19123.5546875,3752.70849609375,10355.3134765625,27460.255859375,22192.796875,12211.0048828125,-0.0,-43739.48046875,20369.6875,5866.6865234375,0.0,7089.7734375,0.0,0.0
16536.712890625,16241.869140625,34997.46484375,11955.8974609375,29007.59375,7457.7333984375,8861.224609375,10011.1962890625,9978.6123046875,6652.67333984375,18140.474609375,-413.2588806152344,9296.734375,0.0,23403.962890625,8259.6142578125,25729.337890625,20912.48828125,10428.4287109375,12558.30078125,23873.6484375,30287.900390625,24292.46875,20560.423828125,22106.169921875,8181.7314453125,29913.583984375,1366.9332275390625,0.0,2082.18896484375,14651.6162109375,7466.47509765625,26779.17578125,17014.345703125,16136.169921875,25817.552734375,10064.4423828125,15054.5439453125,9957.94921875,4890.759765625,23599.466796875,10043.7802734375,17925.8984375,12382.6669921875,9791.056640625,12981.8916015625,12284.9150390625,2865.791259765625,11164.34765625,4138.15185546875,17673.173828125,7139.841796875,8772.2138671875,3445.1484375,12319.8828125,5881.7861328125,24405.3203125,4450.47998046875,19118.78515625,3747.93994140625,10343.392578125,27448.3359375,22184.052734375,12233.2568359375,-0.0,-43745.8359375,20368.89453125,5861.91796875,0.0,7084.2109375,0.0,0.0
16540.685546875,16245.046875,34992.6953125,11956.69140625,29009.9765625,7456.9384765625,8861.224609375,10014.375,9971.458984375,6658.23583984375,18135.705078125,-404.516845703125,9295.9404296875,0.0,23409.525390625,8259.6142578125,25730.927734375,20917.2578125,10430.8125,12559.0966796875,23871.263671875,30287.900390625,24291.673828125,20562.806640625,22093.455078125,8181.7314453125,29918.3515625,1369.3173828125,0.0,2089.34130859375,14651.6162109375,7468.06494140625,26777.5859375,17015.138671875,16137.7578125,25819.142578125,10067.6220703125,15056.927734375,9959.5380859375,4889.96484375,23596.287109375,10042.1904296875,17927.48828125,12384.255859375,9791.056640625,12985.0703125,12277.7626953125,2861.817626953125,11161.16796875,4136.5625,17676.353515625,7143.8154296875,8781.7509765625,3445.943115234375,12300.0146484375,5900.85986328125,24409.294921875,4452.06982421875,19121.169921875,3751.913818359375,10344.982421875,27449.130859375,22187.232421875,12230.873046875,-0.0,-43741.86328125,20372.072265625,5874.6337890625,0.0,7097.72119140625,0.0,0.0
16541.48046875,16249.8154296875,35001.4375,11955.1015625,29020.30859375,7464.0908203125,8865.9921875,10019.1435546875,9959.5380859375,6659.03076171875,18146.037109375,-396.569580078125,9300.708984375,0.0,23414.29296875,8267.5615234375,25734.90234375,20922.025390625,10433.9912109375,12551.1484375,23880.00390625,30292.669921875,24295.6484375,20570.755859375,22114.119140625,8163.4521484375,29932.658203125,1374.8804931640625,0.0,2085.367919921875,14657.1796875,7472.0380859375,26786.328125,17016.728515625,16144.9111328125,25825.5,10073.1845703125,15062.4912109375,9962.7177734375,4890.759765625,23606.619140625,10042.9853515625,17938.61328125,12390.61328125,9789.466796875,12989.8388671875,12288.09375,2849.10205078125,11176.2685546875,4135.767578125,17682.7109375,7149.37841796875,8782.5458984375,3449.916748046875,12328.625,5902.44921875,24414.857421875,4459.22216796875,19122.759765625,3754.2978515625,10348.1611328125,27455.48828125,22192.001953125,12204.6474609375,-0.0,-43738.68359375,20375.251953125,5880.99169921875,0.0,7099.310546875,0.0,0.0
16538.30078125,16252.994140625,35003.82421875,11957.486328125,29021.10546875,7472.0380859375,8865.9921875,10019.9384765625,9950.796875,6656.646484375,18150.806640625,-405.31158447265625,9292.76171875,0.0,23404.755859375,8272.330078125,25733.3125,20919.640625,10432.40234375,12547.9697265625,23880.80078125,30292.669921875,24292.46875,20572.34375,22116.501953125,8169.01513671875,29931.86328125,1378.059326171875,0.0,2082.983642578125,14656.384765625,7471.2431640625,26785.53125,17015.93359375,16141.7333984375,25827.08984375,10070.0068359375,15063.2861328125,9961.9228515625,4897.11767578125,23606.619140625,10040.6005859375,17936.23046875,12393.7919921875,9783.904296875,12990.6337890625,12291.2724609375,2849.10205078125,11171.5,4147.6884765625,17681.12109375,7150.96826171875,8779.3662109375,3452.301025390625,12335.77734375,5892.1181640625,24395.78515625,4463.19580078125,19117.197265625,3752.70849609375,10347.3662109375,27457.078125,22190.412109375,12201.46875,-0.0,-43746.6328125,20375.251953125,5874.6337890625,0.0,7098.51611328125,0.0,0.0
16538.30078125,16248.2265625,34999.0546875,11956.69140625,29014.74609375,7452.96484375,8863.6083984375,10011.990234375,9934.107421875,6650.2890625,18146.037109375,-403.7221374511719,9284.01953125,0.0,23401.578125,8273.9189453125,25730.927734375,20914.873046875,10426.8388671875,12540.0224609375,23875.236328125,30287.107421875,24286.111328125,20565.19140625,22106.966796875,8180.93603515625,29931.86328125,1370.112060546875,0.0,2087.752197265625,14650.02734375,7467.27001953125,26781.55859375,17011.166015625,16136.96484375,25818.34765625,10066.0322265625,15056.927734375,9957.94921875,4888.3759765625,23599.466796875,10036.6279296875,17933.05078125,12381.0771484375,9776.751953125,12985.0703125,12287.298828125,2849.896728515625,11161.16796875,4145.30419921875,17678.73828125,7146.994140625,8776.1875,3445.943115234375,12325.4462890625,5898.4755859375,24391.015625,4460.0166015625,19108.453125,3746.3505859375,10344.1875,27451.515625,22185.64453125,12194.3154296875,-0.0,-43742.65625,20372.8671875,5867.4814453125,0.0,7096.92626953125,0.0,0.0
16529.560546875,16237.1005859375,34995.078125,11960.666015625,29010.7734375,7447.4013671875,8864.40234375,10011.990234375,9936.4921875,6650.2890625,18138.08984375,-406.1063232421875,9274.482421875,0.0,23405.552734375,8275.5087890625,25727.748046875,20909.30859375,10428.4287109375,12543.201171875,23870.46875,30285.517578125,24282.931640625,20562.013671875,22099.8125,8188.08837890625,29924.7109375,1370.9068603515625,0.0,2092.5205078125,14646.84765625,7460.912109375,26775.99609375,17010.37109375,16134.5810546875,25814.375,10067.6220703125,15055.3388671875,9948.4130859375,4882.8125,23596.287109375,10038.216796875,17931.4609375,12378.6923828125,9778.3408203125,12982.6865234375,12282.53125,2862.612548828125,11150.04296875,4140.53564453125,17684.30078125,7147.7890625,8769.03515625,3441.9697265625,12306.373046875,5904.0390625,24400.552734375,4456.837890625,19112.427734375,3747.93994140625,10340.2138671875,27449.92578125,22185.64453125,12198.2890625,-0.0,-43745.0390625,20373.662109375,5871.45458984375,0.0,7090.568359375,0.0,0.0
16522.408203125,16233.1259765625,34997.46484375,11958.28125,29009.9765625,7456.9384765625,8855.66015625,10013.580078125,9923.775390625,6644.7255859375,18135.705078125,-406.1063232421875,9283.224609375,0.0,23399.1953125,8268.3564453125,25724.568359375,20908.513671875,10424.455078125,12532.8701171875,23868.083984375,30286.3125,24280.548828125,20564.3984375,22105.375,8187.2939453125,29912.791015625,1379.6488037109375,0.0,2086.957275390625,14646.0537109375,7459.322265625,26776.791015625,17011.166015625,16132.990234375,25817.552734375,10062.853515625,15053.7490234375,9945.2333984375,4879.63330078125,23597.08203125,10040.6005859375,17928.28125,12383.4609375,9770.3935546875,12978.712890625,12284.119140625,2864.99658203125,11151.6318359375,4134.17822265625,17669.99609375,7149.37841796875,8772.2138671875,3443.558837890625,12312.7294921875,5899.2705078125,24411.677734375,4453.6591796875,19102.892578125,3747.93994140625,10337.830078125,27448.3359375,22181.669921875,12183.9833984375,-0.0,-43737.09375,20368.89453125,5869.0703125,0.0,7088.97900390625,0.0,0.0
16523.99609375,16235.509765625,34996.66796875,11955.8974609375,29011.568359375,7460.912109375,8845.3291015625,10015.96484375,9909.470703125,6636.7783203125,18136.501953125,-398.1590270996094,9299.119140625,0.0,23393.630859375,8266.7666015625,25726.16015625,20911.693359375,10420.4814453125,12521.744140625,23870.46875,30289.4921875,24277.369140625,20565.986328125,22112.52734375,8183.31982421875,29912.791015625,1378.8541259765625,0.0,2080.599609375,14647.6435546875,7459.322265625,26780.763671875,17011.9609375,16131.4013671875,25818.34765625,10060.4697265625,15054.5439453125,9946.8232421875,4887.5810546875,23599.466796875,10040.6005859375,17923.513671875,12387.4345703125,9762.4462890625,12975.533203125,12283.3251953125,2861.817626953125,11160.3740234375,4135.767578125,17654.896484375,7150.17333984375,8775.3935546875,3452.301025390625,12324.650390625,5888.93896484375,24414.857421875,4455.24853515625,19092.560546875,3747.93994140625,10337.830078125,27447.54296875,22176.107421875,12173.65234375,-0.0,-43732.328125,20355.3828125,5861.12353515625,0.0,7085.00537109375,0.0,0.0
16519.228515625,16229.9482421875,34985.54296875,11953.5126953125,29003.62109375,7443.42822265625,8842.150390625,9998.48046875,9901.5234375,6622.47314453125,18118.22265625,-404.516845703125,9285.609375,0.0,23388.86328125,8258.025390625,25718.212890625,20903.74609375,10410.1494140625,12512.20703125,23862.51953125,30279.16015625,24267.83203125,20554.06640625,22104.58203125,8177.75732421875,29911.19921875,1360.5753173828125,0.0,2071.062744140625,14638.1064453125,7453.759765625,26771.2265625,17004.013671875,16122.66015625,25805.630859375,10050.1376953125,15041.0341796875,9940.46484375,4884.40185546875,23590.72265625,10028.6796875,17916.361328125,12369.15625,9755.2939453125,12963.6123046875,12265.0458984375,2858.638671875,11157.9892578125,4134.17822265625,17654.099609375,7130.3046875,8762.6767578125,3448.327392578125,12314.3193359375,5876.22314453125,24399.7578125,4452.06982421875,19086.99609375,3737.608642578125,10324.3193359375,27438.005859375,22165.775390625,12160.9375,-0.0,-43743.44921875,20349.025390625,5851.5869140625,0.0,7061.95849609375,0.0,0.0
16539.09765625,16233.1259765625,35003.0234375,11971.791015625,29022.693359375,7453.759765625,8860.4287109375,10001.6591796875,9919.0068359375,6635.98388671875,18142.064453125,-391.0064697265625,9299.119140625,0.0,23401.578125,8261.2041015625,25737.28515625,20918.845703125,10424.455078125,12529.6904296875,23880.80078125,30296.64453125,24284.521484375,20564.3984375,22128.423828125,8196.0361328125,29933.453125,1366.9332275390625,0.0,2092.5205078125,14657.1796875,7469.654296875,26790.30078125,17020.703125,16141.7333984375,25821.52734375,10064.4423828125,15049.775390625,9958.744140625,4900.296875,23610.591796875,10045.369140625,17936.23046875,12370.74609375,9769.5986328125,12972.3544921875,12284.9150390625,2876.122802734375,11178.65234375,4153.25146484375,17673.96875,7131.89453125,8777.77734375,3460.248291015625,12331.8037109375,5899.2705078125,24409.294921875,4467.96435546875,19105.275390625,3739.197998046875,10337.830078125,27453.8984375,22179.28515625,12177.626953125,-0.0,-43729.94140625,20367.3046875,5863.5078125,0.0,7072.2900390625,0.0,0.0
16548.6328125,16236.3056640625,35007.79296875,11976.5595703125,29028.2578125,7462.50146484375,8868.376953125,10011.1962890625,9921.3916015625,6642.341796875,18159.546875,-384.6486511230469,9303.8876953125,0.0,23411.115234375,8270.740234375,25744.4375,20925.998046875,10432.40234375,12537.638671875,23887.158203125,30305.384765625,24289.2890625,20569.958984375,22122.859375,8197.625,29948.552734375,1373.291015625,0.0,2107.6201171875,14664.33203125,7476.01171875,26798.248046875,17030.23828125,16148.8857421875,25830.26953125,10071.5947265625,15058.517578125,9969.0751953125,4909.83349609375,23613.771484375,10054.90625,17945.765625,12377.1025390625,9776.751953125,12981.09765625,12298.4248046875,2877.712158203125,11178.65234375,4158.02001953125,17685.095703125,7142.2255859375,8787.314453125,3460.248291015625,12317.498046875,5905.62841796875,24422.8046875,4474.32177734375,19115.60546875,3742.376953125,10349.7509765625,27459.462890625,22188.029296875,12186.3681640625,-0.0,-43728.3515625,20375.251953125,5874.6337890625,0.0,7086.59521484375,0.0,0.0
16541.48046875,16240.2783203125,34995.078125,11968.6123046875,29018.720703125,7459.322265625,8858.83984375,10007.22265625,9907.0859375,6635.98388671875,18150.806640625,-394.9801025390625,9290.3779296875,0.0,23405.552734375,8269.150390625,25742.849609375,20919.640625,10426.044921875,12528.1015625,23880.00390625,30300.6171875,24278.958984375,20564.3984375,22110.14453125,8193.65234375,29935.041015625,1370.9068603515625,0.0,2083.7783203125,14658.7685546875,7469.654296875,26790.30078125,17025.470703125,16139.3486328125,25826.294921875,10064.4423828125,15052.1591796875,9968.28125,4901.09130859375,23602.64453125,10054.90625,17935.43359375,12372.3349609375,9768.0087890625,12974.7392578125,12296.8359375,2866.5859375,11164.34765625,4149.2783203125,17677.1484375,7138.25244140625,8772.2138671875,3445.943115234375,12299.2197265625,5889.73388671875,24414.0625,4467.16943359375,19110.044921875,3739.992919921875,10348.1611328125,27453.8984375,22179.28515625,12178.4208984375,-0.0,-43735.50390625,20370.484375,5872.24951171875,0.0,7077.05810546875,0.0,0.0
16539.09765625,16254.5830078125,35007.79296875,11976.5595703125,29023.48828125,7466.47509765625,8858.044921875,10008.8115234375,9902.318359375,6635.18896484375,18143.654296875,-401.33795166015625,9304.6826171875,0.0,23403.16796875,8266.7666015625,25747.6171875,20923.615234375,10425.25,12524.9228515625,23888.74609375,30306.181640625,24278.1640625,20567.576171875,22133.19140625,8198.4208984375,29920.736328125,1370.9068603515625,0.0,2090.930908203125,14665.9208984375,7471.2431640625,26796.66015625,17031.03515625,16143.322265625,25831.064453125,10066.0322265625,15051.365234375,9965.896484375,4907.44921875,23612.9765625,10056.49609375,17935.43359375,12375.513671875,9765.625,12975.533203125,12303.98828125,2881.68603515625,11175.4736328125,4153.25146484375,17673.173828125,7140.63623046875,8766.6513671875,3457.0693359375,12329.4189453125,5903.244140625,24412.474609375,4457.63232421875,19106.0703125,3736.813720703125,10352.9287109375,27455.48828125,22178.4921875,12171.2685546875,-0.0,-43733.12109375,20368.099609375,5873.04443359375,0.0,7073.87939453125,0.0,0.0
16534.328125,16256.9677734375,35005.41015625,11967.0224609375,29018.720703125,7453.759765625,8853.2763671875,10004.0439453125,9896.7548828125,6629.6259765625,18138.884765625,-408.4905090332031,9296.734375,0.0,23399.98828125,8265.177734375,25742.0546875,20919.640625,10420.4814453125,12523.333984375,23882.388671875,30299.822265625,24273.396484375,20562.013671875,22125.244140625,8184.90966796875,29917.55859375,1367.7279052734375,0.0,2103.646484375,14660.3583984375,7464.8857421875,26790.30078125,17023.0859375,16137.7578125,25823.912109375,10058.8798828125,15046.5966796875,9959.5380859375,4905.06494140625,23609.00390625,10037.421875,17929.873046875,12370.74609375,9760.8564453125,12969.970703125,12290.4775390625,2884.070068359375,11167.5263671875,4144.509765625,17668.40625,7138.25244140625,8766.6513671875,3464.221923828125,12336.5712890625,5901.65478515625,24408.498046875,4452.8642578125,19099.712890625,3735.224365234375,10349.7509765625,27450.720703125,22174.517578125,12167.294921875,-0.0,-43740.2734375,20364.126953125,5857.9443359375,0.0,7069.11083984375,0.0,0.0
16531.1484375,16249.021484375,34998.2578125,11955.8974609375,29010.7734375,7446.60693359375,8850.8916015625,10000.865234375,9898.3447265625,6630.4208984375,18140.474609375,-402.9273986816406,9284.8134765625,0.0,23397.603515625,8260.4091796875,25735.697265625,20917.2578125,10418.09765625,12525.7177734375,23874.44140625,30293.46484375,24267.83203125,20560.423828125,22109.349609375,8175.373046875,29917.55859375,1362.95947265625,0.0,2082.18896484375,14654.7958984375,7460.912109375,26784.73828125,17014.345703125,16130.60546875,25819.9375,10057.2900390625,15042.623046875,9953.9755859375,4894.7333984375,23601.0546875,10029.4755859375,17924.30859375,12366.771484375,9760.8564453125,12966.7919921875,12276.966796875,2864.99658203125,11154.810546875,4134.17822265625,17666.021484375,7135.0732421875,8766.6513671875,3446.738037109375,12319.8828125,5887.349609375,24404.525390625,4455.24853515625,19098.91796875,3734.4296875,10346.572265625,27445.158203125,22172.1328125,12173.65234375,-0.0,-43741.86328125,20365.71484375,5853.97119140625,0.0,7071.4951171875,0.0,0.0
16534.328125,16256.9677734375,35001.4375,11967.0224609375,29006.798828125,7445.017578125,8854.0712890625,9998.48046875,9910.265625,6634.39404296875,18134.912109375,-396.569580078125,9287.1982421875,0.0,23399.98828125,8254.845703125,25736.490234375,20917.2578125,10420.4814453125,12529.6904296875,23875.236328125,30294.259765625,24269.421875,20559.62890625,22103.787109375,8194.4462890625,29918.3515625,1362.95947265625,0.0,2082.18896484375,14654.0,7465.6806640625,26785.53125,17015.93359375,16130.60546875,25818.34765625,10059.673828125,15043.41796875,9961.9228515625,4896.32275390625,23599.466796875,10035.0380859375,17924.30859375,12366.771484375,9764.8310546875,12968.380859375,12276.966796875,2879.3017578125,11147.658203125,4142.12548828125,17667.611328125,7131.099609375,8771.419921875,3461.043212890625,12311.140625,5892.1181640625,24406.115234375,4453.6591796875,19103.685546875,3734.4296875,10348.9560546875,27447.54296875,22174.517578125,12184.779296875,-0.0,-43737.88671875,20370.484375,5846.818359375,0.0,7073.87939453125,0.0,0.0
16538.30078125,16252.994140625,34993.48828125,11964.638671875,29000.44140625,7447.4013671875,8854.8662109375,10000.0693359375,9919.802734375,6634.39404296875,18134.912109375,-406.9010314941406,9284.01953125,0.0,23400.783203125,8248.48828125,25733.3125,20911.693359375,10419.6865234375,12533.6650390625,23871.263671875,30294.259765625,24271.806640625,20561.21875,22089.48046875,8188.08837890625,29916.763671875,1362.164794921875,0.0,2076.625732421875,14650.8212890625,7463.29638671875,26779.970703125,17015.138671875,16128.2216796875,25816.759765625,10060.4697265625,15043.41796875,9961.1279296875,4889.96484375,23589.9296875,10036.6279296875,17924.30859375,12367.56640625,9771.1875,12969.970703125,12272.994140625,2876.122802734375,11145.2744140625,4144.509765625,17669.99609375,7131.099609375,8775.3935546875,3459.45361328125,12308.7568359375,5888.14404296875,24406.115234375,4445.71142578125,19105.275390625,3733.635009765625,10345.7763671875,27445.158203125,22176.107421875,12191.13671875,-0.0,-43737.88671875,20371.279296875,5844.43408203125,0.0,7073.08447265625,0.0,0.0
16527.970703125,16236.3056640625,34987.92578125,11953.5126953125,29002.82421875,7442.63330078125,8856.4560546875,9997.685546875,9928.5439453125,6633.599609375,18136.501953125,-419.61669921875,9285.609375,0.0,23402.373046875,8244.5146484375,25728.544921875,20909.30859375,10418.8916015625,12532.0751953125,23868.87890625,30287.900390625,24273.396484375,20558.0390625,22094.25,8180.1416015625,29920.736328125,1357.396484375,0.0,2063.115478515625,14646.84765625,7454.55419921875,26775.99609375,17007.986328125,16128.2216796875,25814.375,10059.673828125,15039.4443359375,9939.6708984375,4879.63330078125,23590.72265625,10031.064453125,17925.103515625,12364.3876953125,9774.3671875,12969.970703125,12276.966796875,2857.04931640625,11151.6318359375,4140.53564453125,17672.380859375,7133.48388671875,8769.830078125,3439.58544921875,12307.1669921875,5877.81298828125,24408.498046875,4436.1748046875,19106.0703125,3736.01904296875,10331.4716796875,27444.36328125,22176.107421875,12187.1630859375,-0.0,-43756.16796875,20369.6875,5844.43408203125,0.0,7072.2900390625,0.0,0.0
16516.05078125,16220.4111328125,34983.953125,11943.1806640625,29003.62109375,7442.63330078125,8853.2763671875,9996.0966796875,9927.75,6629.6259765625,18123.78515625,-437.89544677734375,9285.609375,0.0,23399.98828125,8241.3359375,25721.392578125,20907.720703125,10418.8916015625,12526.51171875,23866.49609375,30284.72265625,24272.599609375,20555.654296875,22097.4296875,8180.1416015625,29923.12109375,1355.8070068359375,0.0,2053.57861328125,14642.875,7445.81201171875,26772.021484375,17001.62890625,16125.8369140625,25811.1953125,10056.49609375,15039.4443359375,9933.3125,4868.50732421875,23589.9296875,10029.4755859375,17925.103515625,12365.181640625,9774.3671875,12967.5869140625,12269.0205078125,2843.5390625,11157.9892578125,4137.357421875,17670.7890625,7131.89453125,8754.73046875,3425.2802734375,12307.1669921875,5877.81298828125,24403.73046875,4428.22802734375,19102.095703125,3732.84033203125,10318.755859375,27442.7734375,22174.517578125,12176.8310546875,-0.0,-43772.859375,20364.126953125,5849.9970703125,0.0,7077.05810546875,0.0,0.0
16513.666015625,16219.6162109375,34988.71875,11939.2080078125,29008.388671875,7445.017578125,8858.044921875,10004.837890625,9935.6962890625,6636.7783203125,18129.349609375,-433.1270751953125,9291.966796875,0.0,23402.373046875,8251.6669921875,25720.595703125,20910.10546875,10423.66015625,12530.486328125,23867.2890625,30283.1328125,24278.1640625,20558.833984375,22106.966796875,8174.57861328125,29927.095703125,1362.164794921875,0.0,2054.37353515625,14645.2587890625,7443.42822265625,26773.611328125,17000.833984375,16126.6328125,25811.990234375,10059.673828125,15046.5966796875,9937.2861328125,4870.8916015625,23593.90234375,10027.8857421875,17929.078125,12369.15625,9780.724609375,12973.1494140625,12273.7880859375,2841.949462890625,11161.16796875,4132.5888671875,17673.173828125,7140.63623046875,8753.140625,3422.101318359375,12316.7041015625,5879.40234375,24403.73046875,4427.43310546875,19106.0703125,3740.78759765625,10313.9873046875,27443.56640625,22179.28515625,12184.779296875,-0.0,-43759.34765625,20370.484375,5857.9443359375,0.0,7085.00537109375,0.0,0.0
16513.666015625,16225.1796875,34979.18359375,11930.4658203125,28996.466796875,7433.89111328125,8850.8916015625,9998.48046875,9933.3125,6626.447265625,18119.8125,-422.0008850097656,9283.224609375,0.0,23396.810546875,8243.7197265625,25711.05859375,20897.388671875,10413.3291015625,12524.1279296875,23855.3671875,30272.0078125,24267.0390625,20550.88671875,22088.685546875,8161.06787109375,29916.763671875,1356.6016845703125,0.0,2058.346923828125,14631.748046875,7437.86474609375,26762.486328125,16991.296875,16115.5068359375,25800.86328125,10050.1376953125,15038.6494140625,9930.9287109375,4874.07080078125,23581.982421875,10015.169921875,17919.541015625,12363.5927734375,9772.77734375,12963.6123046875,12265.841796875,2840.35986328125,11145.2744140625,4122.25732421875,17668.40625,7135.0732421875,8749.9619140625,3429.25390625,12311.140625,5877.81298828125,24403.73046875,4426.63818359375,19100.5078125,3731.250732421875,10316.3720703125,27433.236328125,22172.1328125,12182.39453125,-0.0,-43760.140625,20370.484375,5843.63916015625,0.0,7070.7001953125,0.0,0.0
16531.943359375,16241.0732421875,34971.23828125,11940.001953125,28986.134765625,7438.65966796875,8846.9189453125,9997.685546875,9934.107421875,6627.24169921875,18116.6328125,-406.9010314941406,9276.8671875,0.0,23396.810546875,8243.7197265625,25712.6484375,20891.03125,10413.3291015625,12526.51171875,23849.009765625,30272.802734375,24264.654296875,20552.4765625,22071.203125,8172.1943359375,29915.173828125,1358.191162109375,0.0,2072.652099609375,14629.3642578125,7441.8388671875,26760.1015625,16992.88671875,16109.943359375,25800.86328125,10046.958984375,15038.6494140625,9937.2861328125,4885.99169921875,23567.67578125,10022.322265625,17913.9765625,12365.181640625,9770.3935546875,12962.818359375,12261.0732421875,2850.691650390625,11135.7373046875,4134.97314453125,17666.021484375,7131.89453125,8765.8564453125,3447.53271484375,12299.2197265625,5880.197265625,24402.140625,4440.14892578125,19100.5078125,3728.86669921875,10336.240234375,27433.236328125,22172.1328125,12187.1630859375,-0.0,-43754.578125,20368.89453125,5843.63916015625,0.0,7072.2900390625,0.0,0.0
16539.09765625,16247.4306640625,34976.00390625,11944.7705078125,28990.904296875,7443.42822265625,8850.09765625,10000.0693359375,9934.107421875,6629.6259765625,18128.552734375,-406.9010314941406,9287.1982421875,0.0,23399.1953125,8250.873046875,25715.033203125,20893.416015625,10414.91796875,12528.1015625,23849.806640625,30275.98046875,24267.83203125,20555.654296875,22087.09765625,8181.7314453125,29923.12109375,1358.98583984375,0.0,2071.062744140625,14629.3642578125,7445.81201171875,26763.28125,16992.88671875,16112.3271484375,25804.04296875,10049.3427734375,15041.0341796875,9940.46484375,4888.3759765625,23572.4453125,10024.70703125,17917.951171875,12367.56640625,9771.9833984375,12962.818359375,12270.609375,2854.6650390625,11149.2470703125,4145.30419921875,17669.201171875,7134.27880859375,8769.03515625,3448.327392578125,12313.525390625,5877.81298828125,24406.91015625,4446.50634765625,19102.095703125,3730.4560546875,10344.1875,27435.62109375,22172.927734375,12186.3681640625,-0.0,-43756.9609375,20366.509765625,5846.818359375,0.0,7073.87939453125,0.0,0.0
16537.5078125,16242.662109375,34982.36328125,11947.1552734375,28994.87890625,7446.60693359375,8852.4814453125,10004.837890625,9935.6962890625,6629.6259765625,18133.322265625,-407.6957702636719,9286.4033203125,0.0,23399.98828125,8256.435546875,25719.0078125,20898.9765625,10418.8916015625,12527.306640625,23854.57421875,30279.955078125,24271.806640625,20559.62890625,22096.634765625,8181.7314453125,29916.763671875,1364.549072265625,0.0,2067.8837890625,14633.337890625,7447.4013671875,26764.869140625,16997.65625,16117.095703125,25806.427734375,10050.9326171875,15045.0068359375,9942.0546875,4882.8125,23579.59765625,10026.2958984375,17921.923828125,12373.1298828125,9774.3671875,12969.1767578125,12276.966796875,2857.04931640625,11148.453125,4146.89404296875,17669.99609375,7141.43115234375,8767.4453125,3446.738037109375,12321.47265625,5878.607421875,24405.3203125,4444.9169921875,19101.30078125,3737.608642578125,10341.8037109375,27438.798828125,22175.3125,12183.9833984375,-0.0,-43754.578125,20366.509765625,5851.5869140625,0.0,7073.08447265625,0.0,0.0
16539.09765625,16235.509765625,34989.515625,11950.333984375,29000.44140625,7452.96484375,8858.83984375,10010.4013671875,9945.2333984375,6637.5732421875,18139.681640625,-412.4641418457031,9286.4033203125,0.0,23403.16796875,8255.640625,25722.185546875,20905.3359375,10424.455078125,12534.458984375,23860.931640625,30283.927734375,24276.57421875,20565.19140625,22098.22265625,8188.08837890625,29919.943359375,1370.112060546875,0.0,2067.8837890625,14638.1064453125,7448.9912109375,26770.43359375,17003.216796875,16123.453125,25814.375,10058.0849609375,15049.775390625,9946.0283203125,4884.40185546875,23587.544921875,10034.2431640625,17925.103515625,12378.6923828125,9781.51953125,12976.3291015625,12284.119140625,2849.896728515625,11149.2470703125,4150.86767578125,17674.763671875,7145.40478515625,8772.2138671875,3447.53271484375,12322.2666015625,5887.349609375,24403.73046875,4448.890625,19104.48046875,3741.582275390625,10337.03515625,27444.36328125,22181.669921875,12189.5478515625,-0.0,-43755.37109375,20368.89453125,5857.9443359375,0.0,7083.416015625,0.0,0.0
16537.5078125,16238.689453125,34980.7734375,11947.94921875,28996.466796875,7453.759765625,8857.25,10011.990234375,9946.0283203125,6639.95751953125,18117.427734375,-413.2588806152344,9276.8671875,0.0,23401.578125,8259.6142578125,25719.80078125,20905.3359375,10426.044921875,12536.84375,23857.751953125,30283.1328125,24274.984375,20565.19140625,22076.765625,8189.67822265625,29919.943359375,1371.7015380859375,0.0,2072.652099609375,14637.310546875,7448.1962890625,26768.048828125,17001.62890625,16121.8642578125,25813.580078125,10056.49609375,15050.5703125,9942.849609375,4891.55419921875,23579.59765625,10035.83203125,17922.720703125,12380.2822265625,9779.1357421875,12978.712890625,12268.2255859375,2844.333740234375,11142.8896484375,4150.07275390625,17673.96875,7145.40478515625,8764.2666015625,3453.890625,12307.1669921875,5892.91259765625,24401.345703125,4452.8642578125,19103.685546875,3744.76123046875,10337.830078125,27443.56640625,22182.46484375,12189.5478515625,-0.0,-43756.9609375,20370.484375,5860.32861328125,0.0,7085.00537109375,0.0,0.0
16535.123046875,16249.021484375,34986.3359375,11953.5126953125,29002.82421875,7448.1962890625,8859.634765625,10011.990234375,9946.0283203125,6639.95751953125,18122.9921875,-401.33795166015625,9279.2509765625,0.0,23403.16796875,8263.587890625,25722.98046875,20905.3359375,10426.8388671875,12539.2275390625,23864.111328125,30283.1328125,24277.369140625,20563.6015625,22087.892578125,8179.34716796875,29925.50390625,1370.112060546875,0.0,2078.21533203125,14640.490234375,7452.169921875,26772.021484375,17002.423828125,16125.8369140625,25812.78515625,10058.8798828125,15051.365234375,9946.8232421875,4897.91259765625,23586.75,10031.859375,17928.28125,12378.6923828125,9781.51953125,12978.712890625,12274.5830078125,2857.04931640625,11148.453125,4141.33056640625,17676.353515625,7147.7890625,8765.0615234375,3459.45361328125,12307.9619140625,5892.1181640625,24402.9375,4453.6591796875,19107.66015625,3745.555908203125,10343.392578125,27445.951171875,22184.052734375,12188.751953125,-0.0,-43745.0390625,20372.072265625,5861.91796875,0.0,7082.62109375,0.0,0.0
16537.5078125,16251.4052734375,34989.515625,11960.666015625,29010.7734375,7447.4013671875,8860.4287109375,10011.990234375,9942.0546875,6639.95751953125,18122.9921875,-397.3642883300781,9287.1982421875,0.0,23403.962890625,8264.3828125,25728.544921875,20906.12890625,10426.044921875,12537.638671875,23868.87890625,30287.900390625,24280.548828125,20565.986328125,22095.837890625,8184.115234375,29928.68359375,1371.7015380859375,0.0,2079.8046875,14644.4638671875,7453.759765625,26775.99609375,17007.193359375,16129.8125,25816.759765625,10059.673828125,15051.365234375,9949.20703125,4897.11767578125,23593.107421875,10034.2431640625,17932.255859375,12380.2822265625,9783.904296875,12981.09765625,12274.5830078125,2868.97021484375,11152.4267578125,4142.12548828125,17676.353515625,7147.7890625,8765.0615234375,3456.274658203125,12307.1669921875,5895.29638671875,24404.525390625,4456.04345703125,19109.25,3747.1455078125,10348.1611328125,27447.54296875,22185.64453125,12187.9580078125,-0.0,-43737.88671875,20370.484375,5857.1494140625,0.0,7077.8525390625,0.0,0.0
16538.30078125,16253.7900390625,34985.54296875,11970.2021484375,29000.44140625,7452.96484375,8856.4560546875,10015.169921875,9934.107421875,6638.3681640625,18111.86328125,-394.9801025390625,9281.6357421875,0.0,23399.98828125,8269.9462890625,25731.72265625,20904.541015625,10426.044921875,12535.2548828125,23867.2890625,30293.46484375,24275.779296875,20566.78125,22088.685546875,8192.0625,29918.3515625,1376.469970703125,0.0,2082.18896484375,14646.0537109375,7456.9384765625,26777.5859375,17012.75390625,16128.2216796875,25819.142578125,10057.2900390625,15052.1591796875,9948.4130859375,4889.96484375,23586.75,10040.6005859375,17926.693359375,12382.6669921875,9780.724609375,12981.8916015625,12267.4306640625,2880.89111328125,11144.478515625,4150.07275390625,17671.5859375,7150.17333984375,8758.7041015625,3456.274658203125,12301.6044921875,5898.4755859375,24403.73046875,4462.40087890625,19106.865234375,3745.555908203125,10353.724609375,27445.951171875,22186.4375,12184.779296875,-0.0,-43733.12109375,20365.71484375,5857.1494140625,0.0,7070.7001953125,0.0,0.0
16537.5078125,16248.2265625,34984.75,11975.765625,28994.083984375,7456.14404296875,8854.0712890625,10013.580078125,9930.9287109375,6636.7783203125,18113.455078125,-410.87469482421875,9277.6611328125,0.0,23398.3984375,8264.3828125,25733.3125,20907.720703125,10426.044921875,12532.8701171875,23868.083984375,30295.052734375,24271.806640625,20567.576171875,22088.685546875,8192.8564453125,29907.2265625,1373.291015625,0.0,2081.394287109375,14647.6435546875,7456.14404296875,26777.5859375,17013.55078125,16125.8369140625,25822.3203125,10055.701171875,15052.955078125,9947.6171875,4895.5283203125,23585.162109375,10045.369140625,17920.3359375,12382.6669921875,9777.5458984375,12980.3017578125,12269.814453125,2885.659423828125,11141.2998046875,4152.45654296875,17669.201171875,7150.17333984375,8753.935546875,3453.095703125,12300.0146484375,5896.09130859375,24401.345703125,4456.04345703125,19104.48046875,3743.96630859375,10351.33984375,27445.951171875,22184.052734375,12180.8056640625,-0.0,-43745.0390625,20361.7421875,5861.91796875,0.0,7067.521484375,0.0,0.0
