11958.28125,9241.8984375,21624.564453125,6264.84521484375,24566.650390625,1548.926025390625,3109.77294921875,2546.310546875,4975.0009765625,1921.65380859375,12065.5703125,-2531.210693359375,4496.57421875,0.0,17705.759765625,216.96090698242188,20832.220703125,12456.576171875,5599.65771484375,7452.169921875,18472.671875,24467.310546875,9264.1513671875,14468.8291015625,15687.9423828125,1726.1505126953125,24001.59765625,-5896.88623046875,0.0,205.83470153808594,9760.0625,3309.25,19116.40234375,13564.427734375,7747.0146484375,19595.623046875,6509.6220703125,8206.3671875,3046.19482421875,-1437.6640625,18531.48046875,4096.826171875,13864.0400390625,5069.57373046875,2412.7958984375,8627.57421875,9673.4365234375,-734.3292236328125,2970.695556640625,-2566.973388671875,10197.95703125,15.09984302520752,3660.519775390625,136.6933135986328,2713.998046875,644.52490234375,19178.390625,965.59521484375,7051.62646484375,-1615.6832275390625,8389.1552734375,21655.55859375,18335.18359375,14591.216796875,-0.0,-33194.2265625,15277.8623046875,3420.511962890625,0.0,4297.09765625,0.0,0.0
11977.35546875,9237.92578125,21626.94921875,6255.30859375,24564.265625,1550.5155029296875,3108.978271484375,2542.336669921875,4971.02734375,1914.501220703125,12082.2587890625,-2528.826416015625,4494.98486328125,0.0,17704.16796875,218.5503692626953,20832.220703125,12453.396484375,5596.47900390625,7444.22314453125,18471.876953125,24464.92578125,9263.3564453125,14464.85546875,15677.6103515625,1712.64013671875,24000.009765625,-5903.244140625,0.0,207.42416381835938,9758.47265625,3311.634033203125,19117.197265625,13562.04296875,7742.24609375,19594.828125,6505.64794921875,8203.9833984375,3041.426513671875,-1434.485107421875,18529.892578125,4095.236328125,13860.06640625,5067.98388671875,2406.438232421875,8622.009765625,9670.2578125,-734.3292236328125,2969.10595703125,-2565.3837890625,10194.7783203125,11.920928955078125,3653.3671875,152.587890625,2712.40869140625,644.52490234375,19173.623046875,964.0057983398438,7047.6533203125,-1619.6568603515625,8371.6708984375,21652.380859375,18330.416015625,14578.501953125,-0.0,-33191.04296875,15276.2724609375,3416.538330078125,0.0,4290.73974609375,0.0,0.0
11968.6123046875,9237.92578125,21625.361328125,6236.2353515625,24559.498046875,1542.5682373046875,3105.79931640625,2535.97900390625,4970.232421875,1912.116943359375,12087.822265625,-2533.5947265625,4488.626953125,0.0,17698.607421875,216.96090698242188,20827.451171875,12448.62890625,5592.5048828125,7443.42822265625,18467.90234375,24456.978515625,9258.587890625,14458.4970703125,15674.4326171875,1688.79833984375,23995.240234375,-5911.19140625,0.0,206.6294403076172,9752.9091796875,3310.83935546875,19112.427734375,13555.685546875,7739.06689453125,19586.880859375,6502.4697265625,8198.4208984375,3026.326416015625,-1440.0482177734375,18526.712890625,4081.72607421875,13856.8876953125,5060.037109375,2404.053955078125,8619.6259765625,9669.462890625,-731.1503295898438,2965.132568359375,-2572.536376953125,10190.8046875,7.152557373046875,3643.035888671875,162.9193572998047,2705.256103515625,640.55126953125,19169.6484375,952.0848388671875,7042.884765625,-1623.6304931640625,8362.9296875,21646.818359375,18328.82421875,14580.8857421875,-0.0,-33206.14453125,15268.326171875,3409.3857421875,0.0,4285.1767578125,0.0,0.0
11946.3603515625,9241.8984375,21621.384765625,6223.52001953125,24557.11328125,1536.21044921875,3105.004638671875,2532.800048828125,4976.5908203125,1917.68017578125,12083.0537109375,-2541.5419921875,4487.83251953125,0.0,17698.607421875,206.6294403076172,20820.298828125,12447.0400390625,5592.5048828125,7447.4013671875,18463.134765625,24453.798828125,9256.2041015625,14455.318359375,15674.4326171875,1680.8509521484375,23992.0625,-5916.75439453125,0.0,193.11904907226562,9748.935546875,3302.89208984375,19106.0703125,13551.7119140625,7735.88818359375,19581.318359375,6500.8798828125,8196.8310546875,3022.35302734375,-1447.9954833984375,18524.328125,4075.368408203125,13857.6826171875,5056.85791015625,2406.438232421875,8618.83203125,9663.8994140625,-734.3292236328125,2961.953369140625,-2578.894287109375,10193.1884765625,3.9736428260803223,3650.1884765625,163.71409606933594,2702.8720703125,629.425048828125,19169.6484375,938.574462890625,7044.47412109375,-1619.6568603515625,8380.4130859375,21646.0234375,18328.82421875,14591.216796875,-0.0,-33221.24609375,15268.326171875,3418.127685546875,0.0,4301.8662109375,0.0,0.0
11937.6181640625,9253.8193359375,21625.361328125,6225.10888671875,24566.650390625,1540.18408203125,3116.130859375,2538.36328125,4993.27978515625,1930.395751953125,12098.9482421875,-2536.773681640625,4495.779296875,0.0,17708.142578125,198.68214416503906,20825.068359375,12452.6025390625,5600.45263671875,7460.1171875,18471.08203125,24456.181640625,9265.740234375,14461.6767578125,15683.173828125,1686.4140625,24000.802734375,-5915.1650390625,0.0,191.5295867919922,9756.087890625,3306.86572265625,19112.427734375,13554.890625,7743.83544921875,19585.291015625,6511.21142578125,8204.77734375,3048.578857421875,-1442.432373046875,18530.6875,4080.13671875,13866.4248046875,5061.62646484375,2419.948486328125,8624.39453125,9657.5419921875,-740.6870727539062,2970.695556640625,-2576.51025390625,10203.5205078125,7.152557373046875,3662.904052734375,174.04556274414062,2718.766357421875,629.425048828125,19176.80078125,926.653564453125,7054.8056640625,-1611.7095947265625,8392.333984375,21652.380859375,18336.7734375,14606.31640625,-0.0,-33233.1640625,15271.5048828125,3408.591064453125,0.0,4332.0654296875,0.0,0.0
11954.3076171875,9256.2041015625,21622.181640625,6221.93017578125,24563.470703125,1536.21044921875,3117.720458984375,2536.773681640625,4998.04833984375,1931.9852294921875,12098.1533203125,-2541.5419921875,4497.369140625,0.0,17709.732421875,187.5559539794922,20819.505859375,12451.0126953125,5600.45263671875,7463.29638671875,18468.69921875,24449.826171875,9268.125,14458.4970703125,15682.37890625,1678.466796875,24002.39453125,-5924.70166015625,0.0,189.9401397705078,9753.7041015625,3302.89208984375,19110.044921875,13549.328125,7743.83544921875,19581.318359375,6512.00634765625,8203.1884765625,3063.6787109375,-1446.406005859375,18526.712890625,4072.984130859375,13865.6298828125,5057.65283203125,2423.92236328125,8623.599609375,9679.0,-746.2501220703125,2972.284912109375,-2589.225830078125,10203.5205078125,3.9736428260803223,3667.67236328125,170.07191467285156,2713.998046875,619.0935668945312,19177.595703125,910.7589721679688,7057.18994140625,-1613.299072265625,8386.771484375,21649.99609375,18339.953125,14619.033203125,-0.0,-33249.0625,15272.2998046875,3383.954345703125,0.0,4334.44970703125,0.0,0.0
11970.9970703125,9258.587890625,21626.154296875,6217.95654296875,24563.470703125,1538.5946044921875,3120.899169921875,2539.157958984375,5002.02197265625,1931.9852294921875,12093.384765625,-2539.157958984375,4502.1376953125,0.0,17708.9375,192.32432556152344,20821.09375,12451.8076171875,5602.04150390625,7463.29638671875,18467.90234375,24450.62109375,9270.5087890625,14462.470703125,15677.6103515625,1679.2615966796875,24005.572265625,-5920.72802734375,0.0,190.73486328125,9754.498046875,3303.686767578125,19110.044921875,13548.533203125,7746.2197265625,19583.701171875,6514.390625,8207.162109375,3042.22119140625,-1458.326904296875,18525.919921875,4074.573486328125,13868.0146484375,5060.037109375,2424.717041015625,8625.984375,9692.509765625,-743.0712280273438,2975.4638671875,-2587.63623046875,10205.109375,7.9472856521606445,3677.209228515625,165.3035430908203,2710.024658203125,622.2724609375,19179.185546875,917.9114990234375,7054.8056640625,-1610.1201171875,8390.744140625,21655.55859375,18341.541015625,14618.2373046875,-0.0,-33241.11328125,15269.1201171875,3388.72265625,0.0,4328.09228515625,0.0,0.0
11952.7177734375,9245.078125,21615.029296875,6201.26708984375,24554.728515625,1526.6737060546875,3113.74658203125,2532.00537109375,5000.4326171875,1920.8590087890625,12074.3115234375,-2551.87353515625,4501.3427734375,0.0,17701.783203125,190.73486328125,20810.76171875,12448.62890625,5595.68408203125,7453.759765625,18457.5703125,24439.494140625,9263.3564453125,14453.728515625,15665.689453125,1667.340576171875,23997.625,-5926.291015625,0.0,178.0192108154297,9742.5771484375,3292.560546875,19099.712890625,13537.4072265625,7735.88818359375,19573.369140625,6506.44287109375,8199.21484375,3023.942138671875,-1467.0689697265625,18516.3828125,4061.063232421875,13859.2724609375,5052.884765625,2418.359130859375,8615.6533203125,9666.283203125,-749.4290771484375,2965.92724609375,-2602.736328125,10200.3408203125,0.0,3666.0830078125,156.56153869628906,2702.8720703125,615.1199340820312,19174.41796875,917.9114990234375,7046.8583984375,-1618.8621826171875,8382.0029296875,21647.611328125,18332.80078125,14609.49609375,-0.0,-33254.625,15263.5576171875,3383.15966796875,0.0,4309.0185546875,0.0,0.0
11949.5390625,9229.9775390625,21603.107421875,6203.6513671875,24554.728515625,1528.2630615234375,3118.51513671875,2533.5947265625,5012.353515625,1925.6273193359375,12074.3115234375,-2554.257568359375,4498.95849609375,0.0,17706.552734375,197.0926971435547,20808.37890625,12450.2177734375,5598.068359375,7461.70654296875,18459.162109375,24438.69921875,9268.125,14455.318359375,15666.484375,1667.340576171875,24001.59765625,-5923.90673828125,0.0,174.04556274414062,9743.373046875,3288.5869140625,19096.533203125,13536.6123046875,7736.68310546875,19575.75390625,6508.8271484375,8201.599609375,3026.326416015625,-1460.711181640625,18513.998046875,4060.268310546875,13862.4501953125,5056.85791015625,2423.12744140625,8622.8056640625,9639.2626953125,-758.9658203125,2968.311279296875,-2602.736328125,10204.3154296875,4.76837158203125,3654.956787109375,159.74044799804688,2705.256103515625,612.7357177734375,19174.41796875,924.2693481445312,7054.8056640625,-1617.272705078125,8383.591796875,21647.611328125,18335.978515625,14621.4169921875,-0.0,-33257.80078125,15269.916015625,3395.08056640625,0.0,4309.81298828125,0.0,0.0
11955.1015625,9222.0302734375,21606.287109375,6209.21484375,24558.703125,1529.057861328125,3121.69384765625,2532.00537109375,5016.3271484375,1927.2169189453125,12075.1064453125,-2553.462890625,4492.60107421875,0.0,17710.52734375,191.5295867919922,20810.76171875,12446.244140625,5595.68408203125,7463.29638671875,18459.955078125,24442.671875,9271.3037109375,14457.703125,15671.2529296875,1670.51953125,24003.1875,-5923.90673828125,0.0,170.07191467285156,9745.7568359375,3287.792236328125,19097.328125,13541.380859375,7739.06689453125,19578.93359375,6511.21142578125,8202.3935546875,3019.173828125,-1470.2479248046875,18517.17578125,4065.83154296875,13864.8349609375,5057.65283203125,2427.10107421875,8622.009765625,9632.9052734375,-766.9130859375,2970.695556640625,-2601.146728515625,10209.083984375,0.0,3644.62548828125,150.20370483398438,2710.8193359375,613.5304565429688,19176.005859375,917.1168212890625,7060.369140625,-1618.0673828125,8385.9755859375,21649.203125,18336.7734375,14620.6220703125,-0.0,-33262.5703125,15271.5048828125,3399.05419921875,0.0,4303.45556640625,0.0,0.0
11953.5126953125,9224.4150390625,21608.671875,6205.24072265625,24558.703125,1529.057861328125,3120.1044921875,2528.826416015625,5013.14794921875,1923.2431640625,12074.3115234375,-2549.4892578125,4488.626953125,0.0,17712.1171875,184.3770294189453,20810.76171875,12443.8603515625,5594.0947265625,7460.1171875,18458.3671875,24443.46875,9268.919921875,14456.11328125,15672.048828125,1670.51953125,24002.39453125,-5925.49658203125,0.0,172.4561004638672,9743.373046875,3288.5869140625,19098.123046875,13538.9970703125,7737.4775390625,19576.548828125,6510.41650390625,8200.009765625,3026.326416015625,-1463.89013671875,18517.17578125,4063.447509765625,13864.8349609375,5054.4736328125,2424.717041015625,8616.447265625,9637.673828125,-764.5289306640625,2965.92724609375,-2600.35205078125,10209.083984375,-3.9736428260803223,3646.21484375,137.48805236816406,2707.640380859375,617.504150390625,19178.390625,917.9114990234375,7061.95849609375,-1624.42529296875,8385.9755859375,21648.40625,18335.18359375,14607.90625,-0.0,-33260.984375,15269.1201171875,3399.05419921875,0.0,4304.25,0.0,0.0
11943.1806640625,9222.0302734375,21605.4921875,6203.6513671875,24552.345703125,1522.699951171875,3113.74658203125,2524.852783203125,5006.7900390625,1920.0643310546875,12067.9541015625,-2558.2314453125,4488.626953125,0.0,17708.9375,182.78758239746094,20803.609375,12439.88671875,5590.12060546875,7456.9384765625,18452.802734375,24435.51953125,9260.177734375,14448.9599609375,15668.0732421875,1662.572265625,23998.41796875,-5928.67529296875,0.0,170.07191467285156,9735.4248046875,3280.6396484375,19093.35546875,13531.048828125,7729.5302734375,19569.396484375,6503.26416015625,8193.65234375,3026.326416015625,-1467.0689697265625,18512.408203125,4053.11572265625,13856.8876953125,5049.70556640625,2419.948486328125,8613.2685546875,9651.978515625,-754.9921875,2961.15869140625,-2602.736328125,10205.109375,-7.152557373046875,3650.1884765625,126.36184692382812,2703.666748046875,612.7357177734375,19176.80078125,918.7062377929688,7059.57421875,-1627.6041259765625,8381.20703125,21642.048828125,18331.208984375,14601.5478515625,-0.0,-33265.75,15265.1474609375,3391.901611328125,0.0,4298.68701171875,0.0,0.0
11940.796875,9222.0302734375,21612.64453125,6213.18798828125,24554.728515625,1523.4947509765625,3113.74658203125,2526.4423828125,5002.02197265625,1924.0379638671875,12074.3115234375,-2555.84716796875,4487.83251953125,0.0,17709.732421875,185.17176818847656,20806.7890625,12439.091796875,5588.53125,7462.50146484375,18455.1875,24437.904296875,9256.2041015625,14448.166015625,15670.4580078125,1665.7510986328125,23999.21484375,-5926.291015625,0.0,174.04556274414062,9737.8095703125,3278.25537109375,19098.123046875,13535.0224609375,7731.91455078125,19570.19140625,6505.64794921875,8193.65234375,3032.684326171875,-1479.78466796875,18513.203125,4055.5,13855.2978515625,5051.294921875,2418.359130859375,8616.447265625,9663.8994140625,-741.4818115234375,2962.748291015625,-2600.35205078125,10204.3154296875,-7.152557373046875,3659.72509765625,129.54075622558594,2702.0771484375,614.3251953125,19176.005859375,920.2957153320312,7060.369140625,-1625.219970703125,8382.0029296875,21642.84375,18333.59375,14614.2646484375,-0.0,-33267.3359375,15273.888671875,3383.15966796875,0.0,4305.04443359375,0.0,0.0
11939.2080078125,9225.208984375,21614.232421875,6217.16162109375,24557.908203125,1526.6737060546875,3115.336181640625,2528.826416015625,5005.20068359375,1925.6273193359375,12073.5166015625,-2552.668212890625,4488.626953125,0.0,17714.5,189.9401397705078,20808.37890625,12439.88671875,5590.12060546875,7467.27001953125,18458.3671875,24441.083984375,9256.9990234375,14450.5498046875,15677.6103515625,1670.51953125,24000.802734375,-5923.1123046875,0.0,174.8402862548828,9738.6044921875,3280.6396484375,19099.712890625,13538.201171875,7732.70947265625,19571.78125,6506.44287109375,8197.625,3053.347412109375,-1476.605712890625,18515.5859375,4064.241943359375,13858.4775390625,5053.67919921875,2420.7431640625,8618.037109375,9653.568359375,-750.2238159179688,2966.7216796875,-2595.583740234375,10206.69921875,-5.563100337982178,3651.778076171875,131.92494201660156,2706.05078125,615.9146728515625,19177.595703125,923.474609375,7066.7265625,-1622.0411376953125,8385.9755859375,21641.25390625,18336.7734375,14621.4169921875,-0.0,-33267.3359375,15283.42578125,3383.954345703125,0.0,4308.2236328125,0.0,0.0
11930.4658203125,9233.1572265625,21617.412109375,6222.72509765625,24561.0859375,1529.057861328125,3116.130859375,2533.5947265625,4998.8427734375,1927.2169189453125,12069.54296875,-2545.515869140625,4495.779296875,0.0,17708.9375,201.86106872558594,20811.55859375,12441.4755859375,5594.0947265625,7466.47509765625,18457.5703125,24444.26171875,9258.587890625,14454.5244140625,15688.73828125,1679.2615966796875,24000.802734375,-5917.54931640625,0.0,179.60865783691406,9740.98828125,3285.407958984375,19103.685546875,13542.17578125,7734.298828125,19575.75390625,6507.23779296875,8202.3935546875,3018.379150390625,-1468.658447265625,18518.765625,4069.80517578125,13858.4775390625,5057.65283203125,2418.359130859375,8623.599609375,9659.130859375,-754.1974487304688,2969.10595703125,-2588.43115234375,10204.3154296875,0.7947285771369934,3640.651611328125,146.2300567626953,2710.024658203125,624.6566772460938,19176.80078125,932.2166748046875,7059.57421875,-1618.0673828125,8386.771484375,21646.0234375,18338.361328125,14619.8271484375,-0.0,-33265.75,15277.8623046875,3396.670166015625,0.0,4312.197265625,0.0,0.0
11935.234375,9233.1572265625,21617.412109375,6215.572265625,24558.703125,1528.2630615234375,3112.1572265625,2529.62109375,4989.30615234375,1923.2431640625,12066.3642578125,-2550.2841796875,4490.216796875,0.0,17702.580078125,201.86106872558594,20810.76171875,12437.5029296875,5589.326171875,7461.70654296875,18455.982421875,24441.876953125,9252.23046875,14451.3447265625,15682.37890625,1678.466796875,23998.41796875,-5918.34423828125,0.0,175.63502502441406,9737.8095703125,3283.02392578125,19100.5078125,13538.201171875,7730.3251953125,19573.369140625,6502.4697265625,8197.625,3018.379150390625,-1468.658447265625,18515.5859375,4065.036865234375,13855.2978515625,5056.06298828125,2410.411865234375,8619.6259765625,9655.158203125,-754.1974487304688,2965.132568359375,-2587.63623046875,10197.95703125,-0.7947285771369934,3638.267578125,162.9193572998047,2702.8720703125,625.451416015625,19176.80078125,933.8060913085938,7054.0107421875,-1622.8358154296875,8378.8232421875,21643.638671875,18334.388671875,14612.6748046875,-0.0,-33269.72265625,15269.916015625,3398.259521484375,0.0,4306.63427734375,0.0,0.0
11945.5654296875,9231.5673828125,21619.001953125,6218.75146484375,24555.525390625,1526.6737060546875,3105.004638671875,2529.62109375,4975.0009765625,1922.448486328125,12069.54296875,-2552.668212890625,4478.2958984375,0.0,17694.630859375,199.4768829345703,20812.353515625,12438.296875,5586.1474609375,7453.759765625,18456.77734375,24441.876953125,9252.23046875,14449.755859375,15671.2529296875,1676.8773193359375,23991.265625,-5923.1123046875,0.0,161.3299102783203,9738.6044921875,3287.792236328125,19102.095703125,13538.201171875,7731.11962890625,19571.78125,6499.29052734375,8196.0361328125,3035.068603515625,-1470.2479248046875,18517.970703125,4065.83154296875,13852.119140625,5052.884765625,2404.848876953125,8618.83203125,9655.158203125,-757.3763427734375,2961.15869140625,-2592.404541015625,10190.8046875,-3.1789143085479736,3650.1884765625,164.50881958007812,2699.69287109375,626.2461547851562,19166.46875,927.4482421875,7042.884765625,-1620.4515380859375,8380.4130859375,21642.048828125,18329.62109375,14600.75390625,-0.0,-33270.51953125,15261.1728515625,3411.769775390625,0.0,4316.9658203125,0.0,0.0
11942.38671875,9221.236328125,21608.671875,6207.625,24546.78125,1513.9580078125,3096.2626953125,2520.879150390625,4970.232421875,1919.26953125,12064.7744140625,-2562.999755859375,4472.732421875,0.0,17691.453125,187.5559539794922,20803.609375,12434.3232421875,5579.78955078125,7450.58056640625,18450.41796875,24434.724609375,9244.283203125,14441.8076171875,15660.9208984375,1659.393310546875,23980.935546875,-5937.41748046875,0.0,146.2300567626953,9730.65625,3279.844970703125,19095.740234375,13533.4326171875,7723.96728515625,19562.244140625,6490.548828125,8188.08837890625,3019.173828125,-1491.70556640625,18510.818359375,4055.5,13844.966796875,5041.75830078125,2400.080322265625,8610.884765625,9644.826171875,-766.9130859375,2950.827392578125,-2615.451904296875,10184.447265625,-14.30511474609375,3649.393798828125,149.4089813232422,2690.951171875,604.7884521484375,19160.90625,909.1694946289062,7038.9111328125,-1623.6304931640625,8374.0546875,21634.896484375,18324.056640625,14599.958984375,-0.0,-33289.59375,15261.9677734375,3404.6171875,0.0,4316.9658203125,0.0,0.0
11929.6708984375,9214.083984375,21599.134765625,6202.06201171875,24542.80859375,1509.1895751953125,3093.083740234375,2516.905517578125,4975.0009765625,1917.68017578125,12066.3642578125,-2568.562744140625,4479.88525390625,0.0,17692.248046875,179.60865783691406,20798.841796875,12427.9658203125,5578.19970703125,7451.37548828125,18446.4453125,24429.162109375,9241.8984375,14436.2451171875,15658.537109375,1649.061767578125,23980.935546875,-5942.98046875,0.0,139.8722381591797,9725.888671875,3274.28173828125,19090.17578125,13529.4599609375,7719.99365234375,19556.681640625,6487.36962890625,8187.2939453125,3015.200439453125,-1494.0897216796875,18504.4609375,4049.142333984375,13841.7880859375,5038.57958984375,2398.490966796875,8608.5,9647.2099609375,-766.1183471679688,2950.032470703125,-2627.372802734375,10183.65234375,-18.278757095336914,3644.62548828125,139.8722381591797,2688.56689453125,592.0728149414062,19161.701171875,905.1958618164062,7042.08984375,-1627.6041259765625,8365.3134765625,21630.12890625,18321.671875,14604.7275390625,-0.0,-33293.5625,15267.53125,3388.72265625,0.0,4312.9921875,0.0,0.0
11922.5185546875,9202.1630859375,21599.134765625,6202.06201171875,24544.396484375,1512.3685302734375,3097.85205078125,2520.08447265625,4982.1533203125,1922.448486328125,12063.185546875,-2575.71533203125,4484.6533203125,0.0,17696.22265625,185.96649169921875,20797.251953125,12426.3759765625,5582.173828125,7456.14404296875,18446.4453125,24431.546875,9244.283203125,14439.423828125,15660.1279296875,1649.061767578125,23984.908203125,-5938.2119140625,0.0,136.6933135986328,9728.2724609375,3271.8974609375,19088.5859375,13530.25390625,7721.5830078125,19560.65625,6491.34326171875,8189.67822265625,3004.07421875,-1502.037109375,18503.666015625,4051.526611328125,13843.376953125,5042.552734375,2402.464599609375,8610.884765625,9649.5947265625,-763.7341918945312,2950.827392578125,-2617.8359375,10189.2158203125,-13.51038646697998,3623.96240234375,124.77238464355469,2692.54052734375,592.8675537109375,19164.0859375,912.3484497070312,7046.06396484375,-1624.42529296875,8355.7763671875,21633.306640625,18324.8515625,14612.6748046875,-0.0,-33303.8984375,15274.68359375,3391.901611328125,0.0,4318.55517578125,0.0,0.0
11909.802734375,9191.0361328125,21590.390625,6198.8828125,24540.423828125,1507.6002197265625,3093.87841796875,2512.13720703125,4979.76904296875,1916.090576171875,12009.9384765625,-2588.43115234375,4476.7060546875,0.0,17693.04296875,178.0192108154297,20790.89453125,12423.9921875,5576.6103515625,7453.759765625,18438.498046875,24424.39453125,9241.1044921875,14434.6552734375,15661.716796875,1643.498779296875,23982.525390625,-5945.3642578125,0.0,131.13021850585938,9721.9150390625,3262.36083984375,19081.43359375,13523.1015625,7717.609375,19555.091796875,6486.57470703125,8183.31982421875,3000.895263671875,-1507.6002197265625,18498.8984375,4044.3740234375,13839.404296875,5036.1953125,2400.875,8602.9365234375,9628.13671875,-782.8076782226562,2948.443115234375,-2624.19384765625,10185.2421875,-19.073486328125,3600.12060546875,99.34107208251953,2682.208984375,585.7149658203125,19161.701171875,902.8117065429688,7044.47412109375,-1631.577880859375,8347.8291015625,21627.744140625,18321.671875,14615.05859375,-0.0,-33322.17578125,15277.068359375,3387.13330078125,0.0,4311.40283203125,0.0,0.0
11907.41796875,9195.009765625,21591.982421875,6203.6513671875,24536.451171875,1506.0106201171875,3093.083740234375,2512.13720703125,4978.974609375,1917.68017578125,12030.6015625,-2582.0732421875,4479.88525390625,0.0,17691.453125,177.22447204589844,20790.099609375,12424.7861328125,5577.4052734375,7452.169921875,18439.29296875,24423.599609375,9237.92578125,14434.6552734375,15657.7431640625,1642.7039794921875,23980.935546875,-5947.74853515625,0.0,124.77238464355469,9721.1201171875,3259.181884765625,19079.84375,13522.3076171875,7716.02001953125,19556.681640625,6484.9853515625,8184.115234375,3001.68994140625,-1482.1688232421875,18498.1015625,4043.5791015625,13837.814453125,5036.1953125,2398.490966796875,8606.9111328125,9627.341796875,-794.7285766601562,2947.648193359375,-2624.19384765625,10182.857421875,-21.457672119140625,3600.12060546875,109.67254638671875,2675.056396484375,590.4833374023438,19160.90625,901.2222290039062,7043.6796875,-1631.577880859375,8345.4443359375,21628.5390625,18320.87890625,14611.8798828125,-0.0,-33322.17578125,15271.5048828125,3390.312255859375,0.0,4309.0185546875,0.0,0.0
11909.802734375,9200.5732421875,21607.080078125,6205.24072265625,24545.98828125,1516.3421630859375,3097.85205078125,2520.879150390625,4978.1796875,1923.2431640625,12074.3115234375,-2566.178466796875,4483.8583984375,0.0,17694.630859375,187.5559539794922,20798.048828125,12431.939453125,5584.55810546875,7454.55419921875,18450.41796875,24434.724609375,9247.4619140625,14443.3974609375,15664.1005859375,1653.8302001953125,23985.705078125,-5935.033203125,0.0,127.15657043457031,9729.8623046875,3268.71875,19090.17578125,13531.84375,7723.96728515625,19563.833984375,6492.1376953125,8191.26806640625,3011.2265625,-1475.0162353515625,18508.43359375,4055.5,13844.966796875,5044.93701171875,2404.053955078125,8614.857421875,9649.5947265625,-794.7285766601562,2955.595703125,-2610.683349609375,10189.2158203125,-11.126200675964355,3594.5576171875,128.74603271484375,2689.361572265625,600.0200805664062,19164.0859375,911.5537109375,7045.26904296875,-1622.0411376953125,8349.4189453125,21635.69140625,18325.646484375,14610.291015625,-0.0,-33306.28125,15269.916015625,3403.02783203125,0.0,4317.76025390625,0.0,0.0
11902.6494140625,9200.5732421875,21601.51953125,6193.31982421875,24544.396484375,1513.1632080078125,3099.44140625,2517.7001953125,4980.56396484375,1916.8853759765625,12071.9267578125,-2564.58935546875,4478.2958984375,0.0,17698.607421875,185.96649169921875,20798.841796875,12427.1708984375,5582.173828125,7452.96484375,18447.240234375,24433.13671875,9246.6669921875,14440.21875,15663.3056640625,1651.446044921875,23987.29296875,-5935.82763671875,0.0,126.36184692382812,9729.8623046875,3271.8974609375,19090.17578125,13528.6650390625,7722.3779296875,19563.0390625,6492.1376953125,8188.8837890625,3017.58447265625,-1482.963623046875,18506.845703125,4053.11572265625,13842.5830078125,5041.75830078125,2404.053955078125,8609.294921875,9655.9521484375,-793.933837890625,2956.390380859375,-2610.683349609375,10193.1884765625,-11.920928955078125,3616.01513671875,126.36184692382812,2694.924560546875,596.8411865234375,19164.0859375,913.1431884765625,7046.8583984375,-1629.193603515625,8343.85546875,21634.1015625,18323.263671875,14606.31640625,-0.0,-33306.28125,15268.326171875,3396.670166015625,0.0,4312.197265625,0.0,0.0
11892.318359375,9202.95703125,21592.775390625,6186.16748046875,24538.041015625,1504.4212646484375,3093.87841796875,2508.16357421875,4972.61669921875,1906.5538330078125,12056.8271484375,-2565.3837890625,4468.75927734375,0.0,17692.248046875,177.22447204589844,20790.89453125,12416.83984375,5572.63720703125,7445.81201171875,18436.908203125,24421.21484375,9236.3359375,14431.4765625,15658.537109375,1642.7039794921875,23981.73046875,-5944.56982421875,0.0,126.36184692382812,9721.1201171875,3263.15576171875,19083.0234375,13519.1279296875,7712.04638671875,19552.70703125,6484.9853515625,8180.93603515625,3006.458251953125,-1486.9371337890625,18498.8984375,4041.19482421875,13835.4296875,5032.22119140625,2396.9013671875,8599.7578125,9647.2099609375,-793.13916015625,2950.827392578125,-2619.425537109375,10186.0361328125,-18.278757095336914,3631.90966796875,127.95130920410156,2687.77197265625,593.6622314453125,19159.31640625,903.6064453125,7041.29541015625,-1641.9093017578125,8339.087890625,21625.361328125,18316.904296875,14595.19140625,-0.0,-33305.484375,15254.8154296875,3386.33837890625,0.0,4297.89208984375,0.0,0.0
11919.3388671875,9208.51953125,21591.1875,6190.935546875,24536.451171875,1507.6002197265625,3096.2626953125,2510.547607421875,4971.822265625,1908.1434326171875,12053.6494140625,-2562.999755859375,4470.34814453125,0.0,17693.837890625,178.0192108154297,20788.51171875,12419.2236328125,5573.431640625,7446.60693359375,18436.908203125,24422.009765625,9237.1298828125,14433.06640625,15650.5908203125,1647.472412109375,23981.73046875,-5941.39111328125,0.0,133.514404296875,9717.146484375,3263.15576171875,19080.638671875,13520.7177734375,7712.04638671875,19554.296875,6484.9853515625,8181.7314453125,3009.63720703125,-1485.3477783203125,18494.923828125,4043.5791015625,13835.4296875,5035.400390625,2400.080322265625,8598.9638671875,9636.0849609375,-789.16552734375,2946.05908203125,-2616.24658203125,10186.8310546875,-15.894571304321289,3647.80419921875,138.28277587890625,2685.387939453125,598.4306640625,19162.49609375,904.401123046875,7041.29541015625,-1641.1146240234375,8356.5712890625,21626.154296875,18316.904296875,14592.806640625,-0.0,-33307.07421875,15254.8154296875,3389.517578125,0.0,4295.5078125,0.0,0.0
11935.234375,9206.9306640625,21598.33984375,6206.03564453125,24545.98828125,1519.5211181640625,3107.388671875,2521.673828125,4981.35888671875,1916.8853759765625,12065.5703125,-2554.257568359375,4483.06396484375,0.0,17701.783203125,193.11904907226562,20796.45703125,12427.1708984375,5582.96826171875,7452.96484375,18444.060546875,24431.546875,9245.078125,14443.3974609375,15658.537109375,1662.572265625,23990.47265625,-5927.880859375,0.0,144.64060974121094,9727.478515625,3271.10302734375,19086.203125,13529.4599609375,7720.78857421875,19564.62890625,6494.52197265625,8191.26806640625,3019.173828125,-1479.78466796875,18504.4609375,4055.5,13844.966796875,5045.73193359375,2408.027587890625,8610.0888671875,9630.5205078125,-762.1447143554688,2954.006103515625,-2603.53076171875,10198.751953125,0.0,3654.162109375,154.17735290527344,2700.48779296875,612.7357177734375,19172.033203125,922.679931640625,7051.62646484375,-1630.7830810546875,8370.8759765625,21635.69140625,18325.646484375,14595.9853515625,-0.0,-33301.51171875,15267.53125,3397.46484375,0.0,4298.68701171875,0.0,0.0
11924.9033203125,9212.494140625,21605.4921875,6213.98291015625,24549.9609375,1530.647216796875,3112.951904296875,2526.4423828125,4986.921875,1920.8590087890625,12075.9013671875,-2541.5419921875,4491.80615234375,0.0,17704.16796875,201.0663299560547,20804.404296875,12435.9130859375,5590.12060546875,7455.34912109375,18450.41796875,24438.69921875,9252.23046875,14449.755859375,15666.484375,1672.9036865234375,23996.03515625,-5915.9599609375,0.0,155.7667999267578,9734.630859375,3280.6396484375,19093.35546875,13538.9970703125,7727.94091796875,19570.986328125,6500.08544921875,8198.4208984375,3027.916015625,-1470.2479248046875,18511.61328125,4063.447509765625,13850.529296875,5053.67919921875,2414.385498046875,8616.447265625,9636.87890625,-743.0712280273438,2961.953369140625,-2591.60986328125,10201.13671875,7.152557373046875,3657.341064453125,163.71409606933594,2705.256103515625,624.6566772460938,19176.005859375,936.9849853515625,7054.8056640625,-1626.8094482421875,8375.64453125,21640.458984375,18330.416015625,14595.19140625,-0.0,-33289.59375,15268.326171875,3404.6171875,0.0,4299.48193359375,0.0,0.0
11923.3134765625,9216.4677734375,21603.90234375,6214.77734375,24545.193359375,1526.6737060546875,3107.388671875,2522.468505859375,4988.51171875,1916.8853759765625,12064.7744140625,-2543.131591796875,4488.626953125,0.0,17703.375,193.11904907226562,20801.2265625,12436.70703125,5585.3525390625,7454.55419921875,18447.240234375,24433.931640625,9248.2568359375,14444.9873046875,15664.896484375,1671.314208984375,23993.650390625,-5919.138671875,0.0,149.4089813232422,9729.0673828125,3276.666015625,19090.970703125,13535.0224609375,7722.3779296875,19565.423828125,6496.90625,8192.8564453125,3004.86865234375,-1471.0426025390625,18507.638671875,4058.67919921875,13848.9404296875,5048.91064453125,2411.20654296875,8611.6787109375,9644.03125,-743.865966796875,2959.5693359375,-2594.788818359375,10198.751953125,3.1789143085479736,3654.956787109375,149.4089813232422,2698.103759765625,621.477783203125,19172.826171875,928.2429809570312,7053.21630859375,-1631.577880859375,8366.90234375,21637.28125,18326.44140625,14592.01171875,-0.0,-33291.9765625,15266.736328125,3397.46484375,0.0,4296.302734375,0.0,0.0
11928.0810546875,9204.546875,21593.5703125,6202.8564453125,24537.244140625,1514.752685546875,3098.64697265625,2512.931884765625,4981.35888671875,1908.9381103515625,12041.7275390625,-2555.84716796875,4480.68017578125,0.0,17695.427734375,184.3770294189453,20788.51171875,12425.58203125,5575.021484375,7445.017578125,18436.11328125,24422.8046875,9240.3095703125,14434.6552734375,15660.9208984375,1659.393310546875,23987.29296875,-5929.47021484375,0.0,135.10386657714844,9715.556640625,3262.36083984375,19077.458984375,13522.3076171875,7709.662109375,19552.70703125,6488.16455078125,8181.7314453125,2991.3583984375,-1490.910888671875,18498.1015625,4049.142333984375,13841.7880859375,5038.57958984375,2404.053955078125,8599.7578125,9632.9052734375,-760.5552978515625,2951.6220703125,-2606.709716796875,10190.8046875,-7.9472856521606445,3633.4990234375,120.79874420166016,2687.77197265625,611.9410400390625,19166.46875,918.7062377929688,7046.8583984375,-1643.498779296875,8351.0087890625,21626.94921875,18318.494140625,14589.626953125,-0.0,-33311.84375,15261.1728515625,3383.954345703125,0.0,4291.5341796875,0.0,0.0
11938.4130859375,9204.546875,21599.134765625,6206.03564453125,24544.396484375,1521.9052734375,3106.593994140625,2521.673828125,4990.10107421875,1918.474853515625,12040.138671875,-2547.10498046875,4484.6533203125,0.0,17700.1953125,195.50323486328125,20797.251953125,12429.5546875,5584.55810546875,7456.14404296875,18443.265625,24429.95703125,9247.4619140625,14441.013671875,15665.689453125,1669.724853515625,23993.650390625,-5923.1123046875,0.0,143.8458709716797,9722.7099609375,3271.8974609375,19084.611328125,13531.048828125,7718.404296875,19559.859375,6496.111328125,8188.8837890625,3009.63720703125,-1498.0634765625,18505.25390625,4055.5,13847.3515625,5044.93701171875,2412.7958984375,8607.705078125,9621.779296875,-759.7605590820312,2957.97998046875,-2604.325439453125,10197.95703125,0.0,3644.62548828125,121.59347534179688,2694.1298828125,619.0935668945312,19171.23828125,926.653564453125,7052.42138671875,-1631.577880859375,8359.75,21634.896484375,18327.236328125,14599.1640625,-0.0,-33311.05078125,15265.94140625,3392.6962890625,0.0,4305.83935546875,0.0,0.0
11932.0556640625,9201.3671875,21599.134765625,6197.2939453125,24543.603515625,1518.726318359375,3105.004638671875,2519.289794921875,4989.30615234375,1916.8853759765625,12051.2646484375,-2552.668212890625,4486.24267578125,0.0,17701.783203125,189.9401397705078,20797.251953125,12427.1708984375,5583.76318359375,7456.9384765625,18441.677734375,24428.3671875,9245.8720703125,14437.8349609375,15658.537109375,1675.287841796875,23992.857421875,-5931.8544921875,0.0,139.8722381591797,9724.2998046875,3271.8974609375,19085.408203125,13530.25390625,7718.404296875,19559.859375,6493.72705078125,8188.08837890625,3015.200439453125,-1481.3741455078125,18504.4609375,4053.91064453125,13846.556640625,5040.1689453125,2408.822265625,8607.705078125,9631.31640625,-764.5289306640625,2957.18505859375,-2613.8623046875,10196.3681640625,-3.9736428260803223,3642.2412109375,127.15657043457031,2695.719482421875,613.5304565429688,19169.6484375,917.1168212890625,7051.62646484375,-1633.167236328125,8364.5185546875,21634.1015625,18324.8515625,14603.9326171875,-0.0,-33322.17578125,15269.1201171875,3388.72265625,0.0,4304.25,0.0,0.0
11929.6708984375,9208.51953125,21601.51953125,6200.47216796875,24544.396484375,1515.54736328125,3102.620361328125,2514.521240234375,4982.1533203125,1914.501220703125,12066.3642578125,-2555.84716796875,4488.626953125,0.0,17702.580078125,181.1981201171875,20796.45703125,12427.1708984375,5581.37890625,7452.96484375,18443.265625,24428.3671875,9246.6669921875,14437.8349609375,15656.9482421875,1664.16162109375,23992.857421875,-5935.82763671875,0.0,139.8722381591797,9723.50390625,3269.513427734375,19086.203125,13528.6650390625,7719.19873046875,19559.859375,6492.9326171875,8185.7041015625,3016.789794921875,-1472.632080078125,18503.666015625,4053.91064453125,13844.966796875,5038.57958984375,2404.848876953125,8604.5263671875,9645.62109375,-766.9130859375,2958.774658203125,-2621.014892578125,10193.984375,-12.715657234191895,3631.114990234375,136.6933135986328,2698.8984375,607.9674072265625,19170.443359375,916.3220825195312,7050.03759765625,-1634.7567138671875,8364.5185546875,21633.306640625,18324.056640625,14599.958984375,-0.0,-33326.94140625,15267.53125,3384.749267578125,0.0,4301.8662109375,0.0,0.0
11916.16015625,9195.8046875,21592.775390625,6197.2939453125,24536.451171875,1503.62646484375,3091.494384765625,2504.189697265625,4965.46435546875,1903.375,12063.185546875,-2567.76806640625,4478.2958984375,0.0,17693.04296875,168.4824676513672,20788.51171875,12420.0185546875,5571.84228515625,7441.8388671875,18439.29296875,24422.009765625,9237.92578125,14429.0927734375,15648.20703125,1639.5250244140625,23983.3203125,-5946.9541015625,0.0,127.95130920410156,9715.556640625,3257.592529296875,19080.638671875,13521.51171875,7712.04638671875,19551.912109375,6484.9853515625,8176.962890625,3007.2529296875,-1493.2950439453125,18495.71875,4043.5791015625,13835.4296875,5027.453125,2392.927978515625,8597.3740234375,9633.7001953125,-782.012939453125,2947.648193359375,-2628.16748046875,10185.2421875,-24.636587142944336,3617.6044921875,126.36184692382812,2688.56689453125,596.0464477539062,19162.49609375,904.401123046875,7042.884765625,-1645.8829345703125,8354.9814453125,21626.94921875,18313.7265625,14586.4482421875,-0.0,-33341.24609375,15258.7890625,3374.41748046875,0.0,4291.5341796875,0.0,0.0
11916.955078125,9198.1884765625,21598.33984375,6202.06201171875,24540.423828125,1509.1895751953125,3091.494384765625,2508.9580078125,4958.3115234375,1906.5538330078125,12067.1591796875,-2562.205078125,4474.32177734375,0.0,17692.248046875,176.42974853515625,20794.072265625,12427.1708984375,5573.431640625,7444.22314453125,18442.47265625,24427.572265625,9236.3359375,14433.8603515625,15652.974609375,1645.8829345703125,23982.525390625,-5941.39111328125,0.0,126.36184692382812,9721.1201171875,3261.566162109375,19085.408203125,13526.2802734375,7717.609375,19555.091796875,6487.36962890625,8179.34716796875,3009.63720703125,-1497.2686767578125,18501.28125,4046.758056640625,13836.224609375,5032.22119140625,2391.33837890625,8599.7578125,9637.673828125,-780.4234619140625,2945.26416015625,-2621.014892578125,10186.0361328125,-19.073486328125,3628.730712890625,129.54075622558594,2687.77197265625,603.198974609375,19159.31640625,905.9906005859375,7044.47412109375,-1641.1146240234375,8352.59765625,21630.921875,18317.69921875,14584.064453125,-0.0,-33340.453125,15260.37890625,3372.828125,0.0,4287.56103515625,0.0,0.0
11920.134765625,9208.51953125,21602.3125,6204.4462890625,24546.78125,1511.57373046875,3091.494384765625,2512.13720703125,4950.36474609375,1908.1434326171875,12075.9013671875,-2559.82080078125,4483.06396484375,0.0,17695.427734375,180.4033966064453,20799.63671875,12431.939453125,5574.2265625,7445.017578125,18445.650390625,24432.33984375,9234.74609375,14437.8349609375,15664.1005859375,1652.24072265625,23984.908203125,-5940.59619140625,0.0,127.15657043457031,9723.50390625,3267.924072265625,19090.17578125,13530.25390625,7719.99365234375,19558.271484375,6488.16455078125,8183.31982421875,3010.431884765625,-1483.75830078125,18507.638671875,4050.731689453125,13840.9931640625,5034.60546875,2388.9541015625,8601.34765625,9651.18359375,-782.012939453125,2951.6220703125,-2616.24658203125,10186.0361328125,-15.09984302520752,3638.267578125,133.514404296875,2696.51416015625,607.1726684570312,19164.0859375,906.7853393554688,7040.50048828125,-1642.7039794921875,8351.802734375,21632.513671875,18319.2890625,14580.8857421875,-0.0,-33338.0703125,15261.9677734375,3375.21240234375,0.0,4285.1767578125,0.0,0.0
11921.7236328125,9213.2880859375,21603.107421875,6206.03564453125,24547.576171875,1512.3685302734375,3087.5205078125,2507.368896484375,4940.033203125,1903.375,12076.6953125,-2561.41015625,4483.06396484375,0.0,17692.248046875,177.22447204589844,20796.45703125,12423.9921875,5571.04736328125,7439.45458984375,18444.857421875,24435.51953125,9228.388671875,14435.4501953125,15666.484375,1657.0091552734375,23982.525390625,-5942.98046875,0.0,127.95130920410156,9721.9150390625,3264.7451171875,19090.970703125,13530.25390625,7716.814453125,19558.271484375,6485.7802734375,8180.93603515625,3004.07421875,-1486.1424560546875,18509.23046875,4053.11572265625,13837.01953125,5031.4267578125,2383.39111328125,8597.3740234375,9651.978515625,-805.06005859375,2951.6220703125,-2612.27294921875,10181.267578125,-19.073486328125,3639.062255859375,138.28277587890625,2695.719482421875,607.9674072265625,19161.701171875,905.9906005859375,7036.52734375,-1649.8565673828125,8362.1337890625,21629.333984375,18316.111328125,14570.5537109375,-0.0,-33338.86328125,15259.5830078125,3376.8017578125,0.0,4271.666015625,0.0,0.0
11915.3662109375,9210.904296875,21599.927734375,6194.90966796875,24542.80859375,1509.1895751953125,3082.752197265625,2502.600341796875,4927.3173828125,1893.8382568359375,12063.98046875,-2561.41015625,4471.14306640625,0.0,17687.478515625,175.63502502441406,20792.484375,12416.044921875,5565.484375,7430.71240234375,18439.29296875,24426.779296875,9221.236328125,14430.6826171875,15663.3056640625,1656.21435546875,23977.755859375,-5940.59619140625,0.0,126.36184692382812,9717.146484375,3257.592529296875,19085.408203125,13523.896484375,7709.662109375,19553.50390625,6479.421875,8175.373046875,3004.07421875,-1490.910888671875,18506.05078125,4046.758056640625,13829.8671875,5029.04248046875,2378.622802734375,8592.60546875,9648.005859375,-804.2653198242188,2946.853515625,-2606.709716796875,10174.91015625,-21.457672119140625,3633.4990234375,141.46168518066406,2689.361572265625,612.7357177734375,19152.958984375,913.1431884765625,7031.7587890625,-1654.625,8361.33984375,21622.181640625,18309.751953125,14557.8388671875,-0.0,-33336.48046875,15256.4052734375,3379.18603515625,0.0,4255.771484375,0.0,0.0
11909.802734375,9210.109375,21608.671875,6194.11474609375,24542.80859375,1508.3948974609375,3081.95751953125,2502.600341796875,4920.95947265625,1890.6593017578125,12066.3642578125,-2562.205078125,4475.11669921875,0.0,17688.2734375,176.42974853515625,20794.072265625,12420.0185546875,5564.689453125,7426.73876953125,18440.880859375,24424.39453125,9221.236328125,14428.2978515625,15665.689453125,1656.21435546875,23980.140625,-5939.0068359375,0.0,126.36184692382812,9718.7353515625,3259.181884765625,19086.203125,13523.896484375,7712.8408203125,19551.912109375,6479.421875,8173.783203125,3009.63720703125,-1487.73193359375,18507.638671875,4045.96337890625,13831.4560546875,5029.8369140625,2380.212158203125,8592.60546875,9654.3623046875,-784.3970947265625,2948.443115234375,-2609.093994140625,10176.4990234375,-20.66294288635254,3639.062255859375,138.28277587890625,2694.1298828125,607.1726684570312,19158.521484375,917.9114990234375,7031.7587890625,-1655.419677734375,8362.1337890625,21622.181640625,18309.751953125,14548.3017578125,-0.0,-33336.48046875,15257.19921875,3372.033447265625,0.0,4251.79833984375,0.0,0.0
11913.7763671875,9208.51953125,21610.259765625,6203.6513671875,24546.78125,1509.1895751953125,3086.725830078125,2510.547607421875,4924.138671875,1900.9908447265625,12071.1328125,-2555.84716796875,4493.3955078125,0.0,17693.04296875,185.17176818847656,20796.45703125,12423.197265625,5568.6630859375,7434.68603515625,18443.265625,24429.162109375,9222.8251953125,14432.271484375,15668.0732421875,1654.625,23985.705078125,-5936.62255859375,0.0,127.95130920410156,9719.53125,3263.15576171875,19089.380859375,13528.6650390625,7713.6357421875,19553.50390625,6483.39599609375,8180.1416015625,3015.200439453125,-1482.963623046875,18507.638671875,4045.96337890625,13836.224609375,5032.22119140625,2384.185791015625,8598.9638671875,9660.720703125,-769.2973022460938,2950.827392578125,-2613.067626953125,10182.857421875,-14.30511474609375,3642.2412109375,133.514404296875,2706.845458984375,607.9674072265625,19165.673828125,924.2693481445312,7038.9111328125,-1645.088134765625,8366.90234375,21625.361328125,18314.51953125,14554.66015625,-0.0,-33333.30078125,15260.37890625,3379.980712890625,0.0,4267.6923828125,0.0,0.0
11918.544921875,9192.6259765625,21597.54296875,6200.47216796875,24539.62890625,1501.2423095703125,3081.16259765625,2504.984619140625,4921.75439453125,1904.9644775390625,12063.98046875,-2562.205078125,4488.626953125,0.0,17693.04296875,178.81393432617188,20789.3046875,12412.0712890625,5563.89453125,7438.65966796875,18436.11328125,24421.21484375,9214.8779296875,14427.5029296875,15664.1005859375,1644.29345703125,23984.11328125,-5944.56982421875,0.0,118.41455841064453,9711.5830078125,3256.003173828125,19080.638671875,13521.51171875,7707.27783203125,19547.14453125,6477.8330078125,8173.783203125,3008.0478515625,-1491.70556640625,18499.693359375,4038.810791015625,13831.4560546875,5024.2744140625,2381.0068359375,8594.990234375,9653.568359375,-774.065673828125,2946.853515625,-2622.6044921875,10182.0634765625,-21.457672119140625,3631.90966796875,122.38819885253906,2686.977294921875,601.6095581054688,19164.0859375,912.3484497070312,7042.08984375,-1646.6776123046875,8358.1611328125,21619.001953125,18312.931640625,14564.1962890625,-0.0,-33341.24609375,15261.9677734375,3377.5966796875,0.0,4285.97119140625,0.0,0.0
11917.75,9187.0625,21600.72265625,6196.4990234375,24541.21875,1497.2686767578125,3081.16259765625,2501.8056640625,4921.75439453125,1908.1434326171875,12067.1591796875,-2572.536376953125,4473.52734375,0.0,17693.837890625,175.63502502441406,20790.099609375,12409.6875,5565.484375,7443.42822265625,18434.525390625,24419.626953125,9214.083984375,14425.1181640625,15672.048828125,1639.5250244140625,23986.498046875,-5951.72265625,0.0,116.0303726196289,9710.7890625,3254.41357421875,19081.43359375,13517.5390625,7707.27783203125,19546.349609375,6479.421875,8173.783203125,3012.816162109375,-1494.884521484375,18501.28125,4035.631591796875,13834.6357421875,5021.89013671875,2384.185791015625,8594.990234375,9653.568359375,-778.039306640625,2951.6220703125,-2628.16748046875,10182.857421875,-22.25240135192871,3633.4990234375,114.44091796875,2676.64599609375,596.0464477539062,19160.90625,898.8380126953125,7044.47412109375,-1645.088134765625,8352.59765625,21618.20703125,18316.111328125,14576.1171875,-0.0,-33360.3203125,15261.9677734375,3376.007080078125,0.0,4297.89208984375,0.0,0.0
11905.8291015625,9179.91015625,21591.982421875,6184.578125,24530.091796875,1483.75830078125,3077.189208984375,2490.679443359375,4920.16455078125,1904.9644775390625,12058.4169921875,-2583.662841796875,4472.732421875,0.0,17691.453125,162.1246337890625,20779.767578125,12403.3291015625,5557.537109375,7442.63330078125,18424.193359375,24407.705078125,9206.9306640625,14414.787109375,15653.7685546875,1623.6304931640625,23978.552734375,-5969.20654296875,0.0,99.34107208251953,9701.251953125,3244.082275390625,19070.306640625,13506.412109375,7696.94677734375,19534.4296875,6474.65380859375,8165.0419921875,3007.2529296875,-1514.752685546875,18490.94921875,4021.32666015625,13825.0986328125,5009.17431640625,2379.41748046875,8587.04296875,9639.2626953125,-794.7285766601562,2938.111572265625,-2647.240966796875,10178.0888671875,-33.37860107421875,3625.552001953125,98.54634857177734,2696.51416015625,581.7413330078125,19159.31640625,878.9698486328125,7040.50048828125,-1651.446044921875,8339.8818359375,21611.0546875,18309.751953125,14577.7060546875,-0.0,-33388.13671875,15257.19921875,3368.059814453125,0.0,4297.89208984375,0.0,0.0
11906.6240234375,9178.3212890625,21588.0078125,6182.19384765625,24526.119140625,1484.552978515625,3078.778564453125,2492.268798828125,4921.75439453125,1904.9644775390625,12057.6220703125,-2578.894287109375,4470.34814453125,0.0,17690.658203125,167.68772888183594,20775.794921875,12403.3291015625,5557.537109375,7441.8388671875,18421.015625,24404.525390625,9206.9306640625,14413.197265625,15649.7958984375,1622.8358154296875,23975.373046875,-5968.412109375,0.0,95.367431640625,9701.251953125,3243.287353515625,19068.71875,13505.6181640625,7692.97265625,19533.634765625,6474.65380859375,8165.83642578125,2988.179443359375,-1508.3948974609375,18488.56640625,4022.121337890625,13821.919921875,5007.5849609375,2381.801513671875,8589.4267578125,9635.2890625,-797.9075317382812,2934.9326171875,-2648.03564453125,10178.8837890625,-30.994415283203125,3619.98876953125,99.34107208251953,2695.719482421875,587.304443359375,19159.31640625,881.35400390625,7041.29541015625,-1649.061767578125,8339.087890625,21611.849609375,18308.958984375,14574.52734375,-0.0,-33388.9296875,15257.19921875,3374.41748046875,0.0,4299.48193359375,0.0,0.0
11913.7763671875,9179.115234375,21591.1875,6188.55126953125,24530.88671875,1490.1160888671875,3082.752197265625,2495.44775390625,4923.34375,1904.169677734375,12063.98046875,-2577.304931640625,4476.7060546875,0.0,17692.248046875,171.661376953125,20781.359375,12408.892578125,5561.5107421875,7441.0439453125,18425.783203125,24409.294921875,9209.3154296875,14417.9658203125,15658.537109375,1629.193603515625,23980.140625,-5962.8486328125,0.0,99.34107208251953,9706.814453125,3250.43994140625,19074.28125,13511.9755859375,7697.7412109375,19537.607421875,6477.0380859375,8168.220703125,2991.3583984375,-1491.70556640625,18493.333984375,4029.27392578125,13828.27734375,5015.5322265625,2386.570068359375,8589.4267578125,9632.1103515625,-793.13916015625,2941.29052734375,-2640.88330078125,10182.857421875,-27.02077293395996,3621.578125,110.46727752685547,2694.1298828125,580.9465942382812,19161.701171875,886.9171142578125,7040.50048828125,-1649.061767578125,8336.703125,21614.232421875,18311.341796875,14569.759765625,-0.0,-33382.57421875,15256.4052734375,3378.391357421875,0.0,4289.9453125,0.0,0.0
11914.5712890625,9183.8837890625,21595.16015625,6186.16748046875,24530.091796875,1488.5267333984375,3086.725830078125,2494.653076171875,4927.3173828125,1903.375,12060.005859375,-2578.099609375,4479.09033203125,0.0,17693.837890625,166.09828186035156,20782.947265625,12414.455078125,5560.71630859375,7441.0439453125,18426.576171875,24412.474609375,9212.494140625,14419.5556640625,15654.5634765625,1627.6041259765625,23981.73046875,-5962.8486328125,0.0,94.57270050048828,9706.0205078125,3252.029296875,19075.07421875,13514.359375,7699.33056640625,19538.40234375,6478.62744140625,8169.01513671875,2986.590087890625,-1495.67919921875,18492.541015625,4029.27392578125,13829.8671875,5014.73779296875,2389.748779296875,8590.2216796875,9631.31640625,-802.6759033203125,2940.495849609375,-2642.472412109375,10185.2421875,-30.19968605041504,3626.3466796875,110.46727752685547,2694.924560546875,574.5887451171875,19164.880859375,884.532958984375,7042.884765625,-1648.26708984375,8335.11328125,21615.029296875,18312.931640625,14569.759765625,-0.0,-33386.546875,15257.19921875,3374.41748046875,0.0,4288.35546875,0.0,0.0
11908.2138671875,9190.2421875,21591.982421875,6190.14111328125,24529.298828125,1489.3214111328125,3087.5205078125,2493.063720703125,4930.49609375,1902.580322265625,12055.2373046875,-2577.304931640625,4481.474609375,0.0,17693.837890625,161.3299102783203,20782.15234375,12415.25,5561.5107421875,7440.2490234375,18428.16796875,24411.677734375,9214.083984375,14419.5556640625,15649.0,1624.42529296875,23982.525390625,-5965.23291015625,0.0,95.367431640625,9706.814453125,3251.23486328125,19074.28125,13514.359375,7702.50927734375,19538.40234375,6477.8330078125,8169.01513671875,2991.3583984375,-1499.65283203125,18488.56640625,4028.47900390625,13829.8671875,5013.14794921875,2389.748779296875,8587.8369140625,9632.9052734375,-810.6231689453125,2942.085205078125,-2645.651611328125,10187.6259765625,-35.762786865234375,3631.90966796875,112.05673217773438,2689.361572265625,577.7677001953125,19164.0859375,882.1487426757812,7047.6533203125,-1652.24072265625,8347.0341796875,21615.82421875,18312.134765625,14568.96484375,-0.0,-33388.13671875,15251.63671875,3371.23876953125,0.0,4290.73974609375,0.0,0.0
11913.7763671875,9191.8310546875,21595.955078125,6199.677734375,24537.244140625,1497.2686767578125,3092.2890625,2499.42138671875,4935.2646484375,1907.3486328125,12065.5703125,-2570.947021484375,4492.60107421875,0.0,17696.22265625,169.27719116210938,20787.716796875,12419.2236328125,5567.86865234375,7443.42822265625,18436.908203125,24417.2421875,9222.8251953125,14424.32421875,15659.33203125,1632.37255859375,23990.47265625,-5958.080078125,0.0,104.10944366455078,9713.9677734375,3255.208251953125,19081.43359375,13519.1279296875,7710.45703125,19544.759765625,6483.39599609375,8173.783203125,3016.789794921875,-1498.0634765625,18496.513671875,4034.837158203125,13837.814453125,5021.09521484375,2395.31201171875,8592.60546875,9645.62109375,-802.6759033203125,2949.23779296875,-2640.08837890625,10190.8046875,-32.5838737487793,3636.677978515625,120.00402069091797,2698.103759765625,588.0991821289062,19167.265625,893.2749633789062,7048.4482421875,-1648.26708984375,8356.5712890625,21623.76953125,18316.904296875,14572.9375,-0.0,-33381.77734375,15254.8154296875,3378.391357421875,0.0,4293.12353515625,0.0,0.0
11922.5185546875,9189.4462890625,21602.3125,6203.6513671875,24542.013671875,1500.4476318359375,3094.673095703125,2503.39501953125,4940.82763671875,1908.9381103515625,12066.3642578125,-2567.76806640625,4487.03759765625,0.0,17697.015625,174.04556274414062,20789.3046875,12420.0185546875,5571.84228515625,7448.1962890625,18439.29296875,24419.626953125,9226.798828125,14427.5029296875,15664.896484375,1634.7567138671875,23992.0625,-5953.31201171875,0.0,104.9041748046875,9717.94140625,3256.003173828125,19084.611328125,13522.3076171875,7714.43017578125,19547.939453125,6486.57470703125,8177.75732421875,3021.55810546875,-1502.037109375,18502.87109375,4037.221435546875,13839.404296875,5028.248046875,2398.490966796875,8595.7841796875,9648.7998046875,-795.5233154296875,2954.006103515625,-2636.11474609375,10192.39453125,-27.815500259399414,3631.114990234375,114.44091796875,2705.256103515625,592.0728149414062,19167.265625,899.6327514648438,7046.06396484375,-1645.088134765625,8359.75,21625.361328125,18320.083984375,14580.0908203125,-0.0,-33384.1640625,15261.1728515625,3376.007080078125,0.0,4292.3291015625,0.0,0.0
11909.802734375,9187.857421875,21599.134765625,6194.90966796875,24540.423828125,1495.67919921875,3093.083740234375,2500.21630859375,4940.033203125,1904.169677734375,12056.8271484375,-2578.099609375,4483.06396484375,0.0,17697.015625,171.661376953125,20785.33203125,12420.0185546875,5567.86865234375,7445.017578125,18435.3203125,24414.857421875,9222.0302734375,14423.529296875,15663.3056640625,1628.39892578125,23991.265625,-5958.080078125,0.0,96.9568862915039,9714.7626953125,3252.029296875,19079.84375,13516.744140625,7711.251953125,19543.966796875,6483.39599609375,8175.373046875,3015.200439453125,-1502.831787109375,18499.693359375,4031.658203125,13837.814453125,5025.06884765625,2396.106689453125,8591.015625,9645.62109375,-795.5233154296875,2954.006103515625,-2640.08837890625,10190.8046875,-30.994415283203125,3616.809814453125,113.64618682861328,2702.8720703125,585.7149658203125,19166.46875,897.2485961914062,7043.6796875,-1648.26708984375,8354.9814453125,21622.181640625,18315.314453125,14574.52734375,-0.0,-33397.67578125,15260.37890625,3371.23876953125,0.0,4289.150390625,0.0,0.0
11897.8818359375,9183.8837890625,21595.955078125,6183.783203125,24534.861328125,1492.500244140625,3088.315185546875,2497.83203125,4939.23828125,1898.606689453125,12051.2646484375,-2578.894287109375,4475.91162109375,0.0,17693.04296875,170.07191467285156,20781.359375,12416.83984375,5561.5107421875,7439.45458984375,18432.140625,24411.677734375,9218.8515625,14420.349609375,15654.5634765625,1626.0146484375,23982.525390625,-5959.66943359375,0.0,93.7779769897461,9708.404296875,3245.671630859375,19077.458984375,13512.7705078125,7707.27783203125,19539.9921875,6477.8330078125,8172.1943359375,3019.173828125,-1498.858154296875,18494.923828125,4028.47900390625,13831.4560546875,5022.6845703125,2392.927978515625,8587.8369140625,9641.6474609375,-797.9075317382812,2945.26416015625,-2638.4990234375,10185.2421875,-32.5838737487793,3608.862548828125,111.26200103759766,2694.1298828125,582.5360717773438,19161.701171875,894.8643798828125,7041.29541015625,-1654.625,8349.4189453125,21619.001953125,18309.751953125,14568.96484375,-0.0,-33400.05859375,15253.2265625,3367.264892578125,0.0,4282.79248046875,0.0,0.0
11907.41796875,9186.267578125,21597.54296875,6184.578125,24534.06640625,1496.473876953125,3086.725830078125,2496.242431640625,4942.4169921875,1896.222412109375,12054.443359375,-2573.3310546875,4475.91162109375,0.0,17691.453125,170.07191467285156,20781.359375,12410.4814453125,5561.5107421875,7437.86474609375,18431.345703125,24410.8828125,9219.646484375,14420.349609375,15654.5634765625,1626.8094482421875,23980.140625,-5958.080078125,0.0,94.57270050048828,9706.814453125,3249.645263671875,19076.666015625,13514.359375,7706.4833984375,19538.40234375,6475.44873046875,8171.39892578125,3031.0947265625,-1490.1160888671875,18494.12890625,4030.86328125,13832.251953125,5025.86376953125,2392.133056640625,8587.8369140625,9638.46875,-794.7285766601562,2944.469482421875,-2634.525390625,10183.65234375,-30.19968605041504,3616.809814453125,115.23564910888672,2689.361572265625,581.7413330078125,19161.701171875,894.0697021484375,7041.29541015625,-1655.419677734375,8348.6240234375,21616.6171875,18306.57421875,14568.96484375,-0.0,-33393.69921875,15253.2265625,3375.21240234375,0.0,4279.61328125,0.0,0.0
11919.3388671875,9193.419921875,21599.927734375,6191.73046875,24536.451171875,1499.65283203125,3086.725830078125,2495.44775390625,4945.59619140625,1893.04345703125,12054.443359375,-2574.920654296875,4482.26953125,0.0,17691.453125,162.9193572998047,20781.359375,12407.302734375,5563.10009765625,7434.68603515625,18431.345703125,24410.8828125,9221.236328125,14419.5556640625,15663.3056640625,1628.39892578125,23981.73046875,-5958.080078125,0.0,96.9568862915039,9709.994140625,3256.003173828125,19073.486328125,13516.744140625,7706.4833984375,19537.607421875,6475.44873046875,8171.39892578125,2984.2060546875,-1495.67919921875,18498.1015625,4034.04248046875,13833.8408203125,5025.86376953125,2390.543701171875,8586.2470703125,9638.46875,-793.13916015625,2950.032470703125,-2633.730712890625,10181.267578125,-33.37860107421875,3628.730712890625,118.41455841064453,2690.15625,576.9729614257812,19162.49609375,885.32763671875,7038.9111328125,-1657.0091552734375,8355.7763671875,21615.82421875,18304.982421875,14567.375,-0.0,-33399.265625,15255.6103515625,3374.41748046875,0.0,4278.0244140625,0.0,0.0
11916.955078125,9191.8310546875,21599.134765625,6186.9619140625,24539.62890625,1501.2423095703125,3085.93115234375,2496.242431640625,4950.36474609375,1893.04345703125,12056.8271484375,-2582.0732421875,4492.60107421875,0.0,17689.86328125,165.3035430908203,20781.359375,12411.2763671875,5563.89453125,7433.09619140625,18432.935546875,24410.08984375,9222.8251953125,14419.5556640625,15672.841796875,1623.6304931640625,23980.935546875,-5957.28564453125,0.0,93.7779769897461,9707.6103515625,3255.208251953125,19074.28125,13515.1552734375,7705.6884765625,19537.607421875,6473.859375,8169.81005859375,2991.3583984375,-1500.4476318359375,18502.076171875,4034.04248046875,13833.8408203125,5027.453125,2389.748779296875,8586.2470703125,9632.9052734375,-801.08642578125,2953.21142578125,-2636.909423828125,10181.267578125,-31.789142608642578,3630.3203125,114.44091796875,2690.15625,578.5624389648438,19159.31640625,886.1223754882812,7038.1162109375,-1654.625,8355.7763671875,21615.029296875,18303.39453125,14567.375,-0.0,-33411.1875,15256.4052734375,3372.033447265625,0.0,4278.0244140625,0.0,0.0
11909.0078125,9183.8837890625,21594.365234375,6182.19384765625,24534.861328125,1497.2686767578125,3081.95751953125,2492.268798828125,4957.51708984375,1886.6856689453125,12056.033203125,-2587.63623046875,4494.98486328125,0.0,17688.2734375,159.74044799804688,20776.58984375,12411.2763671875,5559.12646484375,7432.3017578125,18428.16796875,24405.3203125,9220.4404296875,14416.376953125,15665.689453125,1620.4515380859375,23976.9609375,-5961.25927734375,0.0,84.2412338256836,9702.841796875,3248.8505859375,19073.486328125,13513.5654296875,7702.50927734375,19531.25,6470.68017578125,8166.630859375,2992.94775390625,-1511.57373046875,18497.30859375,4031.658203125,13829.072265625,5025.06884765625,2388.159423828125,8581.4794921875,9635.2890625,-809.8284301757812,2949.23779296875,-2638.4990234375,10177.294921875,-34.1733283996582,3627.93603515625,102.51998901367188,2687.77197265625,577.7677001953125,19154.548828125,882.9434814453125,7038.9111328125,-1659.393310546875,8347.0341796875,21611.849609375,18300.21484375,14570.5537109375,-0.0,-33420.72265625,15255.6103515625,3364.086181640625,0.0,4268.4873046875,0.0,0.0
11905.8291015625,9178.3212890625,21594.365234375,6188.55126953125,24531.68359375,1495.67919921875,3080.3681640625,2487.50048828125,4964.669921875,1882.7120361328125,12059.2119140625,-2588.43115234375,4480.68017578125,0.0,17689.86328125,152.587890625,20776.58984375,12409.6875,5554.35791015625,7433.89111328125,18427.37109375,24403.73046875,9218.8515625,14411.6083984375,15656.15234375,1625.219970703125,23976.16796875,-5962.0537109375,0.0,86.62541961669922,9701.251953125,3250.43994140625,19071.8984375,13513.5654296875,7699.33056640625,19528.0703125,6468.2958984375,8164.24658203125,2993.74267578125,-1508.3948974609375,18494.923828125,4033.24755859375,13826.6875,5024.2744140625,2388.159423828125,8575.1220703125,9640.0576171875,-809.03369140625,2945.26416015625,-2638.4990234375,10178.8837890625,-38.94169998168945,3628.730712890625,100.93053436279297,2686.1826171875,576.17822265625,19152.1640625,879.7645263671875,7042.08984375,-1671.314208984375,8340.6767578125,21607.875,18298.625,14575.322265625,-0.0,-33421.515625,15256.4052734375,3352.9599609375,0.0,4259.7451171875,0.0,0.0
11896.29296875,9171.16796875,21591.982421875,6190.14111328125,24527.708984375,1494.0897216796875,3081.16259765625,2487.50048828125,4970.232421875,1885.8909912109375,12062.390625,-2592.404541015625,4459.22216796875,0.0,17689.86328125,154.17735290527344,20775.794921875,12406.5087890625,5553.5634765625,7440.2490234375,18423.3984375,24402.9375,9216.4677734375,14409.224609375,15646.6162109375,1625.219970703125,23973.783203125,-5963.6435546875,0.0,86.62541961669922,9698.0732421875,3246.46630859375,19070.306640625,13510.38671875,7697.7412109375,19526.482421875,6467.5009765625,8161.8623046875,2997.71630859375,-1506.805419921875,18490.94921875,4030.06884765625,13822.71484375,5021.89013671875,2388.9541015625,8575.916015625,9637.673828125,-809.03369140625,2939.701171875,-2640.88330078125,10180.4736328125,-38.94169998168945,3624.757080078125,104.9041748046875,2682.208984375,576.17822265625,19152.1640625,881.35400390625,7046.06396484375,-1668.9300537109375,8335.11328125,21605.4921875,18299.421875,14582.474609375,-0.0,-33427.875,15261.1728515625,3350.57568359375,0.0,4262.12939453125,0.0,0.0
11899.4716796875,9172.7568359375,21598.33984375,6187.7568359375,24534.06640625,1501.2423095703125,3086.725830078125,2496.242431640625,4969.43798828125,1895.427734375,12065.5703125,-2587.63623046875,4463.99072265625,0.0,17692.248046875,168.4824676513672,20781.359375,12408.892578125,5559.92138671875,7441.8388671875,18428.16796875,24407.705078125,9222.8251953125,14417.9658203125,15654.5634765625,1630.7830810546875,23977.755859375,-5955.6962890625,0.0,90.59906005859375,9705.2255859375,3251.23486328125,19075.87109375,13514.359375,7703.30419921875,19535.22265625,6473.859375,8170.6044921875,3004.07421875,-1501.2423095703125,18498.1015625,4036.426513671875,13827.4833984375,5028.248046875,2392.133056640625,8585.453125,9634.4951171875,-802.6759033203125,2942.8798828125,-2633.730712890625,10182.857421875,-28.6102294921875,3629.525390625,116.82510375976562,2689.361572265625,588.0991821289062,19159.31640625,892.480224609375,7046.06396484375,-1657.0091552734375,8343.060546875,21611.849609375,18304.189453125,14583.2705078125,-0.0,-33426.28515625,15261.9677734375,3361.701904296875,0.0,4278.81884765625,0.0,0.0
11905.8291015625,9178.3212890625,21598.33984375,6186.9619140625,24534.861328125,1501.2423095703125,3085.136474609375,2498.626708984375,4964.669921875,1896.222412109375,12061.595703125,-2583.662841796875,4471.9375,0.0,17691.453125,171.661376953125,20784.537109375,12406.5087890625,5559.92138671875,7440.2490234375,18429.755859375,24411.677734375,9222.0302734375,14419.5556640625,15654.5634765625,1633.167236328125,23978.552734375,-5954.9013671875,0.0,89.80432891845703,9706.814453125,3250.43994140625,19079.05078125,13516.744140625,7702.50927734375,19537.607421875,6473.859375,8172.1943359375,3008.842529296875,-1498.858154296875,18497.30859375,4037.221435546875,13827.4833984375,5028.248046875,2390.543701171875,8586.2470703125,9634.4951171875,-803.4705810546875,2942.8798828125,-2630.551513671875,10182.0634765625,-26.226043701171875,3633.4990234375,111.26200103759766,2690.951171875,587.304443359375,19156.13671875,897.2485961914062,7045.26904296875,-1658.5985107421875,8345.4443359375,21612.64453125,18306.57421875,14580.8857421875,-0.0,-33425.4921875,15259.5830078125,3360.112548828125,0.0,4274.05029296875,0.0,0.0
11913.7763671875,9184.677734375,21599.134765625,6191.73046875,24534.861328125,1506.0106201171875,3084.341796875,2502.600341796875,4958.3115234375,1895.427734375,12056.8271484375,-2577.304931640625,4474.32177734375,0.0,17690.658203125,178.81393432617188,20784.537109375,12411.2763671875,5561.5107421875,7438.65966796875,18432.140625,24414.857421875,9223.6201171875,14422.734375,15657.7431640625,1637.9356689453125,23976.16796875,-5947.74853515625,0.0,89.80432891845703,9709.19921875,3248.8505859375,19078.25390625,13518.3330078125,7705.6884765625,19540.787109375,6476.24365234375,8173.783203125,3003.279541015625,-1502.037109375,18498.8984375,4040.400146484375,13828.27734375,5032.22119140625,2389.748779296875,8588.6318359375,9639.2626953125,-807.4442749023438,2946.05908203125,-2624.988525390625,10182.0634765625,-19.073486328125,3639.85693359375,108.08309173583984,2692.54052734375,578.5624389648438,19157.728515625,903.6064453125,7044.47412109375,-1657.0091552734375,8346.240234375,21616.6171875,18305.779296875,14571.349609375,-0.0,-33416.75,15257.9951171875,3352.165283203125,0.0,4267.6923828125,0.0,0.0
11911.392578125,9182.2939453125,21595.955078125,6187.7568359375,24535.65625,1503.62646484375,3081.95751953125,2501.010986328125,4951.1591796875,1891.4541015625,12060.005859375,-2585.251953125,4475.91162109375,0.0,17686.685546875,177.22447204589844,20780.5625,12412.865234375,5561.5107421875,7433.09619140625,18430.55078125,24415.650390625,9224.4150390625,14423.529296875,15660.9208984375,1634.7567138671875,23975.373046875,-5949.33837890625,0.0,84.2412338256836,9707.6103515625,3245.671630859375,19074.28125,13515.94921875,7706.4833984375,19539.9921875,6475.44873046875,8174.57861328125,2994.537353515625,-1502.831787109375,18498.8984375,4037.221435546875,13828.27734375,5032.22119140625,2386.570068359375,8588.6318359375,9634.4951171875,-809.03369140625,2947.648193359375,-2625.783203125,10178.8837890625,-23.047128677368164,3641.4462890625,106.4936294555664,2690.951171875,576.17822265625,19157.728515625,898.8380126953125,7038.1162109375,-1656.21435546875,8343.060546875,21618.20703125,18304.189453125,14563.4013671875,-0.0,-33424.6953125,15252.4306640625,3346.602294921875,0.0,4254.18212890625,0.0,0.0
11896.29296875,9177.525390625,21591.1875,6178.22021484375,24534.06640625,1497.2686767578125,3078.778564453125,2493.063720703125,4945.59619140625,1889.0699462890625,12059.2119140625,-2595.583740234375,4478.2958984375,0.0,17681.91796875,164.50881958007812,20774.20703125,12410.4814453125,5558.33203125,7428.328125,18424.193359375,24409.294921875,9221.236328125,14420.349609375,15653.7685546875,1628.39892578125,23973.783203125,-5961.25927734375,0.0,70.73084259033203,9703.6357421875,3240.903076171875,19070.306640625,13511.1806640625,7703.30419921875,19536.017578125,6472.26953125,8170.6044921875,2990.563720703125,-1507.6002197265625,18493.333984375,4030.86328125,13826.6875,5025.06884765625,2383.39111328125,8582.2744140625,9626.5478515625,-815.3915405273438,2943.6748046875,-2634.525390625,10177.294921875,-34.96805953979492,3630.3203125,100.93053436279297,2689.361572265625,573.7940673828125,19152.958984375,885.32763671875,7033.34814453125,-1664.9564208984375,8338.2919921875,21617.412109375,18300.21484375,14560.22265625,-0.0,-33436.61328125,15254.8154296875,3360.112548828125,0.0,4261.3349609375,0.0,0.0
11889.1396484375,9172.7568359375,21595.16015625,6173.45166015625,24534.06640625,1494.884521484375,3079.573486328125,2491.47412109375,4944.00634765625,1889.8646240234375,12054.443359375,-2590.815185546875,4480.68017578125,0.0,17682.7109375,163.71409606933594,20773.41015625,12411.2763671875,5559.12646484375,7428.328125,18424.98828125,24406.91015625,9223.6201171875,14417.9658203125,15653.7685546875,1625.219970703125,23975.373046875,-5965.23291015625,0.0,68.3466567993164,9703.6357421875,3239.313720703125,19070.306640625,13509.5908203125,7703.30419921875,19534.4296875,6473.859375,8171.39892578125,2991.3583984375,-1513.1632080078125,18493.333984375,4026.889892578125,13828.27734375,5023.4794921875,2382.59619140625,8580.6845703125,9631.31640625,-819.3651733398438,2946.05908203125,-2644.06201171875,10176.4990234375,-37.35224533081055,3619.194091796875,99.34107208251953,2689.361572265625,574.5887451171875,19150.576171875,885.32763671875,7032.55322265625,-1663.366943359375,8335.11328125,21615.82421875,18299.421875,14557.8388671875,-0.0,-33438.20703125,15250.841796875,3369.649169921875,0.0,4272.4609375,0.0,0.0
11888.3447265625,9164.810546875,21591.1875,6160.736328125,24528.50390625,1490.1160888671875,3077.189208984375,2487.50048828125,4942.4169921875,1885.8909912109375,12041.7275390625,-2593.199462890625,4477.5009765625,0.0,17681.91796875,162.1246337890625,20768.642578125,12408.09765625,5555.15283203125,7424.3544921875,18420.21875,24398.962890625,9222.0302734375,14413.197265625,15649.7958984375,1614.8885498046875,23972.98828125,-5967.6171875,0.0,61.98883056640625,9699.662109375,3235.340087890625,19065.5390625,13504.822265625,7700.125,19528.865234375,6470.68017578125,8166.630859375,2988.974365234375,-1518.726318359375,18486.181640625,4020.5322265625,13824.3037109375,5017.916015625,2381.0068359375,8578.30078125,9632.1103515625,-832.080810546875,2942.8798828125,-2652.00927734375,10174.91015625,-38.94169998168945,3612.836181640625,85.03595733642578,2686.977294921875,576.9729614257812,19152.1640625,883.7382202148438,7032.55322265625,-1666.5458984375,8331.9345703125,21611.849609375,18297.037109375,14561.8125,-0.0,-33444.56640625,15246.0732421875,3367.264892578125,0.0,4262.12939453125,0.0,0.0
11879.603515625,9163.220703125,21574.498046875,6148.0205078125,24515.787109375,1480.579345703125,3070.831298828125,2478.758544921875,4943.2119140625,1879.533203125,12024.2431640625,-2603.53076171875,4462.40087890625,0.0,17678.73828125,149.4089813232422,20755.92578125,12400.150390625,5544.02685546875,7423.5595703125,18405.9140625,24389.42578125,9210.109375,14402.8662109375,15637.0791015625,1603.7623291015625,23965.8359375,-5974.76953125,0.0,51.6573600769043,9686.15234375,3225.0087890625,19052.82421875,13493.697265625,7688.2041015625,19518.533203125,6461.1435546875,8155.50537109375,2973.07958984375,-1529.8525390625,18472.671875,4014.174072265625,13813.177734375,5009.17431640625,2377.033203125,8569.55859375,9619.3955078125,-854.333251953125,2930.164306640625,-2657.572509765625,10168.552734375,-48.47844314575195,3593.7626953125,79.47286224365234,2675.056396484375,570.6151123046875,19148.984375,872.6119995117188,7028.57958984375,-1676.0826416015625,8323.9873046875,21601.51953125,18291.47265625,14565.78515625,-0.0,-33453.3046875,15249.251953125,3356.93359375,0.0,4249.4140625,0.0,0.0
11872.451171875,9163.220703125,21565.755859375,6151.994140625,24511.01953125,1476.605712890625,3070.831298828125,2476.374267578125,4951.9541015625,1879.533203125,12031.3955078125,-2609.888671875,4458.42724609375,0.0,17680.326171875,150.99842834472656,20754.337890625,12397.765625,5543.23193359375,7426.73876953125,18403.529296875,24388.630859375,9206.9306640625,14398.09765625,15633.1064453125,1602.9676513671875,23964.24609375,-5977.94873046875,0.0,50.067901611328125,9683.7685546875,3225.803466796875,19048.849609375,13490.517578125,7684.23095703125,19512.97265625,6457.96435546875,8154.7099609375,2977.84814453125,-1532.2366943359375,18471.08203125,4009.405517578125,13810.7939453125,5007.5849609375,2380.212158203125,8570.353515625,9608.2685546875,-851.154296875,2924.601318359375,-2656.777587890625,10170.142578125,-48.47844314575195,3586.610107421875,79.47286224365234,2671.082763671875,565.8467407226562,19148.19140625,874.9962158203125,7033.34814453125,-1677.6719970703125,8321.6025390625,21596.75,18291.47265625,14568.169921875,-0.0,-33459.6640625,15256.4052734375,3356.93359375,0.0,4243.0556640625,0.0,0.0
11875.6298828125,9163.220703125,21576.0859375,6167.09375,24516.58203125,1484.552978515625,3080.3681640625,2487.50048828125,4964.669921875,1900.196044921875,12040.138671875,-2610.683349609375,4467.16943359375,0.0,17686.685546875,164.50881958007812,20762.28515625,12400.9443359375,5555.15283203125,7442.63330078125,18411.478515625,24395.78515625,9215.6728515625,14405.2509765625,15642.642578125,1614.8885498046875,23970.603515625,-5967.6171875,0.0,62.78356170654297,9691.71484375,3232.161376953125,19056.001953125,13500.0546875,7688.2041015625,19521.712890625,6468.2958984375,8165.0419921875,2984.2060546875,-1525.0841064453125,18476.64453125,4022.916259765625,13817.9462890625,5016.3271484375,2390.543701171875,8582.2744140625,9609.0634765625,-832.080810546875,2932.548583984375,-2647.240966796875,10177.294921875,-36.55751419067383,3591.37841796875,94.57270050048828,2673.467041015625,575.3834838867188,19150.576171875,890.0960083007812,7040.50048828125,-1660.1881103515625,8327.1669921875,21606.287109375,18301.8046875,14586.4482421875,-0.0,-33458.87109375,15257.9951171875,3368.059814453125,0.0,4262.92431640625,0.0,0.0
11887.55078125,9175.9365234375,21595.16015625,6186.9619140625,24530.88671875,1500.4476318359375,3093.87841796875,2508.16357421875,4971.02734375,1925.6273193359375,12048.0849609375,-2588.43115234375,4478.2958984375,0.0,17689.0703125,187.5559539794922,20780.5625,12412.865234375,5570.2529296875,7452.169921875,18426.576171875,24411.677734375,9232.361328125,14422.734375,15656.15234375,1632.37255859375,23981.73046875,-5949.33837890625,0.0,78.67813110351562,9706.0205078125,3249.645263671875,19072.69140625,13517.5390625,7703.30419921875,19536.814453125,6483.39599609375,8183.31982421875,3012.816162109375,-1519.5211181640625,18490.15625,4040.400146484375,13831.4560546875,5034.60546875,2401.669677734375,8602.142578125,9632.9052734375,-825.7230224609375,2947.648193359375,-2631.346435546875,10185.2421875,-16.689300537109375,3606.478515625,118.41455841064453,2680.619384765625,588.8939208984375,19158.521484375,909.9642333984375,7041.29541015625,-1633.167236328125,8346.240234375,21620.591796875,18315.314453125,14592.01171875,-0.0,-33436.61328125,15248.4580078125,3386.33837890625,0.0,4301.8662109375,0.0,0.0
11905.8291015625,9194.21484375,21611.0546875,6190.935546875,24544.396484375,1517.136962890625,3105.004638671875,2521.673828125,4978.1796875,1935.1640625,12062.390625,-2566.178466796875,4487.03759765625,0.0,17694.630859375,202.65579223632812,20792.484375,12431.939453125,5583.76318359375,7457.7333984375,18439.29296875,24422.8046875,9247.4619140625,14435.4501953125,15672.841796875,1662.572265625,23992.857421875,-5931.8544921875,0.0,95.367431640625,9721.1201171875,3263.950439453125,19087.791015625,13531.84375,7718.404296875,19550.32421875,6494.52197265625,8197.625,3015.200439453125,-1500.4476318359375,18506.05078125,4057.08935546875,13843.376953125,5050.50048828125,2410.411865234375,8614.857421875,9654.3623046875,-805.06005859375,2960.364013671875,-2615.451904296875,10193.1884765625,-4.76837158203125,3618.3994140625,133.514404296875,2697.308837890625,611.1463012695312,19165.673828125,926.653564453125,7044.47412109375,-1618.0673828125,8361.33984375,21634.896484375,18326.44140625,14596.7802734375,-0.0,-33414.36328125,15249.251953125,3393.490966796875,0.0,4325.7080078125,0.0,0.0
11926.4921875,9210.904296875,21622.181640625,6200.47216796875,24550.755859375,1524.2894287109375,3108.978271484375,2518.494873046875,4987.716796875,1910.527587890625,12074.3115234375,-2551.87353515625,4496.57421875,0.0,17702.580078125,195.50323486328125,20802.021484375,12442.271484375,5586.1474609375,7448.1962890625,18446.4453125,24431.546875,9254.615234375,14441.013671875,15676.8173828125,1656.21435546875,23996.830078125,-5928.67529296875,0.0,108.08309173583984,9728.2724609375,3274.28173828125,19094.943359375,13542.17578125,7723.96728515625,19555.091796875,6499.29052734375,8199.21484375,3005.66357421875,-1467.8636474609375,18511.61328125,4064.241943359375,13846.556640625,5053.67919921875,2415.974853515625,8607.705078125,9663.10546875,-775.6550903320312,2961.953369140625,-2609.093994140625,10197.95703125,-10.33147144317627,3630.3203125,144.64060974121094,2717.17724609375,618.298828125,19172.033203125,928.2429809570312,7053.21630859375,-1640.31982421875,8372.4658203125,21640.458984375,18324.8515625,14584.064453125,-0.0,-33404.828125,15258.7890625,3375.21240234375,0.0,4289.150390625,0.0,0.0
11933.64453125,9205.341796875,21614.232421875,6213.18798828125,24546.78125,1518.726318359375,3108.18359375,2516.905517578125,4995.6640625,1910.527587890625,12074.3115234375,-2559.82080078125,4496.57421875,0.0,17702.580078125,196.29795837402344,20799.63671875,12430.3505859375,5582.96826171875,7452.96484375,18439.29296875,24429.162109375,9253.8193359375,14438.62890625,15667.2802734375,1640.31982421875,23988.8828125,-5931.8544921875,0.0,100.13580322265625,9723.50390625,3271.8974609375,19090.970703125,13539.791015625,7719.19873046875,19550.32421875,6497.701171875,8196.8310546875,3015.9951171875,-1472.632080078125,18506.845703125,4060.268310546875,13844.1728515625,5051.294921875,2417.564453125,8605.3212890625,9649.5947265625,-782.8076782226562,2956.390380859375,-2614.6572265625,10194.7783203125,-11.126200675964355,3630.3203125,135.10386657714844,2711.614013671875,611.1463012695312,19171.23828125,925.8588256835938,7054.0107421875,-1644.29345703125,8363.7236328125,21637.28125,18323.263671875,14594.3955078125,-0.0,-33415.953125,15262.7626953125,3376.8017578125,0.0,4275.64013671875,0.0,0.0
11921.7236328125,9188.65234375,21609.46484375,6205.24072265625,24540.423828125,1508.3948974609375,3104.2099609375,2510.547607421875,4994.869140625,1913.7064208984375,12067.9541015625,-2578.099609375,4491.01123046875,0.0,17699.400390625,190.73486328125,20794.072265625,12415.25,5578.19970703125,7451.37548828125,18433.728515625,24420.419921875,9247.4619140625,14429.88671875,15660.9208984375,1628.39892578125,23983.3203125,-5942.18603515625,0.0,84.2412338256836,9713.9677734375,3263.15576171875,19085.408203125,13532.638671875,7712.04638671875,19540.787109375,6491.34326171875,8188.8837890625,3012.816162109375,-1482.963623046875,18501.28125,4052.321044921875,13838.6083984375,5043.34765625,2412.7958984375,8603.732421875,9643.2373046875,-781.2182006835938,2951.6220703125,-2628.962158203125,10189.2158203125,-18.278757095336914,3623.96240234375,118.41455841064453,2706.05078125,593.6622314453125,19168.05859375,909.9642333984375,7049.24267578125,-1641.9093017578125,8346.240234375,21627.744140625,18320.083984375,14599.1640625,-0.0,-33438.20703125,15258.7890625,3387.13330078125,0.0,4285.97119140625,0.0,0.0
11911.392578125,9179.115234375,21602.3125,6193.31982421875,24532.4765625,1498.858154296875,3093.083740234375,2499.42138671875,4989.30615234375,1893.04345703125,12055.2373046875,-2586.046875,4482.26953125,0.0,17692.248046875,174.8402862548828,20786.919921875,12411.2763671875,5568.6630859375,7436.275390625,18428.9609375,24411.677734375,9243.48828125,14420.349609375,15650.5908203125,1620.4515380859375,23978.552734375,-5954.10693359375,0.0,81.06231689453125,9708.404296875,3256.7978515625,19078.25390625,13525.486328125,7705.6884765625,19533.634765625,6481.80615234375,8179.34716796875,3004.86865234375,-1483.75830078125,18494.923828125,4041.19482421875,13829.8671875,5033.81103515625,2401.669677734375,8588.6318359375,9642.44140625,-780.4234619140625,2942.8798828125,-2639.293701171875,10180.4736328125,-33.37860107421875,3622.372802734375,112.8514633178711,2697.308837890625,582.5360717773438,19160.11328125,897.2485961914062,7041.29541015625,-1661.7774658203125,8347.8291015625,21619.796875,18308.958984375,14583.2705078125,-0.0,-33452.51171875,15254.0205078125,3384.749267578125,0.0,4270.87158203125,0.0,0.0
11903.4453125,9167.9892578125,21596.75,6201.26708984375,24528.50390625,1494.0897216796875,3092.2890625,2499.42138671875,4994.07421875,1894.6329345703125,12050.4697265625,-2593.199462890625,4479.88525390625,0.0,17693.04296875,174.8402862548828,20780.5625,12412.865234375,5567.07373046875,7440.2490234375,18425.783203125,24406.91015625,9241.1044921875,14419.5556640625,15652.1796875,1613.299072265625,23976.16796875,-5956.4912109375,0.0,77.08867645263672,9705.2255859375,3251.23486328125,19075.87109375,13523.896484375,7702.50927734375,19529.662109375,6479.421875,8176.962890625,2997.71630859375,-1487.73193359375,18492.541015625,4034.04248046875,13825.8935546875,5031.4267578125,2400.080322265625,8589.4267578125,9636.0849609375,-782.012939453125,2942.085205078125,-2643.267333984375,10178.8837890625,-34.96805953979492,3619.98876953125,108.87781524658203,2694.1298828125,576.9729614257812,19159.31640625,894.0697021484375,7043.6796875,-1661.7774658203125,8350.212890625,21618.20703125,18308.958984375,14590.4228515625,-0.0,-33462.83984375,15256.4052734375,3387.13330078125,0.0,4270.87158203125,0.0,0.0
11913.7763671875,9175.1416015625,21603.107421875,6209.21484375,24535.65625,1502.831787109375,3098.64697265625,2504.189697265625,5004.40576171875,1905.7591552734375,12059.2119140625,-2593.199462890625,4483.06396484375,0.0,17695.427734375,178.0192108154297,20785.33203125,12418.4296875,5573.431640625,7449.78564453125,18433.728515625,24413.267578125,9247.4619140625,14426.7080078125,15658.537109375,1620.4515380859375,23977.755859375,-5951.72265625,0.0,79.47286224365234,9713.1728515625,3253.618896484375,19078.25390625,13527.8701171875,7709.662109375,19538.40234375,6484.1904296875,8184.90966796875,3000.895263671875,-1496.473876953125,18498.8984375,4041.98974609375,13829.8671875,5038.57958984375,2404.848876953125,8596.5791015625,9640.0576171875,-782.012939453125,2948.443115234375,-2635.320068359375,10182.857421875,-28.6102294921875,3624.757080078125,104.9041748046875,2698.8984375,577.7677001953125,19160.90625,891.6854858398438,7048.4482421875,-1651.446044921875,8357.365234375,21626.154296875,18313.7265625,14600.75390625,-0.0,-33465.2265625,15263.5576171875,3389.517578125,0.0,4278.81884765625,0.0,0.0
11920.134765625,9198.1884765625,21607.875,6206.83056640625,24538.041015625,1510.779052734375,3097.85205078125,2504.984619140625,4994.07421875,1898.606689453125,12061.595703125,-2583.662841796875,4484.6533203125,0.0,17689.0703125,179.60865783691406,20790.89453125,12420.8134765625,5573.431640625,7436.275390625,18436.908203125,24418.830078125,9249.8466796875,14429.0927734375,15653.7685546875,1633.167236328125,23976.9609375,-5943.775390625,0.0,86.62541961669922,9719.53125,3259.9765625,19082.228515625,13531.84375,7715.22509765625,19543.966796875,6482.60107421875,8185.7041015625,3006.458251953125,-1490.1160888671875,18502.076171875,4049.142333984375,13830.662109375,5044.93701171875,2399.28564453125,8592.60546875,9642.44140625,-782.012939453125,2949.23779296875,-2623.39892578125,10178.0888671875,-27.02077293395996,3628.730712890625,103.3147201538086,2700.48779296875,590.4833374023438,19157.728515625,901.2222290039062,7038.1162109375,-1653.0355224609375,8362.1337890625,21627.744140625,18306.57421875,14584.064453125,-0.0,-33454.1015625,15254.0205078125,3386.33837890625,0.0,4269.28173828125,0.0,0.0
11921.7236328125,9202.95703125,21610.259765625,6207.625,24538.041015625,1518.726318359375,3094.673095703125,2506.573974609375,4990.8955078125,1888.275146484375,12064.7744140625,-2578.894287109375,4484.6533203125,0.0,17685.095703125,181.9928436279297,20791.689453125,12427.1708984375,5571.84228515625,7423.5595703125,18436.11328125,24424.39453125,9252.23046875,14433.8603515625,15649.7958984375,1643.498779296875,23975.373046875,-5934.23828125,0.0,90.59906005859375,9721.1201171875,3258.38720703125,19083.818359375,13537.4072265625,7717.609375,19548.734375,6480.216796875,8184.115234375,3009.63720703125,-1489.3214111328125,18502.87109375,4057.88427734375,13829.8671875,5051.294921875,2393.72265625,8587.8369140625,9641.6474609375,-785.1918334960938,2949.23779296875,-2614.6572265625,10175.705078125,-26.226043701171875,3635.88330078125,114.44091796875,2701.282470703125,603.198974609375,19155.34375,913.1431884765625,7030.9638671875,-1660.9827880859375,8358.955078125,21627.744140625,18302.599609375,14571.349609375,-0.0,-33447.7421875,15254.0205078125,3383.15966796875,0.0,4254.18212890625,0.0,0.0
11924.9033203125,9203.751953125,21613.439453125,6215.572265625,24543.603515625,1529.8525390625,3099.44140625,2515.31591796875,5002.02197265625,1897.8118896484375,12067.9541015625,-2574.1259765625,4487.83251953125,0.0,17689.0703125,197.88742065429688,20794.869140625,12440.681640625,5578.19970703125,7433.89111328125,18443.265625,24429.162109375,9258.587890625,14441.8076171875,15658.537109375,1652.24072265625,23980.140625,-5925.49658203125,0.0,94.57270050048828,9726.68359375,3260.771484375,19090.970703125,13542.17578125,7722.3779296875,19555.091796875,6484.9853515625,8192.0625,3012.816162109375,-1495.67919921875,18506.05078125,4065.83154296875,13833.0458984375,5059.2421875,2401.669677734375,8596.5791015625,9632.9052734375,-785.1918334960938,2955.595703125,-2609.888671875,10180.4736328125,-13.51038646697998,3645.420166015625,129.54075622558594,2702.8720703125,612.7357177734375,19160.90625,928.2429809570312,7037.32177734375,-1649.8565673828125,8363.7236328125,21636.486328125,18308.162109375,14580.8857421875,-0.0,-33439.0,15259.5830078125,3391.10693359375,0.0,4264.513671875,0.0,0.0
11916.955078125,9195.009765625,21607.875,6216.3671875,24541.21875,1527.4683837890625,3096.2626953125,2511.34228515625,5005.9951171875,1896.222412109375,12063.185546875,-2582.867919921875,4490.216796875,0.0,17689.0703125,189.14540100097656,20791.689453125,12436.70703125,5575.021484375,7435.48046875,18439.29296875,24426.779296875,9256.9990234375,14437.8349609375,15661.716796875,1647.472412109375,23978.552734375,-5931.0595703125,0.0,84.2412338256836,9722.7099609375,3258.38720703125,19086.99609375,13537.4072265625,7717.609375,19551.912109375,6482.60107421875,8190.47265625,3002.484619140625,-1513.9580078125,18503.666015625,4065.83154296875,13831.4560546875,5055.2685546875,2399.28564453125,8591.8115234375,9622.57421875,-800.2916870117188,2953.21142578125,-2613.067626953125,10177.294921875,-19.868215560913086,3645.420166015625,125.56712341308594,2704.46142578125,600.0200805664062,19162.49609375,917.1168212890625,7038.1162109375,-1655.419677734375,8361.33984375,21631.716796875,18304.982421875,14587.2431640625,-0.0,-33453.3046875,15255.6103515625,3376.8017578125,0.0,4262.92431640625,0.0,0.0
11900.265625,9182.2939453125,21605.4921875,6197.2939453125,24531.68359375,1511.57373046875,3084.341796875,2501.010986328125,5002.81689453125,1891.4541015625,12056.033203125,-2601.146728515625,4482.26953125,0.0,17684.30078125,172.4561004638672,20780.5625,12418.4296875,5563.10009765625,7433.89111328125,18428.16796875,24414.0625,9245.078125,14426.7080078125,15655.359375,1631.577880859375,23971.3984375,-5942.98046875,0.0,69.14138793945312,9710.7890625,3246.46630859375,19075.87109375,13521.51171875,7705.6884765625,19540.787109375,6473.859375,8180.93603515625,2991.3583984375,-1510.779052734375,18495.71875,4051.526611328125,13821.919921875,5044.93701171875,2391.33837890625,8584.658203125,9635.2890625,-812.212646484375,2943.6748046875,-2625.783203125,10172.5263671875,-27.02077293395996,3624.757080078125,116.0303726196289,2696.51416015625,583.330810546875,19156.13671875,897.2485961914062,7036.52734375,-1663.366943359375,8350.212890625,21621.384765625,18297.037109375,14592.806640625,-0.0,-33480.328125,15251.63671875,3362.49658203125,0.0,4268.4873046875,0.0,0.0
11899.4716796875,9171.962890625,21597.54296875,6186.16748046875,24526.119140625,1502.037109375,3081.16259765625,2497.037109375,5000.4326171875,1893.04345703125,12053.6494140625,-2609.093994140625,4477.5009765625,0.0,17686.685546875,172.4561004638672,20773.41015625,12403.3291015625,5559.12646484375,7436.275390625,18420.21875,24407.705078125,9238.7197265625,14419.5556640625,15649.0,1621.246337890625,23971.3984375,-5950.927734375,0.0,65.96247100830078,9702.046875,3236.134765625,19068.71875,13514.359375,7698.5361328125,19532.837890625,6469.0908203125,8175.373046875,3006.458251953125,-1502.037109375,18489.361328125,4039.605712890625,13816.3564453125,5036.1953125,2386.570068359375,8582.2744140625,9627.341796875,-806.6495361328125,2937.31689453125,-2633.730712890625,10170.142578125,-27.815500259399414,3607.273193359375,116.0303726196289,2693.335205078125,581.7413330078125,19152.958984375,882.1487426757812,7039.70556640625,-1661.7774658203125,8347.8291015625,21615.82421875,18296.2421875,14597.5751953125,-0.0,-33491.453125,15260.37890625,3375.21240234375,0.0,4274.84521484375,0.0,0.0
11893.11328125,9163.220703125,21591.982421875,6180.6044921875,24521.3515625,1490.910888671875,3077.98388671875,2493.063720703125,4986.12744140625,1885.09619140625,12054.443359375,-2615.451904296875,4475.11669921875,0.0,17685.095703125,170.07191467285156,20767.84765625,12393.7919921875,5553.5634765625,7428.328125,18413.06640625,24400.552734375,9231.5673828125,14412.4033203125,15645.822265625,1613.299072265625,23969.80859375,-5958.875,0.0,60.39937210083008,9694.8935546875,3228.982177734375,19063.154296875,13509.5908203125,7691.38330078125,19526.482421875,6462.73291015625,8170.6044921875,2987.384765625,-1509.984375,18484.591796875,4029.27392578125,13809.998046875,5025.86376953125,2379.41748046875,8578.30078125,9624.1640625,-805.06005859375,2933.34326171875,-2645.651611328125,10165.3740234375,-32.5838737487793,3605.68359375,116.0303726196289,2690.15625,576.17822265625,19151.369140625,880.5592651367188,7035.732421875,-1670.51953125,8339.087890625,21608.671875,18292.26953125,14588.0380859375,-0.0,-33494.6328125,15255.6103515625,3371.23876953125,0.0,4258.15576171875,0.0,0.0
11893.908203125,9161.6318359375,21590.390625,6174.24609375,24519.76171875,1489.3214111328125,3074.804931640625,2494.653076171875,4976.5908203125,1893.8382568359375,12057.6220703125,-2609.888671875,4476.7060546875,0.0,17683.505859375,179.60865783691406,20767.84765625,12394.587890625,5555.15283203125,7429.91796875,18409.88671875,24399.7578125,9227.59375,14413.197265625,15644.2314453125,1614.8885498046875,23967.423828125,-5957.28564453125,0.0,63.578285217285156,9692.509765625,3227.392822265625,19063.154296875,13508.796875,7689.7939453125,19527.27734375,6464.32275390625,8172.1943359375,2984.2060546875,-1517.931640625,18480.619140625,4026.094970703125,13809.998046875,5025.86376953125,2377.033203125,8584.658203125,9637.673828125,-806.6495361328125,2934.137939453125,-2648.03564453125,10163.7841796875,-26.226043701171875,3615.22021484375,101.72525787353516,2687.77197265625,575.3834838867188,19152.1640625,890.0960083007812,7031.7587890625,-1660.9827880859375,8338.2919921875,21608.671875,18295.447265625,14583.2705078125,-0.0,-33489.86328125,15251.63671875,3370.444091796875,0.0,4258.95068359375,0.0,0.0
11894.703125,9172.7568359375,21591.982421875,6179.8095703125,24522.939453125,1498.858154296875,3078.778564453125,2504.189697265625,4974.20654296875,1902.580322265625,12059.2119140625,-2601.94140625,4480.68017578125,0.0,17685.890625,193.9137725830078,20772.615234375,12401.740234375,5560.71630859375,7437.86474609375,18415.451171875,24404.525390625,9229.18359375,14421.1455078125,15648.20703125,1623.6304931640625,23972.193359375,-5945.3642578125,0.0,67.55193328857422,9696.4833984375,3228.982177734375,19066.333984375,13512.7705078125,7693.767578125,19532.837890625,6471.47509765625,8180.1416015625,2989.76904296875,-1516.3421630859375,18483.796875,4032.453125,13816.3564453125,5033.81103515625,2380.212158203125,8593.400390625,9642.44140625,-805.06005859375,2937.31689453125,-2635.320068359375,10167.7578125,-12.715657234191895,3618.3994140625,93.7779769897461,2692.54052734375,584.9202270507812,19155.34375,903.6064453125,7036.52734375,-1646.6776123046875,8344.650390625,21616.6171875,18304.982421875,14581.6806640625,-0.0,-33481.9140625,15254.0205078125,3384.749267578125,0.0,4265.30859375,0.0,0.0
11889.9345703125,9170.373046875,21587.212890625,6179.8095703125,24522.939453125,1495.67919921875,3079.573486328125,2500.21630859375,4968.64306640625,1897.8118896484375,12054.443359375,-2602.736328125,4479.09033203125,0.0,17687.478515625,179.60865783691406,20770.23046875,12400.9443359375,5558.33203125,7437.86474609375,18413.06640625,24405.3203125,9224.4150390625,14420.349609375,15646.6162109375,1624.42529296875,23972.98828125,-5950.1328125,0.0,64.37301635742188,9694.099609375,3226.59814453125,19062.361328125,13511.9755859375,7693.767578125,19529.662109375,6469.88525390625,8177.75732421875,2992.153076171875,-1517.136962890625,18481.412109375,4031.658203125,13814.7666015625,5030.6318359375,2379.41748046875,8588.6318359375,9631.31640625,-812.212646484375,2935.727294921875,-2635.320068359375,10168.552734375,-19.868215560913086,3608.862548828125,87.4201431274414,2690.15625,586.5097045898438,19156.13671875,898.0433349609375,7037.32177734375,-1655.419677734375,8339.8818359375,21615.82421875,18303.39453125,14576.1171875,-0.0,-33482.7109375,15257.19921875,3379.980712890625,0.0,4263.71923828125,0.0,0.0
11882.7822265625,9165.6044921875,21583.23828125,6178.22021484375,24522.146484375,1490.1160888671875,3078.778564453125,2493.8583984375,4962.28564453125,1890.6593017578125,12022.654296875,-2609.093994140625,4479.09033203125,0.0,17687.478515625,166.09828186035156,20767.052734375,12396.9716796875,5554.35791015625,7434.68603515625,18408.298828125,24401.345703125,9222.0302734375,14414.787109375,15642.642578125,1616.47802734375,23973.783203125,-5958.080078125,0.0,51.6573600769043,9690.9208984375,3223.419189453125,19059.9765625,13508.796875,7691.38330078125,19525.685546875,6468.2958984375,8172.98876953125,2988.179443359375,-1521.9052734375,18476.64453125,4026.889892578125,13812.3828125,5024.2744140625,2379.41748046875,8583.86328125,9621.779296875,-820.9546508789062,2936.522216796875,-2643.267333984375,10169.3466796875,-33.37860107421875,3596.941650390625,85.8306884765625,2687.77197265625,584.12548828125,19156.13671875,882.9434814453125,7038.1162109375,-1667.340576171875,8337.498046875,21611.0546875,18300.21484375,14578.501953125,-0.0,-33492.25,15259.5830078125,3368.8544921875,0.0,4263.71923828125,0.0,0.0
11882.7822265625,9162.42578125,21588.0078125,6182.19384765625,24526.119140625,1491.70556640625,3085.136474609375,2497.037109375,4963.875,1899.4013671875,12009.9384765625,-2612.27294921875,4488.626953125,0.0,17692.248046875,168.4824676513672,20771.822265625,12396.9716796875,5559.12646484375,7443.42822265625,18413.06640625,24403.73046875,9223.6201171875,14417.9658203125,15649.0,1618.0673828125,23976.9609375,-5962.0537109375,0.0,50.86262893676758,9696.4833984375,3225.803466796875,19064.744140625,13512.7705078125,7695.35693359375,19528.865234375,6473.064453125,8176.16748046875,2987.384765625,-1520.3157958984375,18480.619140625,4030.86328125,13816.3564453125,5025.86376953125,2381.0068359375,8589.4267578125,9620.189453125,-822.5440673828125,2942.8798828125,-2649.625,10174.91015625,-33.37860107421875,3596.941650390625,96.9568862915039,2690.15625,584.12548828125,19157.728515625,878.1751098632812,7045.26904296875,-1657.8038330078125,8335.908203125,21615.82421875,18305.779296875,14591.216796875,-0.0,-33505.7578125,15264.3515625,3364.880859375,0.0,4277.2294921875,0.0,0.0
11884.3720703125,9160.8359375,21590.390625,6186.16748046875,24527.708984375,1493.2950439453125,3088.315185546875,2499.42138671875,4962.28564453125,1902.580322265625,12050.4697265625,-2612.27294921875,4494.1904296875,0.0,17692.248046875,176.42974853515625,20772.615234375,12401.740234375,5559.92138671875,7445.81201171875,18417.8359375,24406.91015625,9225.208984375,14417.9658203125,15651.384765625,1620.4515380859375,23979.345703125,-5958.875,0.0,59.604644775390625,9698.8681640625,3227.392822265625,19067.12890625,13513.5654296875,7699.33056640625,19530.455078125,6475.44873046875,8176.962890625,2989.76904296875,-1516.3421630859375,18483.796875,4034.04248046875,13817.1513671875,5027.453125,2381.801513671875,8590.2216796875,9626.5478515625,-816.9810180664062,2946.05908203125,-2649.625,10174.91015625,-28.6102294921875,3607.273193359375,102.51998901367188,2690.951171875,583.330810546875,19157.728515625,886.9171142578125,7046.8583984375,-1652.24072265625,8331.1396484375,21617.412109375,18305.779296875,14592.806640625,-0.0,-33508.140625,15261.9677734375,3377.5966796875,0.0,4282.79248046875,0.0,0.0
11878.8076171875,9152.8896484375,21583.23828125,6175.8359375,24522.146484375,1483.75830078125,3079.573486328125,2490.679443359375,4952.74853515625,1895.427734375,12054.443359375,-2615.451904296875,4492.60107421875,0.0,17685.095703125,168.4824676513672,20767.052734375,12403.3291015625,5551.9736328125,7438.65966796875,18409.88671875,24398.16796875,9219.646484375,14409.224609375,15643.4384765625,1606.941162109375,23972.193359375,-5967.6171875,0.0,48.47844314575195,9693.3046875,3221.82958984375,19060.76953125,13508.001953125,7693.767578125,19521.712890625,6469.0908203125,8167.42626953125,2983.4111328125,-1513.9580078125,18478.234375,4022.916259765625,13810.7939453125,5020.30029296875,2374.64892578125,8582.2744140625,9621.779296875,-824.133544921875,2938.906494140625,-2656.777587890625,10169.3466796875,-34.96805953979492,3611.246826171875,91.39379119873047,2684.59326171875,567.4362182617188,19152.958984375,878.9698486328125,7038.9111328125,-1661.7774658203125,8327.9609375,21611.849609375,18297.830078125,14583.2705078125,-0.0,-33513.70703125,15254.8154296875,3373.622802734375,0.0,4270.07666015625,0.0,0.0
11891.5244140625,9177.525390625,21598.33984375,6190.14111328125,24535.65625,1498.858154296875,3088.315185546875,2504.189697265625,4958.3115234375,1904.9644775390625,12065.5703125,-2595.583740234375,4500.5478515625,0.0,17696.22265625,185.17176818847656,20782.947265625,12416.044921875,5563.89453125,7445.81201171875,18423.3984375,24411.677734375,9233.1572265625,14422.734375,15654.5634765625,1623.6304931640625,23981.73046875,-5950.927734375,0.0,66.7572021484375,9709.19921875,3236.134765625,19074.28125,13523.896484375,7708.86767578125,19537.607421875,6481.80615234375,8180.1416015625,2993.74267578125,-1496.473876953125,18491.744140625,4038.810791015625,13823.5087890625,5033.81103515625,2384.98046875,8594.990234375,9633.7001953125,-802.6759033203125,2946.853515625,-2638.4990234375,10179.6787109375,-20.66294288635254,3627.141357421875,105.69890594482422,2692.54052734375,586.5097045898438,19160.90625,898.8380126953125,7047.6533203125,-1649.8565673828125,8347.8291015625,21624.564453125,18308.958984375,14584.859375,-0.0,-33493.04296875,15259.5830078125,3388.72265625,0.0,4279.61328125,0.0,0.0
11894.703125,9191.8310546875,21607.875,6201.26708984375,24542.80859375,1508.3948974609375,3092.2890625,2512.931884765625,4958.3115234375,1909.7327880859375,12067.9541015625,-2592.404541015625,4488.626953125,0.0,17700.1953125,193.11904907226562,20788.51171875,12420.0185546875,5570.2529296875,7448.1962890625,18433.728515625,24422.009765625,9239.5146484375,14431.4765625,15661.716796875,1634.7567138671875,23988.087890625,-5942.98046875,0.0,70.73084259033203,9717.146484375,3239.313720703125,19081.43359375,13532.638671875,7714.43017578125,19545.5546875,6488.16455078125,8189.67822265625,3000.100341796875,-1502.037109375,18500.486328125,4049.142333984375,13829.072265625,5040.9638671875,2389.748779296875,8602.9365234375,9638.46875,-800.2916870117188,2953.21142578125,-2625.783203125,10186.8310546875,-12.715657234191895,3626.3466796875,116.82510375976562,2690.951171875,592.8675537109375,19165.673828125,905.9906005859375,7053.21630859375,-1644.29345703125,8356.5712890625,21631.716796875,18315.314453125,14581.6806640625,-0.0,-33492.25,15265.1474609375,3399.848876953125,0.0,4281.99755859375,0.0,0.0
11887.55078125,9176.7314453125,21595.955078125,6193.31982421875,24531.68359375,1499.65283203125,3084.341796875,2501.8056640625,4947.185546875,1901.7855224609375,12053.6494140625,-2601.94140625,4463.99072265625,0.0,17691.453125,181.9928436279297,20780.5625,12412.0712890625,5562.3056640625,7441.8388671875,18422.603515625,24414.857421875,9231.5673828125,14422.734375,15648.20703125,1623.6304931640625,23976.9609375,-5951.72265625,0.0,58.80991744995117,9708.404296875,3228.982177734375,19072.69140625,13524.69140625,7705.6884765625,19536.814453125,6480.216796875,8180.1416015625,2992.94775390625,-1514.752685546875,18487.771484375,4043.5791015625,13818.7412109375,5031.4267578125,2380.212158203125,8594.990234375,9624.9580078125,-824.9282836914062,2939.701171875,-2635.320068359375,10176.4990234375,-19.868215560913086,3614.42578125,114.44091796875,2677.440673828125,586.5097045898438,19156.93359375,894.0697021484375,7046.8583984375,-1653.0355224609375,8348.6240234375,21622.9765625,18306.57421875,14572.9375,-0.0,-33504.96484375,15259.5830078125,3389.517578125,0.0,4274.05029296875,0.0,0.0
11888.3447265625,9164.810546875,21591.982421875,6198.08837890625,24523.734375,1497.2686767578125,3082.752197265625,2498.626708984375,4944.80126953125,1900.9908447265625,12048.0849609375,-2599.55712890625,4471.9375,0.0,17689.86328125,178.81393432617188,20778.1796875,12408.892578125,5559.92138671875,7440.2490234375,18420.21875,24412.474609375,9228.388671875,14421.1455078125,15642.642578125,1622.0411376953125,23973.783203125,-5954.9013671875,0.0,58.01518630981445,9707.6103515625,3227.392822265625,19070.306640625,13523.896484375,7701.71484375,19535.22265625,6477.0380859375,8179.34716796875,2990.563720703125,-1514.752685546875,18483.796875,4041.19482421875,13815.5625,5029.8369140625,2377.033203125,8591.015625,9623.3681640625,-825.7230224609375,2932.548583984375,-2638.4990234375,10172.5263671875,-23.047128677368164,3615.22021484375,112.8514633178711,2685.387939453125,588.0991821289062,19153.75390625,893.2749633789062,7043.6796875,-1654.625,8347.0341796875,21622.181640625,18304.189453125,14572.9375,-0.0,-33504.16796875,15254.8154296875,3387.927978515625,0.0,4273.255859375,0.0,0.0
11889.1396484375,9166.400390625,21595.16015625,6206.83056640625,24526.119140625,1500.4476318359375,3083.546875,2500.21630859375,4947.98046875,1900.9908447265625,12052.0595703125,-2594.788818359375,4479.88525390625,0.0,17692.248046875,182.78758239746094,20780.5625,12414.455078125,5561.5107421875,7444.22314453125,18419.423828125,24414.857421875,9229.18359375,14422.734375,15645.822265625,1627.6041259765625,23975.373046875,-5950.1328125,0.0,60.39937210083008,9708.404296875,3228.1875,19071.1015625,13524.69140625,7702.50927734375,19537.607421875,6478.62744140625,8180.1416015625,2988.974365234375,-1514.752685546875,18486.181640625,4045.96337890625,13815.5625,5033.01611328125,2377.827880859375,8592.60546875,9628.13671875,-805.8547973632812,2934.137939453125,-2638.4990234375,10174.91015625,-23.84185791015625,3613.631103515625,109.67254638671875,2691.745849609375,590.4833374023438,19156.13671875,902.0169677734375,7045.26904296875,-1650.6513671875,8346.240234375,21622.9765625,18307.3671875,14576.1171875,-0.0,-33498.60546875,15255.6103515625,3383.15966796875,0.0,4269.28173828125,0.0,0.0
11893.908203125,9177.525390625,21600.72265625,6208.419921875,24531.68359375,1504.4212646484375,3089.90478515625,2503.39501953125,4963.080078125,1907.3486328125,12056.033203125,-2596.37841796875,4482.26953125,0.0,17701.783203125,186.76121520996094,20783.7421875,12420.0185546875,5566.27880859375,7457.7333984375,18424.193359375,24418.03515625,9231.5673828125,14425.9140625,15649.7958984375,1629.193603515625,23982.525390625,-5946.9541015625,0.0,62.78356170654297,9710.7890625,3230.57177734375,19074.28125,13527.8701171875,7705.6884765625,19540.787109375,6483.39599609375,8184.115234375,3000.895263671875,-1510.779052734375,18490.15625,4049.142333984375,13818.7412109375,5036.1953125,2384.98046875,8595.7841796875,9629.7265625,-801.08642578125,2939.701171875,-2636.909423828125,10183.65234375,-23.047128677368164,3613.631103515625,106.4936294555664,2694.1298828125,588.0991821289062,19162.49609375,903.6064453125,7058.779296875,-1651.446044921875,8351.0087890625,21626.154296875,18314.51953125,14593.6015625,-0.0,-33504.16796875,15267.53125,3380.775390625,0.0,4278.81884765625,0.0,0.0
11885.9609375,9166.400390625,21590.390625,6194.11474609375,24522.146484375,1490.910888671875,3083.546875,2491.47412109375,4965.46435546875,1899.4013671875,12043.31640625,-2611.47802734375,4471.9375,0.0,17698.607421875,174.04556274414062,20771.822265625,12408.892578125,5556.7421875,7453.759765625,18410.68359375,24405.3203125,9222.8251953125,14413.9931640625,15639.4638671875,1613.299072265625,23973.783203125,-5962.8486328125,0.0,47.6837158203125,9698.0732421875,3218.65087890625,19063.154296875,13515.94921875,7693.767578125,19529.662109375,6476.24365234375,8172.98876953125,2986.590087890625,-1521.110595703125,18479.029296875,4036.426513671875,13809.998046875,5024.2744140625,2380.212158203125,8586.2470703125,9620.984375,-824.9282836914062,2928.57470703125,-2650.419921875,10182.0634765625,-37.35224533081055,3610.451904296875,98.54634857177734,2684.59326171875,572.20458984375,19156.13671875,883.7382202148438,7060.369140625,-1664.16162109375,8341.4716796875,21615.82421875,18307.3671875,14589.626953125,-0.0,-33529.59765625,15273.09375,3369.649169921875,0.0,4265.30859375,0.0,0.0
11873.2451171875,9163.220703125,21583.23828125,6183.783203125,24514.994140625,1482.1688232421875,3080.3681640625,2486.705810546875,4967.0537109375,1893.04345703125,12037.75390625,-2619.425537109375,4467.96435546875,0.0,17696.22265625,160.53517150878906,20762.28515625,12396.1767578125,5551.9736328125,7452.96484375,18402.734375,24398.16796875,9215.6728515625,14406.044921875,15637.0791015625,1604.5570068359375,23968.220703125,-5970.7958984375,0.0,42.1206169128418,9690.125,3210.70361328125,19055.208984375,13508.001953125,7688.2041015625,19521.712890625,6470.68017578125,8169.01513671875,2968.311279296875,-1529.057861328125,18473.466796875,4027.6845703125,13804.435546875,5017.12158203125,2377.827880859375,8579.890625,9615.4208984375,-825.7230224609375,2924.601318359375,-2656.777587890625,10180.4736328125,-48.47844314575195,3601.7099609375,96.9568862915039,2682.208984375,564.25732421875,19152.1640625,871.8172607421875,7061.16357421875,-1668.13525390625,8333.5234375,21608.671875,18302.599609375,14592.01171875,-0.0,-33539.13671875,15270.7099609375,3359.31787109375,0.0,4246.23486328125,0.0,0.0
11873.2451171875,9172.7568359375,21580.853515625,6179.0146484375,24512.609375,1483.75830078125,3074.01025390625,2485.9111328125,4942.4169921875,1889.8646240234375,12038.548828125,-2621.809814453125,4463.99072265625,0.0,17684.30078125,166.09828186035156,20761.490234375,12391.408203125,5548.00048828125,7437.86474609375,18401.94140625,24396.578125,9212.494140625,14406.044921875,15637.0791015625,1613.299072265625,23965.041015625,-5968.412109375,0.0,42.91534423828125,9689.3310546875,3212.29296875,19055.208984375,13506.412109375,7685.8203125,19520.91796875,6468.2958984375,8167.42626953125,2973.874267578125,-1543.3629150390625,18470.287109375,4028.47900390625,13799.6669921875,5017.916015625,2366.701904296875,8576.7109375,9611.447265625,-817.7757568359375,2923.01171875,-2655.188232421875,10169.3466796875,-48.47844314575195,3600.12060546875,93.7779769897461,2672.67236328125,568.23095703125,19146.6015625,878.1751098632812,7040.50048828125,-1666.5458984375,8336.703125,21605.4921875,18294.65234375,14576.1171875,-0.0,-33534.3671875,15249.251953125,3360.112548828125,0.0,4258.15576171875,0.0,0.0
11888.3447265625,9183.8837890625,21595.16015625,6195.7041015625,24525.32421875,1498.0634765625,3077.189208984375,2495.44775390625,4928.90673828125,1896.222412109375,12048.0849609375,-2603.53076171875,4476.7060546875,0.0,17681.91796875,180.4033966064453,20779.767578125,12404.9189453125,5557.537109375,7432.3017578125,18417.8359375,24414.0625,9223.6201171875,14418.76171875,15651.384765625,1638.7303466796875,23973.783203125,-5958.080078125,0.0,58.80991744995117,9705.2255859375,3226.59814453125,19071.1015625,13525.486328125,7697.7412109375,19533.634765625,6477.0380859375,8176.962890625,2994.537353515625,-1517.136962890625,18484.591796875,4046.758056640625,13810.7939453125,5031.4267578125,2369.0859375,8586.2470703125,9623.3681640625,-793.933837890625,2935.727294921875,-2644.856689453125,10172.5263671875,-38.94169998168945,3616.809814453125,113.64618682861328,2689.361572265625,588.8939208984375,19152.958984375,893.2749633789062,7028.57958984375,-1662.572265625,8347.8291015625,21619.796875,18299.421875,14561.8125,-0.0,-33520.0625,15238.9208984375,3377.5966796875,0.0,4275.64013671875,0.0,0.0
11891.5244140625,9184.677734375,21597.54296875,6195.7041015625,24530.88671875,1498.0634765625,3084.341796875,2498.626708984375,4937.64892578125,1902.580322265625,12042.5224609375,-2596.37841796875,4483.8583984375,0.0,17689.86328125,178.81393432617188,20782.947265625,12412.0712890625,5563.10009765625,7439.45458984375,18421.015625,24414.857421875,9229.9775390625,14422.734375,15657.7431640625,1622.8358154296875,23978.552734375,-5954.9013671875,0.0,63.578285217285156,9708.404296875,3228.1875,19075.87109375,13527.8701171875,7703.30419921875,19536.814453125,6481.80615234375,8184.115234375,2994.537353515625,-1500.4476318359375,18491.744140625,4042.7841796875,13816.3564453125,5034.60546875,2375.443603515625,8590.2216796875,9624.9580078125,-796.3180541992188,2942.085205078125,-2645.651611328125,10178.8837890625,-34.96805953979492,3619.194091796875,121.59347534179688,2694.1298828125,587.304443359375,19160.11328125,900.427490234375,7038.9111328125,-1659.393310546875,8351.802734375,21622.9765625,18306.57421875,14569.759765625,-0.0,-33515.29296875,15250.841796875,3389.517578125,0.0,4286.76611328125,0.0,0.0
11887.55078125,9175.1416015625,21593.5703125,6187.7568359375,24526.9140625,1493.2950439453125,3082.752197265625,2494.653076171875,4940.82763671875,1897.01708984375,12046.49609375,-2602.736328125,4482.26953125,0.0,17689.0703125,166.89300537109375,20776.58984375,12414.455078125,5561.5107421875,7436.275390625,18416.24609375,24408.498046875,9227.59375,14418.76171875,15652.1796875,1610.1201171875,23973.783203125,-5961.25927734375,0.0,58.80991744995117,9702.841796875,3223.419189453125,19071.1015625,13522.3076171875,7700.125,19532.044921875,6480.216796875,8180.93603515625,2990.563720703125,-1506.805419921875,18486.9765625,4037.221435546875,13814.7666015625,5032.22119140625,2375.443603515625,8584.658203125,9627.341796875,-814.5968017578125,2942.085205078125,-2651.214599609375,10177.294921875,-39.73643112182617,3614.42578125,116.82510375976562,2691.745849609375,580.15185546875,19158.521484375,892.480224609375,7038.9111328125,-1663.366943359375,8347.0341796875,21620.591796875,18301.8046875,14569.759765625,-0.0,-33523.2421875,15253.2265625,3379.980712890625,0.0,4275.64013671875,0.0,0.0
11874.0400390625,9161.6318359375,21584.830078125,6179.0146484375,24518.966796875,1489.3214111328125,3081.95751953125,2489.884521484375,4948.77490234375,1893.8382568359375,12044.90625,-2612.27294921875,4476.7060546875,0.0,17689.0703125,161.3299102783203,20765.462890625,12406.5087890625,5555.94775390625,7438.65966796875,18408.298828125,24399.7578125,9222.0302734375,14413.197265625,15640.2587890625,1605.351806640625,23969.80859375,-5968.412109375,0.0,44.50480270385742,9695.689453125,3212.29296875,19060.76953125,13510.38671875,7695.35693359375,19523.302734375,6476.24365234375,8174.57861328125,2974.669189453125,-1520.3157958984375,18477.439453125,4031.658203125,13808.41015625,5028.248046875,2376.238525390625,8581.4794921875,9621.779296875,-826.5177612304688,2934.137939453125,-2655.188232421875,10174.115234375,-42.91534423828125,3601.7099609375,99.34107208251953,2683.003662109375,568.23095703125,19153.75390625,881.35400390625,7042.884765625,-1668.9300537109375,8337.498046875,21617.412109375,18301.009765625,14576.1171875,-0.0,-33541.51953125,15258.7890625,3374.41748046875,0.0,4271.666015625,0.0,0.0
11866.0927734375,9155.2734375,21580.060546875,6172.6572265625,24514.994140625,1484.552978515625,3084.341796875,2485.1162109375,4968.64306640625,1895.427734375,12041.7275390625,-2623.39892578125,4473.52734375,0.0,17696.22265625,157.35626220703125,20759.900390625,12399.35546875,5554.35791015625,7448.9912109375,18403.529296875,24394.193359375,9224.4150390625,14408.4287109375,15633.1064453125,1598.993896484375,23969.015625,-5973.974609375,0.0,29.404958724975586,9690.9208984375,3206.72998046875,19054.412109375,13502.4384765625,7692.97265625,19516.9453125,6475.44873046875,8171.39892578125,2968.311279296875,-1532.2366943359375,18470.287109375,4025.300537109375,13806.025390625,5024.2744140625,2380.212158203125,8579.0947265625,9617.8056640625,-828.107177734375,2930.164306640625,-2660.75146484375,10180.4736328125,-44.50480270385742,3597.736328125,88.21487426757812,2679.82470703125,556.3099975585938,19154.548828125,872.6119995117188,7055.6005859375,-1668.9300537109375,8331.1396484375,21611.849609375,18299.421875,14587.2431640625,-0.0,-33556.62109375,15273.09375,3372.033447265625,0.0,4266.10302734375,0.0,0.0
11866.0927734375,9157.6572265625,21579.265625,6170.27294921875,24514.994140625,1477.400390625,3081.16259765625,2479.55322265625,4971.822265625,1889.0699462890625,12037.75390625,-2628.962158203125,4471.14306640625,0.0,17693.837890625,147.02479553222656,20758.310546875,12399.35546875,5550.384765625,7446.60693359375,18399.556640625,24393.400390625,9222.0302734375,14405.2509765625,15633.9013671875,1594.2255859375,23968.220703125,-5980.3330078125,0.0,25.43131446838379,9687.7412109375,3204.345703125,19052.029296875,13500.849609375,7690.58837890625,19514.560546875,6470.68017578125,8165.83642578125,2969.10595703125,-1534.620849609375,18466.314453125,4018.9423828125,13804.435546875,5018.7109375,2377.033203125,8572.7373046875,9615.4208984375,-831.2861328125,2930.164306640625,-2667.90380859375,10178.8837890625,-50.067901611328125,3591.37841796875,83.44650268554688,2675.056396484375,550.7469482421875,19152.1640625,864.6647338867188,7055.6005859375,-1676.8773193359375,8327.1669921875,21607.080078125,18295.447265625,14584.064453125,-0.0,-33562.18359375,15273.888671875,3361.701904296875,0.0,4256.56640625,0.0,0.0
11877.21875,9168.7841796875,21588.0078125,6177.42529296875,24525.32421875,1487.73193359375,3081.16259765625,2485.9111328125,4955.1328125,1889.0699462890625,12048.880859375,-2609.888671875,4480.68017578125,0.0,17688.2734375,159.74044799804688,20769.4375,12407.302734375,5554.35791015625,7436.275390625,18411.478515625,24403.73046875,9227.59375,14413.197265625,15651.384765625,1603.7623291015625,23974.576171875,-5970.7958984375,0.0,38.14697265625,9698.0732421875,3214.677001953125,19063.94921875,13511.1806640625,7697.7412109375,19524.09765625,6474.65380859375,8173.783203125,2979.4375,-1526.6737060546875,18477.439453125,4030.86328125,13811.587890625,5025.86376953125,2373.0595703125,8577.505859375,9620.189453125,-824.133544921875,2941.29052734375,-2659.161865234375,10178.0888671875,-41.32588577270508,3601.7099609375,96.16216278076172,2686.1826171875,565.8467407226562,19155.34375,880.5592651367188,7041.29541015625,-1670.51953125,8336.703125,21614.232421875,18297.037109375,14569.759765625,-0.0,-33543.109375,15254.0205078125,3364.086181640625,0.0,4266.10302734375,0.0,0.0
11878.013671875,9167.9892578125,21591.982421875,6180.6044921875,24528.50390625,1489.3214111328125,3081.16259765625,2487.50048828125,4941.6220703125,1889.0699462890625,12057.6220703125,-2605.120361328125,4485.4482421875,0.0,17687.478515625,166.09828186035156,20771.822265625,12409.6875,5555.15283203125,7429.91796875,18413.06640625,24406.115234375,9228.388671875,14417.171875,15656.15234375,1606.146484375,23977.755859375,-5964.43798828125,0.0,42.91534423828125,9702.841796875,3217.061279296875,19069.513671875,13515.1552734375,7701.71484375,19527.27734375,6476.24365234375,8175.373046875,2983.4111328125,-1535.4156494140625,18482.208984375,4031.658203125,13813.97265625,5028.248046875,2371.47021484375,8579.890625,9615.4208984375,-820.159912109375,2945.26416015625,-2656.777587890625,10178.8837890625,-36.55751419067383,3608.06787109375,108.08309173583984,2692.54052734375,571.4098510742188,19157.728515625,886.9171142578125,7037.32177734375,-1666.5458984375,8338.2919921875,21617.412109375,18298.625,14564.9912109375,-0.0,-33539.13671875,15242.099609375,3354.54931640625,0.0,4266.10302734375,0.0,0.0
11874.8349609375,9163.220703125,21594.365234375,6186.16748046875,24530.88671875,1487.73193359375,3082.752197265625,2493.063720703125,4945.59619140625,1893.8382568359375,12051.2646484375,-2610.683349609375,4483.06396484375,0.0,17689.86328125,174.8402862548828,20773.41015625,12412.0712890625,5559.12646484375,7439.45458984375,18414.65625,24405.3203125,9228.388671875,14418.76171875,15653.7685546875,1606.941162109375,23979.345703125,-5959.66943359375,0.0,41.32588577270508,9702.046875,3213.087890625,19070.306640625,13516.744140625,7703.30419921875,19530.455078125,6480.216796875,8180.1416015625,2982.616455078125,-1536.21044921875,18483.00390625,4031.658203125,13816.3564453125,5030.6318359375,2374.64892578125,8586.2470703125,9615.4208984375,-820.9546508789062,2943.6748046875,-2655.98291015625,10181.267578125,-30.994415283203125,3613.631103515625,107.28836059570312,2688.56689453125,571.4098510742188,19156.13671875,894.8643798828125,7042.08984375,-1664.16162109375,8337.498046875,21621.384765625,18304.189453125,14583.2705078125,-0.0,-33547.87890625,15252.4306640625,3360.9072265625,0.0,4261.3349609375,0.0,0.0
11862.9140625,9154.4794921875,21584.830078125,6177.42529296875,24523.734375,1476.605712890625,3081.95751953125,2489.884521484375,4961.49072265625,1889.8646240234375,12034.5751953125,-2620.22021484375,4475.91162109375,0.0,17694.630859375,171.661376953125,20763.078125,12404.1240234375,5556.7421875,7451.37548828125,18404.326171875,24397.373046875,9222.0302734375,14411.6083984375,15639.4638671875,1596.6097412109375,23980.140625,-5966.02783203125,0.0,27.815500259399414,9691.71484375,3201.166748046875,19060.76953125,13505.6181640625,7695.35693359375,19522.5078125,6478.62744140625,8176.962890625,2973.874267578125,-1530.647216796875,18475.056640625,4021.32666015625,13810.7939453125,5021.89013671875,2378.622802734375,8583.86328125,9612.2431640625,-833.6702880859375,2937.31689453125,-2671.082763671875,10185.2421875,-38.14697265625,3604.09423828125,89.00960540771484,2682.208984375,562.6678466796875,19156.13671875,891.6854858398438,7053.21630859375,-1672.1090087890625,8328.755859375,21613.439453125,18306.57421875,14598.369140625,-0.0,-33552.6484375,15264.3515625,3348.19140625,0.0,4235.9033203125,0.0,0.0
