11281.1728515625,9791.056640625,25312.10546875,7703.30419921875,25208.791015625,2357.959716796875,3897.34912109375,3670.8515625,6891.88623046875,4024.505615234375,12811.0244140625,-3401.4384765625,5652.904296875,0.0,18698.373046875,2018.6107177734375,21341.642578125,14293.98828125,6554.92138671875,9619.3955078125,19143.423828125,25482.177734375,11444.8857421875,15235.7412109375,16523.99609375,4098.41552734375,24630.228515625,-5634.6259765625,0.0,1154.74072265625,9846.6875,4689.693359375,20324.388671875,13767.0830078125,8822.2822265625,21014.212890625,7719.19873046875,8947.849609375,4055.5,-162.1246337890625,19572.576171875,5148.251953125,14706.4521484375,6305.37646484375,3185.272216796875,9414.35546875,10962.486328125,435.5112609863281,4163.58349609375,-859.1016235351562,11049.111328125,518.1630249023438,2439.02197265625,-1437.6640625,3086.725830078125,2912.680419921875,19694.962890625,2875.328125,9203.751953125,386.23809814453125,7998.943359375,22753.873046875,18934.408203125,13886.2919921875,-0.0,-50091.7421875,16180.673828125,5857.1494140625,0.0,6518.36376953125,0.0,0.0
11267.662109375,9791.056640625,25298.595703125,7691.38330078125,25202.43359375,2340.475830078125,3897.34912109375,3662.904052734375,6891.091796875,4021.32666015625,12793.541015625,-3406.206787109375,5642.57275390625,0.0,18699.169921875,2003.5107421875,21329.720703125,14284.451171875,6550.1533203125,9619.3955078125,19134.6796875,25470.255859375,11436.939453125,15227.794921875,16512.076171875,4076.957763671875,24630.228515625,-5647.34130859375,0.0,1170.63525390625,9837.150390625,4675.38818359375,20313.263671875,13755.162109375,8815.9248046875,21006.265625,7714.43017578125,8939.107421875,4046.758056640625,-172.4561004638672,19562.244140625,5125.20458984375,14704.068359375,6294.25048828125,3183.6826171875,9407.203125,10944.20703125,441.8691101074219,4158.02001953125,-876.5856323242188,11054.6748046875,507.8315734863281,2410.411865234375,-1446.406005859375,3074.804931640625,2907.912109375,19691.78515625,2861.817626953125,9206.1357421875,380.67498779296875,7998.14892578125,22749.900390625,18931.23046875,13884.7041015625,-0.0,-50098.89453125,16183.853515625,5849.9970703125,0.0,6517.56884765625,0.0,0.0
11279.5830078125,9791.056640625,25316.080078125,7696.94677734375,25212.765625,2350.012451171875,3912.448974609375,3676.41455078125,6905.39697265625,4037.221435546875,12825.330078125,-3390.312255859375,5661.646484375,0.0,18713.474609375,2014.636962890625,21338.462890625,14294.783203125,6562.86865234375,9636.0849609375,19145.806640625,25479.79296875,11447.2705078125,15238.9208984375,16519.228515625,4088.083740234375,24635.791015625,-5633.0361328125,0.0,1190.50341796875,9844.302734375,4682.541015625,20323.595703125,13764.69921875,8828.6396484375,21018.1875,7728.7353515625,8951.0283203125,4052.321044921875,-172.4561004638672,19575.75390625,5133.15185546875,14717.5791015625,6308.5556640625,3197.98779296875,9419.91796875,10963.2802734375,450.6111145019531,4167.556640625,-863.0752563476562,11072.1591796875,522.931396484375,2433.458984375,-1449.5849609375,3093.083740234375,2918.243408203125,19709.26953125,2876.122802734375,9220.4404296875,394.1853942871094,8006.095703125,22761.02734375,18946.330078125,13901.392578125,-0.0,-50081.4140625,16191.80078125,5865.89208984375,0.0,6534.25830078125,0.0,0.0
11285.94140625,9789.466796875,25318.46484375,7701.71484375,25212.765625,2357.959716796875,3906.091064453125,3680.38818359375,6903.0126953125,4041.19482421875,12822.9453125,-3379.980712890625,5662.44140625,0.0,18711.884765625,2024.9683837890625,21344.02734375,14297.16796875,6564.45849609375,9637.673828125,19148.19140625,25484.5625,11445.681640625,15242.099609375,16518.43359375,4098.41552734375,24638.17578125,-5625.08935546875,0.0,1192.8876953125,9849.8662109375,4688.10400390625,20326.7734375,13769.4677734375,8828.6396484375,21020.5703125,7724.76171875,8953.412109375,4048.347412109375,-171.661376953125,19576.548828125,5143.4833984375,14713.6044921875,6315.7080078125,3196.3984375,9424.6865234375,10960.896484375,449.02166748046875,4168.3515625,-851.154296875,11055.4697265625,530.083984375,2446.174560546875,-1424.9483642578125,3095.4677734375,2920.627685546875,19714.037109375,2883.275390625,9214.083984375,398.9537658691406,8010.06982421875,22760.232421875,18945.53515625,13910.9296875,-0.0,-50070.28515625,16183.0576171875,5866.6865234375,0.0,6538.232421875,0.0,0.0
11267.662109375,9780.724609375,25304.953125,7691.38330078125,25210.380859375,2352.396728515625,3898.9384765625,3677.209228515625,6892.68115234375,4030.86328125,12799.103515625,-3380.775390625,5656.8779296875,0.0,18707.91015625,2034.505126953125,21332.8984375,14288.42578125,6556.5107421875,9625.7529296875,19140.244140625,25476.61328125,11440.9130859375,15237.3310546875,16507.306640625,4093.64697265625,24644.533203125,-5624.29443359375,0.0,1169.8404541015625,9841.9189453125,4679.36181640625,20318.03125,13760.7255859375,8821.4873046875,21011.830078125,7716.814453125,8948.6435546875,4039.605712890625,-181.1981201171875,19568.6015625,5136.3310546875,14710.4267578125,6311.73486328125,3189.245849609375,9419.91796875,10925.9287109375,424.38507080078125,4159.609375,-851.9490356445312,11053.0849609375,528.4945068359375,2432.6640625,-1431.3062744140625,3079.573486328125,2914.269775390625,19712.447265625,2888.838623046875,9208.51953125,394.1853942871094,8000.533203125,22753.080078125,18936.79296875,13885.498046875,-0.0,-50069.4921875,16172.7275390625,5860.32861328125,0.0,6519.953125,0.0,0.0
11254.9462890625,9775.9560546875,25301.775390625,7692.17822265625,25204.81640625,2342.85986328125,3888.60693359375,3662.904052734375,6874.40234375,4016.55810546875,12797.5146484375,-3407.00146484375,5656.08349609375,0.0,18695.1953125,2013.0474853515625,21328.130859375,14274.9150390625,6543.00048828125,9602.7060546875,19133.88671875,25471.845703125,11433.7607421875,15227.794921875,16509.69140625,4085.699462890625,24623.076171875,-5638.599609375,0.0,1165.8668212890625,9835.560546875,4672.20947265625,20313.263671875,13755.162109375,8813.5400390625,21003.880859375,7706.4833984375,8935.1337890625,4053.91064453125,-187.5559539794922,19565.423828125,5129.97314453125,14704.068359375,6299.81396484375,3174.94091796875,9404.818359375,10922.75,419.61669921875,4142.919921875,-867.0488891601562,11042.75390625,511.0104675292969,2419.948486328125,-1437.6640625,3068.447021484375,2907.1171875,19716.421875,2876.91748046875,9195.8046875,381.4697265625,7990.201171875,22742.748046875,18921.693359375,13847.3515625,-0.0,-50086.9765625,16158.4228515625,5853.97119140625,0.0,6508.0322265625,0.0,0.0
11270.8408203125,9774.3671875,25298.595703125,7688.2041015625,25194.486328125,2330.144287109375,3876.68603515625,3652.57275390625,6870.4287109375,4012.584716796875,12799.103515625,-3414.154052734375,5671.97802734375,0.0,18684.068359375,2001.1265869140625,21320.185546875,14266.173828125,6534.25830078125,9600.3212890625,19129.912109375,25463.103515625,11421.83984375,15218.2578125,16518.43359375,4065.036865234375,24599.234375,-5651.3154296875,0.0,1162.6878662109375,9827.6142578125,4668.23583984375,20305.314453125,13747.21484375,8805.5927734375,20995.935546875,7697.7412109375,8926.3916015625,4049.936767578125,-211.39781188964844,19563.0390625,5118.8466796875,14691.3525390625,6287.892578125,3165.404052734375,9396.87109375,10924.3388671875,403.7221374511719,4154.04638671875,-889.30126953125,11028.44921875,499.08953857421875,2400.875,-1447.2008056640625,3079.573486328125,2896.78564453125,19715.626953125,2870.5595703125,9183.0888671875,374.3171691894531,7985.4326171875,22735.595703125,18914.541015625,13848.9404296875,-0.0,-50096.51171875,16152.0634765625,5850.7919921875,0.0,6508.8271484375,0.0,0.0
11284.3515625,9791.8505859375,25313.6953125,7696.94677734375,25207.201171875,2341.2705078125,3882.2490234375,3666.0830078125,6877.5810546875,4025.300537109375,12828.509765625,-3393.490966796875,5694.23046875,0.0,18696.78515625,2017.8157958984375,21332.10546875,14279.68359375,6544.58984375,9609.8583984375,19144.216796875,25473.435546875,11430.5810546875,15230.1787109375,16542.27734375,4074.573486328125,24621.486328125,-5638.599609375,0.0,1169.8404541015625,9838.740234375,4679.36181640625,20318.03125,13759.1357421875,8817.513671875,21007.060546875,7708.86767578125,8939.107421875,4040.400146484375,-188.35067749023438,19580.5234375,5130.767578125,14698.505859375,6299.81396484375,3174.14599609375,9410.380859375,10942.6181640625,409.28521728515625,4189.80908203125,-882.1487426757812,11035.6015625,511.0104675292969,2413.590576171875,-1449.5849609375,3112.1572265625,2915.064453125,19726.75390625,2885.659423828125,9194.21484375,387.0328369140625,7990.201171875,22745.1328125,18924.87109375,13868.0146484375,-0.0,-50078.23046875,16158.4228515625,5863.5078125,0.0,6521.54296875,0.0,0.0
11276.404296875,9798.208984375,25313.6953125,7692.17822265625,25211.17578125,2347.62841796875,3895.759521484375,3674.0302734375,6887.91259765625,4034.04248046875,12806.255859375,-3386.33837890625,5687.87255859375,0.0,18711.884765625,2025.7633056640625,21336.078125,14282.0673828125,6553.33203125,9620.189453125,19147.396484375,25481.3828125,11434.5546875,15237.3310546875,16527.17578125,4076.162841796875,24635.791015625,-5632.24169921875,0.0,1168.2509765625,9844.302734375,4680.15673828125,20322.798828125,13766.2890625,8823.8720703125,21012.625,7716.814453125,8946.259765625,4035.631591796875,-170.8666534423828,19575.75390625,5139.509765625,14708.8369140625,6308.5556640625,3182.09326171875,9419.91796875,10940.234375,407.6957702636719,4186.63037109375,-863.8699951171875,11049.90625,518.1630249023438,2427.10107421875,-1441.6376953125,3097.85205078125,2911.0908203125,19734.701171875,2889.63330078125,9210.109375,398.9537658691406,7990.201171875,22753.873046875,18933.615234375,13878.345703125,-0.0,-50073.46484375,16172.7275390625,5872.24951171875,0.0,6529.490234375,0.0,0.0
11266.072265625,9779.1357421875,25310.515625,7692.97265625,25209.5859375,2342.85986328125,3893.37548828125,3671.64599609375,6887.11767578125,4039.605712890625,12792.74609375,-3397.46484375,5667.20947265625,0.0,18706.322265625,2016.2265625,21332.8984375,14278.0947265625,6551.74267578125,9622.57421875,19142.626953125,25478.998046875,11432.1708984375,15234.15234375,16523.203125,4079.341796875,24629.435546875,-5640.1884765625,0.0,1161.0985107421875,9841.9189453125,4674.59326171875,20318.826171875,13763.904296875,8819.8974609375,21010.240234375,7715.22509765625,8945.46484375,4037.221435546875,-179.60865783691406,19570.986328125,5134.7412109375,14707.248046875,6305.37646484375,3179.709228515625,9418.328125,10936.259765625,402.9273986816406,4177.09375,-862.280517578125,11047.5224609375,515.7788696289062,2417.564453125,-1451.1744384765625,3088.315185546875,2892.017333984375,19724.369140625,2878.5068359375,9209.3154296875,402.9273986816406,7985.4326171875,22751.490234375,18933.615234375,13882.3193359375,-0.0,-50091.7421875,16183.853515625,5880.197265625,0.0,6546.17919921875,0.0,0.0
11261.3037109375,9779.1357421875,25302.568359375,7693.767578125,25198.458984375,2338.88623046875,3883.0439453125,3667.67236328125,6878.3759765625,4033.24755859375,12785.59375,-3412.564453125,5648.93115234375,0.0,18696.78515625,2014.636962890625,21327.337890625,14274.9150390625,6545.384765625,9616.2158203125,19136.271484375,25472.640625,11421.83984375,15227.0,16509.69140625,4089.673583984375,24614.333984375,-5647.34130859375,0.0,1157.9195556640625,9835.560546875,4671.4150390625,20311.673828125,13757.546875,8809.56640625,21005.47265625,7707.27783203125,8939.90234375,4037.221435546875,-174.04556274414062,19563.833984375,5129.97314453125,14696.12109375,6300.6083984375,3170.967041015625,9414.35546875,10932.2861328125,410.87469482421875,4157.22509765625,-866.254150390625,11037.1904296875,513.3946533203125,2417.564453125,-1462.3006591796875,3073.215576171875,2889.63330078125,19713.244140625,2872.94384765625,9198.1884765625,398.9537658691406,7983.84375,22744.337890625,18925.666015625,13879.1396484375,-0.0,-50103.6640625,16182.2646484375,5869.0703125,0.0,6539.82177734375,0.0,0.0
11262.099609375,9779.9296875,25304.953125,7691.38330078125,25194.486328125,2338.091552734375,3883.838623046875,3666.877685546875,6877.5810546875,4032.453125,12792.74609375,-3412.564453125,5647.34130859375,0.0,18694.400390625,2012.2528076171875,21326.541015625,14274.1201171875,6544.58984375,9617.0107421875,19134.6796875,25470.255859375,11419.455078125,15227.0,16510.486328125,4078.547119140625,24612.74609375,-5647.34130859375,0.0,1165.0721435546875,9833.1767578125,4666.646484375,20311.673828125,13753.5732421875,8807.9765625,21003.087890625,7704.8935546875,8937.5185546875,4045.96337890625,-181.9928436279297,19563.0390625,5125.99951171875,14695.3271484375,6298.22412109375,3170.967041015625,9412.765625,10936.259765625,420.41143798828125,4151.662109375,-868.6383666992188,11036.396484375,513.3946533203125,2435.84326171875,-1467.0689697265625,3080.3681640625,2890.427734375,19710.859375,2869.76513671875,9192.6259765625,394.9801025390625,7982.25390625,22742.748046875,18924.87109375,13883.1142578125,-0.0,-50109.2265625,16175.9052734375,5858.7392578125,0.0,6535.05322265625,0.0,0.0
11275.609375,9777.5458984375,25311.3125,7690.58837890625,25204.81640625,2343.654541015625,3894.170166015625,3671.64599609375,6891.88623046875,4038.810791015625,12808.640625,-3403.02783203125,5649.7255859375,0.0,18702.349609375,2012.2528076171875,21332.8984375,14276.5048828125,6552.53759765625,9627.341796875,19142.626953125,25475.8203125,11427.40234375,15232.5634765625,16522.408203125,4074.573486328125,24624.666015625,-5640.9833984375,0.0,1161.8931884765625,9838.740234375,4676.18310546875,20318.826171875,13761.5205078125,8816.71875,21006.265625,7712.8408203125,8944.6708984375,4051.526611328125,-175.63502502441406,19572.576171875,5129.97314453125,14705.658203125,6301.40283203125,3180.50390625,9415.1494140625,10937.849609375,437.89544677734375,4164.3779296875,-863.0752563476562,11046.7275390625,521.3419799804688,2445.3798828125,-1455.1480712890625,3099.44140625,2899.169921875,19710.859375,2866.5859375,9208.51953125,397.3642883300781,7984.63818359375,22750.6953125,18932.8203125,13895.03515625,-0.0,-50103.6640625,16182.2646484375,5860.32861328125,0.0,6535.05322265625,0.0,0.0
11285.94140625,9777.5458984375,25312.10546875,7692.97265625,25209.5859375,2350.012451171875,3900.52783203125,3674.0302734375,6901.4228515625,4045.16845703125,12809.435546875,-3387.13330078125,5651.3154296875,0.0,18707.1171875,2011.4581298828125,21336.873046875,14286.041015625,6558.89501953125,9636.87890625,19147.396484375,25480.58984375,11434.5546875,15238.1259765625,16522.408203125,4077.752685546875,24635.791015625,-5633.0361328125,0.0,1162.6878662109375,9844.302734375,4686.51416015625,20323.595703125,13767.87890625,8822.2822265625,21012.625,7719.99365234375,8951.0283203125,4038.810791015625,-170.8666534423828,19575.75390625,5133.94677734375,14713.6044921875,6306.96630859375,3188.451171875,9420.712890625,10945.796875,451.4058532714844,4169.14599609375,-858.306884765625,11055.4697265625,524.5208740234375,2445.3798828125,-1444.816650390625,3092.2890625,2908.70654296875,19710.859375,2868.97021484375,9212.494140625,398.9537658691406,7983.84375,22757.849609375,18939.97265625,13902.9814453125,-0.0,-50093.3359375,16190.2099609375,5868.27587890625,0.0,6544.58984375,0.0,0.0
11277.19921875,9775.9560546875,25312.900390625,7692.97265625,25218.328125,2353.19140625,3905.29638671875,3678.00390625,6901.4228515625,4047.552490234375,12799.103515625,-3389.517578125,5660.85205078125,0.0,18711.884765625,2020.2000732421875,21339.2578125,14290.8095703125,6561.279296875,9638.46875,19149.78125,25483.765625,11440.1181640625,15242.099609375,16523.203125,4084.1103515625,24650.09765625,-5629.0625,0.0,1168.2509765625,9848.27734375,4687.30908203125,20323.595703125,13767.87890625,8824.666015625,21016.59765625,7723.96728515625,8953.412109375,4031.658203125,-178.81393432617188,19579.728515625,5137.12548828125,14720.7578125,6310.14501953125,3191.630126953125,9423.0966796875,10936.259765625,448.2269287109375,4179.4775390625,-855.1279907226562,11060.23828125,527.6997680664062,2445.3798828125,-1443.2271728515625,3091.494384765625,2914.269775390625,19719.6015625,2876.122802734375,9217.2626953125,404.516845703125,7979.0751953125,22759.4375,18943.15234375,13897.4189453125,-0.0,-50090.15234375,16189.4169921875,5880.197265625,0.0,6553.33203125,0.0,0.0
11255.7412109375,9771.1875,25294.623046875,7679.46240234375,25206.408203125,2341.2705078125,3890.196533203125,3666.0830078125,6882.349609375,4034.837158203125,12781.6201171875,-3400.6435546875,5654.49365234375,0.0,18698.373046875,2014.636962890625,21329.720703125,14274.1201171875,6548.5634765625,9619.3955078125,19137.859375,25472.640625,11428.197265625,15229.384765625,16507.306640625,4071.39453125,24627.05078125,-5640.1884765625,0.0,1160.3037109375,9835.560546875,4676.9775390625,20309.2890625,13757.546875,8812.7451171875,21005.47265625,7709.662109375,8941.4912109375,4020.5322265625,-174.04556274414062,19566.216796875,5125.99951171875,14708.0419921875,6300.6083984375,3178.11962890625,9413.5595703125,10902.8818359375,432.3323669433594,4162.78857421875,-867.0488891601562,11042.75390625,517.3682861328125,2424.717041015625,-1447.2008056640625,3082.752197265625,2903.1435546875,19710.064453125,2869.76513671875,9202.95703125,394.1853942871094,7975.1015625,22745.927734375,18929.640625,13873.5771484375,-0.0,-50095.71875,16173.521484375,5870.66015625,0.0,6541.4111328125,0.0,0.0
11260.509765625,9782.314453125,25303.36328125,7681.0517578125,25214.353515625,2341.2705078125,3890.196533203125,3664.49365234375,6880.76025390625,4030.06884765625,12795.9248046875,-3399.848876953125,5664.8251953125,0.0,18699.169921875,2018.6107177734375,21332.10546875,14270.94140625,6548.5634765625,9617.8056640625,19141.83203125,25474.23046875,11429.787109375,15228.5888671875,16527.17578125,4071.39453125,24617.513671875,-5639.39404296875,0.0,1161.8931884765625,9837.9453125,4681.74609375,20315.646484375,13759.9306640625,8815.12890625,21007.060546875,7708.86767578125,8939.90234375,4029.27392578125,-167.68772888183594,19574.166015625,5126.79443359375,14708.8369140625,6299.01904296875,3176.530029296875,9412.765625,10929.90234375,433.92181396484375,4169.14599609375,-870.227783203125,11039.57421875,520.5472412109375,2412.7958984375,-1452.763916015625,3082.752197265625,2904.73291015625,19716.421875,2868.97021484375,9200.5732421875,387.8275451660156,7975.1015625,22745.927734375,18928.05078125,13873.5771484375,-0.0,-50088.56640625,16166.3681640625,5852.38134765625,0.0,6531.8740234375,0.0,0.0
11274.814453125,9793.4404296875,25311.3125,7688.9990234375,25212.765625,2353.19140625,3899.7333984375,3674.824951171875,6895.8603515625,4039.605712890625,12805.4619140625,-3395.875244140625,5659.26220703125,0.0,18709.501953125,2032.915771484375,21340.05078125,14282.0673828125,6557.3056640625,9629.7265625,19148.984375,25484.5625,11434.5546875,15238.9208984375,16527.17578125,4084.905029296875,24630.228515625,-5627.47314453125,0.0,1179.377197265625,9845.09765625,4686.51416015625,20322.798828125,13768.6728515625,8819.8974609375,21015.802734375,7717.609375,8949.439453125,4038.015869140625,-159.74044799804688,19576.548828125,5140.3046875,14715.1943359375,6309.3505859375,3186.06689453125,9419.1240234375,10948.181640625,442.663818359375,4167.556640625,-856.7174072265625,11051.4951171875,533.2628784179688,2422.332763671875,-1438.458740234375,3085.136474609375,2919.8330078125,19719.6015625,2884.86474609375,9216.4677734375,396.569580078125,7987.0224609375,22755.46484375,18939.17578125,13884.7041015625,-0.0,-50083.796875,16173.521484375,5848.40771484375,0.0,6531.07958984375,0.0,0.0
11277.9931640625,9795.029296875,25308.1328125,7694.5625,25202.43359375,2353.19140625,3900.52783203125,3678.00390625,6909.37060546875,4044.3740234375,12800.693359375,-3395.875244140625,5662.44140625,0.0,18717.447265625,2036.8892822265625,21340.84765625,14281.2724609375,6559.68994140625,9640.8525390625,19148.19140625,25486.9453125,11431.3759765625,15239.7158203125,16516.84375,4087.289306640625,24631.0234375,-5626.6787109375,0.0,1188.1192626953125,9845.09765625,4682.541015625,20321.2109375,13770.2626953125,8819.103515625,21015.009765625,7719.99365234375,8950.2333984375,4038.015869140625,-157.35626220703125,19570.19140625,5143.4833984375,14712.015625,6309.3505859375,3192.4248046875,9423.0966796875,10948.9755859375,439.48492431640625,4168.3515625,-855.9227294921875,11057.853515625,536.4417724609375,2427.895751953125,-1424.1536865234375,3077.98388671875,2926.190673828125,19718.8046875,2887.2490234375,9229.9775390625,401.33795166015625,8002.1220703125,22757.052734375,18944.740234375,13893.4453125,-0.0,-50086.9765625,16191.005859375,5859.53369140625,0.0,6526.3115234375,0.0,0.0
11270.8408203125,9799.7978515625,25309.720703125,7689.7939453125,25208.791015625,2349.2177734375,3900.52783203125,3673.235595703125,6895.8603515625,4040.400146484375,12797.5146484375,-3391.10693359375,5676.74658203125,0.0,18713.474609375,2015.431640625,21340.84765625,14278.0947265625,6555.7158203125,9632.1103515625,19147.396484375,25486.150390625,11429.787109375,15235.7412109375,16520.0234375,4083.3154296875,24634.203125,-5633.0361328125,0.0,1184.1456298828125,9845.09765625,4683.3359375,20322.00390625,13770.2626953125,8819.103515625,21014.212890625,7717.609375,8946.259765625,4035.631591796875,-158.9457244873047,19573.369140625,5140.3046875,14713.6044921875,6303.787109375,3187.656494140625,9419.91796875,10944.20703125,411.6694030761719,4174.70947265625,-863.0752563476562,11057.0595703125,529.2892456054688,2429.4853515625,-1420.179931640625,3080.3681640625,2919.0380859375,19720.396484375,2874.533447265625,9219.646484375,398.1590270996094,8006.095703125,22753.873046875,18939.17578125,13882.3193359375,-0.0,-50083.0,16181.46875,5867.4814453125,0.0,6537.4375,0.0,0.0
11259.71484375,9791.056640625,25304.158203125,7680.25732421875,25198.458984375,2343.654541015625,3883.838623046875,3665.288330078125,6870.4287109375,4029.27392578125,12784.798828125,-3393.490966796875,5663.236328125,0.0,18690.427734375,2013.84228515625,21333.6953125,14268.5576171875,6543.794921875,9612.2431640625,19138.654296875,25478.205078125,11419.455078125,15226.205078125,16507.306640625,4073.778564453125,24611.154296875,-5636.21533203125,0.0,1178.58251953125,9836.3564453125,4678.5673828125,20314.05859375,13763.1103515625,8807.1826171875,21004.677734375,7704.09912109375,8935.1337890625,4030.06884765625,-165.3035430908203,19564.62890625,5129.97314453125,14699.2998046875,6295.83984375,3168.5830078125,9411.970703125,10933.8759765625,404.516845703125,4150.86767578125,-871.0225219726562,11035.6015625,519.7525024414062,2423.12744140625,-1433.6904296875,3066.857666015625,2916.65380859375,19707.6796875,2877.712158203125,9189.4462890625,393.3906555175781,7990.99658203125,22742.748046875,18924.87109375,13864.8349609375,-0.0,-50083.796875,16156.83203125,5855.560546875,0.0,6530.28466796875,0.0,0.0
11263.6884765625,9794.2353515625,25313.6953125,7691.38330078125,25204.81640625,2351.601806640625,3890.9912109375,3673.235595703125,6879.96533203125,4041.19482421875,12791.951171875,-3383.15966796875,5675.1572265625,0.0,18699.169921875,2028.1474609375,21340.84765625,14274.1201171875,6552.53759765625,9623.3681640625,19147.396484375,25484.5625,11427.40234375,15236.537109375,16516.84375,4085.699462890625,24612.74609375,-5625.08935546875,0.0,1189.708740234375,9844.302734375,4687.30908203125,20322.00390625,13772.646484375,8816.71875,21012.625,7713.6357421875,8945.46484375,4041.98974609375,-158.9457244873047,19572.576171875,5138.71533203125,14707.248046875,6308.5556640625,3178.914306640625,9422.302734375,10941.0283203125,434.716552734375,4160.404296875,-861.4857788085938,11041.958984375,526.905029296875,2423.12744140625,-1430.511474609375,3084.341796875,2921.42236328125,19718.01171875,2889.63330078125,9199.7783203125,403.7221374511719,7993.38037109375,22750.6953125,18935.203125,13878.345703125,-0.0,-50074.26171875,16169.5478515625,5868.27587890625,0.0,6540.61669921875,0.0,0.0
11284.3515625,9797.4140625,25316.080078125,7695.35693359375,25204.81640625,2346.038818359375,3891.785888671875,3673.235595703125,6883.14453125,4041.19482421875,12787.1826171875,-3383.954345703125,5665.6201171875,0.0,18700.7578125,2022.584228515625,21340.84765625,14276.5048828125,6554.92138671875,9625.7529296875,19148.19140625,25484.5625,11427.40234375,15237.3310546875,16516.84375,4085.699462890625,24615.923828125,-5631.44677734375,0.0,1187.324462890625,9844.302734375,4688.8984375,20322.00390625,13773.44140625,8818.30859375,21015.009765625,7713.6357421875,8945.46484375,4052.321044921875,-158.15098571777344,19573.369140625,5138.71533203125,14707.248046875,6306.96630859375,3178.914306640625,9421.5078125,10932.2861328125,449.8163757324219,4161.19921875,-863.8699951171875,11044.3427734375,526.1103515625,2427.895751953125,-1428.1273193359375,3085.136474609375,2919.0380859375,19714.037109375,2882.480712890625,9200.5732421875,406.1063232421875,8006.095703125,22749.10546875,18937.587890625,13878.345703125,-0.0,-50079.02734375,16170.34375,5872.24951171875,0.0,6542.2060546875,0.0,0.0
11280.376953125,9793.4404296875,25307.3359375,7689.7939453125,25203.228515625,2341.2705078125,3888.60693359375,3667.67236328125,6878.3759765625,4039.605712890625,12791.1572265625,-3390.312255859375,5657.6728515625,0.0,18695.1953125,2015.431640625,21337.66796875,14270.146484375,6550.1533203125,9622.57421875,19144.216796875,25479.79296875,11421.83984375,15231.7685546875,16516.05078125,4076.162841796875,24615.12890625,-5641.7783203125,0.0,1177.787841796875,9840.3291015625,4682.541015625,20318.826171875,13767.0830078125,8812.7451171875,21010.240234375,7708.07275390625,8942.2861328125,4034.837158203125,-165.3035430908203,19570.986328125,5131.5625,14703.2734375,6299.81396484375,3174.14599609375,9419.91796875,10929.107421875,441.8691101074219,4159.609375,-872.6119995117188,11041.1640625,516.5736083984375,2431.074951171875,-1432.8956298828125,3076.394287109375,2911.0908203125,19707.6796875,2876.91748046875,9196.5986328125,402.1326599121094,8005.30126953125,22745.1328125,18931.23046875,13878.345703125,-0.0,-50087.76953125,16169.5478515625,5866.6865234375,0.0,6544.58984375,0.0,0.0
11275.609375,9798.208984375,25312.900390625,7699.33056640625,25214.353515625,2352.396728515625,3894.170166015625,3676.41455078125,6887.11767578125,4045.96337890625,12784.00390625,-3387.13330078125,5665.6201171875,0.0,18701.552734375,2028.942138671875,21342.435546875,14282.0673828125,6555.7158203125,9629.7265625,19151.369140625,25486.150390625,11427.40234375,15236.537109375,16527.970703125,4083.3154296875,24627.05078125,-5629.857421875,0.0,1180.9666748046875,9846.6875,4685.7197265625,20324.388671875,13772.646484375,8818.30859375,21018.1875,7715.22509765625,8951.0283203125,4041.98974609375,-166.09828186035156,19580.5234375,5137.92041015625,14712.015625,6312.529296875,3178.914306640625,9427.865234375,10941.0283203125,439.48492431640625,4177.09375,-858.306884765625,11046.7275390625,524.5208740234375,2439.02197265625,-1429.7166748046875,3083.546875,2918.243408203125,19714.037109375,2880.89111328125,9205.341796875,408.4905090332031,8006.89013671875,22751.490234375,18935.203125,13889.4716796875,-0.0,-50082.20703125,16175.111328125,5871.45458984375,0.0,6550.1533203125,0.0,0.0
11266.072265625,9801.3876953125,25309.720703125,7708.07275390625,25221.505859375,2360.343994140625,3898.143798828125,3682.7724609375,6888.70751953125,4048.347412109375,12739.4990234375,-3383.954345703125,5669.59375,0.0,18704.732421875,2030.5316162109375,21347.205078125,14288.42578125,6558.89501953125,9633.7001953125,19156.93359375,25490.919921875,11432.96484375,15244.484375,16532.740234375,4092.85205078125,24629.435546875,-5619.52587890625,0.0,1187.324462890625,9853.83984375,4690.48828125,20329.15625,13779.00390625,8823.8720703125,21023.75,7719.19873046875,8955.7958984375,4051.526611328125,-157.35626220703125,19586.880859375,5144.27783203125,14717.5791015625,6320.4765625,3182.09326171875,9432.6337890625,10929.107421875,429.1534423828125,4187.42529296875,-844.0017700195312,11050.701171875,529.2892456054688,2429.4853515625,-1417.0010986328125,3083.546875,2923.01171875,19714.83203125,2894.401611328125,9206.9306640625,411.6694030761719,8005.30126953125,22757.849609375,18940.767578125,13891.060546875,-0.0,-50077.4375,16175.9052734375,5865.89208984375,0.0,6546.97412109375,0.0,0.0
11262.099609375,9804.56640625,25301.775390625,7697.7412109375,25213.560546875,2358.75439453125,3892.580810546875,3681.182861328125,6883.939453125,4044.3740234375,12780.0302734375,-3383.954345703125,5660.85205078125,0.0,18699.169921875,2028.1474609375,21344.8203125,14282.8623046875,6556.5107421875,9631.31640625,19151.369140625,25489.330078125,11428.9921875,15242.89453125,16516.84375,4090.468017578125,24619.8984375,-5618.73095703125,0.0,1192.0928955078125,9850.6611328125,4690.48828125,20324.388671875,13778.2099609375,8820.693359375,21020.5703125,7714.43017578125,8953.412109375,4052.321044921875,-158.9457244873047,19579.728515625,5146.662109375,14711.220703125,6321.271484375,3178.914306640625,9431.8388671875,10913.212890625,416.4377746582031,4171.5302734375,-838.4386596679688,11043.548828125,528.4945068359375,2426.306396484375,-1408.259033203125,3067.65234375,2918.243408203125,19707.6796875,2905.52783203125,9200.5732421875,409.28521728515625,8002.1220703125,22755.46484375,18939.17578125,13886.2919921875,-0.0,-50079.82421875,16175.9052734375,5862.712890625,0.0,6545.384765625,0.0,0.0
11274.814453125,9802.1826171875,25306.54296875,7699.33056640625,25205.611328125,2356.3701171875,3890.196533203125,3682.7724609375,6883.14453125,4045.16845703125,12817.3828125,-3376.8017578125,5657.6728515625,0.0,18699.169921875,2040.068359375,21345.615234375,14278.0947265625,6554.92138671875,9628.931640625,19147.396484375,25490.919921875,11425.8125,15242.099609375,16509.69140625,4091.2626953125,24619.8984375,-5620.32080078125,0.0,1186.52978515625,9850.6611328125,4689.693359375,20323.595703125,13779.00390625,8816.71875,21019.77734375,7714.43017578125,8952.6171875,4043.5791015625,-158.9457244873047,19570.19140625,5146.662109375,14709.6318359375,6319.681640625,3177.324951171875,9432.6337890625,10914.802734375,421.2061462402344,4158.02001953125,-844.0017700195312,11042.75390625,530.083984375,2431.074951171875,-1404.285400390625,3081.95751953125,2919.8330078125,19706.884765625,2899.964599609375,9199.7783203125,412.4641418457031,8002.1220703125,22755.46484375,18939.17578125,13877.55078125,-0.0,-50070.28515625,16172.7275390625,5865.89208984375,0.0,6546.17919921875,0.0,0.0
11283.556640625,9791.8505859375,25314.490234375,7708.07275390625,25199.255859375,2351.601806640625,3887.017578125,3675.619873046875,6873.607421875,4040.400146484375,12832.482421875,-3380.775390625,5660.05712890625,0.0,18696.78515625,2037.6842041015625,21347.205078125,14276.5048828125,6552.53759765625,9620.189453125,19147.396484375,25489.330078125,11421.83984375,15237.3310546875,16513.666015625,4091.2626953125,24618.306640625,-5629.857421875,0.0,1178.58251953125,9850.6611328125,4692.07763671875,20326.7734375,13779.00390625,8815.9248046875,21017.392578125,7710.45703125,8947.849609375,4041.98974609375,-155.7667999267578,19570.19140625,5141.89404296875,14706.4521484375,6308.5556640625,3173.351318359375,9428.66015625,10941.0283203125,438.690185546875,4145.30419921875,-855.1279907226562,11040.3701171875,526.1103515625,2437.4326171875,-1410.6431884765625,3094.673095703125,2920.627685546875,19711.65234375,2899.169921875,9195.8046875,410.0799560546875,8000.533203125,22752.28515625,18934.408203125,13863.24609375,-0.0,-50069.4921875,16166.3681640625,5856.35498046875,0.0,6535.05322265625,0.0,0.0
11280.376953125,9783.904296875,25312.10546875,7708.07275390625,25198.458984375,2346.83349609375,3883.0439453125,3670.056640625,6871.2236328125,4039.605712890625,12814.9990234375,-3383.954345703125,5651.3154296875,0.0,18695.1953125,2031.3262939453125,21344.02734375,14271.736328125,6549.3583984375,9620.189453125,19145.01171875,25483.765625,11420.25,15231.7685546875,16505.71875,4084.905029296875,24612.74609375,-5633.0361328125,0.0,1179.377197265625,9845.892578125,4688.8984375,20322.00390625,13775.8251953125,8812.7451171875,21011.830078125,7706.4833984375,8943.0810546875,4034.837158203125,-162.9193572998047,19568.6015625,5137.12548828125,14701.68359375,6304.58203125,3171.76171875,9426.2763671875,10951.359375,449.8163757324219,4143.71484375,-863.0752563476562,11035.6015625,522.13671875,2435.04833984375,-1444.0218505859375,3071.6259765625,2918.243408203125,19706.091796875,2895.1962890625,9194.21484375,406.1063232421875,7997.353515625,22748.3125,18932.8203125,13868.0146484375,-0.0,-50075.0546875,16161.6005859375,5869.865234375,0.0,6543.794921875,0.0,0.0
11284.3515625,9789.466796875,25319.2578125,7711.251953125,25209.5859375,2347.62841796875,3890.9912109375,3674.824951171875,6879.1708984375,4045.16845703125,12811.0244140625,-3380.775390625,5660.85205078125,0.0,18701.552734375,2033.71044921875,21350.3828125,14278.888671875,6554.92138671875,9627.341796875,19153.75390625,25488.53515625,11425.8125,15237.3310546875,16519.228515625,4087.289306640625,24623.87109375,-5630.65185546875,0.0,1178.58251953125,9851.4560546875,4694.4619140625,20327.568359375,13780.59375,8818.30859375,21015.009765625,7713.6357421875,8947.849609375,4042.7841796875,-158.15098571777344,19578.138671875,5139.509765625,14711.220703125,6308.5556640625,3178.11962890625,9428.66015625,10958.5126953125,452.2005615234375,4161.19921875,-861.4857788085938,11044.3427734375,526.1103515625,2432.6640625,-1456.737548828125,3074.01025390625,2921.42236328125,19706.091796875,2892.81201171875,9202.1630859375,410.0799560546875,7998.943359375,22753.080078125,18937.587890625,13879.1396484375,-0.0,-50067.109375,16160.01171875,5877.01806640625,0.0,6549.3583984375,0.0,0.0
11286.7353515625,9800.59375,25320.84765625,7723.1728515625,25220.712890625,2361.138671875,3905.29638671875,3686.745849609375,6891.091796875,4056.294921875,12807.845703125,-3366.47021484375,5661.646484375,0.0,18706.322265625,2043.2471923828125,21359.125,14290.015625,6566.8427734375,9640.0576171875,19162.49609375,25501.251953125,11434.5546875,15250.841796875,16524.791015625,4100.7998046875,24649.30078125,-5619.52587890625,0.0,1192.8876953125,9861.787109375,4702.4091796875,20334.720703125,13790.9248046875,8828.6396484375,21026.9296875,7728.7353515625,8961.3603515625,4045.96337890625,-143.8458709716797,19582.90625,5152.2255859375,14725.525390625,6321.271484375,3188.451171875,9442.169921875,10948.181640625,461.7373046875,4166.76171875,-847.9754028320312,11058.6484375,539.6207275390625,2410.411865234375,-1429.7166748046875,3101.031005859375,2937.31689453125,19689.40234375,2907.1171875,9214.083984375,422.0008850097656,8006.89013671875,22765.001953125,18949.5078125,13891.060546875,-0.0,-50052.8046875,16173.521484375,5883.37548828125,0.0,6558.10009765625,0.0,0.0
11281.966796875,9806.15625,25327.205078125,7728.7353515625,25227.0703125,2369.880615234375,3918.806640625,3693.103759765625,6899.03857421875,4062.652587890625,12822.1513671875,-3372.828125,5671.97802734375,0.0,18722.21484375,2044.0418701171875,21363.099609375,14296.3720703125,6574.78955078125,9646.416015625,19168.05859375,25507.609375,11442.501953125,15257.19921875,16525.587890625,4111.92578125,24669.169921875,-5614.75732421875,0.0,1200.8348388671875,9865.7607421875,4704.79345703125,20339.48828125,13795.693359375,8836.5869140625,21034.875,7739.86181640625,8968.5126953125,4053.91064453125,-146.2300567626953,19588.470703125,5162.55712890625,14738.2421875,6327.62890625,3200.3720703125,9446.14453125,10950.5654296875,472.06878662109375,4166.76171875,-839.2333984375,11080.9013671875,545.183837890625,2405.6435546875,-1411.43798828125,3105.004638671875,2951.6220703125,19700.52734375,2909.501220703125,9232.361328125,427.5639953613281,8011.65869140625,22773.7421875,18959.044921875,13895.03515625,-0.0,-50052.00390625,16187.0322265625,5884.96533203125,0.0,6558.89501953125,0.0,0.0
11270.0458984375,9802.9775390625,25322.4375,7706.4833984375,25223.09765625,2353.986083984375,3913.24365234375,3681.9775390625,6887.11767578125,4053.11572265625,12803.8720703125,-3379.980712890625,5670.388671875,0.0,18715.859375,2033.71044921875,21351.1796875,14286.8359375,6565.2529296875,9636.0849609375,19158.521484375,25494.89453125,11433.7607421875,15243.689453125,16519.228515625,4096.03125,24646.91796875,-5627.47314453125,0.0,1192.0928955078125,9855.4296875,4692.07763671875,20330.748046875,13780.59375,8827.845703125,21023.75,7731.91455078125,8958.1806640625,4050.731689453125,-168.4824676513672,19583.701171875,5141.099609375,14734.2685546875,6314.9130859375,3190.04052734375,9433.4287109375,10944.20703125,448.2269287109375,4160.404296875,-850.359619140625,11076.9267578125,534.8523559570312,2409.6171875,-1423.35888671875,3071.6259765625,2938.906494140625,19715.626953125,2892.017333984375,9224.4150390625,413.2588806152344,8009.2744140625,22763.41015625,18949.5078125,13882.3193359375,-0.0,-50065.515625,16181.46875,5871.45458984375,0.0,6545.384765625,0.0,0.0
11252.5625,9801.3876953125,25308.1328125,7695.35693359375,25206.408203125,2339.680908203125,3882.2490234375,3671.64599609375,6869.63427734375,4039.605712890625,12768.904296875,-3382.364990234375,5668.798828125,0.0,18692.8125,2030.5316162109375,21340.05078125,14271.736328125,6550.1533203125,9623.3681640625,19147.396484375,25480.58984375,11414.6875,15232.5634765625,16525.587890625,4080.13671875,24604.796875,-5633.0361328125,0.0,1186.52978515625,9842.712890625,4680.95166015625,20322.00390625,13764.69921875,8815.12890625,21010.240234375,7713.6357421875,8944.6708984375,4018.14794921875,-187.5559539794922,19573.369140625,5123.615234375,14707.248046875,6302.9921875,3168.5830078125,9423.0966796875,10933.08203125,433.1270751953125,4156.4306640625,-860.6910400390625,11034.806640625,527.6997680664062,2417.564453125,-1437.6640625,3069.24169921875,2921.42236328125,19719.6015625,2881.68603515625,9194.21484375,397.3642883300781,7994.96923828125,22749.10546875,18932.8203125,13868.80859375,-0.0,-50073.46484375,16173.521484375,5857.1494140625,0.0,6539.02685546875,0.0,0.0
11255.7412109375,9797.4140625,25312.10546875,7703.30419921875,25202.43359375,2343.654541015625,3871.917724609375,3672.440673828125,6864.07080078125,4039.605712890625,12757.7783203125,-3387.927978515625,5672.77294921875,0.0,18695.1953125,2035.300048828125,21342.435546875,14269.3515625,6548.5634765625,9622.57421875,19149.78125,25484.5625,11408.3291015625,15234.15234375,16523.203125,4080.13671875,24607.9765625,-5632.24169921875,0.0,1175.403564453125,9845.09765625,4682.541015625,20323.595703125,13770.2626953125,8814.3349609375,21012.625,7708.86767578125,8946.259765625,4027.6845703125,-182.78758239746094,19577.345703125,5128.3837890625,14694.53125,6303.787109375,3163.019775390625,9426.2763671875,10927.517578125,435.5112609863281,4169.94091796875,-859.8963623046875,11026.064453125,531.6734619140625,2414.385498046875,-1438.458740234375,3081.95751953125,2915.064453125,19724.369140625,2880.89111328125,9195.8046875,403.7221374511719,7982.25390625,22749.10546875,18932.8203125,13870.3984375,-0.0,-50077.4375,16170.34375,5867.4814453125,0.0,6538.232421875,0.0,0.0
11264.4833984375,9793.4404296875,25318.46484375,7715.22509765625,25214.353515625,2350.012451171875,3881.45458984375,3673.235595703125,6868.04443359375,4045.16845703125,12756.1884765625,-3388.72265625,5658.4677734375,0.0,18702.349609375,2026.557861328125,21349.587890625,14273.326171875,6552.53759765625,9628.931640625,19159.31640625,25490.125,11414.6875,15238.1259765625,16503.333984375,4088.083740234375,24619.8984375,-5633.0361328125,0.0,1176.9930419921875,9851.4560546875,4688.8984375,20329.953125,13778.2099609375,8820.693359375,21018.1875,7716.02001953125,8948.6435546875,4039.605712890625,-177.22447204589844,19585.291015625,5136.3310546875,14704.068359375,6307.7607421875,3166.19873046875,9429.455078125,10930.697265625,444.2532958984375,4168.3515625,-855.1279907226562,11036.396484375,529.2892456054688,2412.7958984375,-1433.6904296875,3076.394287109375,2916.65380859375,19718.01171875,2879.3017578125,9202.95703125,406.9010314941406,7986.22802734375,22755.46484375,18936.79296875,13876.755859375,-0.0,-50080.6171875,16174.31640625,5877.01806640625,0.0,6549.3583984375,0.0,0.0
11276.404296875,9791.8505859375,25320.052734375,7713.6357421875,25217.533203125,2350.012451171875,3883.0439453125,3670.8515625,6864.07080078125,4038.810791015625,12784.798828125,-3385.5439453125,5644.16259765625,0.0,18699.169921875,2028.942138671875,21349.587890625,14276.5048828125,6552.53759765625,9623.3681640625,19157.728515625,25487.7421875,11413.8916015625,15235.7412109375,16510.486328125,4089.673583984375,24619.8984375,-5632.24169921875,0.0,1180.1719970703125,9851.4560546875,4691.28271484375,20330.748046875,13779.00390625,8819.8974609375,21015.802734375,7713.6357421875,8947.0546875,4045.96337890625,-165.3035430908203,19586.880859375,5137.92041015625,14706.4521484375,6306.17138671875,3164.609130859375,9426.2763671875,10936.259765625,434.716552734375,4161.19921875,-855.9227294921875,11037.1904296875,526.1103515625,2424.717041015625,-1435.27978515625,3058.910400390625,2919.0380859375,19714.037109375,2884.070068359375,9196.5986328125,402.1326599121094,8002.1220703125,22753.873046875,18932.0234375,13868.80859375,-0.0,-50077.4375,16164.779296875,5866.6865234375,0.0,6538.232421875,0.0,0.0
11280.376953125,9796.619140625,25304.953125,7701.71484375,25202.43359375,2347.62841796875,3881.45458984375,3670.8515625,6862.4814453125,4036.426513671875,12818.1767578125,-3382.364990234375,5643.36767578125,0.0,18699.96484375,2034.505126953125,21344.02734375,14276.5048828125,6550.94775390625,9620.189453125,19147.396484375,25483.765625,11409.9189453125,15231.7685546875,16523.203125,4080.93115234375,24616.71875,-5629.0625,0.0,1186.52978515625,9845.09765625,4688.10400390625,20322.00390625,13774.2353515625,8812.7451171875,21012.625,7708.86767578125,8944.6708984375,4049.142333984375,-163.71409606933594,19567.013671875,5135.5361328125,14702.4794921875,6306.96630859375,3165.404052734375,9424.6865234375,10933.8759765625,422.7956237792969,4155.6357421875,-859.1016235351562,11038.7802734375,526.1103515625,2431.86962890625,-1435.27978515625,3062.089111328125,2916.65380859375,19713.244140625,2894.401611328125,9197.39453125,402.9273986816406,8005.30126953125,22749.10546875,18932.0234375,13864.8349609375,-0.0,-50072.671875,16161.6005859375,5862.712890625,0.0,6527.90087890625,0.0,0.0
11287.5302734375,9803.771484375,25312.900390625,7712.8408203125,25202.43359375,2361.138671875,3889.401611328125,3683.567138671875,6868.83935546875,4046.758056640625,12836.4560546875,-3368.059814453125,5663.236328125,0.0,18704.732421875,2039.2735595703125,21355.15234375,14286.8359375,6558.89501953125,9627.341796875,19156.13671875,25496.482421875,11421.0439453125,15242.89453125,16544.66015625,4088.083740234375,24627.05078125,-5617.1416015625,0.0,1200.0401611328125,9855.4296875,4700.8193359375,20330.748046875,13786.15625,8819.103515625,21021.365234375,7719.99365234375,8955.7958984375,4048.347412109375,-151.7931671142578,19570.986328125,5146.662109375,14710.4267578125,6318.09228515625,3174.14599609375,9435.017578125,10949.7705078125,433.92181396484375,4165.17236328125,-845.5912475585938,11046.7275390625,538.03125,2448.558837890625,-1424.9483642578125,3096.2626953125,2935.727294921875,19721.984375,2903.938232421875,9202.95703125,422.0008850097656,8006.89013671875,22760.232421875,18941.560546875,13871.193359375,-0.0,-50058.36328125,16173.521484375,5884.17041015625,0.0,6535.05322265625,0.0,0.0
11297.8623046875,9808.5400390625,25321.642578125,7723.1728515625,25210.380859375,2372.264892578125,3893.37548828125,3691.51416015625,6869.63427734375,4053.11572265625,12823.7412109375,-3356.138916015625,5665.6201171875,0.0,18698.373046875,2047.220947265625,21366.27734375,14296.3720703125,6566.8427734375,9630.5205078125,19163.2890625,25506.814453125,11428.9921875,15252.4306640625,16527.970703125,4080.13671875,24623.87109375,-5609.1943359375,0.0,1209.576904296875,9865.7607421875,4708.76708984375,20340.28515625,13796.48828125,8827.0498046875,21031.697265625,7725.556640625,8964.5390625,4041.98974609375,-128.74603271484375,19581.318359375,5156.19921875,14717.5791015625,6326.833984375,3178.11962890625,9443.759765625,10949.7705078125,453.7900390625,4165.17236328125,-835.259765625,11045.9326171875,549.9522094726562,2453.3271484375,-1399.51708984375,3091.494384765625,2952.416748046875,19721.189453125,2915.064453125,9200.5732421875,427.5639953613281,8014.83837890625,22770.5625,18947.919921875,13875.1669921875,-0.0,-50041.67578125,16177.49609375,5900.85986328125,0.0,6553.33203125,0.0,0.0
11289.9140625,9798.208984375,25317.66796875,7724.76171875,25207.201171875,2369.880615234375,3889.401611328125,3687.540771484375,6866.455078125,4049.936767578125,12803.8720703125,-3369.649169921875,5652.10986328125,0.0,18697.580078125,2045.63134765625,21359.125,14289.2197265625,6562.86865234375,9627.341796875,19159.31640625,25501.251953125,11426.6083984375,15249.251953125,16508.8984375,4109.54150390625,24619.1015625,-5612.37353515625,0.0,1192.8876953125,9859.40234375,4699.22998046875,20334.720703125,13790.9248046875,8825.4609375,21029.314453125,7722.3779296875,8959.7705078125,4038.015869140625,-139.07749938964844,19574.166015625,5154.60986328125,14712.015625,6326.03955078125,3173.351318359375,9438.9912109375,10945.0029296875,456.1742248535156,4158.81494140625,-839.2333984375,11041.1640625,545.978515625,2433.458984375,-1399.51708984375,3085.93115234375,2940.495849609375,19714.037109375,2912.680419921875,9195.009765625,412.4641418457031,8013.24853515625,22765.001953125,18943.15234375,13871.9873046875,-0.0,-50052.00390625,16171.9326171875,5884.96533203125,0.0,6550.1533203125,0.0,0.0
11282.76171875,9801.3876953125,25328.794921875,7727.94091796875,25215.943359375,2372.264892578125,3895.759521484375,3686.745849609375,6872.81298828125,4052.321044921875,12816.5888671875,-3377.5966796875,5643.36767578125,0.0,18703.142578125,2041.65771484375,21360.716796875,14290.8095703125,6567.63720703125,9632.1103515625,19164.0859375,25503.634765625,11434.5546875,15250.841796875,16526.380859375,4120.66796875,24631.0234375,-5614.75732421875,0.0,1195.2718505859375,9861.787109375,4703.99853515625,20340.28515625,13793.3095703125,8830.2294921875,21030.107421875,7726.35107421875,8962.94921875,4054.705078125,-147.02479553222656,19584.498046875,5157.78857421875,14720.7578125,6326.03955078125,3179.709228515625,9439.7861328125,10961.69140625,459.3531188964844,4167.556640625,-838.4386596679688,11046.7275390625,542.0048828125,2435.84326171875,-1393.9539794921875,3094.673095703125,2942.8798828125,19714.83203125,2904.73291015625,9202.1630859375,414.0535888671875,8014.83837890625,22769.76953125,18945.53515625,13877.55078125,-0.0,-50063.1328125,16173.521484375,5871.45458984375,0.0,6554.126953125,0.0,0.0
11288.3251953125,9798.208984375,25337.537109375,7731.91455078125,25227.865234375,2372.264892578125,3906.8857421875,3693.103759765625,6879.1708984375,4057.08935546875,12823.7412109375,-3365.67578125,5664.8251953125,0.0,18707.1171875,2054.37353515625,21366.27734375,14298.7568359375,6574.78955078125,9636.87890625,19172.826171875,25505.224609375,11444.091796875,15256.4052734375,16539.892578125,4120.66796875,24650.09765625,-5609.9892578125,0.0,1209.576904296875,9867.3505859375,4714.330078125,20348.23046875,13798.0771484375,8838.1767578125,21033.287109375,7735.88818359375,8967.716796875,4074.573486328125,-139.8722381591797,19596.41796875,5153.0205078125,14734.2685546875,6331.6025390625,3190.04052734375,9445.349609375,10973.6123046875,458.55841064453125,4181.86181640625,-835.259765625,11056.263671875,547.5679931640625,2458.095458984375,-1392.364501953125,3087.5205078125,2948.443115234375,19721.189453125,2910.296142578125,9208.51953125,422.0008850097656,8020.40087890625,22776.921875,18951.892578125,13883.908203125,-0.0,-50053.59765625,16172.7275390625,5880.197265625,0.0,6554.126953125,0.0,0.0
11278.7880859375,9794.2353515625,25335.154296875,7731.11962890625,25225.48046875,2369.0859375,3907.680419921875,3688.33544921875,6877.5810546875,4051.526611328125,12807.0517578125,-3373.622802734375,5680.7197265625,0.0,18709.501953125,2044.0418701171875,21363.099609375,14301.9365234375,6569.2265625,9633.7001953125,19168.853515625,25502.046875,11444.8857421875,15251.63671875,16547.837890625,4112.720703125,24653.27734375,-5617.1416015625,0.0,1204.0137939453125,9863.376953125,4708.76708984375,20345.052734375,13791.720703125,8834.998046875,21029.314453125,7733.50390625,8963.744140625,4064.241943359375,-136.6933135986328,19592.443359375,5151.4306640625,14733.4736328125,6327.62890625,3190.04052734375,9440.5810546875,10959.3076171875,453.7900390625,4185.041015625,-840.8228759765625,11057.0595703125,539.6207275390625,2442.995849609375,-1408.259033203125,3085.93115234375,2923.806396484375,19724.369140625,2903.938232421875,9207.7255859375,413.2588806152344,8014.83837890625,22772.947265625,18949.5078125,13880.7294921875,-0.0,-50055.98046875,16171.13671875,5883.37548828125,0.0,6545.384765625,0.0,0.0
11270.8408203125,9790.26171875,25312.10546875,7716.814453125,25198.458984375,2357.959716796875,3891.785888671875,3674.0302734375,6870.4287109375,4036.426513671875,12787.978515625,-3382.364990234375,5675.1572265625,0.0,18701.552734375,2019.4053955078125,21348.0,14285.2470703125,6554.92138671875,9625.7529296875,19148.984375,25488.53515625,11430.5810546875,15237.3310546875,16523.203125,4100.0048828125,24623.076171875,-5635.42041015625,0.0,1194.47705078125,9847.4814453125,4690.48828125,20324.388671875,13779.7998046875,8818.30859375,21014.212890625,7719.19873046875,8950.2333984375,4049.142333984375,-154.17735290527344,19569.396484375,5143.4833984375,14712.015625,6314.11865234375,3178.914306640625,9425.48046875,10920.365234375,446.6374816894531,4169.14599609375,-854.333251953125,11043.548828125,519.7525024414062,2423.92236328125,-1440.843017578125,3085.93115234375,2908.70654296875,19718.8046875,2883.275390625,9200.5732421875,394.9801025390625,8002.1220703125,22756.2578125,18935.998046875,13873.5771484375,-0.0,-50070.28515625,16171.13671875,5868.27587890625,0.0,6533.4638671875,0.0,0.0
11273.224609375,9799.00390625,25315.28515625,7714.43017578125,25200.84375,2360.343994140625,3894.170166015625,3678.00390625,6876.78662109375,4038.810791015625,12808.640625,-3376.007080078125,5678.33544921875,0.0,18703.9375,2024.1737060546875,21348.0,14282.0673828125,6558.89501953125,9628.13671875,19152.1640625,25488.53515625,11436.939453125,15239.7158203125,16527.970703125,4100.7998046875,24611.94921875,-5629.0625,0.0,1182.55615234375,9849.8662109375,4692.87255859375,20326.7734375,13782.18359375,8820.693359375,21015.802734375,7723.1728515625,8951.8232421875,4057.88427734375,-157.35626220703125,19573.369140625,5143.4833984375,14712.015625,6318.09228515625,3182.887939453125,9427.0703125,10926.7236328125,420.41143798828125,4173.1201171875,-850.359619140625,11044.3427734375,520.5472412109375,2443.79052734375,-1459.91650390625,3100.236083984375,2923.806396484375,19719.6015625,2888.838623046875,9203.751953125,397.3642883300781,8002.91748046875,22759.4375,18939.17578125,13876.755859375,-0.0,-50065.515625,16171.13671875,5861.91796875,0.0,6528.69580078125,0.0,0.0
11270.8408203125,9805.361328125,25316.873046875,7708.86767578125,25205.611328125,2357.959716796875,3898.9384765625,3677.209228515625,6883.14453125,4040.400146484375,12803.078125,-3377.5966796875,5674.3623046875,0.0,18705.525390625,2027.3525390625,21345.615234375,14280.478515625,6561.279296875,9630.5205078125,19152.958984375,25483.765625,11440.1181640625,15238.9208984375,16527.17578125,4099.21044921875,24621.486328125,-5625.08935546875,0.0,1163.482666015625,9849.0712890625,4691.28271484375,20325.18359375,13779.7998046875,8820.693359375,21015.009765625,7726.35107421875,8952.6171875,4047.552490234375,-166.09828186035156,19576.548828125,5137.92041015625,14715.9892578125,6319.681640625,3187.656494140625,9427.865234375,10929.90234375,387.0328369140625,4177.88818359375,-847.1806640625,11049.111328125,523.7261352539062,2431.86962890625,-1459.91650390625,3082.752197265625,2932.548583984375,19717.216796875,2892.81201171875,9206.9306640625,396.569580078125,8000.533203125,22760.232421875,18941.560546875,13883.1142578125,-0.0,-50071.875,16173.521484375,5865.09716796875,0.0,6534.25830078125,0.0,0.0
11281.966796875,9796.619140625,25311.3125,7700.125,25197.6640625,2355.57568359375,3893.37548828125,3675.619873046875,6879.1708984375,4035.631591796875,12793.541015625,-3376.8017578125,5661.646484375,0.0,18699.96484375,2025.7633056640625,21342.435546875,14274.9150390625,6558.10009765625,9622.57421875,19145.806640625,25480.58984375,11436.14453125,15236.537109375,16516.05078125,4096.826171875,24617.513671875,-5625.08935546875,0.0,1169.8404541015625,9845.09765625,4690.48828125,20322.798828125,13777.4150390625,8816.71875,21009.4453125,7722.3779296875,8951.0283203125,4039.605712890625,-175.63502502441406,19569.396484375,5137.12548828125,14711.220703125,6318.88720703125,3184.4775390625,9424.6865234375,10942.6181640625,406.1063232421875,4160.404296875,-846.385986328125,11042.75390625,525.3156127929688,2430.280029296875,-1459.91650390625,3076.394287109375,2931.75390625,19711.65234375,2892.81201171875,9199.7783203125,395.77484130859375,8000.533203125,22756.2578125,18935.998046875,13872.7822265625,-0.0,-50069.4921875,16168.7529296875,5862.712890625,0.0,6533.4638671875,0.0,0.0
11309.783203125,9810.1298828125,25324.025390625,7719.19873046875,25207.99609375,2366.701904296875,3899.7333984375,3683.567138671875,6879.1708984375,4041.19482421875,12806.255859375,-3370.444091796875,5665.6201171875,0.0,18702.349609375,2024.9683837890625,21354.357421875,14286.041015625,6563.66357421875,9624.9580078125,19156.13671875,25491.71484375,11448.0654296875,15243.689453125,16532.740234375,4107.9521484375,24629.435546875,-5617.1416015625,0.0,1190.50341796875,9855.4296875,4700.8193359375,20333.130859375,13788.541015625,8826.255859375,21018.982421875,7727.94091796875,8958.9755859375,4056.294921875,-164.50881958007812,19581.318359375,5147.45703125,14720.7578125,6329.21826171875,3188.451171875,9429.455078125,10956.923828125,443.45855712890625,4173.1201171875,-837.6439208984375,11046.7275390625,527.6997680664062,2442.200927734375,-1427.33251953125,3098.64697265625,2932.548583984375,19715.626953125,2895.1962890625,9201.3671875,406.1063232421875,8014.04296875,22764.205078125,18939.97265625,13876.755859375,-0.0,-50063.92578125,16167.958984375,5875.4287109375,0.0,6543.794921875,0.0,0.0
11312.9619140625,9813.30859375,25312.10546875,7719.19873046875,25202.43359375,2365.906982421875,3898.143798828125,3677.209228515625,6882.349609375,4036.426513671875,12785.59375,-3381.570068359375,5665.6201171875,0.0,18704.732421875,2019.4053955078125,21349.587890625,14282.0673828125,6558.89501953125,9627.341796875,19148.984375,25487.7421875,11446.4755859375,15238.1259765625,16515.255859375,4110.33642578125,24633.408203125,-5620.32080078125,0.0,1190.50341796875,9849.8662109375,4695.2568359375,20322.798828125,13783.7724609375,8819.8974609375,21014.212890625,7723.96728515625,8955.001953125,4049.142333984375,-168.4824676513672,19570.19140625,5144.27783203125,14718.373046875,6326.03955078125,3187.656494140625,9424.6865234375,10933.08203125,449.02166748046875,4167.556640625,-834.4650268554688,11047.5224609375,521.3419799804688,2435.04833984375,-1422.564208984375,3083.546875,2928.57470703125,19717.216796875,2887.2490234375,9204.546875,399.74847412109375,8009.2744140625,22762.6171875,18937.587890625,13891.060546875,-0.0,-50079.82421875,16160.806640625,5865.89208984375,0.0,6535.05322265625,0.0,0.0
11285.94140625,9798.208984375,25300.98046875,7698.5361328125,25192.896484375,2359.54931640625,3893.37548828125,3668.46728515625,6882.349609375,4026.889892578125,12776.0576171875,-3396.670166015625,5667.20947265625,0.0,18703.142578125,2015.431640625,21336.078125,14266.173828125,6550.94775390625,9621.779296875,19138.654296875,25476.61328125,11439.3232421875,15230.1787109375,16508.8984375,4105.56787109375,24627.05078125,-5625.8837890625,0.0,1178.58251953125,9838.740234375,4681.74609375,20312.466796875,13769.4677734375,8809.56640625,21006.265625,7716.814453125,8946.259765625,4015.763671875,-178.0192108154297,19561.44921875,5133.94677734375,14709.6318359375,6318.88720703125,3182.09326171875,9415.9443359375,10927.517578125,433.92181396484375,4162.78857421875,-834.4650268554688,11043.548828125,513.3946533203125,2420.7431640625,-1432.8956298828125,3074.804931640625,2913.47509765625,19714.83203125,2880.096435546875,9203.751953125,387.0328369140625,7993.38037109375,22753.080078125,18928.845703125,13888.6767578125,-0.0,-50085.3828125,16148.8857421875,5846.818359375,0.0,6514.390625,0.0,0.0
11274.0205078125,9802.9775390625,25301.775390625,7693.767578125,25188.923828125,2358.75439453125,3888.60693359375,3670.8515625,6884.73388671875,4030.06884765625,12789.5673828125,-3384.749267578125,5659.26220703125,0.0,18700.7578125,2017.021240234375,21333.6953125,14267.76171875,6549.3583984375,9626.5478515625,19137.859375,25474.23046875,11436.939453125,15230.9736328125,16506.513671875,4110.33642578125,24610.361328125,-5626.6787109375,0.0,1176.1983642578125,9837.9453125,4681.74609375,20312.466796875,13766.2890625,8809.56640625,21004.677734375,7714.43017578125,8945.46484375,4027.6845703125,-172.4561004638672,19561.44921875,5129.1787109375,14703.2734375,6318.88720703125,3179.709228515625,9415.1494140625,10925.1337890625,429.1534423828125,4151.662109375,-836.8492431640625,11038.7802734375,515.7788696289062,2415.18017578125,-1423.35888671875,3075.599609375,2919.0380859375,19708.474609375,2884.86474609375,9204.546875,389.4170227050781,7992.5849609375,22752.28515625,18929.640625,13884.7041015625,-0.0,-50074.26171875,16166.3681640625,5841.25537109375,0.0,6526.3115234375,0.0,0.0
11279.5830078125,9813.30859375,25310.515625,7696.15185546875,25195.279296875,2364.317626953125,3890.9912109375,3675.619873046875,6887.91259765625,4034.837158203125,12806.255859375,-3377.5966796875,5664.03076171875,0.0,18697.580078125,2028.1474609375,21340.05078125,14278.888671875,6554.126953125,9628.931640625,19145.806640625,25482.177734375,11444.091796875,15234.947265625,16508.8984375,4111.92578125,24607.181640625,-5625.08935546875,0.0,1184.1456298828125,9845.09765625,4691.28271484375,20321.2109375,13774.2353515625,8815.9248046875,21009.4453125,7718.404296875,8950.2333984375,4043.5791015625,-164.50881958007812,19570.986328125,5138.71533203125,14707.248046875,6322.06591796875,3184.4775390625,9421.5078125,10939.4384765625,438.690185546875,4154.8408203125,-840.8228759765625,11038.7802734375,522.931396484375,2424.717041015625,-1409.0538330078125,3085.93115234375,2931.75390625,19707.6796875,2892.81201171875,9205.341796875,400.543212890625,8002.91748046875,22757.052734375,18934.408203125,13887.8818359375,-0.0,-50071.875,16180.673828125,5850.7919921875,0.0,6532.6689453125,0.0,0.0
11278.7880859375,9816.4873046875,25308.927734375,7694.5625,25197.6640625,2356.3701171875,3894.170166015625,3677.209228515625,6895.8603515625,4037.221435546875,12802.283203125,-3377.5966796875,5669.59375,0.0,18702.349609375,2026.557861328125,21339.2578125,14280.478515625,6554.92138671875,9631.31640625,19146.6015625,25478.998046875,11445.681640625,15231.7685546875,16503.333984375,4084.1103515625,24615.923828125,-5629.857421875,0.0,1184.9403076171875,9842.712890625,4689.693359375,20318.826171875,13771.8515625,8816.71875,21007.060546875,7718.404296875,8948.6435546875,4041.19482421875,-169.27719116210938,19570.19140625,5133.15185546875,14711.220703125,6318.88720703125,3188.451171875,9423.0966796875,10941.8232421875,433.1270751953125,4161.19921875,-856.7174072265625,11043.548828125,522.931396484375,2426.306396484375,-1409.8485107421875,3083.546875,2923.806396484375,19712.447265625,2888.838623046875,9208.51953125,400.543212890625,8005.30126953125,22756.2578125,18936.79296875,13895.8291015625,-0.0,-50072.671875,16179.0849609375,5863.5078125,0.0,6540.61669921875,0.0,0.0
11285.94140625,9818.0771484375,25311.3125,7705.6884765625,25203.228515625,2360.343994140625,3895.759521484375,3681.182861328125,6895.0654296875,4037.221435546875,12804.6669921875,-3379.980712890625,5664.8251953125,0.0,18697.580078125,2031.3262939453125,21345.615234375,14284.451171875,6558.10009765625,9629.7265625,19151.369140625,25483.765625,11450.4501953125,15236.537109375,16513.666015625,4084.1103515625,24620.69140625,-5625.08935546875,0.0,1199.2454833984375,9846.6875,4693.6669921875,20323.595703125,13776.6201171875,8821.4873046875,21011.830078125,7721.5830078125,8951.0283203125,4045.16845703125,-178.0192108154297,19574.9609375,5140.3046875,14713.6044921875,6323.65576171875,3189.245849609375,9427.0703125,10940.234375,425.9745178222656,4168.3515625,-853.5385131835938,11044.3427734375,528.4945068359375,2439.816650390625,-1409.0538330078125,3089.90478515625,2922.217041015625,19710.064453125,2895.1962890625,9200.5732421875,406.1063232421875,8014.83837890625,22760.232421875,18939.17578125,13885.498046875,-0.0,-50069.4921875,16176.7001953125,5870.66015625,0.0,6543.00048828125,0.0,0.0
11292.2978515625,9810.1298828125,25308.927734375,7699.33056640625,25197.6640625,2359.54931640625,3894.96484375,3674.824951171875,6889.501953125,4032.453125,12814.9990234375,-3377.5966796875,5654.49365234375,0.0,18698.373046875,2020.994873046875,21340.84765625,14282.0673828125,6553.33203125,9620.984375,19147.396484375,25483.765625,11447.2705078125,15233.357421875,16517.638671875,4090.468017578125,24624.666015625,-5626.6787109375,0.0,1196.861328125,9843.5087890625,4691.28271484375,20322.00390625,13774.2353515625,8817.513671875,21010.240234375,7716.814453125,8949.439453125,4044.3740234375,-177.22447204589844,19568.6015625,5139.509765625,14711.220703125,6320.4765625,3186.06689453125,9420.712890625,10921.955078125,410.0799560546875,4171.5302734375,-849.5648803710938,11045.138671875,523.7261352539062,2446.96923828125,-1422.564208984375,3096.2626953125,2926.190673828125,19702.912109375,2894.401611328125,9201.3671875,398.1590270996094,8010.06982421875,22756.2578125,18933.615234375,13871.9873046875,-0.0,-50065.515625,16166.3681640625,5862.712890625,0.0,6531.8740234375,0.0,0.0
11289.1201171875,9810.1298828125,25308.1328125,7705.6884765625,25200.048828125,2361.933349609375,3897.34912109375,3675.619873046875,6887.11767578125,4030.86328125,12810.23046875,-3367.264892578125,5660.85205078125,0.0,18705.525390625,2018.6107177734375,21341.642578125,14281.2724609375,6552.53759765625,9618.599609375,19145.01171875,25481.3828125,11445.681640625,15233.357421875,16516.84375,4098.41552734375,24633.408203125,-5625.8837890625,0.0,1194.47705078125,9844.302734375,4690.48828125,20320.416015625,13774.2353515625,8817.513671875,21011.830078125,7719.99365234375,8949.439453125,4039.605712890625,-161.3299102783203,19567.80859375,5141.89404296875,14715.1943359375,6321.271484375,3186.06689453125,9420.712890625,10928.3134765625,419.61669921875,4176.298828125,-847.9754028320312,11049.90625,524.5208740234375,2439.816650390625,-1420.179931640625,3089.110107421875,2937.31689453125,19709.26953125,2890.427734375,9201.3671875,394.9801025390625,8003.7119140625,22755.46484375,18932.8203125,13871.193359375,-0.0,-50058.36328125,16157.626953125,5865.09716796875,0.0,6530.28466796875,0.0,0.0
11276.404296875,9800.59375,25298.595703125,7700.125,25193.69140625,2357.1650390625,3885.42822265625,3670.8515625,6873.607421875,4024.505615234375,12793.541015625,-3380.775390625,5653.69921875,0.0,18699.169921875,2020.994873046875,21334.490234375,14271.736328125,6545.384765625,9610.6533203125,19138.654296875,25476.61328125,11436.939453125,15227.794921875,16504.923828125,4096.826171875,24622.28125,-5629.0625,0.0,1177.787841796875,9837.9453125,4680.95166015625,20313.263671875,13768.6728515625,8808.7724609375,21007.060546875,7712.04638671875,8943.0810546875,4026.094970703125,-177.22447204589844,19561.44921875,5137.12548828125,14706.4521484375,6314.9130859375,3174.94091796875,9415.9443359375,10928.3134765625,432.3323669433594,4165.17236328125,-851.154296875,11041.1640625,519.7525024414062,2418.359130859375,-1421.76953125,3062.089111328125,2934.9326171875,19710.064453125,2886.454345703125,9191.8310546875,394.1853942871094,7991.791015625,22750.6953125,18924.87109375,13864.8349609375,-0.0,-50071.078125,16148.8857421875,5863.5078125,0.0,6527.90087890625,0.0,0.0
11277.9931640625,9798.208984375,25298.595703125,7697.7412109375,25189.71875,2351.601806640625,3882.2490234375,3673.235595703125,6877.5810546875,4028.47900390625,12798.3095703125,-3384.749267578125,5660.85205078125,0.0,18693.60546875,2028.1474609375,21334.490234375,14270.146484375,6546.17919921875,9615.4208984375,19140.244140625,25478.205078125,11433.7607421875,15226.205078125,16507.306640625,4092.85205078125,24607.181640625,-5628.267578125,0.0,1179.377197265625,9837.150390625,4680.15673828125,20314.8515625,13770.2626953125,8807.9765625,21004.677734375,7710.45703125,8943.0810546875,4029.27392578125,-207.42416381835938,19562.244140625,5129.97314453125,14700.8896484375,6313.32421875,3171.76171875,9417.5341796875,10928.3134765625,443.45855712890625,4153.25146484375,-855.1279907226562,11034.01171875,521.3419799804688,2426.306396484375,-1417.7957763671875,3074.804931640625,2927.7802734375,19718.01171875,2892.017333984375,9193.419921875,397.3642883300781,7991.791015625,22750.6953125,18926.462890625,13877.55078125,-0.0,-50079.02734375,16156.0380859375,5845.228515625,0.0,6533.4638671875,0.0,0.0
11279.5830078125,9791.8505859375,25297.005859375,7692.17822265625,25189.71875,2348.423095703125,3883.0439453125,3670.8515625,6880.76025390625,4030.86328125,12802.283203125,-3383.954345703125,5663.236328125,0.0,18698.373046875,2026.557861328125,21332.8984375,14272.5302734375,6546.17919921875,9620.984375,19137.859375,25475.025390625,11430.5810546875,15223.8203125,16509.69140625,4085.699462890625,24607.181640625,-5629.0625,0.0,1172.224609375,9833.1767578125,4679.36181640625,20314.05859375,13766.2890625,8807.1826171875,21001.498046875,7708.86767578125,8943.875,4033.24755859375,-189.9401397705078,19561.44921875,5124.41015625,14700.8896484375,6310.93994140625,3174.94091796875,9417.5341796875,10931.4921875,431.5376281738281,4153.25146484375,-857.5121459960938,11034.806640625,519.7525024414062,2439.02197265625,-1424.9483642578125,3082.752197265625,2912.680419921875,19717.216796875,2889.63330078125,9198.9833984375,395.77484130859375,7987.81689453125,22748.3125,18929.640625,13886.2919921875,-0.0,-50078.23046875,16160.01171875,5834.8974609375,0.0,6529.490234375,0.0,0.0
11285.1455078125,9802.1826171875,25304.158203125,7706.4833984375,25199.255859375,2360.343994140625,3896.55419921875,3680.38818359375,6897.44970703125,4044.3740234375,12802.283203125,-3372.828125,5665.6201171875,0.0,18707.1171875,2029.73681640625,21343.23046875,14283.6572265625,6558.89501953125,9637.673828125,19145.01171875,25483.765625,11443.2978515625,15235.7412109375,16508.8984375,4096.03125,24625.458984375,-5621.91015625,0.0,1183.3509521484375,9842.712890625,4687.30908203125,20321.2109375,13775.03125,8816.71875,21011.830078125,7723.1728515625,8955.001953125,4040.400146484375,-150.20370483398438,19568.6015625,5139.509765625,14713.6044921875,6322.06591796875,3190.04052734375,9429.455078125,10941.0283203125,425.9745178222656,4160.404296875,-844.7965087890625,11049.90625,527.6997680664062,2444.585205078125,-1413.8221435546875,3083.546875,2919.0380859375,19710.859375,2890.427734375,9214.8779296875,402.1326599121094,8001.32763671875,22759.4375,18943.15234375,13909.33984375,-0.0,-50069.4921875,16181.46875,5847.61279296875,0.0,6540.61669921875,0.0,0.0
11276.404296875,9783.904296875,25303.36328125,7706.4833984375,25196.87109375,2351.601806640625,3898.9384765625,3676.41455078125,6901.4228515625,4041.19482421875,12790.3623046875,-3383.954345703125,5654.49365234375,0.0,18700.7578125,2017.8157958984375,21333.6953125,14271.736328125,6555.7158203125,9640.8525390625,19139.447265625,25475.8203125,11440.9130859375,15233.357421875,16501.74609375,4086.494384765625,24635.791015625,-5631.44677734375,0.0,1177.787841796875,9833.9716796875,4677.7724609375,20314.05859375,13768.6728515625,8811.951171875,21006.265625,7722.3779296875,8950.2333984375,4023.710693359375,-161.3299102783203,19564.62890625,5128.3837890625,14715.1943359375,6314.9130859375,3190.835205078125,9427.0703125,10940.234375,416.4377746582031,4151.662109375,-856.7174072265625,11053.0849609375,519.7525024414062,2431.074951171875,-1426.537841796875,3080.3681640625,2912.680419921875,19697.34765625,2876.122802734375,9214.8779296875,404.516845703125,7994.96923828125,22757.052734375,18943.15234375,13918.876953125,-0.0,-50079.02734375,16176.7001953125,5854.765625,0.0,6529.490234375,0.0,0.0
11263.6884765625,9770.3935546875,25298.595703125,7696.94677734375,25193.69140625,2339.680908203125,3901.322509765625,3668.46728515625,6909.37060546875,4034.04248046875,12776.0576171875,-3392.6962890625,5636.21533203125,0.0,18699.96484375,2003.5107421875,21326.541015625,14260.609375,6550.1533203125,9642.44140625,19131.501953125,25467.873046875,11437.7333984375,15224.6162109375,16495.38671875,4074.573486328125,24639.765625,-5644.16259765625,0.0,1176.1983642578125,9827.6142578125,4669.03076171875,20307.69921875,13760.7255859375,8807.1826171875,20997.5234375,7719.19873046875,8943.0810546875,4003.8427734375,-171.661376953125,19558.271484375,5118.8466796875,14715.1943359375,6305.37646484375,3191.630126953125,9418.328125,10926.7236328125,422.0008850097656,4139.7412109375,-882.9434814453125,11059.443359375,505.4473876953125,2404.053955078125,-1444.816650390625,3062.089111328125,2910.296142578125,19682.25,2866.5859375,9214.083984375,391.80120849609375,7984.63818359375,22750.6953125,18940.767578125,13912.5185546875,-0.0,-50080.6171875,16167.958984375,5849.9970703125,0.0,6521.54296875,0.0,0.0
11277.9931640625,9790.26171875,25312.900390625,7708.07275390625,25204.0234375,2352.396728515625,3916.42236328125,3683.567138671875,6924.47021484375,4045.96337890625,12790.3623046875,-3383.15966796875,5664.8251953125,0.0,18715.0625,2020.994873046875,21339.2578125,14277.298828125,6565.2529296875,9651.18359375,19144.216796875,25479.79296875,11450.4501953125,15236.537109375,16508.1015625,4082.52099609375,24638.970703125,-5630.65185546875,0.0,1185.735107421875,9840.3291015625,4680.95166015625,20320.416015625,13773.44140625,8819.8974609375,21007.85546875,7733.50390625,8955.7958984375,4018.14794921875,-159.74044799804688,19570.986328125,5131.5625,14728.705078125,6318.88720703125,3206.72998046875,9432.6337890625,10932.2861328125,441.0743713378906,4158.81494140625,-868.6383666992188,11077.7216796875,517.3682861328125,2404.053955078125,-1441.6376953125,3069.24169921875,2919.8330078125,19694.962890625,2880.89111328125,9228.388671875,403.7221374511719,7994.96923828125,22765.001953125,18954.27734375,13909.33984375,-0.0,-50071.078125,16187.826171875,5866.6865234375,0.0,6537.4375,0.0,0.0
11283.556640625,9802.9775390625,25315.28515625,7714.43017578125,25206.408203125,2361.138671875,3911.654052734375,3687.540771484375,6924.47021484375,4048.347412109375,12801.48828125,-3372.828125,5696.61474609375,0.0,18719.83203125,2032.1209716796875,21344.8203125,14286.041015625,6568.431640625,9651.978515625,19148.19140625,25484.5625,11452.833984375,15241.3056640625,16529.560546875,4093.64697265625,24628.638671875,-5621.115234375,0.0,1187.324462890625,9843.5087890625,4684.92529296875,20325.978515625,13777.4150390625,8821.4873046875,21011.830078125,7734.298828125,8960.564453125,4032.453125,-156.56153869628906,19578.138671875,5139.509765625,14723.9375,6326.833984375,3205.935302734375,9436.607421875,10941.8232421875,451.4058532714844,4190.603515625,-847.9754028320312,11069.7744140625,522.13671875,2417.564453125,-1433.6904296875,3079.573486328125,2926.190673828125,19721.984375,2891.22265625,9233.951171875,409.28521728515625,8000.533203125,22768.1796875,18955.865234375,13899.802734375,-0.0,-50065.515625,16192.5947265625,5875.4287109375,0.0,6536.642578125,0.0,0.0
11281.966796875,9807.74609375,25319.2578125,7719.19873046875,25204.0234375,2364.317626953125,3891.785888671875,3687.540771484375,6897.44970703125,4046.758056640625,12813.4091796875,-3364.880859375,5685.48828125,0.0,18699.169921875,2033.71044921875,21344.8203125,14284.451171875,6560.484375,9634.4951171875,19147.396484375,25485.357421875,11444.091796875,15239.7158203125,16528.765625,4102.388671875,24615.923828125,-5617.1416015625,0.0,1188.9139404296875,9844.302734375,4688.10400390625,20326.7734375,13779.7998046875,8817.513671875,21011.830078125,7723.1728515625,8957.3857421875,4042.7841796875,-156.56153869628906,19578.138671875,5142.68896484375,14709.6318359375,6328.423828125,3186.86181640625,9433.4287109375,10956.1279296875,456.96893310546875,4191.3984375,-836.8492431640625,11035.6015625,521.3419799804688,2445.3798828125,-1433.6904296875,3085.93115234375,2936.522216796875,19725.95703125,2896.78564453125,9207.7255859375,410.0799560546875,8005.30126953125,22764.205078125,18943.9453125,13877.55078125,-0.0,-50058.36328125,16180.673828125,5878.607421875,0.0,6540.61669921875,0.0,0.0
11275.609375,9797.4140625,25319.2578125,7716.02001953125,25201.638671875,2364.317626953125,3886.222900390625,3687.540771484375,6882.349609375,4047.552490234375,12820.5615234375,-3376.007080078125,5666.41455078125,0.0,18693.60546875,2036.8892822265625,21341.642578125,14282.8623046875,6557.3056640625,9626.5478515625,19145.01171875,25484.5625,11441.7080078125,15238.1259765625,16522.408203125,4104.77294921875,24612.74609375,-5614.75732421875,0.0,1186.52978515625,9841.125,4685.7197265625,20326.7734375,13777.4150390625,8814.3349609375,21009.4453125,7719.19873046875,8956.591796875,4055.5,-161.3299102783203,19576.548828125,5142.68896484375,14706.4521484375,6328.423828125,3180.50390625,9434.2236328125,10964.8701171875,449.8163757324219,4178.6826171875,-832.8755493164062,11030.0380859375,523.7261352539062,2453.3271484375,-1438.458740234375,3093.083740234375,2934.9326171875,19720.396484375,2900.759521484375,9195.8046875,414.0535888671875,7990.201171875,22762.6171875,18939.97265625,13875.9609375,-0.0,-50063.92578125,16178.2890625,5880.197265625,0.0,6546.97412109375,0.0,0.0
11271.6357421875,9795.029296875,25306.54296875,7716.814453125,25194.486328125,2364.317626953125,3890.9912109375,3689.925048828125,6896.65478515625,4053.91064453125,12802.283203125,-3378.391357421875,5650.5205078125,0.0,18695.990234375,2045.63134765625,21339.2578125,14283.6572265625,6559.68994140625,9639.2626953125,19138.654296875,25482.97265625,11443.2978515625,15238.9208984375,16512.87109375,4106.36279296875,24615.923828125,-5611.57861328125,0.0,1189.708740234375,9837.150390625,4683.3359375,20318.826171875,13775.03125,8810.361328125,21010.240234375,7721.5830078125,8957.3857421875,4044.3740234375,-165.3035430908203,19566.216796875,5143.4833984375,14707.248046875,6330.01318359375,3185.272216796875,9438.9912109375,10933.8759765625,437.1007385253906,4159.609375,-835.259765625,11039.57421875,527.6997680664062,2425.51171875,-1446.406005859375,3078.778564453125,2925.39599609375,19718.01171875,2909.501220703125,9203.751953125,418.0272521972656,7981.45947265625,22763.41015625,18945.53515625,13893.4453125,-0.0,-50060.75,16175.9052734375,5883.37548828125,0.0,6550.94775390625,0.0,0.0
11267.662109375,9792.6455078125,25296.2109375,7714.43017578125,25188.126953125,2362.72802734375,3892.580810546875,3684.36181640625,6903.80712890625,4038.810791015625,12772.8779296875,-3369.649169921875,5655.28857421875,0.0,18702.349609375,2040.863037109375,21333.6953125,14279.68359375,6556.5107421875,9639.2626953125,19133.88671875,25479.79296875,11439.3232421875,15234.15234375,16499.361328125,4102.388671875,24617.513671875,-5617.1416015625,0.0,1188.1192626953125,9833.9716796875,4676.9775390625,20310.87890625,13771.8515625,8807.1826171875,21007.060546875,7719.19873046875,8954.20703125,4025.300537109375,-171.661376953125,19559.064453125,5137.12548828125,14706.4521484375,6326.03955078125,3186.86181640625,9431.8388671875,10910.828125,424.38507080078125,4155.6357421875,-840.0281372070312,11044.3427734375,519.7525024414062,2406.438232421875,-1451.1744384765625,3070.03662109375,2925.39599609375,19718.8046875,2897.580322265625,9209.3154296875,402.1326599121094,7991.791015625,22759.4375,18943.9453125,13914.1083984375,-0.0,-50052.8046875,16182.2646484375,5874.6337890625,0.0,6534.25830078125,0.0,0.0
11257.3310546875,9790.26171875,25290.6484375,7704.09912109375,25184.154296875,2354.781005859375,3888.60693359375,3675.619873046875,6911.75439453125,4030.86328125,12766.5205078125,-3385.5439453125,5640.9833984375,0.0,18701.552734375,2028.942138671875,21325.74609375,14272.5302734375,6551.74267578125,9644.03125,19127.52734375,25471.052734375,11433.7607421875,15227.794921875,16495.38671875,4094.44189453125,24609.56640625,-5627.47314453125,0.0,1179.377197265625,9829.203125,4669.8251953125,20303.7265625,13763.904296875,8801.619140625,20999.11328125,7714.43017578125,8947.849609375,4020.5322265625,-180.4033966064453,19555.091796875,5130.767578125,14701.68359375,6318.09228515625,3186.86181640625,9423.8916015625,10911.6240234375,418.82196044921875,4150.07275390625,-850.359619140625,11043.548828125,509.4210510253906,2399.28564453125,-1437.6640625,3070.831298828125,2927.7802734375,19707.6796875,2888.838623046875,9213.2880859375,387.0328369140625,7992.5849609375,22752.28515625,18939.17578125,13927.619140625,-0.0,-50074.26171875,16187.0322265625,5843.63916015625,0.0,6513.595703125,0.0,0.0
11258.919921875,9799.7978515625,25287.470703125,7700.125,25181.76953125,2351.601806640625,3883.0439453125,3674.0302734375,6891.88623046875,4029.27392578125,12766.5205078125,-3380.775390625,5635.42041015625,0.0,18691.220703125,2032.1209716796875,21324.953125,14266.9677734375,6547.76904296875,9625.7529296875,19124.349609375,25470.255859375,11430.5810546875,15224.6162109375,16493.001953125,4087.289306640625,24601.6171875,-5629.857421875,0.0,1176.1983642578125,9824.435546875,4669.03076171875,20302.13671875,13763.1103515625,8799.2353515625,20995.935546875,7708.86767578125,8943.875,4034.04248046875,-180.4033966064453,19551.119140625,5125.20458984375,14696.916015625,6316.5029296875,3178.11962890625,9423.0966796875,10907.650390625,418.82196044921875,4144.509765625,-855.1279907226562,11034.01171875,511.80523681640625,2404.053955078125,-1417.7957763671875,3066.06298828125,2936.522216796875,19699.732421875,2891.22265625,9198.9833984375,390.21173095703125,7994.1748046875,22749.900390625,18933.615234375,13881.5244140625,-0.0,-50074.26171875,16176.7001953125,5840.46044921875,0.0,6519.15869140625,0.0,0.0
11269.251953125,9811.71875,25300.18359375,7712.8408203125,25196.076171875,2360.343994140625,3886.222900390625,3682.7724609375,6872.0185546875,4032.453125,12780.8251953125,-3367.264892578125,5655.28857421875,0.0,18685.66015625,2048.015625,21336.873046875,14276.5048828125,6555.7158203125,9617.0107421875,19137.064453125,25479.79296875,11440.1181640625,15233.357421875,16512.076171875,4094.44189453125,24613.5390625,-5622.705078125,0.0,1190.50341796875,9835.560546875,4678.5673828125,20314.8515625,13774.2353515625,8810.361328125,21007.060546875,7716.02001953125,8951.0283203125,4034.04248046875,-166.09828186035156,19563.833984375,5133.94677734375,14704.86328125,6323.65576171875,3175.7353515625,9427.865234375,10924.3388671875,425.9745178222656,4158.02001953125,-848.7701416015625,11033.2177734375,523.7261352539062,2428.690673828125,-1401.9012451171875,3077.98388671875,2936.522216796875,19702.115234375,2902.348876953125,9183.8837890625,400.543212890625,8003.7119140625,22758.642578125,18935.203125,13866.4248046875,-0.0,-50061.54296875,16156.0380859375,5846.0234375,0.0,6542.2060546875,0.0,0.0
11293.8876953125,9826.0244140625,25324.025390625,7732.70947265625,25215.1484375,2372.264892578125,3898.9384765625,3696.28271484375,6872.0185546875,4039.605712890625,12790.3623046875,-3351.37060546875,5672.77294921875,0.0,18698.373046875,2069.47314453125,21353.5625,14296.3720703125,6568.431640625,9619.3955078125,19153.75390625,25495.6875,11456.0126953125,15248.4580078125,16526.380859375,4113.51513671875,24631.818359375,-5606.015625,0.0,1209.576904296875,9853.0458984375,4694.4619140625,20333.130859375,13790.9248046875,8827.0498046875,21022.955078125,7731.11962890625,8966.1279296875,4034.837158203125,-142.2564239501953,19582.11328125,5150.63623046875,14722.34765625,6339.5498046875,3184.4775390625,9439.7861328125,10941.8232421875,446.6374816894531,4172.3251953125,-831.2861328125,11043.548828125,542.7996215820312,2448.558837890625,-1381.23828125,3085.136474609375,2944.469482421875,19714.83203125,2917.44873046875,9189.4462890625,416.4377746582031,8020.40087890625,22772.947265625,18946.330078125,13868.80859375,-0.0,-50045.65234375,16165.5751953125,5863.5078125,0.0,6542.2060546875,0.0,0.0
11274.814453125,9811.71875,25310.515625,7727.14599609375,25200.84375,2364.317626953125,3891.785888671875,3687.540771484375,6870.4287109375,4041.98974609375,12777.646484375,-3364.880859375,5657.6728515625,0.0,18692.015625,2048.015625,21345.615234375,14289.2197265625,6561.279296875,9617.8056640625,19144.216796875,25488.53515625,11448.8603515625,15242.89453125,16512.87109375,4107.9521484375,24618.306640625,-5617.1416015625,0.0,1207.9874267578125,9845.09765625,4684.13037109375,20322.798828125,13782.18359375,8817.513671875,21015.009765625,7724.76171875,8958.9755859375,4026.889892578125,-150.20370483398438,19570.19140625,5145.07275390625,14711.220703125,6329.21826171875,3181.298583984375,9435.8125,10918.7763671875,450.6111145019531,4162.78857421875,-836.8492431640625,11038.7802734375,535.6470947265625,2424.717041015625,-1394.7486572265625,3072.4208984375,2943.6748046875,19706.091796875,2899.169921875,9191.0361328125,416.4377746582031,8010.8642578125,22766.58984375,18942.35546875,13867.21875,-0.0,-50052.8046875,16167.958984375,5884.96533203125,0.0,6550.1533203125,0.0,0.0
11277.9931640625,9799.7978515625,25306.54296875,7724.76171875,25192.1015625,2363.522705078125,3887.812255859375,3687.540771484375,6868.04443359375,4046.758056640625,12791.1572265625,-3373.622802734375,5655.28857421875,0.0,18686.453125,2040.068359375,21340.84765625,14290.015625,6558.10009765625,9617.0107421875,19140.244140625,25485.357421875,11444.8857421875,15240.509765625,16512.87109375,4106.36279296875,24607.9765625,-5619.52587890625,0.0,1201.629638671875,9841.9189453125,4679.36181640625,20319.62109375,13781.388671875,8811.951171875,21012.625,7722.3779296875,8955.7958984375,4020.5322265625,-163.71409606933594,19565.423828125,5142.68896484375,14704.068359375,6326.03955078125,3178.914306640625,9438.9912109375,10920.365234375,445.8427429199219,4163.58349609375,-838.4386596679688,11034.01171875,534.8523559570312,2422.332763671875,-1420.9747314453125,3074.804931640625,2942.085205078125,19706.091796875,2888.838623046875,9187.857421875,424.38507080078125,8007.685546875,22763.41015625,18941.560546875,13867.21875,-0.0,-50063.1328125,16161.6005859375,5892.91259765625,0.0,6557.3056640625,0.0,0.0
11287.5302734375,9798.208984375,25304.158203125,7722.3779296875,25184.94921875,2364.317626953125,3884.63330078125,3686.745849609375,6873.607421875,4049.142333984375,12801.48828125,-3364.086181640625,5648.13623046875,0.0,18681.68359375,2036.0947265625,21340.84765625,14289.2197265625,6558.10009765625,9622.57421875,19137.064453125,25484.5625,11443.2978515625,15238.1259765625,16498.56640625,4099.21044921875,24604.001953125,-5619.52587890625,0.0,1197.656005859375,9838.740234375,4677.7724609375,20318.03125,13779.7998046875,8808.7724609375,21012.625,7719.19873046875,8957.3857421875,4010.200439453125,-166.89300537109375,19561.44921875,5141.099609375,14699.2998046875,6326.833984375,3177.324951171875,9438.197265625,10928.3134765625,438.690185546875,4149.2783203125,-838.4386596679688,11029.2431640625,532.4681396484375,2425.51171875,-1422.564208984375,3071.6259765625,2937.31689453125,19702.115234375,2891.22265625,9180.705078125,420.41143798828125,8009.2744140625,22761.822265625,18940.767578125,13872.7822265625,-0.0,-50060.75,16165.5751953125,5891.3232421875,0.0,6555.7158203125,0.0,0.0
11298.65625,9806.15625,25310.515625,7715.22509765625,25189.71875,2363.522705078125,3887.017578125,3685.951171875,6874.40234375,4045.16845703125,12813.4091796875,-3351.37060546875,5642.57275390625,0.0,18686.453125,2034.505126953125,21342.435546875,14288.42578125,6558.89501953125,9621.779296875,19140.244140625,25484.5625,11447.2705078125,15238.1259765625,16512.076171875,4098.41552734375,24608.76953125,-5617.9365234375,0.0,1192.0928955078125,9839.53515625,4682.541015625,20320.416015625,13779.00390625,8813.5400390625,21013.41796875,7720.78857421875,8956.591796875,4027.6845703125,-165.3035430908203,19566.216796875,5141.89404296875,14703.2734375,6326.833984375,3176.530029296875,9437.4013671875,10942.6181640625,422.0008850097656,4154.04638671875,-840.8228759765625,11032.421875,530.8787231445312,2439.02197265625,-1410.6431884765625,3068.447021484375,2942.8798828125,19704.5,2901.55419921875,9184.677734375,413.2588806152344,8010.8642578125,22764.205078125,18939.97265625,13870.3984375,-0.0,-50051.2109375,16165.5751953125,5889.73388671875,0.0,6550.1533203125,0.0,0.0
11289.1201171875,9805.361328125,25308.927734375,7712.04638671875,25191.306640625,2360.343994140625,3887.017578125,3681.182861328125,6868.04443359375,4034.04248046875,12812.6142578125,-3354.54931640625,5633.8310546875,0.0,18684.068359375,2033.71044921875,21338.462890625,14284.451171875,6554.92138671875,9615.4208984375,19137.064453125,25480.58984375,11446.4755859375,15234.947265625,16512.076171875,4100.0048828125,24611.94921875,-5620.32080078125,0.0,1185.735107421875,9839.53515625,4678.5673828125,20318.826171875,13777.4150390625,8811.15625,21011.033203125,7719.19873046875,8951.0283203125,4038.015869140625,-165.3035430908203,19564.62890625,5139.509765625,14701.68359375,6322.86083984375,3172.556640625,9431.8388671875,10947.38671875,416.4377746582031,4157.22509765625,-847.1806640625,11030.8330078125,528.4945068359375,2431.074951171875,-1410.6431884765625,3058.910400390625,2943.6748046875,19695.759765625,2896.78564453125,9182.2939453125,403.7221374511719,8000.533203125,22761.822265625,18935.998046875,13869.603515625,-0.0,-50047.23828125,16163.984375,5885.759765625,0.0,6535.84814453125,0.0,0.0
11289.9140625,9806.15625,25313.6953125,7720.78857421875,25198.458984375,2365.1123046875,3898.143798828125,3689.130126953125,6881.55517578125,4043.5791015625,12804.6669921875,-3359.31787109375,5662.44140625,0.0,18697.580078125,2046.426025390625,21344.02734375,14293.193359375,6562.86865234375,9627.341796875,19143.423828125,25486.150390625,11455.21875,15242.89453125,16515.255859375,4103.978515625,24630.228515625,-5615.55224609375,0.0,1195.2718505859375,9845.892578125,4684.13037109375,20322.00390625,13782.978515625,8819.8974609375,21017.392578125,7729.5302734375,8961.3603515625,4049.142333984375,-161.3299102783203,19570.19140625,5143.4833984375,14713.6044921875,6329.21826171875,3186.06689453125,9442.169921875,10948.181640625,429.94818115234375,4170.73583984375,-846.385986328125,11045.9326171875,541.210205078125,2434.253662109375,-1415.41162109375,3054.936767578125,2938.111572265625,19708.474609375,2907.1171875,9201.3671875,414.84832763671875,7990.201171875,22769.76953125,18947.125,13879.1396484375,-0.0,-50049.62109375,16172.7275390625,5898.4755859375,0.0,6548.5634765625,0.0,0.0
11281.966796875,9806.9501953125,25304.158203125,7722.3779296875,25198.458984375,2364.317626953125,3896.55419921875,3688.33544921875,6879.96533203125,4038.810791015625,12785.59375,-3364.880859375,5672.77294921875,0.0,18700.7578125,2048.015625,21340.84765625,14290.8095703125,6561.279296875,9623.3681640625,19138.654296875,25486.150390625,11453.62890625,15239.7158203125,16512.076171875,4102.388671875,24631.818359375,-5613.16845703125,0.0,1202.4244384765625,9841.9189453125,4679.36181640625,20316.443359375,13781.388671875,8817.513671875,21014.212890625,7727.14599609375,8960.564453125,4021.32666015625,-161.3299102783203,19567.80859375,5142.68896484375,14712.810546875,6330.01318359375,3185.272216796875,9441.3759765625,10935.4658203125,432.3323669433594,4175.50439453125,-844.7965087890625,11045.138671875,542.7996215820312,2423.12744140625,-1412.2327880859375,3064.473388671875,2934.137939453125,19707.6796875,2908.70654296875,9202.1630859375,411.6694030761719,7983.04833984375,22766.58984375,18945.53515625,13870.3984375,-0.0,-50051.2109375,16168.7529296875,5891.3232421875,0.0,6538.232421875,0.0,0.0
11271.6357421875,9799.00390625,25297.005859375,7708.86767578125,25189.71875,2358.75439453125,3887.017578125,3684.36181640625,6879.96533203125,4038.015869140625,12770.4931640625,-3364.880859375,5661.646484375,0.0,18692.015625,2041.65771484375,21333.6953125,14284.451171875,6556.5107421875,9626.5478515625,19133.091796875,25479.79296875,11446.4755859375,15233.357421875,16508.8984375,4096.826171875,24610.361328125,-5612.37353515625,0.0,1193.682373046875,9833.9716796875,4669.03076171875,20310.083984375,13771.8515625,8812.7451171875,21008.650390625,7721.5830078125,8955.7958984375,4007.81640625,-167.68772888183594,19561.44921875,5134.7412109375,14704.068359375,6324.4501953125,3178.11962890625,9436.607421875,10917.9814453125,414.0535888671875,4162.78857421875,-840.0281372070312,11034.806640625,536.4417724609375,2400.875,-1405.8748779296875,3067.65234375,2935.727294921875,19699.732421875,2899.964599609375,9193.419921875,407.6957702636719,7988.6123046875,22761.822265625,18943.15234375,13876.755859375,-0.0,-50051.2109375,16167.958984375,5880.197265625,0.0,6531.8740234375,0.0,0.0
11258.125,9785.4931640625,25293.03125,7702.50927734375,25187.333984375,2356.3701171875,3887.812255859375,3681.182861328125,6884.73388671875,4042.7841796875,12764.13671875,-3379.18603515625,5656.08349609375,0.0,18692.015625,2032.1209716796875,21328.92578125,14279.68359375,6555.7158203125,9632.1103515625,19129.912109375,25475.8203125,11442.501953125,15230.9736328125,16507.306640625,4096.826171875,24607.9765625,-5619.52587890625,0.0,1173.0194091796875,9829.998046875,4663.46728515625,20307.69921875,13767.0830078125,8811.15625,21004.677734375,7720.78857421875,8953.412109375,4008.611083984375,-167.68772888183594,19559.859375,5132.35693359375,14702.4794921875,6318.88720703125,3178.11962890625,9434.2236328125,10906.060546875,410.87469482421875,4158.02001953125,-840.8228759765625,11034.806640625,530.083984375,2402.464599609375,-1425.7431640625,3078.778564453125,2930.958984375,19703.70703125,2890.427734375,9195.009765625,406.9010314941406,7992.5849609375,22760.232421875,18945.53515625,13884.7041015625,-0.0,-50067.109375,16174.31640625,5869.0703125,0.0,6538.232421875,0.0,0.0
11245.41015625,9781.51953125,25286.673828125,7699.33056640625,25178.58984375,2344.44921875,3885.42822265625,3673.235595703125,6882.349609375,4038.015869140625,12764.13671875,-3387.13330078125,5647.34130859375,0.0,18695.990234375,2024.9683837890625,21321.7734375,14270.94140625,6549.3583984375,9628.931640625,19123.5546875,25468.66796875,11432.96484375,15223.8203125,16489.82421875,4084.905029296875,24614.333984375,-5635.42041015625,0.0,1167.456298828125,9822.05078125,4654.7255859375,20300.546875,13757.546875,8802.4140625,20995.935546875,7716.814453125,8945.46484375,4005.43212890625,-185.96649169921875,19552.70703125,5120.43603515625,14698.505859375,6307.7607421875,3174.94091796875,9428.66015625,10902.8818359375,411.6694030761719,4146.89404296875,-863.8699951171875,11036.396484375,521.3419799804688,2412.00146484375,-1444.0218505859375,3076.394287109375,2919.8330078125,19704.5,2883.275390625,9196.5986328125,398.1590270996094,7982.25390625,22753.873046875,18941.560546875,13880.7294921875,-0.0,-50080.6171875,16172.7275390625,5861.91796875,0.0,6533.4638671875,0.0,0.0
11246.2041015625,9781.51953125,25283.494140625,7691.38330078125,25176.20703125,2334.91259765625,3880.659912109375,3672.440673828125,6881.55517578125,4036.426513671875,12761.751953125,-3390.312255859375,5637.01025390625,0.0,18690.427734375,2027.3525390625,21316.208984375,14265.3779296875,6546.17919921875,9627.341796875,19119.58203125,25460.720703125,11426.6083984375,15219.84765625,16488.234375,4077.752685546875,24610.361328125,-5639.39404296875,0.0,1170.63525390625,9816.4873046875,4649.95703125,20295.77734375,13751.9833984375,8798.4404296875,20988.783203125,7715.22509765625,8942.2861328125,4003.0478515625,-202.65579223632812,19549.52734375,5112.4892578125,14694.53125,6300.6083984375,3173.351318359375,9427.0703125,10906.060546875,404.516845703125,4143.71484375,-877.38037109375,11034.806640625,517.3682861328125,2407.23291015625,-1449.5849609375,3059.705078125,2905.52783203125,19698.142578125,2887.2490234375,9195.009765625,398.1590270996094,7974.30712890625,22750.6953125,18941.560546875,13881.5244140625,-0.0,-50077.4375,16171.9326171875,5864.30224609375,0.0,6531.07958984375,0.0,0.0
11258.125,9790.26171875,25293.03125,7693.767578125,25187.333984375,2343.654541015625,3889.401611328125,3681.9775390625,6884.73388671875,4043.5791015625,12775.26171875,-3373.622802734375,5655.28857421875,0.0,18692.8125,2043.2471923828125,21323.36328125,14274.1201171875,6555.7158203125,9635.2890625,19127.52734375,25466.283203125,11434.5546875,15227.794921875,16514.458984375,4084.905029296875,24620.69140625,-5624.29443359375,0.0,1182.55615234375,9823.6396484375,4654.7255859375,20303.7265625,13758.341796875,8806.3876953125,20997.5234375,7725.556640625,8952.6171875,4015.763671875,-190.73486328125,19555.88671875,5118.05224609375,14704.86328125,6311.73486328125,3179.709228515625,9436.607421875,10921.1611328125,406.9010314941406,4160.404296875,-863.8699951171875,11041.958984375,528.4945068359375,2413.590576171875,-1433.6904296875,3070.03662109375,2911.0908203125,19703.70703125,2898.375244140625,9198.1884765625,407.6957702636719,7986.22802734375,22759.4375,18948.712890625,13883.908203125,-0.0,-50059.16015625,16174.31640625,5875.4287109375,0.0,6532.6689453125,0.0,0.0
11262.8935546875,9779.1357421875,25288.263671875,7689.7939453125,25180.974609375,2338.88623046875,3887.812255859375,3678.00390625,6879.1708984375,4041.98974609375,12784.00390625,-3375.21240234375,5656.8779296875,0.0,18692.015625,2036.0947265625,21317.005859375,14270.146484375,6550.1533203125,9629.7265625,19120.375,25461.515625,11431.3759765625,15223.8203125,16505.71875,4067.4208984375,24615.12890625,-5626.6787109375,0.0,1176.1983642578125,9819.6669921875,4649.95703125,20299.75390625,13753.5732421875,8801.619140625,20991.16796875,7720.78857421875,8948.6435546875,4023.710693359375,-185.17176818847656,19549.52734375,5110.8994140625,14699.2998046875,6307.7607421875,3175.7353515625,9432.6337890625,10914.802734375,414.0535888671875,4150.86767578125,-863.8699951171875,11038.7802734375,524.5208740234375,2405.6435546875,-1429.7166748046875,3067.65234375,2914.269775390625,19702.912109375,2893.60693359375,9196.5986328125,404.516845703125,7983.04833984375,22754.669921875,18943.9453125,13879.935546875,-0.0,-50059.16015625,16170.34375,5869.0703125,0.0,6532.6689453125,0.0,0.0
11272.4306640625,9761.6513671875,25289.05859375,7691.38330078125,25177.001953125,2335.70751953125,3882.2490234375,3674.824951171875,6872.81298828125,4040.400146484375,12787.978515625,-3382.364990234375,5649.7255859375,0.0,18686.453125,2027.3525390625,21315.416015625,14266.173828125,6548.5634765625,9627.341796875,19117.197265625,25459.130859375,11428.197265625,15222.2314453125,16493.796875,4057.08935546875,24599.234375,-5630.65185546875,0.0,1170.63525390625,9817.2822265625,4649.162109375,20298.162109375,13752.7783203125,8799.2353515625,20987.98828125,7716.814453125,8945.46484375,4030.86328125,-188.35067749023438,19546.349609375,5107.720703125,14694.53125,6304.58203125,3172.556640625,9429.455078125,10916.392578125,418.0272521972656,4138.9462890625,-867.0488891601562,11033.2177734375,522.931396484375,2414.385498046875,-1429.7166748046875,3048.578857421875,2917.44873046875,19698.142578125,2883.275390625,9192.6259765625,401.33795166015625,7983.04833984375,22755.46484375,18942.35546875,13879.1396484375,-0.0,-50067.109375,16167.958984375,5853.97119140625,0.0,6537.4375,0.0,0.0
11271.6357421875,9760.0625,25297.80078125,7704.09912109375,25189.71875,2354.781005859375,3891.785888671875,3685.156494140625,6879.96533203125,4048.347412109375,12780.0302734375,-3383.15966796875,5663.236328125,0.0,18695.1953125,2038.4788818359375,21326.541015625,14277.298828125,6558.10009765625,9633.7001953125,19129.1171875,25471.845703125,11439.3232421875,15233.357421875,16507.306640625,4123.05224609375,24614.333984375,-5618.73095703125,0.0,1161.0985107421875,9827.6142578125,4652.34130859375,20306.90625,13763.1103515625,8809.56640625,21000.703125,7727.14599609375,8955.7958984375,3999.868896484375,-183.58230590820312,19558.271484375,5131.5625,14704.86328125,6320.4765625,3180.50390625,9439.7861328125,10926.7236328125,420.41143798828125,4158.81494140625,-851.154296875,11040.3701171875,535.6470947265625,2428.690673828125,-1429.7166748046875,3054.14208984375,2931.75390625,19706.884765625,2893.60693359375,9198.1884765625,411.6694030761719,7987.0224609375,22766.58984375,18948.712890625,13882.3193359375,-0.0,-50070.28515625,16169.5478515625,5861.91796875,0.0,6545.384765625,0.0,0.0
11259.71484375,9771.1875,25292.23828125,7708.86767578125,25189.71875,2353.19140625,3893.37548828125,3684.36181640625,6885.5283203125,4051.526611328125,12764.9306640625,-3390.312255859375,5656.8779296875,0.0,18697.580078125,2036.8892822265625,21322.568359375,14278.0947265625,6558.10009765625,9636.87890625,19126.734375,25470.255859375,11437.7333984375,15232.5634765625,16509.69140625,4106.36279296875,24618.306640625,-5623.49951171875,0.0,1159.509033203125,9825.2294921875,4647.57275390625,20302.931640625,13759.9306640625,8807.9765625,20999.11328125,7727.14599609375,8954.20703125,3998.279541015625,-189.9401397705078,19555.88671875,5126.79443359375,14704.86328125,6318.09228515625,3182.887939453125,9439.7861328125,10918.7763671875,411.6694030761719,4161.19921875,-854.333251953125,11042.75390625,533.2628784179688,2415.18017578125,-1447.9954833984375,3053.347412109375,2919.0380859375,19705.294921875,2889.63330078125,9202.1630859375,413.2588806152344,7989.40673828125,22763.41015625,18950.3046875,13894.240234375,-0.0,-50077.4375,16175.111328125,5863.5078125,0.0,6550.94775390625,0.0,0.0
11256.53515625,9783.904296875,25297.80078125,7701.71484375,25188.126953125,2338.091552734375,3890.9912109375,3676.41455078125,6887.11767578125,4045.96337890625,12792.74609375,-3390.312255859375,5653.69921875,0.0,18697.580078125,2024.9683837890625,21319.388671875,14274.1201171875,6553.33203125,9636.87890625,19125.142578125,25461.515625,11433.7607421875,15223.8203125,16516.84375,4080.13671875,24619.1015625,-5637.01025390625,0.0,1165.8668212890625,9821.255859375,4648.3671875,20304.521484375,13755.9580078125,8806.3876953125,20991.9609375,7724.76171875,8947.849609375,4011.789794921875,-200.2716064453125,19558.271484375,5107.720703125,14704.068359375,6309.3505859375,3180.50390625,9434.2236328125,10938.64453125,403.7221374511719,4158.81494140625,-865.45947265625,11043.548828125,522.13671875,2419.15380859375,-1465.4794921875,3067.65234375,2908.70654296875,19700.52734375,2878.5068359375,9204.546875,403.7221374511719,7988.6123046875,22757.849609375,18945.53515625,13895.8291015625,-0.0,-50083.796875,16179.0849609375,5851.5869140625,0.0,6544.58984375,0.0,0.0
11244.6142578125,9782.314453125,25281.90625,7688.9990234375,25174.6171875,2329.349609375,3880.659912109375,3665.288330078125,6876.78662109375,4033.24755859375,12773.6728515625,-3399.848876953125,5640.1884765625,0.0,18690.427734375,2012.2528076171875,21309.853515625,14261.4052734375,6541.4111328125,9626.5478515625,19114.017578125,25453.568359375,11421.0439453125,15212.6953125,16488.234375,4073.778564453125,24611.94921875,-5648.13623046875,0.0,1150.7669677734375,9811.71875,4638.83056640625,20293.39453125,13746.4208984375,8792.876953125,20981.630859375,7712.04638671875,8937.5185546875,3999.074462890625,-208.21888732910156,19543.171875,5102.15771484375,14693.7373046875,6295.83984375,3170.967041015625,9420.712890625,10906.060546875,396.569580078125,4134.17822265625,-874.2014770507812,11034.01171875,509.4210510253906,2395.31201171875,-1465.4794921875,3063.6787109375,2902.348876953125,19686.22265625,2865.791259765625,9197.39453125,394.1853942871094,7974.30712890625,22747.517578125,18937.587890625,13883.908203125,-0.0,-50102.07421875,16162.3955078125,5848.40771484375,0.0,6530.28466796875,0.0,0.0
11245.41015625,9777.5458984375,25277.93359375,7686.615234375,25176.20703125,2327.760009765625,3883.0439453125,3664.49365234375,6875.19677734375,4031.658203125,12743.47265625,-3403.82275390625,5637.01025390625,0.0,18694.400390625,2008.279052734375,21310.6484375,14261.4052734375,6542.2060546875,9625.7529296875,19113.22265625,25455.951171875,11421.83984375,15211.10546875,16480.287109375,4073.778564453125,24617.513671875,-5651.3154296875,0.0,1145.2039794921875,9811.71875,4635.65185546875,20289.421875,13746.4208984375,8796.0556640625,20982.423828125,7712.8408203125,8935.1337890625,3993.51123046875,-195.50323486328125,19542.375,5101.36279296875,14697.7109375,6288.68701171875,3171.76171875,9419.91796875,10877.4501953125,399.74847412109375,4131.7939453125,-880.5592651367188,11039.57421875,506.2420959472656,2384.98046875,-1459.91650390625,3058.910400390625,2899.964599609375,19693.375,2863.4072265625,9200.5732421875,394.9801025390625,7975.89599609375,22749.10546875,18935.998046875,13883.1142578125,-0.0,-50108.43359375,16159.2158203125,5848.40771484375,0.0,6527.90087890625,0.0,0.0
11269.251953125,9791.056640625,25310.515625,7705.6884765625,25208.791015625,2348.423095703125,3906.091064453125,3685.156494140625,6891.091796875,4049.142333984375,12787.1826171875,-3391.10693359375,5671.18310546875,0.0,18710.294921875,2025.7633056640625,21336.078125,14286.8359375,6562.86865234375,9643.2373046875,19141.83203125,25481.3828125,11445.681640625,15234.15234375,16519.228515625,4089.673583984375,24631.0234375,-5632.24169921875,0.0,1158.71435546875,9839.53515625,4660.28857421875,20318.826171875,13771.056640625,8822.2822265625,21006.265625,7734.298828125,8955.001953125,4020.5322265625,-174.04556274414062,19575.75390625,5122.8203125,14723.1416015625,6310.93994140625,3191.630126953125,9439.7861328125,10925.9287109375,418.82196044921875,4167.556640625,-864.6647338867188,11060.23828125,522.931396484375,2405.6435546875,-1444.0218505859375,3091.494384765625,2907.912109375,19715.626953125,2882.480712890625,9216.4677734375,408.4905090332031,8001.32763671875,22772.154296875,18955.865234375,13897.4189453125,-0.0,-50086.9765625,16172.7275390625,5865.09716796875,0.0,6546.17919921875,0.0,0.0
11274.0205078125,9786.2880859375,25308.927734375,7708.86767578125,25196.87109375,2353.19140625,3896.55419921875,3686.745849609375,6889.501953125,4049.936767578125,12795.9248046875,-3384.749267578125,5678.33544921875,0.0,18700.7578125,2032.915771484375,21336.078125,14288.42578125,6559.68994140625,9641.6474609375,19140.244140625,25482.97265625,11441.7080078125,15233.357421875,16508.8984375,4091.2626953125,24619.8984375,-5625.8837890625,0.0,1159.509033203125,9838.740234375,4660.28857421875,20319.62109375,13773.44140625,8819.103515625,21009.4453125,7728.7353515625,8955.001953125,4019.7373046875,-176.42974853515625,19569.396484375,5125.99951171875,14709.6318359375,6315.7080078125,3185.272216796875,9440.5810546875,10933.8759765625,418.82196044921875,4174.70947265625,-859.1016235351562,11045.9326171875,525.3156127929688,2412.7958984375,-1440.843017578125,3081.95751953125,2919.0380859375,19702.115234375,2887.2490234375,9207.7255859375,411.6694030761719,7999.73779296875,22770.5625,18953.482421875,13891.8564453125,-0.0,-50076.64453125,16177.49609375,5876.22314453125,0.0,6546.17919921875,0.0,0.0
11280.376953125,9788.6728515625,25313.6953125,7716.814453125,25198.458984375,2358.75439453125,3895.759521484375,3689.925048828125,6884.73388671875,4049.936767578125,12807.845703125,-3372.828125,5668.00439453125,0.0,18699.169921875,2039.2735595703125,21342.435546875,14294.783203125,6562.86865234375,9639.2626953125,19145.01171875,25486.9453125,11442.501953125,15234.947265625,16517.638671875,4092.0576171875,24631.0234375,-5620.32080078125,0.0,1166.66162109375,9845.892578125,4667.44091796875,20323.595703125,13778.2099609375,8823.0771484375,21014.212890625,7731.11962890625,8957.3857421875,4026.094970703125,-173.25083923339844,19574.9609375,5130.767578125,14708.0419921875,6319.681640625,3184.4775390625,9440.5810546875,10938.64453125,420.41143798828125,4176.298828125,-851.9490356445312,11048.3173828125,530.8787231445312,2436.637939453125,-1426.537841796875,3092.2890625,2926.985595703125,19694.962890625,2892.017333984375,9202.1630859375,415.64306640625,7992.5849609375,22772.154296875,18954.27734375,13886.2919921875,-0.0,-50065.515625,16177.49609375,5885.759765625,0.0,6546.17919921875,0.0,0.0
11266.072265625,9789.466796875,25301.775390625,7710.45703125,25196.87109375,2350.80712890625,3900.52783203125,3682.7724609375,6876.78662109375,4039.605712890625,12801.48828125,-3379.980712890625,5664.8251953125,0.0,18702.349609375,2030.5316162109375,21332.8984375,14290.015625,6558.89501953125,9628.13671875,19138.654296875,25480.58984375,11439.3232421875,15228.5888671875,16520.0234375,4085.699462890625,24624.666015625,-5626.6787109375,0.0,1165.8668212890625,9840.3291015625,4657.904296875,20315.646484375,13769.4677734375,8818.30859375,21008.650390625,7728.7353515625,8950.2333984375,4014.174072265625,-181.1981201171875,19571.78125,5122.8203125,14711.220703125,6315.7080078125,3182.09326171875,9432.6337890625,10916.392578125,410.0799560546875,4170.73583984375,-861.4857788085938,11057.853515625,522.13671875,2423.92236328125,-1427.33251953125,3095.4677734375,2928.57470703125,19706.884765625,2892.81201171875,9203.751953125,402.1326599121094,7977.48583984375,22767.384765625,18948.712890625,13877.55078125,-0.0,-50068.6953125,16172.7275390625,5865.89208984375,0.0,6535.84814453125,0.0,0.0
11262.8935546875,9791.056640625,25289.05859375,7705.6884765625,25184.94921875,2343.654541015625,3883.838623046875,3673.235595703125,6872.0185546875,4030.86328125,12791.951171875,-3384.749267578125,5656.8779296875,0.0,18692.8125,2030.5316162109375,21326.541015625,14279.68359375,6551.74267578125,9623.3681640625,19128.322265625,25473.435546875,11428.197265625,15222.2314453125,16496.181640625,4080.93115234375,24604.001953125,-5632.24169921875,0.0,1169.0457763671875,9829.203125,4653.1357421875,20305.314453125,13763.1103515625,8805.5927734375,21000.703125,7717.609375,8943.875,4011.789794921875,-182.78758239746094,19554.296875,5118.05224609375,14697.7109375,6307.7607421875,3171.76171875,9423.8916015625,10902.0869140625,403.7221374511719,4158.02001953125,-867.0488891601562,11034.01171875,516.5736083984375,2415.974853515625,-1432.1009521484375,3085.136474609375,2923.806396484375,19710.859375,2895.1962890625,9196.5986328125,390.21173095703125,7974.30712890625,22758.642578125,18939.97265625,13871.9873046875,-0.0,-50074.26171875,16175.111328125,5840.46044921875,0.0,6521.54296875,0.0,0.0
11271.6357421875,9785.4931640625,25290.6484375,7710.45703125,25183.359375,2346.83349609375,3876.68603515625,3670.8515625,6874.40234375,4029.27392578125,12789.5673828125,-3385.5439453125,5652.10986328125,0.0,18690.427734375,2036.0947265625,21328.92578125,14278.0947265625,6549.3583984375,9621.779296875,19126.734375,25475.8203125,11425.8125,15221.4365234375,16487.439453125,4083.3154296875,24607.9765625,-5633.0361328125,0.0,1175.403564453125,9830.7919921875,4654.7255859375,20306.111328125,13767.87890625,8804.00390625,21000.703125,7712.8408203125,8944.6708984375,4006.22705078125,-184.3770294189453,19552.70703125,5125.99951171875,14693.7373046875,6310.14501953125,3166.993408203125,9422.302734375,10916.392578125,406.1063232421875,4154.04638671875,-866.254150390625,11024.474609375,518.1630249023438,2424.717041015625,-1436.8692626953125,3072.4208984375,2913.47509765625,19713.244140625,2891.22265625,9194.21484375,388.6222839355469,7979.86962890625,22757.052734375,18937.587890625,13864.0400390625,-0.0,-50077.4375,16168.7529296875,5842.05029296875,0.0,6514.390625,0.0,0.0
11262.099609375,9780.724609375,25300.18359375,7717.609375,25197.6640625,2357.959716796875,3888.60693359375,3679.59326171875,6882.349609375,4041.19482421875,12784.00390625,-3387.13330078125,5652.904296875,0.0,18697.580078125,2040.863037109375,21333.6953125,14286.041015625,6556.5107421875,9628.931640625,19137.064453125,25483.765625,11436.14453125,15228.5888671875,16500.94921875,4095.236328125,24624.666015625,-5627.47314453125,0.0,1182.55615234375,9839.53515625,4658.69921875,20314.8515625,13772.646484375,8817.513671875,21008.650390625,7723.1728515625,8951.8232421875,4007.021484375,-182.78758239746094,19563.833984375,5135.5361328125,14706.4521484375,6316.5029296875,3175.7353515625,9430.2490234375,10930.697265625,406.1063232421875,4161.99365234375,-855.9227294921875,11038.7802734375,524.5208740234375,2419.948486328125,-1440.0482177734375,3054.936767578125,2927.7802734375,19714.83203125,2893.60693359375,9198.1884765625,403.7221374511719,7985.4326171875,22766.58984375,18946.330078125,13873.5771484375,-0.0,-50077.4375,16163.1904296875,5860.32861328125,0.0,6531.07958984375,0.0,0.0
11245.41015625,9775.9560546875,25300.18359375,7712.8408203125,25196.87109375,2352.396728515625,3882.2490234375,3672.440673828125,6864.86572265625,4035.631591796875,12777.646484375,-3393.490966796875,5649.7255859375,0.0,18687.248046875,2026.557861328125,21328.92578125,14284.451171875,6550.94775390625,9617.8056640625,19133.091796875,25476.61328125,11430.5810546875,15222.2314453125,16506.513671875,4084.1103515625,24619.1015625,-5633.8310546875,0.0,1161.0985107421875,9835.560546875,4652.34130859375,20309.2890625,13767.0830078125,8812.7451171875,21003.880859375,7716.814453125,8945.46484375,4008.611083984375,-199.4768829345703,19561.44921875,5123.615234375,14703.2734375,6308.5556640625,3166.993408203125,9423.8916015625,10929.90234375,396.569580078125,4155.6357421875,-863.8699951171875,11034.01171875,517.3682861328125,2396.106689453125,-1445.611328125,3054.936767578125,2929.36962890625,19704.5,2884.86474609375,9183.8837890625,398.1590270996094,7977.48583984375,22763.41015625,18936.79296875,13870.3984375,-0.0,-50080.6171875,16153.654296875,5862.712890625,0.0,6527.10595703125,0.0,0.0
11258.125,9787.876953125,25298.595703125,7711.251953125,25192.896484375,2349.2177734375,3883.0439453125,3670.8515625,6869.63427734375,4035.631591796875,12791.1572265625,-3379.18603515625,5660.85205078125,0.0,18690.427734375,2012.2528076171875,21331.310546875,14285.2470703125,6552.53759765625,9619.3955078125,19134.6796875,25475.8203125,11432.1708984375,15223.0263671875,16516.84375,4078.547119140625,24617.513671875,-5634.6259765625,0.0,1154.74072265625,9834.7666015625,4657.904296875,20312.466796875,13767.87890625,8812.7451171875,21003.087890625,7717.609375,8945.46484375,4018.14794921875,-192.32432556152344,19563.0390625,5121.23095703125,14702.4794921875,6306.17138671875,3168.5830078125,9423.8916015625,10929.90234375,394.1853942871094,4167.556640625,-865.45947265625,11036.396484375,514.1893920898438,2400.875,-1440.0482177734375,3077.189208984375,2927.7802734375,19706.884765625,2870.5595703125,9187.0625,398.1590270996094,7983.04833984375,22762.6171875,18938.3828125,13873.5771484375,-0.0,-50077.4375,16163.1904296875,5865.89208984375,0.0,6538.232421875,0.0,0.0
11266.8671875,9795.8251953125,25296.2109375,7713.6357421875,25191.306640625,2355.57568359375,3886.222900390625,3674.0302734375,6879.1708984375,4034.837158203125,12794.3349609375,-3372.828125,5664.03076171875,0.0,18693.60546875,2019.4053955078125,21333.6953125,14286.041015625,6554.92138671875,9624.1640625,19137.064453125,25481.3828125,11436.14453125,15229.384765625,16516.84375,4089.673583984375,24619.1015625,-5629.0625,0.0,1169.0457763671875,9836.3564453125,4665.8515625,20315.646484375,13773.44140625,8816.71875,21007.060546875,7719.99365234375,8947.849609375,4026.094970703125,-185.17176818847656,19563.0390625,5127.5888671875,14703.2734375,6314.11865234375,3172.556640625,9426.2763671875,10917.9814453125,387.0328369140625,4171.5302734375,-855.9227294921875,11039.57421875,518.957763671875,2419.15380859375,-1436.8692626953125,3080.3681640625,2927.7802734375,19712.447265625,2873.738525390625,9193.419921875,401.33795166015625,7987.81689453125,22768.1796875,18940.767578125,13873.5771484375,-0.0,-50078.23046875,16175.111328125,5870.66015625,0.0,6539.02685546875,0.0,0.0
11266.8671875,9794.2353515625,25300.18359375,7714.43017578125,25192.1015625,2351.601806640625,3885.42822265625,3669.261962890625,6880.76025390625,4026.889892578125,12791.951171875,-3388.72265625,5664.8251953125,0.0,18694.400390625,2021.78955078125,21328.92578125,14282.0673828125,6551.74267578125,9622.57421875,19134.6796875,25475.8203125,11433.7607421875,15224.6162109375,16517.638671875,4085.699462890625,24618.306640625,-5631.44677734375,0.0,1174.60888671875,9833.1767578125,4658.69921875,20310.87890625,13771.056640625,8813.5400390625,21002.29296875,7717.609375,8945.46484375,4012.584716796875,-189.9401397705078,19563.833984375,5125.20458984375,14700.8896484375,6311.73486328125,3172.556640625,9419.1240234375,10913.212890625,395.77484130859375,4169.94091796875,-859.8963623046875,11038.7802734375,515.7788696289062,2415.18017578125,-1440.0482177734375,3083.546875,2912.680419921875,19709.26953125,2874.533447265625,9197.39453125,394.1853942871094,7981.45947265625,22762.6171875,18935.998046875,13877.55078125,-0.0,-50083.796875,16170.34375,5862.712890625,0.0,6527.10595703125,0.0,0.0
11270.0458984375,9786.2880859375,25295.416015625,7705.6884765625,25185.744140625,2339.680908203125,3883.838623046875,3667.67236328125,6881.55517578125,4030.06884765625,12792.74609375,-3397.46484375,5668.00439453125,0.0,18695.990234375,2020.2000732421875,21323.36328125,14277.298828125,6548.5634765625,9624.9580078125,19127.52734375,25467.078125,11432.96484375,15219.052734375,16504.923828125,4076.957763671875,24612.74609375,-5638.599609375,0.0,1167.456298828125,9828.408203125,4650.75146484375,20306.90625,13762.314453125,8807.1826171875,20994.34375,7714.43017578125,8941.4912109375,4007.021484375,-203.4505157470703,19559.859375,5116.462890625,14697.7109375,6307.7607421875,3173.351318359375,9416.7392578125,10922.75,403.7221374511719,4160.404296875,-867.8436279296875,11036.396484375,514.984130859375,2408.822265625,-1444.816650390625,3086.725830078125,2906.322509765625,19701.322265625,2873.738525390625,9198.1884765625,393.3906555175781,7977.48583984375,22759.4375,18935.998046875,13890.2666015625,-0.0,-50086.9765625,16166.3681640625,5857.9443359375,0.0,6531.07958984375,0.0,0.0
11276.404296875,9776.751953125,25296.2109375,7698.5361328125,25185.744140625,2339.680908203125,3883.0439453125,3670.056640625,6881.55517578125,4039.605712890625,12791.951171875,-3397.46484375,5667.20947265625,0.0,18688.837890625,2018.6107177734375,21324.158203125,14279.68359375,6550.1533203125,9624.9580078125,19127.52734375,25464.693359375,11437.7333984375,15220.642578125,16501.74609375,4071.39453125,24611.94921875,-5637.01025390625,0.0,1160.3037109375,9829.203125,4654.7255859375,20306.90625,13762.314453125,8809.56640625,20993.55078125,7713.6357421875,8943.0810546875,4023.710693359375,-204.24525451660156,19558.271484375,5110.8994140625,14696.12109375,6308.5556640625,3174.94091796875,9423.0966796875,10929.90234375,409.28521728515625,4157.22509765625,-869.43310546875,11035.6015625,519.7525024414062,2409.6171875,-1442.432373046875,3079.573486328125,2907.1171875,19700.52734375,2876.122802734375,9190.2421875,402.1326599121094,7980.6640625,22761.822265625,18935.998046875,13890.2666015625,-0.0,-50090.94921875,16167.958984375,5867.4814453125,0.0,6552.53759765625,0.0,0.0
11280.376953125,9768.8037109375,25300.18359375,7699.33056640625,25192.1015625,2344.44921875,3890.196533203125,3675.619873046875,6889.501953125,4053.91064453125,12788.7724609375,-3391.901611328125,5667.20947265625,0.0,18693.60546875,2029.73681640625,21329.720703125,14286.041015625,6555.7158203125,9636.87890625,19132.294921875,25469.4609375,11443.2978515625,15224.6162109375,16506.513671875,4072.984130859375,24619.8984375,-5633.0361328125,0.0,1169.8404541015625,9833.1767578125,4658.69921875,20310.87890625,13765.494140625,8813.5400390625,20996.728515625,7718.404296875,8950.2333984375,4022.916259765625,-196.29795837402344,19563.833984375,5112.4892578125,14702.4794921875,6311.73486328125,3179.709228515625,9428.66015625,10925.1337890625,411.6694030761719,4165.96728515625,-869.43310546875,11041.1640625,527.6997680664062,2417.564453125,-1435.27978515625,3074.01025390625,2910.296142578125,19705.294921875,2883.275390625,9195.8046875,414.0535888671875,7989.40673828125,22766.58984375,18943.15234375,13898.2138671875,-0.0,-50091.7421875,16169.5478515625,5861.91796875,0.0,6566.8427734375,0.0,0.0
11265.2783203125,9756.8828125,25301.775390625,7697.7412109375,25192.896484375,2342.85986328125,3894.170166015625,3677.209228515625,6902.2177734375,4069.80517578125,12770.4931640625,-3400.6435546875,5662.44140625,0.0,18699.169921875,2035.300048828125,21324.158203125,14284.451171875,6558.10009765625,9653.568359375,19133.091796875,25467.078125,11445.681640625,15223.8203125,16502.5390625,4073.778564453125,24626.255859375,-5633.0361328125,0.0,1156.330078125,9832.3818359375,4652.34130859375,20308.494140625,13763.1103515625,8812.7451171875,20995.935546875,7719.19873046875,8950.2333984375,4002.253173828125,-197.88742065429688,19565.423828125,5114.07861328125,14705.658203125,6311.73486328125,3182.887939453125,9434.2236328125,10922.75,402.9273986816406,4169.14599609375,-872.6119995117188,11046.7275390625,531.6734619140625,2406.438232421875,-1440.0482177734375,3068.447021484375,2907.912109375,19713.244140625,2885.659423828125,9204.546875,425.9745178222656,7979.86962890625,22766.58984375,18949.5078125,13921.2607421875,-0.0,-50095.71875,16163.1904296875,5847.61279296875,0.0,6572.4052734375,0.0,0.0
11244.6142578125,9752.9091796875,25302.568359375,7688.9990234375,25189.71875,2333.3232421875,3891.785888671875,3675.619873046875,6920.49658203125,4076.957763671875,12739.4990234375,-3412.564453125,5648.13623046875,0.0,18703.142578125,2030.5316162109375,21321.7734375,14278.0947265625,6555.7158203125,9670.2578125,19129.912109375,25462.30859375,11442.501953125,15219.84765625,16475.51953125,4065.83154296875,24615.12890625,-5637.8046875,0.0,1145.2039794921875,9827.6142578125,4642.8046875,20304.521484375,13755.9580078125,8809.56640625,20990.37109375,7717.609375,8947.0546875,3990.33203125,-184.3770294189453,19565.423828125,5106.92578125,14699.2998046875,6305.37646484375,3187.656494140625,9435.017578125,10914.802734375,395.77484130859375,4154.04638671875,-893.2749633789062,11045.9326171875,530.083984375,2389.748779296875,-1451.1744384765625,3065.268310546875,2905.52783203125,19707.6796875,2884.070068359375,9213.2880859375,428.35870361328125,7965.56494140625,22762.6171875,18951.892578125,13945.1025390625,-0.0,-50102.07421875,16167.1640625,5834.8974609375,0.0,6581.1474609375,0.0,0.0
11246.2041015625,9757.677734375,25302.568359375,7689.7939453125,25192.1015625,2334.117919921875,3888.60693359375,3673.235595703125,6917.31787109375,4058.67919921875,12748.2412109375,-3404.6171875,5637.8046875,0.0,18700.7578125,2035.300048828125,21325.74609375,14275.7099609375,6553.33203125,9654.3623046875,19132.294921875,25464.693359375,11440.9130859375,15219.84765625,16483.46484375,4062.652587890625,24606.38671875,-5636.21533203125,0.0,1144.4091796875,9827.6142578125,4645.18896484375,20309.2890625,13759.1357421875,8812.7451171875,20990.37109375,7714.43017578125,8945.46484375,4004.63720703125,-185.96649169921875,19568.6015625,5105.33642578125,14696.916015625,6302.9921875,3183.6826171875,9431.044921875,10907.650390625,396.569580078125,4148.4833984375,-886.1223754882812,11042.75390625,526.905029296875,2396.106689453125,-1471.83740234375,3061.29443359375,2903.938232421875,19695.759765625,2885.659423828125,9212.494140625,418.0272521972656,7967.154296875,22763.41015625,18947.919921875,13908.5458984375,-0.0,-50094.12890625,16168.7529296875,5857.1494140625,0.0,6575.58447265625,0.0,0.0
