11423.4287109375,10000.865234375,25959.015625,7790.72412109375,24920.3046875,2249.876708984375,3573.89453125,3593.7626953125,6674.130859375,3662.904052734375,12706.1201171875,-3271.8974609375,5070.3681640625,0.0,18542.607421875,1711.0506591796875,21128.654296875,14564.9912109375,6308.5556640625,9444.5546875,18943.9453125,25513.966796875,12298.4248046875,14975.865234375,16255.37890625,4061.063232421875,24379.095703125,-6141.66259765625,-0.0,811.4179077148438,9472.3701171875,4380.5439453125,20466.646484375,13397.5341796875,8614.857421875,20513.53515625,7580.12158203125,8776.1875,3896.55419921875,-666.7772827148438,19378.662109375,4936.0595703125,14301.9365234375,5908.01220703125,2854.6650390625,9019.375,10197.1630859375,441.8691101074219,4076.957763671875,-1140.435546875,10883.80859375,-5.563100337982178,3014.405517578125,-352.06475830078125,2955.595703125,2623.39892578125,19594.828125,2768.83447265625,9576.4794921875,190.73486328125,7810.5927734375,22590.16015625,18687.248046875,14047.623046875,-0.0,-49463.91015625,16019.3447265625,5917.54931640625,0.0,6087.62109375,0.0,0.0
11435.349609375,10014.375,25960.603515625,7795.49267578125,24915.537109375,2249.876708984375,3561.178955078125,3590.583740234375,6667.77294921875,3655.75146484375,12691.8154296875,-3271.8974609375,5079.11083984375,0.0,18537.83984375,1711.845458984375,21127.859375,14566.5810546875,6303.787109375,9437.4013671875,18939.97265625,25512.376953125,12291.2724609375,14973.4814453125,16260.9423828125,4055.5,24375.916015625,-6140.0732421875,-0.0,821.7493896484375,9468.396484375,4379.74951171875,20462.671875,13397.5341796875,8611.6787109375,20510.35546875,7572.96875,8773.8037109375,3889.401611328125,-669.9561767578125,19381.841796875,4936.0595703125,14288.42578125,5906.4228515625,2846.7177734375,9016.1962890625,10190.009765625,426.7692565917969,4085.699462890625,-1132.48828125,10871.0927734375,-3.9736428260803223,2986.590087890625,-336.1701965332031,2950.827392578125,2620.22021484375,19598.0078125,2768.83447265625,9567.7373046875,184.3770294189453,7818.53955078125,22584.595703125,18681.68359375,14031.7275390625,-0.0,-49470.265625,16015.37109375,5911.19140625,0.0,6079.673828125,0.0,0.0
11436.939453125,10006.427734375,25964.578125,7792.31396484375,24922.689453125,2255.439697265625,3566.741943359375,3595.35205078125,6666.978515625,3658.1357421875,12686.2529296875,-3275.07666015625,5079.11083984375,0.0,18541.017578125,1721.382080078125,21130.244140625,14574.52734375,6306.17138671875,9438.197265625,18943.9453125,25515.556640625,12295.24609375,14975.865234375,16261.736328125,4061.063232421875,24383.068359375,-6135.3046875,-0.0,809.8284301757812,9469.19140625,4378.95458984375,20463.466796875,13397.5341796875,8617.2421875,20513.53515625,7574.55810546875,8778.572265625,3860.79150390625,-666.7772827148438,19387.404296875,4937.64892578125,14297.16796875,5910.396484375,2851.486328125,9020.1689453125,10211.4677734375,423.59033203125,4086.494384765625,-1123.7462158203125,10876.6552734375,3.9736428260803223,2983.4111328125,-352.06475830078125,2954.80078125,2619.425537109375,19594.828125,2772.80810546875,9570.916015625,188.35067749023438,7820.923828125,22588.572265625,18684.86328125,14024.5751953125,-0.0,-49479.0078125,16012.9873046875,5909.6015625,0.0,6081.26318359375,0.0,0.0
11417.8662109375,9997.685546875,25962.98828125,7794.6982421875,24920.3046875,2254.64501953125,3565.947265625,3591.37841796875,6661.4150390625,3652.57275390625,12674.33203125,-3278.25537109375,5069.57373046875,0.0,18537.83984375,1711.845458984375,21128.654296875,14572.1435546875,6304.58203125,9434.2236328125,18943.9453125,25516.3515625,12293.65625,14974.2763671875,16257.7626953125,4068.2158203125,24386.248046875,-6136.89404296875,-0.0,801.08642578125,9470.7802734375,4378.95458984375,20468.234375,13397.5341796875,8616.447265625,20515.91796875,7573.76318359375,8776.1875,3875.891357421875,-665.9825439453125,19382.634765625,4940.033203125,14300.3466796875,5907.21728515625,2850.691650390625,9015.4013671875,10204.3154296875,431.5376281738281,4087.289306640625,-1121.362060546875,10876.6552734375,0.0,2999.3056640625,-361.60150146484375,2950.032470703125,2619.425537109375,19592.443359375,2768.039794921875,9569.3271484375,185.17176818847656,7823.30810546875,22588.572265625,18683.275390625,14019.806640625,-0.0,-49479.0078125,16016.9599609375,5900.06494140625,0.0,6074.1103515625,0.0,0.0
11385.28125,10005.6337890625,25969.34765625,7801.0556640625,24935.404296875,2257.823974609375,3573.099853515625,3596.146728515625,6666.18359375,3659.72509765625,12684.6630859375,-3262.36083984375,5066.39501953125,0.0,18541.8125,1714.2296142578125,21137.396484375,14569.759765625,6310.14501953125,9438.197265625,18955.072265625,25521.9140625,12300.80859375,14980.6337890625,16286.373046875,4072.984130859375,24398.16796875,-6131.3310546875,-0.0,820.9546508789062,9477.9326171875,4386.90185546875,20476.18359375,13403.892578125,8625.984375,20522.275390625,7580.12158203125,8780.9560546875,3898.9384765625,-662.0089111328125,19394.556640625,4946.390625,14309.8828125,5908.01220703125,2854.6650390625,9020.96484375,10199.546875,431.5376281738281,4103.978515625,-1118.18310546875,10883.013671875,0.0,3035.068603515625,-342.52801513671875,2955.595703125,2628.962158203125,19596.41796875,2775.1923828125,9571.7119140625,191.5295867919922,7827.28173828125,22594.9296875,18688.837890625,14024.5751953125,-0.0,-49457.55078125,16017.755859375,5909.6015625,0.0,6080.46875,0.0,0.0
11401.1767578125,10019.1435546875,25975.705078125,7802.64501953125,24944.94140625,2263.386962890625,3581.047119140625,3599.325927734375,6673.3359375,3662.109375,12694.19921875,-3247.260986328125,5086.26318359375,0.0,18547.376953125,1720.58740234375,21143.755859375,14569.759765625,6315.7080078125,9443.759765625,18960.634765625,25528.2734375,12306.373046875,14983.8134765625,16299.08984375,4074.573486328125,24412.474609375,-6124.97314453125,-0.0,831.2861328125,9483.4970703125,4391.67041015625,20480.951171875,13411.83984375,8630.7529296875,20527.044921875,7588.86328125,8787.314453125,3898.143798828125,-658.8300170898438,19402.50390625,4950.36474609375,14318.625,5912.78076171875,2859.433349609375,9026.52734375,10217.0302734375,432.3323669433594,4115.1044921875,-1120.5673828125,10893.3447265625,0.0,3055.7314453125,-322.6598205566406,2971.490234375,2636.11474609375,19600.390625,2781.550048828125,9576.4794921875,193.11904907226562,7812.18212890625,22598.90234375,18694.400390625,14030.138671875,-0.0,-49447.21875,16023.3173828125,5919.93310546875,0.0,6080.46875,0.0,0.0
11430.5810546875,10016.7587890625,25963.783203125,7793.9033203125,24931.431640625,2252.260986328125,3572.304931640625,3592.17333984375,6669.3623046875,3653.3671875,12687.8427734375,-3252.823974609375,5083.87890625,0.0,18542.607421875,1711.0506591796875,21133.421875,14564.1962890625,6306.17138671875,9437.4013671875,18947.125,25519.529296875,12298.4248046875,14976.6611328125,16265.7109375,4061.857666015625,24409.294921875,-6134.51025390625,-0.0,816.186279296875,9473.9599609375,4384.517578125,20469.82421875,13400.7138671875,8619.6259765625,20519.892578125,7580.12158203125,8780.162109375,3884.63330078125,-667.572021484375,19385.814453125,4937.64892578125,14310.677734375,5907.21728515625,2853.07568359375,9018.580078125,10206.69921875,448.2269287109375,4092.0576171875,-1130.10400390625,10887.7822265625,-10.33147144317627,3041.426513671875,-330.6070861816406,2954.006103515625,2629.7568359375,19592.443359375,2773.602783203125,9574.095703125,184.3770294189453,7801.0556640625,22590.16015625,18687.248046875,14025.3701171875,-0.0,-49454.37109375,16022.5234375,5910.396484375,0.0,6069.34228515625,0.0,0.0
11446.4755859375,10025.5009765625,25967.755859375,7805.82421875,24937.787109375,2257.029296875,3574.689208984375,3599.325927734375,6674.130859375,3661.314697265625,12702.1474609375,-3251.23486328125,5089.44189453125,0.0,18545.78515625,1720.58740234375,21138.19140625,14580.8857421875,6310.93994140625,9442.9658203125,18951.892578125,25524.296875,12300.0146484375,14981.4287109375,16260.9423828125,4049.936767578125,24403.73046875,-6128.94677734375,-0.0,815.3915405273438,9480.3173828125,4386.90185546875,20474.591796875,13403.892578125,8625.189453125,20524.66015625,7584.8896484375,8784.9306640625,3899.7333984375,-658.8300170898438,19388.994140625,4937.64892578125,14314.6513671875,5913.57568359375,2856.254638671875,9024.1435546875,10209.083984375,468.8898620605469,4086.494384765625,-1126.9251708984375,10887.7822265625,-3.1789143085479736,3024.737060546875,-346.5016784667969,2948.443115234375,2640.88330078125,19593.23828125,2786.318603515625,9580.453125,193.11904907226562,7815.36083984375,22595.724609375,18691.220703125,14030.93359375,-0.0,-49448.01171875,16024.908203125,5911.98583984375,0.0,6079.673828125,0.0,0.0
11436.939453125,10023.1171875,25961.3984375,7801.0556640625,24931.431640625,2249.081787109375,3565.947265625,3592.968017578125,6668.56787109375,3658.1357421875,12693.4052734375,-3267.924072265625,5091.03173828125,0.0,18541.017578125,1712.64013671875,21132.626953125,14581.6806640625,6305.37646484375,9440.5810546875,18946.330078125,25517.94140625,12290.4775390625,14976.6611328125,16272.068359375,4039.605712890625,24386.248046875,-6139.2783203125,-0.0,809.8284301757812,9474.75390625,4372.5966796875,20469.03125,13397.5341796875,8619.6259765625,20520.6875,7576.9423828125,8777.77734375,3889.401611328125,-667.572021484375,19387.404296875,4932.08544921875,14305.115234375,5907.21728515625,2849.896728515625,9019.375,10209.083984375,458.55841064453125,4084.905029296875,-1135.667236328125,10879.833984375,-8.74201488494873,3006.458251953125,-366.369873046875,2949.23779296875,2639.293701171875,19596.41796875,2778.37109375,9574.095703125,188.35067749023438,7818.53955078125,22592.544921875,18685.66015625,14024.5751953125,-0.0,-49463.11328125,16020.93359375,5903.244140625,0.0,6079.673828125,0.0,0.0
11425.8125,10015.96484375,25957.42578125,7800.26123046875,24915.537109375,2243.518798828125,3559.58935546875,3585.8154296875,6659.82568359375,3651.778076171875,12687.8427734375,-3279.050048828125,5087.8525390625,0.0,18537.044921875,1703.1033935546875,21127.06640625,14569.759765625,6298.22412109375,9434.2236328125,18939.97265625,25513.171875,12282.53125,14970.302734375,16264.9150390625,4058.67919921875,24377.50390625,-6149.60986328125,-0.0,813.8020629882812,9469.19140625,4366.2392578125,20463.466796875,13395.150390625,8610.0888671875,20514.330078125,7569.7900390625,8772.2138671875,3883.0439453125,-687.4402465820312,19377.8671875,4932.08544921875,14294.783203125,5900.85986328125,2845.12841796875,9013.8125,10210.6728515625,430.7428894042969,4084.905029296875,-1141.230224609375,10875.0654296875,-16.689300537109375,3013.61083984375,-357.62786865234375,2971.490234375,2625.783203125,19594.828125,2764.06591796875,9568.5322265625,181.1981201171875,7817.7451171875,22584.595703125,18680.095703125,14020.6025390625,-0.0,-49478.21484375,16019.3447265625,5894.501953125,0.0,6078.87890625,0.0,0.0
11430.5810546875,10015.96484375,25965.373046875,7820.12939453125,24920.3046875,2255.439697265625,3565.15234375,3592.968017578125,6663.79931640625,3656.54638671875,12704.53125,-3268.71875,5091.03173828125,0.0,18540.224609375,1715.8189697265625,21132.626953125,14562.6064453125,6302.9921875,9438.9912109375,18943.9453125,25521.9140625,12284.9150390625,14976.6611328125,16265.7109375,4068.2158203125,24384.65625,-6138.4833984375,-0.0,815.3915405273438,9475.548828125,4375.77587890625,20468.234375,13403.892578125,8614.857421875,20523.0703125,7572.96875,8776.982421875,3900.52783203125,-674.724609375,19381.841796875,4945.59619140625,14299.5517578125,5909.6015625,2849.10205078125,9020.1689453125,10221.798828125,425.1798095703125,4087.289306640625,-1126.1304931640625,10879.833984375,-7.152557373046875,3027.121337890625,-342.52801513671875,2988.179443359375,2627.372802734375,19601.1875,2773.602783203125,9571.7119140625,186.76121520996094,7828.87158203125,22590.955078125,18686.453125,14023.78125,-0.0,-49464.703125,16019.3447265625,5903.244140625,0.0,6079.673828125,0.0,0.0
11443.2978515625,10017.5546875,25971.73046875,7840.79248046875,24931.431640625,2271.33447265625,3574.689208984375,3607.273193359375,6674.130859375,3668.46728515625,12706.1201171875,-3257.592529296875,5102.15771484375,0.0,18548.169921875,1733.3031005859375,21141.37109375,14568.169921875,6314.9130859375,9450.912109375,18952.6875,25532.24609375,12296.8359375,14989.3759765625,16269.68359375,4096.03125,24396.578125,-6119.41015625,-0.0,811.4179077148438,9485.880859375,4384.517578125,20475.38671875,13414.2236328125,8625.189453125,20534.197265625,7583.30029296875,8788.9033203125,3911.654052734375,-683.4666137695312,19389.787109375,4964.669921875,14311.47265625,5922.3173828125,2858.638671875,9031.2958984375,10225.7724609375,444.2532958984375,4095.236328125,-1107.8516845703125,10890.166015625,9.5367431640625,3028.710693359375,-335.3754577636719,2978.642822265625,2636.909423828125,19605.16015625,2791.0869140625,9580.453125,198.68214416503906,7832.05029296875,22601.28515625,18694.400390625,14029.34375,-0.0,-49453.57421875,16025.701171875,5914.3701171875,0.0,6084.4423828125,0.0,0.0
11430.5810546875,10018.3486328125,25963.783203125,7822.513671875,24929.046875,2262.59228515625,3573.89453125,3605.68359375,6678.8994140625,3672.440673828125,12691.8154296875,-3261.566162109375,5104.5419921875,0.0,18547.376953125,1731.713623046875,21135.806640625,14570.5537109375,6312.529296875,9454.0908203125,18949.5078125,25522.708984375,12293.65625,14984.607421875,16267.2998046875,4100.0048828125,24395.78515625,-6121.0,-0.0,827.3125,9479.5224609375,4375.77587890625,20471.4140625,13403.892578125,8619.6259765625,20526.25,7582.505859375,8785.724609375,3875.891357421875,-673.9298706054688,19385.01953125,4944.80126953125,14310.677734375,5917.54931640625,2858.638671875,9032.08984375,10226.5673828125,455.3794860839844,4092.85205078125,-1112.6199951171875,10890.166015625,8.74201488494873,3019.96875,-325.04400634765625,2962.748291015625,2640.08837890625,19592.443359375,2789.497314453125,9586.8115234375,198.68214416503906,7812.97705078125,22596.517578125,18692.8125,14038.8798828125,-0.0,-49456.7578125,16031.265625,5919.138671875,0.0,6087.62109375,0.0,0.0
11412.302734375,10024.70703125,25962.98828125,7797.08251953125,24929.841796875,2256.234375,3569.126220703125,3599.325927734375,6668.56787109375,3663.698974609375,12684.6630859375,-3256.003173828125,5094.2099609375,0.0,18547.376953125,1722.1768798828125,21134.21875,14574.52734375,6308.5556640625,9442.9658203125,18946.330078125,25519.529296875,12290.4775390625,14979.044921875,16268.888671875,4075.368408203125,24396.578125,-6128.94677734375,-0.0,832.080810546875,9474.75390625,4377.365234375,20470.619140625,13400.7138671875,8615.6533203125,20521.482421875,7578.53173828125,8781.7509765625,3875.0966796875,-638.9617919921875,19382.634765625,4935.2646484375,14309.0888671875,5911.98583984375,2852.28076171875,9025.7333984375,10236.1044921875,459.3531188964844,4093.64697265625,-1119.7725830078125,10886.986328125,-0.7947285771369934,3024.737060546875,-327.4281921386719,2960.364013671875,2637.7041015625,19597.2109375,2785.523681640625,9582.8369140625,193.11904907226562,7793.9033203125,22591.75,18688.837890625,14022.19140625,-0.0,-49449.60546875,16026.4970703125,5919.138671875,0.0,6080.46875,0.0,0.0
11412.302734375,10020.732421875,25970.140625,7781.1875,24930.634765625,2249.876708984375,3564.357666015625,3593.7626953125,6657.44140625,3652.57275390625,12692.6103515625,-3260.771484375,5075.931640625,0.0,18541.8125,1713.434814453125,21133.421875,14571.349609375,6304.58203125,9435.017578125,18945.53515625,25516.3515625,12289.68359375,14975.0712890625,16280.015625,4057.08935546875,24399.7578125,-6136.89404296875,-0.0,825.7230224609375,9472.3701171875,4377.365234375,20470.619140625,13399.1240234375,8618.037109375,20518.302734375,7574.55810546875,8778.572265625,3873.50732421875,-638.9617919921875,19390.583984375,4932.08544921875,14307.4990234375,5907.21728515625,2847.512451171875,9018.580078125,10236.1044921875,460.9425964355469,4094.44189453125,-1132.48828125,10883.80859375,-7.152557373046875,3025.53173828125,-336.1701965332031,2981.02685546875,2634.525390625,19589.265625,2779.960693359375,9571.7119140625,186.76121520996094,7786.7509765625,22592.544921875,18684.068359375,14012.654296875,-0.0,-49451.19140625,16016.9599609375,5915.1650390625,0.0,6064.57373046875,0.0,0.0
11409.123046875,10014.375,25954.24609375,7777.2138671875,24921.89453125,2250.67138671875,3565.15234375,3592.968017578125,6655.85205078125,3650.983154296875,12679.89453125,-3271.10302734375,5063.2158203125,0.0,18541.017578125,1715.0242919921875,21126.26953125,14561.0166015625,6302.9921875,9433.4287109375,18938.3828125,25510.787109375,12286.50390625,14974.2763671875,16250.6103515625,4061.857666015625,24401.345703125,-6137.68896484375,-0.0,816.186279296875,9466.8076171875,4369.41748046875,20459.494140625,13392.765625,8611.6787109375,20515.123046875,7571.37939453125,8776.982421875,3866.354736328125,-650.8826904296875,19375.482421875,4929.701171875,14303.525390625,5906.4228515625,2846.7177734375,9016.990234375,10193.1884765625,452.2005615234375,4076.162841796875,-1130.8988037109375,10885.3974609375,-7.152557373046875,3013.61083984375,-346.5016784667969,2973.07958984375,2628.16748046875,19574.166015625,2778.37109375,9571.7119140625,184.3770294189453,7793.1083984375,22588.572265625,18682.48046875,14012.654296875,-0.0,-49463.11328125,16006.6279296875,5919.93310546875,0.0,6066.9580078125,0.0,0.0
11420.25,10030.26953125,25954.24609375,7801.0556640625,24925.07421875,2264.181884765625,3571.51025390625,3600.915283203125,6660.6201171875,3658.930419921875,12677.5107421875,-3263.15576171875,5061.62646484375,0.0,18546.58203125,1727.739990234375,21131.833984375,14567.375,6311.73486328125,9442.9658203125,18944.740234375,25521.119140625,12292.8623046875,14983.8134765625,16240.2783203125,4078.547119140625,24396.578125,-6128.94677734375,-0.0,820.9546508789062,9472.3701171875,4372.5966796875,20466.646484375,13402.302734375,8617.2421875,20524.66015625,7579.32666015625,8787.314453125,3861.58642578125,-649.2932739257812,19377.8671875,4940.82763671875,14308.29296875,5918.34423828125,2853.07568359375,9024.9375,10171.7314453125,456.96893310546875,4071.39453125,-1115.7989501953125,10896.5234375,3.9736428260803223,3017.58447265625,-330.6070861816406,2954.80078125,2638.4990234375,19586.0859375,2791.0869140625,9576.4794921875,193.9137725830078,7800.26123046875,22596.517578125,18688.837890625,14019.0126953125,-0.0,-49457.55078125,16004.244140625,5931.0595703125,0.0,6081.26318359375,0.0,0.0
11434.5546875,10033.4482421875,25970.140625,7820.12939453125,24933.814453125,2258.61865234375,3572.304931640625,3604.09423828125,6665.388671875,3663.698974609375,12695.7890625,-3259.9765625,5078.31591796875,0.0,18548.169921875,1731.713623046875,21139.779296875,14574.52734375,6314.9130859375,9446.9384765625,18954.27734375,25525.888671875,12294.4521484375,14986.197265625,16260.1474609375,4079.341796875,24391.015625,-6126.5625,-0.0,840.8228759765625,9479.5224609375,4378.16015625,20475.38671875,13410.2509765625,8624.39453125,20527.044921875,7582.505859375,8788.9033203125,3874.302001953125,-661.2141723632812,19388.19921875,4938.44384765625,14313.0615234375,5918.34423828125,2852.28076171875,9025.7333984375,10192.39453125,460.1478576660156,4087.289306640625,-1115.7989501953125,10890.166015625,7.9472856521606445,3031.8896484375,-308.3547058105469,2960.364013671875,2650.419921875,19605.16015625,2796.64990234375,9580.453125,195.50323486328125,7816.95068359375,22602.876953125,18692.8125,14032.5234375,-0.0,-49450.3984375,16007.423828125,5921.5224609375,0.0,6083.6474609375,0.0,0.0
11416.2763671875,10008.8115234375,25951.86328125,7811.3876953125,24923.482421875,2237.160888671875,3556.41064453125,3589.7890625,6657.44140625,3651.778076171875,12683.8681640625,-3268.71875,5087.8525390625,0.0,18539.4296875,1715.0242919921875,21123.08984375,14564.1962890625,6299.81396484375,9438.197265625,18939.97265625,25509.9921875,12280.94140625,14970.302734375,16255.37890625,4061.063232421875,24388.630859375,-6143.251953125,-0.0,820.9546508789062,9466.01171875,4358.29150390625,20458.69921875,13393.5615234375,8611.6787109375,20512.73828125,7566.61083984375,8773.009765625,3859.996826171875,-685.8507690429688,19374.689453125,4924.93310546875,14300.3466796875,5900.85986328125,2839.565185546875,9013.0166015625,10190.8046875,439.48492431640625,4088.878662109375,-1130.8988037109375,10867.9130859375,-5.563100337982178,3016.789794921875,-340.1438293457031,2954.80078125,2631.346435546875,19607.54296875,2778.37109375,9573.30078125,180.4033966064453,7812.18212890625,22588.572265625,18680.095703125,14023.78125,-0.0,-49462.3203125,16015.37109375,5888.14404296875,0.0,6066.9580078125,0.0,0.0
11415.4814453125,10013.580078125,25954.24609375,7802.64501953125,24926.662109375,2241.134765625,3560.384033203125,3593.7626953125,6655.0576171875,3657.341064453125,12675.921875,-3263.15576171875,5091.03173828125,0.0,18537.83984375,1722.1768798828125,21127.06640625,14576.912109375,6305.37646484375,9440.5810546875,18940.767578125,25513.171875,12286.50390625,14972.6865234375,16265.7109375,4057.08935546875,24391.80859375,-6140.86767578125,-0.0,819.3651733398438,9468.396484375,4359.880859375,20461.876953125,13394.35546875,8616.447265625,20514.330078125,7570.5849609375,8776.982421875,3870.328125,-651.6774291992188,19379.45703125,4926.52294921875,14303.525390625,5904.0390625,2841.949462890625,9019.375,10201.13671875,442.663818359375,4087.289306640625,-1129.309326171875,10873.4765625,-0.7947285771369934,3007.2529296875,-343.32275390625,2956.390380859375,2630.551513671875,19601.1875,2779.166015625,9569.3271484375,188.35067749023438,7801.0556640625,22593.33984375,18681.68359375,14021.396484375,-0.0,-49463.11328125,16020.1396484375,5881.7861328125,0.0,6082.85302734375,0.0,0.0
11411.5078125,10015.96484375,25965.373046875,7802.64501953125,24928.251953125,2249.876708984375,3556.41064453125,3597.736328125,6641.546875,3658.1357421875,12671.947265625,-3256.003173828125,5078.31591796875,0.0,18527.5078125,1730.9189453125,21134.21875,14581.6806640625,6306.96630859375,9431.044921875,18946.330078125,25517.94140625,12287.298828125,14978.25,16275.248046875,4066.6259765625,24377.50390625,-6132.9208984375,-0.0,832.080810546875,9473.1650390625,4367.828125,20469.03125,13403.09765625,8619.6259765625,20519.892578125,7569.7900390625,8782.5458984375,3883.0439453125,-635.7828979492188,19388.994140625,4932.08544921875,14301.9365234375,5908.01220703125,2836.386474609375,9023.3486328125,10205.109375,457.763671875,4078.547119140625,-1124.5408935546875,10867.119140625,0.7947285771369934,2981.02685546875,-325.8387145996094,2957.97998046875,2642.472412109375,19589.265625,2784.72900390625,9554.2265625,193.11904907226562,7804.23486328125,22596.517578125,18681.68359375,14007.091796875,-0.0,-49458.34375,16005.8349609375,5896.09130859375,0.0,6087.62109375,0.0,0.0
11416.2763671875,10009.6064453125,25965.373046875,7793.1083984375,24929.841796875,2249.876708984375,3561.9736328125,3600.12060546875,6646.31494140625,3663.698974609375,12666.384765625,-3248.0556640625,5079.9052734375,0.0,18531.48046875,1734.8924560546875,21131.0390625,14573.7333984375,6310.14501953125,9439.7861328125,18947.125,25519.529296875,12289.68359375,14979.8388671875,16273.6572265625,4064.241943359375,24381.478515625,-6131.3310546875,-0.0,836.8492431640625,9473.9599609375,4364.6494140625,20465.8515625,13399.1240234375,8618.037109375,20522.275390625,7576.1474609375,8785.724609375,3890.9912109375,-658.0352783203125,19388.994140625,4932.88037109375,14307.4990234375,5908.80712890625,2841.949462890625,9027.322265625,10199.546875,441.0743713378906,4081.72607421875,-1122.9515380859375,10873.4765625,0.0,2970.695556640625,-319.48089599609375,2964.337646484375,2640.08837890625,19589.265625,2784.72900390625,9559.791015625,201.86106872558594,7812.97705078125,22598.90234375,18684.068359375,14011.8603515625,-0.0,-49451.19140625,16005.0390625,5925.49658203125,0.0,6083.6474609375,0.0,0.0
11432.96484375,10000.0693359375,25967.755859375,7813.771484375,24940.966796875,2262.59228515625,3575.484130859375,3612.836181640625,6663.79931640625,3674.0302734375,12675.1259765625,-3240.1083984375,5091.826171875,0.0,18541.8125,1742.83984375,21142.1640625,14576.912109375,6322.86083984375,9452.501953125,18955.865234375,25533.041015625,12300.80859375,14993.349609375,16276.041015625,4077.752685546875,24396.578125,-6118.61572265625,-0.0,833.6702880859375,9486.6748046875,4377.365234375,20478.56640625,13411.83984375,8629.9580078125,20535.787109375,7588.86328125,8798.4404296875,3907.680419921875,-663.598388671875,19395.3515625,4947.98046875,14321.8037109375,5923.1123046875,2856.254638671875,9040.0380859375,10200.3408203125,434.716552734375,4094.44189453125,-1111.8253173828125,10889.37109375,12.715657234191895,3002.484619140625,-314.7125244140625,2980.232177734375,2646.4462890625,19599.595703125,2799.0341796875,9575.6845703125,217.75563049316406,7813.771484375,22610.822265625,18699.169921875,14018.2177734375,-0.0,-49439.26953125,16019.3447265625,5929.47021484375,0.0,6089.21044921875,0.0,0.0
11421.0439453125,10002.4541015625,25974.908203125,7826.4873046875,24943.3515625,2274.51318359375,3577.0732421875,3616.809814453125,6659.82568359375,3674.0302734375,12676.7158203125,-3235.340087890625,5089.44189453125,0.0,18542.607421875,1748.4029541015625,21148.5234375,14583.2705078125,6325.2451171875,9448.5283203125,18962.224609375,25541.783203125,12302.3984375,14997.3232421875,16276.041015625,4092.0576171875,24400.552734375,-6110.66796875,-0.0,836.8492431640625,9493.033203125,4380.5439453125,20484.923828125,13418.9921875,8634.7265625,20542.939453125,7591.24755859375,8798.4404296875,3906.8857421875,-632.6039428710938,19398.53125,4958.3115234375,14322.5986328125,5931.0595703125,2856.254638671875,9041.626953125,10206.69921875,446.6374816894531,4095.236328125,-1099.109619140625,10889.37109375,16.689300537109375,3020.763427734375,-319.48089599609375,2971.490234375,2653.598876953125,19599.595703125,2806.9814453125,9575.6845703125,216.96090698242188,7801.0556640625,22616.38671875,18699.96484375,14008.681640625,-0.0,-49428.14453125,16020.93359375,5930.26513671875,0.0,6081.26318359375,0.0,0.0
11414.6875,10007.22265625,25984.4453125,7832.05029296875,24947.32421875,2273.718505859375,3577.0732421875,3612.04150390625,6660.6201171875,3668.46728515625,12641.7470703125,-3235.340087890625,5089.44189453125,0.0,18544.197265625,1736.4820556640625,21146.931640625,14584.859375,6321.271484375,9450.1181640625,18963.814453125,25539.3984375,12300.0146484375,14994.9384765625,16289.552734375,4095.236328125,24402.9375,-6113.84716796875,-0.0,839.2333984375,9493.033203125,4371.00732421875,20483.3359375,13418.9921875,8634.7265625,20540.556640625,7589.658203125,8794.466796875,3860.79150390625,-641.345947265625,19406.4765625,4958.3115234375,14324.982421875,5931.0595703125,2855.4599609375,9035.26953125,10214.646484375,454.5847473144531,4101.59423828125,-1096.7254638671875,10891.7548828125,9.5367431640625,3012.021240234375,-336.9649353027344,2983.4111328125,2648.830322265625,19602.775390625,2799.0341796875,9577.2744140625,207.42416381835938,7797.08251953125,22614.001953125,18699.169921875,14014.244140625,-0.0,-49423.37890625,16021.728515625,5931.8544921875,0.0,6076.49462890625,0.0,0.0
11413.09765625,10028.6796875,25986.830078125,7838.40869140625,24949.708984375,2280.076171875,3581.047119140625,3615.22021484375,6664.59423828125,3671.64599609375,12675.1259765625,-3223.419189453125,5084.67333984375,0.0,18546.58203125,1737.2767333984375,21150.908203125,14581.6806640625,6324.4501953125,9454.0908203125,18964.609375,25543.37109375,12302.3984375,14995.734375,16283.9892578125,4105.56787109375,24406.115234375,-6109.87353515625,-0.0,855.1279907226562,9495.41796875,4377.365234375,20487.30859375,13422.9658203125,8637.1103515625,20543.734375,7591.24755859375,8797.6455078125,3873.50732421875,-646.9090576171875,19406.4765625,4964.669921875,14327.3671875,5935.82763671875,2859.433349609375,9037.654296875,10236.8994140625,465.7109680175781,4104.77294921875,-1086.3939208984375,10893.3447265625,13.51038646697998,3004.07421875,-322.6598205566406,2975.4638671875,2651.214599609375,19601.1875,2802.212890625,9582.04296875,205.83470153808594,7820.12939453125,22616.38671875,18699.96484375,14021.396484375,-0.0,-49419.40234375,16024.1123046875,5933.443359375,0.0,6077.28955078125,0.0,0.0
11413.09765625,10046.1640625,25983.65234375,7828.87158203125,24949.708984375,2282.46044921875,3581.047119140625,3618.3994140625,6662.2099609375,3677.209228515625,12710.888671875,-3227.392822265625,5094.2099609375,0.0,18544.9921875,1744.42919921875,21152.49609375,14584.859375,6324.4501953125,9454.0908203125,18965.40234375,25543.37109375,12302.3984375,14998.1181640625,16276.041015625,4114.3095703125,24406.115234375,-6106.69482421875,-0.0,862.280517578125,9497.0068359375,4376.5703125,20487.30859375,13422.171875,8636.3154296875,20546.1171875,7590.45263671875,8800.82421875,3886.222900390625,-631.8092041015625,19405.68359375,4967.0537109375,14328.162109375,5937.41748046875,2858.638671875,9041.626953125,10245.640625,472.06878662109375,4107.1572265625,-1079.241455078125,10892.55078125,18.278757095336914,3014.405517578125,-315.50726318359375,2968.311279296875,2659.956787109375,19597.2109375,2810.955078125,9578.8642578125,211.39781188964844,7824.103515625,22614.796875,18700.7578125,14016.6279296875,-0.0,-49428.94140625,16018.548828125,5941.39111328125,0.0,6090.7998046875,0.0,0.0
11409.123046875,10046.958984375,25973.3203125,7813.771484375,24938.583984375,2272.923828125,3570.715576171875,3608.862548828125,6643.93115234375,3666.877685546875,12707.7099609375,-3239.313720703125,5101.36279296875,0.0,18540.224609375,1734.8924560546875,21140.576171875,14582.474609375,6314.9130859375,9437.4013671875,18955.072265625,25533.833984375,12293.65625,14986.9921875,16273.6572265625,4102.388671875,24402.9375,-6116.2314453125,-0.0,854.333251953125,9485.880859375,4368.623046875,20476.18359375,13409.455078125,8624.39453125,20531.01953125,7580.916015625,8788.9033203125,3883.0439453125,-645.3196411132812,19395.3515625,4955.92724609375,14319.419921875,5926.291015625,2847.512451171875,9031.2958984375,10228.1572265625,461.7373046875,4097.62060546875,-1087.188720703125,10885.3974609375,11.126200675964355,3019.173828125,-322.6598205566406,2968.311279296875,2656.777587890625,19598.802734375,2810.160400390625,9567.7373046875,203.4505157470703,7806.619140625,22604.46484375,18688.837890625,13999.939453125,-0.0,-49436.88671875,16009.0126953125,5924.70166015625,0.0,6086.03125,0.0,0.0
11424.2236328125,10039.806640625,25970.935546875,7813.771484375,24932.2265625,2269.744873046875,3568.33154296875,3604.09423828125,6640.75244140625,3660.519775390625,12714.86328125,-3238.51904296875,5097.38916015625,0.0,18537.83984375,1734.0977783203125,21137.396484375,14579.2958984375,6311.73486328125,9431.8388671875,18949.5078125,25530.65625,12292.0673828125,14982.2236328125,16273.6572265625,4088.083740234375,24398.962890625,-6117.82080078125,-0.0,849.5648803710938,9481.9072265625,4366.2392578125,20473.798828125,13409.455078125,8619.6259765625,20527.044921875,7579.32666015625,8784.9306640625,3883.0439453125,-654.0616455078125,19388.19921875,4952.74853515625,14316.2412109375,5922.3173828125,2845.923095703125,9025.7333984375,10217.826171875,469.6846008300781,4090.468017578125,-1092.7518310546875,10883.013671875,10.33147144317627,3031.8896484375,-321.0703430175781,2975.4638671875,2661.5458984375,19597.2109375,2804.59716796875,9563.763671875,197.0926971435547,7806.619140625,22600.4921875,18685.66015625,13994.3759765625,-0.0,-49428.14453125,16001.06640625,5921.5224609375,0.0,6077.28955078125,0.0,0.0
11444.8857421875,10034.2431640625,25972.525390625,7812.97705078125,24939.37890625,2276.8974609375,3576.27880859375,3612.836181640625,6651.87841796875,3668.46728515625,12720.42578125,-3232.161376953125,5095.7998046875,0.0,18541.8125,1743.634521484375,21142.958984375,14582.474609375,6320.4765625,9445.349609375,18955.865234375,25535.42578125,12300.0146484375,14990.1708984375,16271.2724609375,4089.673583984375,24398.962890625,-6110.66796875,-0.0,856.7174072265625,9487.4697265625,4369.41748046875,20478.56640625,13416.607421875,8628.3681640625,20534.9921875,7588.068359375,8794.466796875,3887.812255859375,-647.7037963867188,19393.76171875,4959.1064453125,14321.8037109375,5928.67529296875,2857.04931640625,9034.474609375,10222.5947265625,464.1214904785156,4092.85205078125,-1091.95703125,10887.7822265625,19.868215560913086,3049.37353515625,-318.6861572265625,2981.02685546875,2676.64599609375,19591.650390625,2806.186767578125,9571.7119140625,205.83470153808594,7816.95068359375,22609.234375,18695.990234375,14005.501953125,-0.0,-49424.171875,16013.7802734375,5932.64892578125,0.0,6082.05810546875,0.0,0.0
11441.7080078125,10035.0380859375,25962.98828125,7812.18212890625,24940.171875,2272.923828125,3579.45751953125,3608.862548828125,6660.6201171875,3666.877685546875,12718.8369140625,-3238.51904296875,5087.8525390625,0.0,18543.40234375,1732.50830078125,21138.19140625,14580.8857421875,6319.681640625,9447.7333984375,18951.892578125,25530.65625,12300.0146484375,14987.7861328125,16268.0947265625,4084.905029296875,24406.91015625,-6115.4365234375,-0.0,852.7437744140625,9484.291015625,4363.85498046875,20471.4140625,13411.044921875,8627.57421875,20531.8125,7587.27392578125,8793.671875,3879.0703125,-655.651123046875,19391.37890625,4955.92724609375,14324.982421875,5924.70166015625,2859.433349609375,9032.8857421875,10205.9052734375,434.716552734375,4088.878662109375,-1098.31494140625,10894.1396484375,10.33147144317627,3039.8369140625,-335.3754577636719,2973.07958984375,2658.3671875,19587.67578125,2793.47119140625,9578.8642578125,202.65579223632812,7814.56640625,22607.64453125,18695.990234375,14008.681640625,-0.0,-49434.5,16017.755859375,5925.49658203125,0.0,6077.28955078125,0.0,0.0
11428.197265625,10039.01171875,25959.810546875,7820.12939453125,24940.171875,2280.076171875,3587.405029296875,3614.42578125,6668.56787109375,3670.056640625,12707.7099609375,-3234.54541015625,5077.52099609375,0.0,18550.5546875,1740.45556640625,21140.576171875,14589.626953125,6324.4501953125,9454.0908203125,18952.6875,25536.21875,12305.5771484375,14994.9384765625,16256.9677734375,4100.7998046875,24411.677734375,-6109.0791015625,-0.0,850.359619140625,9486.6748046875,4364.6494140625,20473.798828125,13414.2236328125,8630.7529296875,20536.580078125,7593.6318359375,8800.029296875,3879.0703125,-650.8826904296875,19388.19921875,4963.080078125,14331.3408203125,5931.8544921875,2866.5859375,9038.4482421875,10188.419921875,427.5639953613281,4082.52099609375,-1084.009765625,10904.4716796875,15.09984302520752,3023.1474609375,-327.4281921386719,2954.80078125,2655.188232421875,19592.443359375,2805.39208984375,9585.2216796875,203.4505157470703,7816.1552734375,22614.001953125,18702.349609375,14015.833984375,-0.0,-49429.734375,16018.548828125,5934.23828125,0.0,6078.87890625,0.0,0.0
11436.14453125,10048.548828125,25970.935546875,7819.3349609375,24944.146484375,2280.87109375,3589.7890625,3619.98876953125,6666.978515625,3673.235595703125,12699.763671875,-3220.240234375,5073.54736328125,0.0,18551.349609375,1749.1976318359375,21146.138671875,14589.626953125,6327.62890625,9457.2705078125,18959.044921875,25539.3984375,12307.9619140625,14997.3232421875,16267.2998046875,4102.388671875,24398.16796875,-6105.10498046875,-0.0,844.7965087890625,9493.033203125,4369.41748046875,20479.361328125,13421.3759765625,8633.13671875,20540.556640625,7597.60546875,8803.2080078125,3887.017578125,-647.7037963867188,19395.3515625,4964.669921875,14333.724609375,5935.82763671875,2869.76513671875,9043.216796875,10205.109375,442.663818359375,4090.468017578125,-1087.9835205078125,10904.4716796875,23.047128677368164,3019.96875,-298.8179626464844,2961.953369140625,2659.161865234375,19595.623046875,2813.33935546875,9587.60546875,211.39781188964844,7816.95068359375,22617.181640625,18705.525390625,14007.8857421875,-0.0,-49419.40234375,16015.37109375,5942.18603515625,0.0,6084.4423828125,0.0,0.0
11434.5546875,10031.859375,25970.935546875,7802.64501953125,24936.19921875,2264.9765625,3576.27880859375,3612.04150390625,6657.44140625,3669.261962890625,12698.173828125,-3221.034912109375,5083.87890625,0.0,18545.78515625,1746.8134765625,21140.576171875,14576.1171875,6318.88720703125,9447.7333984375,18953.482421875,25529.06640625,12298.4248046875,14987.7861328125,16268.888671875,4080.93115234375,24394.98828125,-6111.462890625,-0.0,839.2333984375,9483.4970703125,4360.67578125,20475.38671875,13411.044921875,8626.7783203125,20529.427734375,7584.8896484375,8795.26171875,3883.838623046875,-658.0352783203125,19392.966796875,4946.390625,14318.625,5927.880859375,2860.228271484375,9036.064453125,10221.0048828125,443.45855712890625,4104.77294921875,-1104.6727294921875,10887.7822265625,17.48402976989746,3017.58447265625,-309.1494140625,2982.616455078125,2658.3671875,19602.775390625,2812.544677734375,9578.068359375,206.6294403076172,7806.619140625,22606.849609375,18695.990234375,13997.5546875,-0.0,-49419.40234375,16009.8076171875,5942.98046875,0.0,6084.4423828125,0.0,0.0
11431.3759765625,10019.1435546875,25962.98828125,7802.64501953125,24938.583984375,2257.823974609375,3576.27880859375,3608.06787109375,6661.4150390625,3666.877685546875,12690.2265625,-3233.75048828125,5091.03173828125,0.0,18549.76171875,1740.45556640625,21134.21875,14568.96484375,6315.7080078125,9449.322265625,18949.5078125,25524.296875,12297.6298828125,14983.017578125,16267.2998046875,4072.189453125,24410.8828125,-6119.41015625,-0.0,841.6175537109375,9477.138671875,4356.7021484375,20469.82421875,13403.09765625,8623.599609375,20521.482421875,7584.09521484375,8792.0830078125,3873.50732421875,-670.7509155273438,19390.583984375,4933.67529296875,14319.419921875,5921.5224609375,2859.433349609375,9032.8857421875,10223.388671875,446.6374816894531,4101.59423828125,-1110.23583984375,10891.7548828125,11.126200675964355,3012.816162109375,-325.8387145996094,2971.490234375,2649.625,19605.955078125,2799.828857421875,9582.04296875,205.03997802734375,7800.26123046875,22603.669921875,18693.60546875,14007.8857421875,-0.0,-49429.734375,16017.755859375,5935.82763671875,0.0,6082.85302734375,0.0,0.0
11429.787109375,10026.2958984375,25959.015625,7808.20849609375,24940.966796875,2264.9765625,3579.45751953125,3612.04150390625,6659.03076171875,3669.261962890625,12670.357421875,-3243.287353515625,5092.62109375,0.0,18547.376953125,1736.4820556640625,21133.421875,14580.8857421875,6317.29736328125,9449.322265625,18949.5078125,25521.9140625,12300.80859375,14986.9921875,16272.86328125,4088.878662109375,24410.08984375,-6114.6416015625,-0.0,837.6439208984375,9479.5224609375,4359.08642578125,20468.234375,13403.892578125,8625.189453125,20524.66015625,7587.27392578125,8794.466796875,3864.76513671875,-662.8036499023438,19390.583984375,4943.2119140625,14324.982421875,5927.880859375,2861.817626953125,9035.26953125,10221.0048828125,452.99530029296875,4092.85205078125,-1108.6463623046875,10894.9345703125,11.126200675964355,2997.71630859375,-316.3019714355469,2961.15869140625,2652.00927734375,19601.1875,2795.855224609375,9579.658203125,209.0136260986328,7799.466796875,22608.439453125,18695.1953125,14012.654296875,-0.0,-49439.26953125,16019.3447265625,5936.62255859375,0.0,6089.21044921875,0.0,0.0
11420.25,10016.7587890625,25959.810546875,7804.23486328125,24930.634765625,2263.386962890625,3568.33154296875,3604.888916015625,6643.13671875,3657.341064453125,12660.0263671875,-3243.287353515625,5100.568359375,0.0,18535.455078125,1727.739990234375,21130.244140625,14582.474609375,6310.93994140625,9435.017578125,18943.9453125,25517.94140625,12294.4521484375,14982.2236328125,16273.6572265625,4076.162841796875,24383.86328125,-6117.82080078125,-0.0,828.107177734375,9473.9599609375,4351.93408203125,20464.26171875,13400.7138671875,8617.2421875,20520.6875,7578.53173828125,8785.724609375,3856.023193359375,-661.2141723632812,19385.01953125,4940.82763671875,14312.267578125,5922.3173828125,2853.07568359375,9026.52734375,10209.083984375,444.2532958984375,4080.93115234375,-1115.7989501953125,10879.0400390625,3.1789143085479736,2992.94775390625,-318.6861572265625,2960.364013671875,2652.80419921875,19593.23828125,2795.855224609375,9565.353515625,198.68214416503906,7788.34033203125,22599.697265625,18685.66015625,13991.9921875,-0.0,-49443.24609375,16003.4501953125,5921.5224609375,0.0,6076.49462890625,0.0,0.0
11413.09765625,10005.6337890625,25960.603515625,7799.466796875,24921.89453125,2257.029296875,3563.56298828125,3604.09423828125,6646.31494140625,3654.162109375,12679.099609375,-3236.134765625,5098.18408203125,0.0,18534.66015625,1731.713623046875,21128.654296875,14573.7333984375,6310.14501953125,9431.8388671875,18942.35546875,25516.3515625,12292.0673828125,14979.8388671875,16265.7109375,4043.5791015625,24378.298828125,-6117.82080078125,-0.0,829.6966552734375,9470.7802734375,4348.7548828125,20465.0546875,13399.1240234375,8614.857421875,20515.91796875,7573.76318359375,8785.724609375,3863.970458984375,-654.0616455078125,19384.2265625,4932.08544921875,14305.9091796875,5923.1123046875,2850.691650390625,9026.52734375,10195.5732421875,433.1270751953125,4088.083740234375,-1118.18310546875,10879.0400390625,3.1789143085479736,3000.100341796875,-332.1965637207031,2969.90087890625,2658.3671875,19594.03515625,2801.418212890625,9566.1474609375,196.29795837402344,7780.39306640625,22595.724609375,18685.66015625,13981.66015625,-0.0,-49429.734375,16000.2705078125,5919.93310546875,0.0,6068.5478515625,0.0,0.0
11411.5078125,10001.6591796875,25956.630859375,7796.28759765625,24919.509765625,2249.081787109375,3563.56298828125,3600.915283203125,6651.87841796875,3655.75146484375,12687.8427734375,-3246.46630859375,5092.62109375,0.0,18535.455078125,1730.1241455078125,21124.681640625,14564.9912109375,6308.5556640625,9435.8125,18939.97265625,25511.583984375,12289.68359375,14975.0712890625,16253.7900390625,4064.241943359375,24379.095703125,-6126.5625,-0.0,832.080810546875,9466.01171875,4343.986328125,20465.8515625,13395.150390625,8613.2685546875,20509.5625,7572.96875,8782.5458984375,3892.580810546875,-664.3931274414062,19377.8671875,4926.52294921875,14305.115234375,5916.75439453125,2849.896728515625,9023.3486328125,10200.3408203125,434.716552734375,4083.3154296875,-1125.335693359375,10879.0400390625,1.5894571542739868,3010.431884765625,-349.6805725097656,2965.132568359375,2650.419921875,19594.828125,2799.828857421875,9570.1220703125,193.9137725830078,7774.03515625,22592.544921875,18685.66015625,13987.2236328125,-0.0,-49440.06640625,16002.6552734375,5912.78076171875,0.0,6074.9052734375,0.0,0.0
11432.1708984375,10023.1171875,25967.755859375,7801.0556640625,24928.251953125,2253.850341796875,3573.89453125,3604.888916015625,6667.77294921875,3665.288330078125,12696.583984375,-3242.49267578125,5096.59423828125,0.0,18547.376953125,1738.0714111328125,21130.244140625,14572.9375,6315.7080078125,9449.322265625,18945.53515625,25516.3515625,12296.8359375,14979.044921875,16258.55859375,4076.162841796875,24390.220703125,-6122.5888671875,-0.0,834.4650268554688,9472.3701171875,4354.318359375,20469.03125,13399.1240234375,8620.421875,20515.123046875,7579.32666015625,8787.314453125,3898.9384765625,-658.8300170898438,19385.814453125,4934.4697265625,14314.6513671875,5918.34423828125,2861.817626953125,9029.7060546875,10221.0048828125,455.3794860839844,4090.468017578125,-1114.20947265625,10889.37109375,8.74201488494873,3030.300048828125,-321.0703430175781,2969.90087890625,2648.03564453125,19601.1875,2806.186767578125,9584.4267578125,201.0663299560547,7801.8505859375,22598.90234375,18694.400390625,14003.1171875,-0.0,-49440.06640625,16009.0126953125,5916.75439453125,0.0,6085.23681640625,0.0,0.0
11440.9130859375,10036.6279296875,25974.115234375,7812.18212890625,24936.19921875,2259.41357421875,3580.25244140625,3608.862548828125,6674.92529296875,3670.8515625,12706.1201171875,-3237.724365234375,5097.38916015625,0.0,18551.349609375,1737.2767333984375,21135.806640625,14582.474609375,6320.4765625,9456.4755859375,18951.09765625,25521.9140625,12302.3984375,14982.2236328125,16272.068359375,4083.3154296875,24398.962890625,-6121.0,-0.0,839.2333984375,9478.728515625,4362.26513671875,20473.00390625,13406.2763671875,8625.984375,20518.302734375,7584.09521484375,8790.4931640625,3852.84423828125,-652.47216796875,19392.966796875,4939.23828125,14321.009765625,5919.93310546875,2868.97021484375,9034.474609375,10236.1044921875,474.4529724121094,4097.62060546875,-1109.441162109375,10894.1396484375,13.51038646697998,3036.657958984375,-298.8179626464844,2973.07958984375,2645.651611328125,19600.390625,2799.828857421875,9588.400390625,206.6294403076172,7823.30810546875,22603.669921875,18699.169921875,14008.681640625,-0.0,-49441.65234375,16015.37109375,5919.93310546875,0.0,6094.77392578125,0.0,0.0
11413.8916015625,10015.96484375,25957.42578125,7806.619140625,24928.251953125,2252.260986328125,3575.484130859375,3602.504638671875,6676.51513671875,3670.056640625,12663.205078125,-3255.208251953125,5095.0048828125,0.0,18544.9921875,1727.739990234375,21125.474609375,14571.349609375,6315.7080078125,9457.2705078125,18941.560546875,25511.583984375,12297.6298828125,14976.6611328125,16260.9423828125,4079.341796875,24394.193359375,-6127.357421875,-0.0,823.3388061523438,9469.986328125,4347.16552734375,20460.287109375,13395.9453125,8617.2421875,20511.150390625,7580.916015625,8788.9033203125,3828.207763671875,-665.9825439453125,19383.4296875,4932.08544921875,14315.4462890625,5915.9599609375,2864.201904296875,9030.5009765625,10187.6259765625,460.9425964355469,4091.2626953125,-1116.59375,10890.166015625,11.126200675964355,2973.874267578125,-329.8123779296875,2965.132568359375,2641.677734375,19591.650390625,2784.72900390625,9581.248046875,205.03997802734375,7795.49267578125,22598.107421875,18695.990234375,14014.244140625,-0.0,-49458.34375,16016.9599609375,5921.5224609375,0.0,6093.18408203125,0.0,0.0
11412.302734375,10008.8115234375,25965.373046875,7810.5927734375,24933.01953125,2253.0556640625,3574.689208984375,3600.915283203125,6668.56787109375,3669.261962890625,12666.384765625,-3252.823974609375,5097.38916015625,0.0,18543.40234375,1723.766357421875,21127.859375,14569.759765625,6315.7080078125,9450.1181640625,18944.740234375,25516.3515625,12299.2197265625,14977.455078125,16271.2724609375,4069.80517578125,24395.78515625,-6127.357421875,-0.0,818.5704345703125,9470.7802734375,4347.16552734375,20465.0546875,13399.9189453125,8619.6259765625,20514.330078125,7581.7109375,8789.6982421875,3842.512939453125,-671.545654296875,19392.171875,4934.4697265625,14317.0361328125,5915.9599609375,2861.02294921875,9027.322265625,10182.0634765625,439.48492431640625,4097.62060546875,-1118.9779052734375,10889.37109375,10.33147144317627,2973.07958984375,-363.19097900390625,2975.4638671875,2642.472412109375,19591.650390625,2783.139404296875,9578.068359375,203.4505157470703,7779.59814453125,22599.697265625,18695.990234375,14005.501953125,-0.0,-49457.55078125,16012.19140625,5916.75439453125,0.0,6090.00537109375,0.0,0.0
11417.0712890625,10015.96484375,25973.3203125,7816.1552734375,24940.171875,2259.41357421875,3577.0732421875,3607.273193359375,6664.59423828125,3666.877685546875,12680.689453125,-3250.43994140625,5097.38916015625,0.0,18545.78515625,1730.9189453125,21134.21875,14572.9375,6318.88720703125,9448.5283203125,18951.09765625,25525.09375,12304.783203125,14983.8134765625,16283.9892578125,4068.2158203125,24401.345703125,-6119.41015625,-0.0,832.8755493164062,9477.9326171875,4350.34423828125,20473.798828125,13409.455078125,8625.984375,20521.482421875,7584.8896484375,8792.876953125,3850.4599609375,-664.3931274414062,19400.916015625,4944.00634765625,14321.009765625,5920.72802734375,2864.201904296875,9031.2958984375,10200.3408203125,414.84832763671875,4103.18359375,-1115.004150390625,10893.3447265625,15.894571304321289,3004.86865234375,-375.1119079589844,2981.82177734375,2646.4462890625,19597.2109375,2794.265625,9578.8642578125,204.24525451660156,7783.57177734375,22604.46484375,18697.580078125,13996.7607421875,-0.0,-49451.19140625,16011.396484375,5919.93310546875,0.0,6078.08447265625,0.0,0.0
11411.5078125,10008.8115234375,25969.34765625,7828.076171875,24938.583984375,2270.53955078125,3577.0732421875,3615.22021484375,6661.4150390625,3667.67236328125,12684.6630859375,-3252.029296875,5106.130859375,0.0,18543.40234375,1743.634521484375,21138.19140625,14580.0908203125,6322.86083984375,9446.9384765625,18953.482421875,25531.451171875,12306.373046875,14990.1708984375,16276.8359375,4078.547119140625,24401.345703125,-6109.0791015625,-0.0,828.9019165039062,9484.291015625,4351.93408203125,20476.9765625,13416.607421875,8625.984375,20530.224609375,7585.68408203125,8799.2353515625,3877.480712890625,-654.8563842773438,19397.736328125,4958.3115234375,14322.5986328125,5929.47021484375,2863.4072265625,9039.2431640625,10206.69921875,406.1063232421875,4105.56787109375,-1107.8516845703125,10893.3447265625,24.636587142944336,3012.816162109375,-371.13824462890625,2965.132568359375,2642.472412109375,19598.0078125,2803.802490234375,9576.4794921875,211.39781188964844,7784.36669921875,22610.029296875,18699.169921875,13987.2236328125,-0.0,-49448.01171875,16009.8076171875,5923.90673828125,0.0,6072.52099609375,0.0,0.0
11399.5869140625,10009.6064453125,25981.267578125,7843.97119140625,24949.708984375,2281.665771484375,3583.43115234375,3625.552001953125,6665.388671875,3675.619873046875,12696.583984375,-3247.260986328125,5135.5361328125,0.0,18551.349609375,1751.581787109375,21144.548828125,14595.9853515625,6330.01318359375,9450.912109375,18962.224609375,25542.578125,12316.7041015625,14998.1181640625,16289.552734375,4083.3154296875,24414.0625,-6101.13134765625,-0.0,815.3915405273438,9493.033203125,4355.11279296875,20484.12890625,13425.3505859375,8636.3154296875,20539.759765625,7593.6318359375,8807.1826171875,3872.71240234375,-668.3667602539062,19409.65625,4967.0537109375,14333.724609375,5939.8017578125,2869.76513671875,9046.3955078125,10226.5673828125,424.38507080078125,4124.6416015625,-1110.23583984375,10900.4970703125,35.762786865234375,3017.58447265625,-346.5016784667969,2976.258544921875,2640.08837890625,19611.517578125,2815.723388671875,9582.8369140625,215.37144470214844,7785.9560546875,22619.56640625,18707.1171875,13991.1962890625,-0.0,-49432.9140625,16010.6025390625,5930.26513671875,0.0,6081.26318359375,0.0,0.0
11410.712890625,10015.96484375,25971.73046875,7844.765625,24936.994140625,2281.665771484375,3578.662841796875,3624.757080078125,6667.77294921875,3676.41455078125,12662.4111328125,-3239.313720703125,5113.28369140625,0.0,18545.78515625,1748.4029541015625,21142.958984375,14596.7802734375,6329.21826171875,9452.501953125,18958.25,25539.3984375,12314.3193359375,15000.5029296875,16270.4794921875,4092.0576171875,24402.140625,-6101.13134765625,-0.0,861.4857788085938,9490.6494140625,4357.49658203125,20480.951171875,13426.9404296875,8631.546875,20538.96484375,7590.45263671875,8806.3876953125,3886.222900390625,-657.2405395507812,19396.939453125,4958.3115234375,14325.7783203125,5942.98046875,2867.380859375,9047.9853515625,10206.69921875,460.9425964355469,4107.1572265625,-1096.7254638671875,10894.1396484375,36.55751419067383,3030.300048828125,-303.5863342285156,2985.795166015625,2651.214599609375,19607.54296875,2814.1337890625,9578.068359375,213.78199768066406,7796.28759765625,22618.771484375,18707.91015625,13992.7861328125,-0.0,-49428.14453125,16007.423828125,5930.26513671875,0.0,6085.23681640625,0.0,0.0
11405.150390625,10023.1171875,25969.34765625,7832.05029296875,24928.251953125,2280.87109375,3577.0732421875,3623.96240234375,6670.95166015625,3676.41455078125,12640.158203125,-3244.082275390625,5092.62109375,0.0,18544.197265625,1746.8134765625,21138.986328125,14592.806640625,6329.21826171875,9454.88671875,18953.482421875,25534.62890625,12311.935546875,14998.9130859375,16262.53125,4102.388671875,24391.80859375,-6099.5419921875,-0.0,869.43310546875,9488.2646484375,4354.318359375,20476.9765625,13422.9658203125,8627.57421875,20538.171875,7590.45263671875,8805.5927734375,3876.68603515625,-674.724609375,19389.787109375,4955.1328125,14320.2138671875,5942.98046875,2867.380859375,9045.6005859375,10203.5205078125,472.06878662109375,4092.85205078125,-1086.3939208984375,10890.9609375,34.96805953979492,3008.842529296875,-303.5863342285156,2977.84814453125,2663.93017578125,19598.802734375,2810.955078125,9578.8642578125,217.75563049316406,7797.876953125,22615.591796875,18703.9375,13996.7607421875,-0.0,-49442.453125,16007.423828125,5935.82763671875,0.0,6086.826171875,0.0,0.0
11416.2763671875,10024.70703125,25966.16796875,7809.7978515625,24932.2265625,2268.9501953125,3578.662841796875,3616.01513671875,6678.8994140625,3672.440673828125,12689.431640625,-3256.003173828125,5087.8525390625,0.0,18550.5546875,1738.0714111328125,21131.833984375,14585.654296875,6324.4501953125,9454.0908203125,18948.712890625,25528.2734375,12309.55078125,14990.9658203125,16269.68359375,4086.494384765625,24394.98828125,-6111.462890625,-0.0,829.6966552734375,9483.4970703125,4343.986328125,20469.82421875,13410.2509765625,8625.984375,20529.427734375,7588.068359375,8800.029296875,3863.175537109375,-694.5927734375,19391.37890625,4946.390625,14321.009765625,5931.0595703125,2868.175537109375,9038.4482421875,10199.546875,454.5847473144531,4097.62060546875,-1099.9044189453125,10891.7548828125,27.02077293395996,2978.642822265625,-317.8914489746094,2967.5166015625,2650.419921875,19600.390625,2795.855224609375,9583.6328125,213.78199768066406,7789.134765625,22610.822265625,18700.7578125,14003.9130859375,-0.0,-49461.5234375,16005.0390625,5923.1123046875,0.0,6082.05810546875,0.0,0.0
11424.2236328125,10031.064453125,25962.98828125,7807.41357421875,24931.431640625,2265.771240234375,3581.047119140625,3614.42578125,6685.2568359375,3670.8515625,12706.1201171875,-3252.823974609375,5097.38916015625,0.0,18550.5546875,1733.3031005859375,21131.0390625,14585.654296875,6322.86083984375,9458.0654296875,18947.125,25527.4765625,12311.935546875,14989.3759765625,16273.6572265625,4076.957763671875,24397.373046875,-6115.4365234375,-0.0,824.133544921875,9480.3173828125,4342.39697265625,20469.03125,13407.0712890625,8623.599609375,20526.25,7586.47900390625,8797.6455078125,3861.58642578125,-670.7509155273438,19390.583984375,4944.00634765625,14321.8037109375,5928.67529296875,2870.5595703125,9037.654296875,10193.984375,445.8427429199219,4098.41552734375,-1109.441162109375,10893.3447265625,23.047128677368164,2988.974365234375,-325.04400634765625,2961.953369140625,2644.856689453125,19596.41796875,2793.47119140625,9586.8115234375,207.42416381835938,7787.5458984375,22610.029296875,18699.96484375,14009.4755859375,-0.0,-49467.0859375,16010.6025390625,5915.9599609375,0.0,6078.87890625,0.0,0.0
11420.25,10029.4755859375,25963.783203125,7815.36083984375,24934.611328125,2278.487060546875,3582.636474609375,3620.783447265625,6682.078125,3669.261962890625,12706.1201171875,-3248.0556640625,5106.92578125,0.0,18546.58203125,1745.2239990234375,21137.396484375,14588.0380859375,6326.833984375,9454.88671875,18952.6875,25531.451171875,12317.498046875,14994.14453125,16279.220703125,4094.44189453125,24400.552734375,-6105.10498046875,-0.0,834.4650268554688,9485.880859375,4347.9599609375,20473.00390625,13414.2236328125,8627.57421875,20534.197265625,7590.45263671875,8802.4140625,3859.996826171875,-654.8563842773438,19392.966796875,4956.72216796875,14325.7783203125,5937.41748046875,2872.94384765625,9039.2431640625,10213.0576171875,445.0480041503906,4102.388671875,-1097.520263671875,10896.5234375,30.19968605041504,3002.484619140625,-334.58074951171875,2964.337646484375,2647.240966796875,19598.0078125,2810.955078125,9584.4267578125,206.6294403076172,7790.72412109375,22613.20703125,18701.552734375,14001.5283203125,-0.0,-49447.21875,16015.37109375,5923.1123046875,0.0,6074.1103515625,0.0,0.0
11420.25,10035.83203125,25968.55078125,7821.71923828125,24937.787109375,2287.228759765625,3583.43115234375,3627.93603515625,6675.72021484375,3670.056640625,12709.2998046875,-3244.082275390625,5104.5419921875,0.0,18544.197265625,1761.913330078125,21142.958984375,14592.01171875,6330.01318359375,9451.70703125,18958.25,25543.37109375,12321.47265625,14999.70703125,16272.068359375,4119.873046875,24401.345703125,-6094.77392578125,-0.0,846.385986328125,9493.033203125,4355.9072265625,20478.56640625,13422.171875,8633.931640625,20541.349609375,7592.8369140625,8807.9765625,3867.1494140625,-637.372314453125,19397.736328125,4966.2587890625,14329.7509765625,5946.9541015625,2872.149169921875,9043.216796875,10232.130859375,454.5847473144531,4102.388671875,-1087.188720703125,10896.5234375,38.94169998168945,3019.173828125,-324.249267578125,2978.642822265625,2661.5458984375,19601.1875,2826.849609375,9581.248046875,207.42416381835938,7801.8505859375,22617.974609375,18704.732421875,13998.349609375,-0.0,-49428.94140625,16007.423828125,5931.8544921875,0.0,6067.7529296875,0.0,0.0
11452.833984375,10043.7802734375,25969.34765625,7825.6923828125,24939.37890625,2280.87109375,3588.19970703125,3624.757080078125,6683.66748046875,3670.056640625,12707.7099609375,-3240.903076171875,5095.7998046875,0.0,18549.76171875,1754.7607421875,21144.548828125,14591.216796875,6330.01318359375,9454.0908203125,18961.4296875,25541.783203125,12324.650390625,14998.9130859375,16261.736328125,4101.59423828125,24401.345703125,-6101.13134765625,-0.0,859.1016235351562,9494.6220703125,4358.29150390625,20480.15625,13423.7607421875,8636.3154296875,20538.96484375,7592.8369140625,8807.9765625,3869.533447265625,-643.7301635742188,19397.736328125,4961.49072265625,14333.724609375,5943.775390625,2876.91748046875,9043.216796875,10220.2099609375,461.7373046875,4100.0048828125,-1091.95703125,10898.11328125,35.762786865234375,3030.300048828125,-309.1494140625,2979.4375,2663.135498046875,19602.775390625,2815.723388671875,9586.0166015625,206.6294403076172,7811.3876953125,22616.38671875,18706.322265625,13996.7607421875,-0.0,-49429.734375,16009.0126953125,5922.3173828125,0.0,6070.13720703125,0.0,0.0
11456.0126953125,10036.6279296875,25974.115234375,7828.87158203125,24943.3515625,2282.46044921875,3590.583740234375,3625.552001953125,6686.84619140625,3675.619873046875,12710.0947265625,-3238.51904296875,5101.36279296875,0.0,18552.14453125,1749.1976318359375,21146.931640625,14595.19140625,6333.98681640625,9454.0908203125,18965.40234375,25543.37109375,12328.625,15001.296875,16266.50390625,4091.2626953125,24406.115234375,-6098.7470703125,-0.0,861.4857788085938,9497.8017578125,4358.29150390625,20483.3359375,13426.9404296875,8637.9052734375,20540.556640625,7593.6318359375,8807.1826171875,3873.50732421875,-642.1406860351562,19402.50390625,4963.875,14334.51953125,5946.1591796875,2878.5068359375,9046.3955078125,10209.8779296875,463.3267822265625,4103.978515625,-1086.3939208984375,10901.2919921875,38.14697265625,3035.86328125,-306.7652282714844,2982.616455078125,2659.161865234375,19605.955078125,2814.1337890625,9587.60546875,212.9872589111328,7816.1552734375,22616.38671875,18707.91015625,13994.3759765625,-0.0,-49430.53125,16009.8076171875,5927.880859375,0.0,6082.05810546875,0.0,0.0
11428.9921875,10009.6064453125,25968.55078125,7816.1552734375,24940.171875,2273.718505859375,3583.43115234375,3617.6044921875,6678.8994140625,3673.235595703125,12697.37890625,-3245.671630859375,5098.18408203125,0.0,18546.58203125,1734.0977783203125,21138.986328125,14592.01171875,6326.03955078125,9447.7333984375,18955.865234375,25537.013671875,12322.2666015625,14994.14453125,16264.9150390625,4080.13671875,24400.552734375,-6109.0791015625,-0.0,846.385986328125,9489.853515625,4348.7548828125,20476.9765625,13419.787109375,8631.546875,20531.8125,7586.47900390625,8798.4404296875,3860.79150390625,-647.7037963867188,19395.3515625,4955.92724609375,14326.572265625,5935.033203125,2872.149169921875,9039.2431640625,10212.26171875,445.8427429199219,4100.0048828125,-1095.135986328125,10894.1396484375,28.6102294921875,3025.53173828125,-324.249267578125,2978.642822265625,2640.08837890625,19600.390625,2800.62353515625,9581.248046875,210.6030731201172,7799.466796875,22609.234375,18699.169921875,13988.8125,-0.0,-49442.453125,15999.4755859375,5930.26513671875,0.0,6088.41552734375,0.0,0.0
11411.5078125,10003.2490234375,25964.578125,7810.5927734375,24938.583984375,2268.1552734375,3581.841796875,3614.42578125,6678.1044921875,3671.64599609375,12694.19921875,-3248.8505859375,5102.95263671875,0.0,18546.58203125,1733.3031005859375,21133.421875,14592.01171875,6320.4765625,9447.7333984375,18951.09765625,25529.861328125,12320.677734375,14987.7861328125,16268.0947265625,4076.162841796875,24401.345703125,-6116.2314453125,-0.0,827.3125,9483.4970703125,4341.6025390625,20473.00390625,13413.4296875,8629.9580078125,20526.25,7584.09521484375,8796.0556640625,3845.691650390625,-656.44580078125,19391.37890625,4949.56982421875,14327.3671875,5928.67529296875,2869.76513671875,9036.064453125,10217.0302734375,437.89544677734375,4102.388671875,-1106.26220703125,10896.5234375,23.047128677368164,3008.842529296875,-336.1701965332031,2976.258544921875,2633.730712890625,19601.98046875,2792.67626953125,9579.658203125,209.0136260986328,7781.1875,22608.439453125,18699.169921875,13991.1962890625,-0.0,-49452.78125,16001.06640625,5926.291015625,0.0,6086.826171875,0.0,0.0
11410.712890625,10018.3486328125,25976.5,7817.7451171875,24943.3515625,2270.53955078125,3585.8154296875,3614.42578125,6683.66748046875,3662.109375,12706.1201171875,-3252.029296875,5109.31005859375,0.0,18550.5546875,1730.9189453125,21138.19140625,14593.6015625,6324.4501953125,9446.9384765625,18958.25,25531.451171875,12323.8564453125,14991.759765625,16275.248046875,4076.957763671875,24409.294921875,-6116.2314453125,-0.0,829.6966552734375,9487.4697265625,4345.57568359375,20479.361328125,13416.607421875,8633.13671875,20528.634765625,7588.86328125,8800.029296875,3856.81787109375,-664.3931274414062,19400.119140625,4950.36474609375,14332.9306640625,5932.64892578125,2872.94384765625,9036.064453125,10224.978515625,452.99530029296875,4111.13134765625,-1107.8516845703125,10902.0869140625,16.689300537109375,3006.458251953125,-317.8914489746094,2981.82177734375,2638.4990234375,19608.33984375,2788.70263671875,9587.60546875,200.2716064453125,7783.57177734375,22611.6171875,18699.169921875,13989.607421875,-0.0,-49459.140625,16009.0126953125,5911.98583984375,0.0,6078.87890625,0.0,0.0
11421.83984375,10023.1171875,25982.060546875,7823.30810546875,24949.708984375,2272.923828125,3592.17333984375,3619.194091796875,6690.8203125,3668.46728515625,12718.041015625,-3248.8505859375,5100.568359375,0.0,18552.14453125,1739.660888671875,21142.1640625,14587.2431640625,6329.21826171875,9454.88671875,18963.814453125,25533.833984375,12325.4462890625,14995.734375,16277.6318359375,4079.341796875,24414.0625,-6109.87353515625,-0.0,829.6966552734375,9489.853515625,4346.37060546875,20483.3359375,13420.58203125,8638.69921875,20531.8125,7592.8369140625,8804.00390625,3867.944091796875,-665.1878662109375,19407.271484375,4951.9541015625,14337.69921875,5935.82763671875,2877.712158203125,9042.421875,10224.978515625,457.763671875,4111.13134765625,-1103.8780517578125,10906.85546875,23.047128677368164,3005.66357421875,-319.48089599609375,2987.384765625,2643.267333984375,19596.41796875,2798.239501953125,9590.78515625,208.21888732910156,7790.72412109375,22614.796875,18704.732421875,14002.3232421875,-0.0,-49454.37109375,16012.19140625,5918.34423828125,0.0,6082.85302734375,0.0,0.0
11419.455078125,10005.6337890625,25970.140625,7820.923828125,24946.53125,2266.56591796875,3593.7626953125,3619.194091796875,6695.58837890625,3674.0302734375,12713.2734375,-3257.592529296875,5090.23681640625,0.0,18553.734375,1738.8662109375,21135.806640625,14584.859375,6329.21826171875,9460.44921875,18957.45703125,25529.06640625,12324.650390625,14991.759765625,16264.9150390625,4074.573486328125,24418.830078125,-6113.05224609375,-0.0,827.3125,9485.0859375,4337.62890625,20476.9765625,13415.0185546875,8634.7265625,20527.044921875,7593.6318359375,8804.00390625,3862.380859375,-657.2405395507812,19400.916015625,4945.59619140625,14336.9033203125,5934.23828125,2880.89111328125,9044.0107421875,10217.826171875,436.3059997558594,4102.388671875,-1107.0570068359375,10911.6240234375,21.457672119140625,3008.0478515625,-356.0384216308594,2990.563720703125,2640.08837890625,19585.291015625,2799.0341796875,9593.1689453125,212.9872589111328,7781.982421875,22613.20703125,18707.91015625,14006.296875,-0.0,-49459.93359375,16016.1650390625,5926.291015625,0.0,6090.7998046875,0.0,0.0
11425.0185546875,10001.6591796875,25965.373046875,7819.3349609375,24944.94140625,2267.360595703125,3598.531005859375,3619.194091796875,6695.58837890625,3675.619873046875,12701.3525390625,-3265.539794921875,5097.38916015625,0.0,18559.296875,1737.2767333984375,21134.21875,14591.216796875,6331.6025390625,9459.6552734375,18955.865234375,25529.861328125,12326.240234375,14990.9658203125,16263.326171875,4072.984130859375,24418.830078125,-6116.2314453125,-0.0,822.5440673828125,9485.880859375,4336.0390625,20473.798828125,13412.634765625,8633.931640625,20527.83984375,7597.60546875,8802.4140625,3854.433837890625,-673.9298706054688,19396.146484375,4948.77490234375,14341.671875,5934.23828125,2883.275390625,9044.0107421875,10228.951171875,399.74847412109375,4105.56787109375,-1109.441162109375,10920.365234375,21.457672119140625,3016.789794921875,-374.3171691894531,2983.4111328125,2638.4990234375,19601.1875,2793.47119140625,9596.34765625,212.19253540039062,7778.0087890625,22615.591796875,18711.08984375,14003.1171875,-0.0,-49473.4453125,16020.1396484375,5929.47021484375,0.0,6094.77392578125,0.0,0.0
11412.302734375,9996.0966796875,25952.658203125,7807.41357421875,24932.2265625,2253.850341796875,3580.25244140625,3607.273193359375,6680.48876953125,3665.288330078125,12670.357421875,-3275.07666015625,5098.978515625,0.0,18544.197265625,1727.739990234375,21123.08984375,14582.474609375,6320.4765625,9448.5283203125,18941.560546875,25518.736328125,12311.935546875,14979.8388671875,16252.994140625,4057.88427734375,24400.552734375,-6127.357421875,-0.0,806.6495361328125,9473.9599609375,4326.50244140625,20462.671875,13398.330078125,8622.009765625,20515.123046875,7585.68408203125,8791.287109375,3833.770751953125,-687.4402465820312,19378.662109375,4932.88037109375,14327.3671875,5923.90673828125,2868.175537109375,9033.6796875,10209.083984375,382.26446533203125,4097.62060546875,-1118.9779052734375,10897.318359375,11.920928955078125,3009.63720703125,-372.72772216796875,2975.4638671875,2628.16748046875,19604.365234375,2782.3447265625,9580.453125,201.0663299560547,7772.44580078125,22602.876953125,18699.96484375,13994.3759765625,-0.0,-49483.77734375,16005.0390625,5915.9599609375,0.0,6087.62109375,0.0,0.0
11413.09765625,10004.0439453125,25955.8359375,7819.3349609375,24940.171875,2261.797607421875,3577.0732421875,3612.836181640625,6677.3095703125,3664.49365234375,12659.232421875,-3266.33447265625,5101.36279296875,0.0,18542.607421875,1741.2503662109375,21129.44921875,14582.474609375,6321.271484375,9446.9384765625,18948.712890625,25524.296875,12315.9091796875,14986.197265625,16257.7626953125,4067.4208984375,24401.345703125,-6116.2314453125,-0.0,820.9546508789062,9479.5224609375,4333.65478515625,20466.646484375,13403.892578125,8627.57421875,20523.8671875,7585.68408203125,8797.6455078125,3836.155029296875,-673.9298706054688,19386.609375,4940.033203125,14326.572265625,5929.47021484375,2864.99658203125,9036.064453125,10201.9306640625,415.64306640625,4094.44189453125,-1107.8516845703125,10888.576171875,19.073486328125,3005.66357421875,-352.06475830078125,2977.84814453125,2638.4990234375,19607.54296875,2795.855224609375,9576.4794921875,201.86106872558594,7765.29296875,22606.849609375,18699.169921875,13991.9921875,-0.0,-49466.29296875,15997.0908203125,5919.93310546875,0.0,6081.26318359375,0.0,0.0
11419.455078125,10010.4013671875,25959.015625,7812.18212890625,24948.916015625,2269.744873046875,3585.020751953125,3623.167724609375,6677.3095703125,3668.46728515625,12671.1533203125,-3261.566162109375,5106.92578125,0.0,18545.78515625,1757.939697265625,21135.01171875,14587.2431640625,6326.833984375,9448.5283203125,18955.865234375,25527.4765625,12323.0615234375,14994.14453125,16272.068359375,4072.984130859375,24406.91015625,-6103.515625,-0.0,826.5177612304688,9485.880859375,4336.833984375,20471.4140625,13408.6611328125,8637.1103515625,20528.634765625,7592.04248046875,8806.3876953125,3847.28125,-669.9561767578125,19396.146484375,4944.00634765625,14335.314453125,5937.41748046875,2870.5595703125,9043.216796875,10202.7255859375,435.5112609863281,4089.673583984375,-1095.9306640625,10896.5234375,28.6102294921875,3008.0478515625,-340.9385681152344,2974.669189453125,2638.4990234375,19598.802734375,2810.955078125,9579.658203125,211.39781188964844,7756.55126953125,22615.591796875,18703.9375,13986.4287109375,-0.0,-49453.57421875,16001.859375,5924.70166015625,0.0,6073.31591796875,0.0,0.0
11411.5078125,10004.0439453125,25957.42578125,7794.6982421875,24941.763671875,2261.797607421875,3581.841796875,3617.6044921875,6678.8994140625,3668.46728515625,12683.8681640625,-3268.71875,5101.36279296875,0.0,18543.40234375,1746.018798828125,21130.244140625,14585.654296875,6322.86083984375,9448.5283203125,18951.892578125,25524.296875,12317.498046875,14987.7861328125,16280.8095703125,4064.241943359375,24408.498046875,-6111.462890625,-0.0,820.9546508789062,9481.1123046875,4331.2705078125,20468.234375,13403.09765625,8633.13671875,20522.275390625,7589.658203125,8799.2353515625,3848.075927734375,-665.9825439453125,19392.966796875,4933.67529296875,14331.3408203125,5930.26513671875,2868.175537109375,9038.4482421875,10190.8046875,429.94818115234375,4092.0576171875,-1103.8780517578125,10898.9072265625,20.66294288635254,3000.100341796875,-341.7333068847656,2980.232177734375,2628.16748046875,19590.05859375,2803.0078125,9578.8642578125,205.83470153808594,7756.55126953125,22610.822265625,18701.552734375,13988.017578125,-0.0,-49462.3203125,16006.6279296875,5926.291015625,0.0,6074.9052734375,0.0,0.0
11403.560546875,9996.890625,25957.42578125,7799.466796875,24942.556640625,2260.2080078125,3585.8154296875,3615.22021484375,6682.87255859375,3668.46728515625,12683.07421875,-3265.539794921875,5087.8525390625,0.0,18546.58203125,1736.4820556640625,21127.06640625,14588.0380859375,6323.65576171875,9452.501953125,18951.892578125,25526.681640625,12317.498046875,14986.9921875,16277.6318359375,4066.6259765625,24411.677734375,-6113.84716796875,-0.0,828.107177734375,9480.3173828125,4325.7080078125,20467.439453125,13405.482421875,8633.931640625,20524.66015625,7592.8369140625,8798.4404296875,3844.10205078125,-678.6982421875,19390.583984375,4935.2646484375,14334.51953125,5927.880859375,2868.97021484375,9038.4482421875,10192.39453125,420.41143798828125,4096.826171875,-1104.6727294921875,10905.265625,15.09984302520752,2986.590087890625,-332.99127197265625,2969.90087890625,2636.909423828125,19594.03515625,2799.828857421875,9581.248046875,205.03997802734375,7761.31982421875,22611.6171875,18702.349609375,13986.4287109375,-0.0,-49459.93359375,16008.21875,5930.26513671875,0.0,6069.34228515625,0.0,0.0
11402.7666015625,9988.9443359375,25959.015625,7797.876953125,24938.583984375,2255.439697265625,3582.636474609375,3610.451904296875,6677.3095703125,3665.288330078125,12689.431640625,-3263.950439453125,5076.7265625,0.0,18543.40234375,1727.739990234375,21123.08984375,14583.2705078125,6319.681640625,9447.7333984375,18951.09765625,25524.296875,12311.935546875,14984.607421875,16261.736328125,4063.447509765625,24398.16796875,-6121.0,-0.0,830.4913940429688,9478.728515625,4317.76025390625,20464.26171875,13403.09765625,8630.7529296875,20522.275390625,7590.45263671875,8793.671875,3844.10205078125,-688.2349853515625,19388.994140625,4935.2646484375,14330.5458984375,5923.1123046875,2864.99658203125,9034.474609375,10209.083984375,410.0799560546875,4093.64697265625,-1110.23583984375,10900.4970703125,6.357828617095947,2992.153076171875,-329.8123779296875,2975.4638671875,2638.4990234375,19592.443359375,2791.881591796875,9580.453125,200.2716064453125,7762.1142578125,22608.439453125,18698.373046875,13980.865234375,-0.0,-49456.7578125,16009.0126953125,5920.72802734375,0.0,6071.7265625,0.0,0.0
11398.7919921875,9988.1484375,25948.68359375,7786.7509765625,24925.8671875,2240.340087890625,3564.357666015625,3598.531005859375,6666.978515625,3656.54638671875,12675.921875,-3278.25537109375,5087.8525390625,0.0,18540.224609375,1721.382080078125,21115.14453125,14569.759765625,6306.96630859375,9440.5810546875,18938.3828125,25515.556640625,12293.65625,14972.6865234375,16250.6103515625,4049.936767578125,24396.578125,-6136.09912109375,-0.0,812.212646484375,9469.19140625,4306.63427734375,20455.51953125,13393.5615234375,8617.2421875,20511.150390625,7575.35302734375,8783.3408203125,3835.3603515625,-697.771728515625,19378.662109375,4922.548828125,14313.0615234375,5909.6015625,2851.486328125,9024.1435546875,10202.7255859375,398.9537658691406,4100.0048828125,-1128.5146484375,10886.1923828125,-3.9736428260803223,2988.974365234375,-354.4489440917969,2965.92724609375,2613.067626953125,19600.390625,2776.78173828125,9574.095703125,189.9401397705078,7747.80908203125,22595.724609375,18688.04296875,13973.712890625,-0.0,-49475.03125,16004.244140625,5908.01220703125,0.0,6068.5478515625,0.0,0.0
11404.35546875,10000.0693359375,25951.06640625,7789.134765625,24936.19921875,2241.92919921875,3568.33154296875,3601.7099609375,6670.95166015625,3662.904052734375,12675.921875,-3274.28173828125,5095.0048828125,0.0,18547.376953125,1726.1505126953125,21120.70703125,14574.52734375,6309.3505859375,9446.14453125,18943.15234375,25520.32421875,12296.041015625,14972.6865234375,16256.9677734375,4052.321044921875,24413.267578125,-6134.51025390625,-0.0,809.8284301757812,9474.75390625,4308.2236328125,20460.287109375,13397.5341796875,8622.009765625,20513.53515625,7578.53173828125,8784.134765625,3840.128662109375,-703.3348388671875,19381.841796875,4923.34375,14320.2138671875,5912.78076171875,2853.07568359375,9026.52734375,10198.751953125,409.28521728515625,4102.388671875,-1127.7198486328125,10890.9609375,-2.384185791015625,2991.3583984375,-360.8067932128906,2957.97998046875,2615.451904296875,19603.5703125,2776.78173828125,9580.453125,195.50323486328125,7759.72998046875,22599.697265625,18693.60546875,13983.25,-0.0,-49475.828125,16005.0390625,5900.85986328125,0.0,6064.57373046875,0.0,0.0
11404.35546875,9989.73828125,25955.8359375,7795.49267578125,24935.404296875,2242.72412109375,3563.56298828125,3600.12060546875,6659.82568359375,3663.698974609375,12683.07421875,-3271.10302734375,5106.130859375,0.0,18540.224609375,1726.1505126953125,21119.9140625,14576.912109375,6306.96630859375,9442.169921875,18943.15234375,25521.9140625,12291.2724609375,14971.892578125,16260.1474609375,4056.294921875,24396.578125,-6136.09912109375,-0.0,809.03369140625,9473.1650390625,4309.0185546875,20458.69921875,13399.9189453125,8620.421875,20511.9453125,7574.55810546875,8782.5458984375,3854.433837890625,-724.79248046875,19387.404296875,4925.72802734375,14317.830078125,5911.98583984375,2845.923095703125,9024.9375,10195.5732421875,382.26446533203125,4095.236328125,-1124.5408935546875,10886.1923828125,-4.76837158203125,2990.563720703125,-367.9593505859375,2964.337646484375,2615.451904296875,19596.41796875,2775.1923828125,9570.916015625,200.2716064453125,7761.31982421875,22596.517578125,18690.427734375,13984.0439453125,-0.0,-49468.67578125,16002.6552734375,5894.501953125,0.0,6066.16357421875,0.0,0.0
11399.5869140625,9984.17578125,25960.603515625,7785.9560546875,24922.689453125,2241.134765625,3557.205078125,3596.941650390625,6655.0576171875,3657.341064453125,12694.9951171875,-3272.6923828125,5118.8466796875,0.0,18538.6328125,1721.382080078125,21116.734375,14569.759765625,6301.40283203125,9438.197265625,18939.17578125,25516.3515625,12283.3251953125,14967.91796875,16268.0947265625,4055.5,24381.478515625,-6136.89404296875,-0.0,810.6231689453125,9469.986328125,4309.0185546875,20458.69921875,13396.740234375,8614.0634765625,20507.177734375,7570.5849609375,8776.982421875,3848.87060546875,-706.5137329101562,19385.01953125,4928.11181640625,14309.0888671875,5910.396484375,2841.949462890625,9019.375,10207.494140625,378.2908020019531,4100.7998046875,-1122.15673828125,10882.21875,-9.5367431640625,2998.510986328125,-364.7804260253906,2979.4375,2614.6572265625,19597.2109375,2772.80810546875,9573.30078125,192.32432556152344,7754.96142578125,22590.955078125,18685.66015625,13976.8916015625,-0.0,-49473.4453125,16003.4501953125,5894.501953125,0.0,6062.984375,0.0,0.0
11396.408203125,9988.9443359375,25962.1953125,7789.134765625,24924.27734375,2241.92919921875,3562.768310546875,3596.941650390625,6660.6201171875,3659.72509765625,12694.9951171875,-3260.771484375,5124.41015625,0.0,18544.197265625,1719.792724609375,21120.70703125,14568.169921875,6304.58203125,9442.169921875,18939.97265625,25517.94140625,12285.708984375,14967.91796875,16274.4521484375,4056.294921875,24390.220703125,-6136.89404296875,-0.0,813.00732421875,9470.7802734375,4307.4287109375,20464.26171875,13398.330078125,8614.857421875,20510.35546875,7576.1474609375,8777.77734375,3843.3076171875,-675.519287109375,19383.4296875,4928.11181640625,14310.677734375,5910.396484375,2847.512451171875,9022.5537109375,10212.26171875,419.61669921875,4104.77294921875,-1121.362060546875,10887.7822265625,-7.9472856521606445,2994.537353515625,-353.65423583984375,2988.974365234375,2624.988525390625,19601.98046875,2772.013427734375,9580.453125,193.11904907226562,7750.98779296875,22593.33984375,18688.837890625,13981.66015625,-0.0,-49473.4453125,16006.6279296875,5895.29638671875,0.0,6067.7529296875,0.0,0.0
11400.3818359375,9993.712890625,25954.24609375,7810.5927734375,24918.71484375,2247.492431640625,3561.178955078125,3600.915283203125,6655.85205078125,3660.519775390625,12678.3056640625,-3266.33447265625,5106.92578125,0.0,18537.044921875,1723.766357421875,21123.88671875,14572.1435546875,6305.37646484375,9440.5810546875,18939.97265625,25522.708984375,12284.9150390625,14971.0966796875,16253.7900390625,4069.80517578125,24388.630859375,-6132.1259765625,-0.0,810.6231689453125,9473.9599609375,4308.2236328125,20461.08203125,13403.892578125,8613.2685546875,20513.53515625,7575.35302734375,8781.7509765625,3860.79150390625,-669.9561767578125,19376.27734375,4934.4697265625,14306.7041015625,5914.3701171875,2845.12841796875,9023.3486328125,10184.447265625,455.3794860839844,4092.0576171875,-1114.20947265625,10884.6025390625,-1.5894571542739868,2977.053466796875,-348.09112548828125,2976.258544921875,2630.551513671875,19597.2109375,2779.960693359375,9570.1220703125,194.70851135253906,7757.345703125,22593.33984375,18688.837890625,13976.0966796875,-0.0,-49471.85546875,15999.4755859375,5894.501953125,0.0,6075.7001953125,0.0,0.0
11405.9453125,9992.9169921875,25947.09375,7811.3876953125,24913.9453125,2244.3134765625,3556.41064453125,3597.736328125,6649.494140625,3652.57275390625,12676.7158203125,-3273.487060546875,5087.0576171875,0.0,18531.48046875,1717.4085693359375,21119.1171875,14570.5537109375,6301.40283203125,9434.2236328125,18934.408203125,25520.32421875,12279.3515625,14965.5341796875,16249.8154296875,4064.241943359375,24383.068359375,-6134.51025390625,-0.0,812.212646484375,9468.396484375,4305.83935546875,20453.9296875,13399.9189453125,8608.5,20507.970703125,7569.7900390625,8779.3662109375,3831.386474609375,-673.9298706054688,19372.3046875,4931.291015625,14301.9365234375,5909.6015625,2841.949462890625,9018.580078125,10174.115234375,421.2061462402344,4084.905029296875,-1118.9779052734375,10879.833984375,-2.384185791015625,2977.053466796875,-361.60150146484375,2951.6220703125,2625.783203125,19584.498046875,2776.78173828125,9565.353515625,189.14540100097656,7759.72998046875,22588.572265625,18684.86328125,13964.970703125,-0.0,-49475.828125,16001.06640625,5892.91259765625,0.0,6060.60009765625,0.0,0.0
11401.1767578125,9997.685546875,25943.12109375,7804.23486328125,24914.7421875,2244.3134765625,3557.205078125,3596.941650390625,6651.87841796875,3652.57275390625,12677.5107421875,-3267.924072265625,5079.11083984375,0.0,18536.25,1712.64013671875,21115.14453125,14566.5810546875,6300.6083984375,9438.197265625,18930.435546875,25515.556640625,12277.7626953125,14965.5341796875,16250.6103515625,4055.5,24385.453125,-6132.9208984375,-0.0,819.3651733398438,9466.01171875,4299.48193359375,20450.75,13395.9453125,8606.9111328125,20504.79296875,7570.5849609375,8776.982421875,3804.365966796875,-688.2349853515625,19370.71484375,4929.701171875,14301.9365234375,5908.01220703125,2841.949462890625,9018.580078125,10177.294921875,384.6486511230469,4084.905029296875,-1119.7725830078125,10883.013671875,-2.384185791015625,2979.4375,-356.8331298828125,2944.469482421875,2626.578125,19586.0859375,2772.80810546875,9571.7119140625,189.14540100097656,7758.140625,22588.572265625,18686.453125,13964.17578125,-0.0,-49471.0625,16005.0390625,5900.06494140625,0.0,6064.57373046875,0.0,0.0
11404.35546875,10002.4541015625,25955.041015625,7812.97705078125,24926.662109375,2249.876708984375,3566.741943359375,3606.478515625,6663.00439453125,3662.904052734375,12690.2265625,-3263.15576171875,5096.59423828125,0.0,18547.376953125,1724.56103515625,21121.501953125,14569.759765625,6310.14501953125,9449.322265625,18939.17578125,25521.119140625,12286.50390625,14973.4814453125,16267.2998046875,4027.6845703125,24402.140625,-6124.17822265625,-0.0,831.2861328125,9471.576171875,4304.25,20460.287109375,13402.302734375,8618.037109375,20513.53515625,7580.12158203125,8787.314453125,3826.6181640625,-696.9769897460938,19380.25,4932.88037109375,14314.6513671875,5915.9599609375,2851.486328125,9027.322265625,10203.5205078125,410.87469482421875,4103.978515625,-1115.7989501953125,10894.9345703125,5.563100337982178,2987.384765625,-344.11749267578125,2972.284912109375,2635.320068359375,19598.0078125,2778.37109375,9582.8369140625,197.88742065429688,7759.72998046875,22595.724609375,18694.400390625,13976.8916015625,-0.0,-49467.0859375,16011.396484375,5907.21728515625,0.0,6068.5478515625,0.0,0.0
11404.35546875,10011.1962890625,25956.630859375,7824.103515625,24930.634765625,2261.002685546875,3570.715576171875,3615.22021484375,6663.00439453125,3668.46728515625,12683.8681640625,-3247.260986328125,5102.15771484375,0.0,18545.78515625,1741.2503662109375,21127.06640625,14573.7333984375,6317.29736328125,9451.70703125,18945.53515625,25529.06640625,12292.0673828125,14983.017578125,16261.736328125,4056.294921875,24406.91015625,-6111.462890625,-0.0,841.6175537109375,9478.728515625,4311.40283203125,20463.466796875,13409.455078125,8622.8056640625,20523.0703125,7585.68408203125,8796.0556640625,3834.5654296875,-689.8244018554688,19382.634765625,4940.82763671875,14317.0361328125,5927.0859375,2856.254638671875,9035.26953125,10209.8779296875,434.716552734375,4103.978515625,-1106.26220703125,10898.11328125,19.073486328125,2979.4375,-356.0384216308594,2966.7216796875,2645.651611328125,19601.98046875,2796.64990234375,9583.6328125,208.21888732910156,7761.31982421875,22603.669921875,18699.96484375,13980.865234375,-0.0,-49449.60546875,16007.423828125,5914.3701171875,0.0,6069.34228515625,0.0,0.0
11403.560546875,10005.6337890625,25959.810546875,7840.79248046875,24928.251953125,2273.718505859375,3565.947265625,3621.578125,6648.69921875,3668.46728515625,12647.3115234375,-3242.49267578125,5095.7998046875,0.0,18532.275390625,1750.787109375,21135.01171875,14584.859375,6318.88720703125,9442.9658203125,18947.125,25538.603515625,12295.24609375,14989.3759765625,16259.3515625,4090.468017578125,24392.60546875,-6103.515625,-0.0,830.4913940429688,9485.880859375,4316.17138671875,20469.03125,13418.9921875,8623.599609375,20530.224609375,7584.8896484375,8800.029296875,3824.23388671875,-673.1351318359375,19383.4296875,4957.51708984375,14312.267578125,5936.62255859375,2851.486328125,9038.4482421875,10208.2890625,453.7900390625,4088.083740234375,-1095.9306640625,10887.7822265625,29.404958724975586,2972.284912109375,-373.5224304199219,2970.695556640625,2649.625,19594.03515625,2808.57080078125,9567.7373046875,214.57672119140625,7759.72998046875,22608.439453125,18699.169921875,13972.123046875,-0.0,-49440.06640625,15993.9140625,5933.443359375,0.0,6074.1103515625,0.0,0.0
11395.61328125,9998.48046875,25962.1953125,7838.40869140625,24929.841796875,2271.33447265625,3566.741943359375,3617.6044921875,6655.85205078125,3668.46728515625,12634.5947265625,-3247.260986328125,5107.720703125,0.0,18537.044921875,1742.0450439453125,21132.626953125,14588.0380859375,6318.09228515625,9449.322265625,18947.919921875,25537.013671875,12296.041015625,14986.9921875,16272.068359375,4088.083740234375,24392.60546875,-6109.0791015625,-0.0,831.2861328125,9484.291015625,4311.40283203125,20468.234375,13415.8134765625,8625.984375,20527.83984375,7584.8896484375,8798.4404296875,3813.902587890625,-677.1087646484375,19389.787109375,4955.1328125,14313.857421875,5931.8544921875,2853.870361328125,9035.26953125,10197.95703125,446.6374816894531,4092.0576171875,-1093.5465087890625,10890.166015625,26.226043701171875,2971.490234375,-356.8331298828125,2975.4638671875,2648.03564453125,19598.802734375,2800.62353515625,9572.505859375,207.42416381835938,7756.55126953125,22606.849609375,18699.169921875,13980.865234375,-0.0,-49440.06640625,15997.0908203125,5931.8544921875,0.0,6074.1103515625,0.0,0.0
11395.61328125,10007.22265625,25955.8359375,7820.923828125,24929.841796875,2260.2080078125,3569.126220703125,3615.22021484375,6666.978515625,3670.056640625,12667.1787109375,-3252.029296875,5106.92578125,0.0,18543.40234375,1736.4820556640625,21123.88671875,14577.7060546875,6316.5029296875,9456.4755859375,18943.9453125,25524.296875,12296.041015625,14981.4287109375,16272.068359375,4084.1103515625,24395.78515625,-6113.84716796875,-0.0,839.2333984375,9478.728515625,4310.60791015625,20462.671875,13405.482421875,8622.8056640625,20519.09765625,7586.47900390625,8796.0556640625,3813.902587890625,-696.9769897460938,19387.404296875,4937.64892578125,14314.6513671875,5925.49658203125,2858.638671875,9034.474609375,10176.4990234375,434.716552734375,4093.64697265625,-1098.31494140625,10893.3447265625,22.25240135192871,2973.07958984375,-337.7596435546875,2965.92724609375,2642.472412109375,19598.0078125,2795.855224609375,9580.453125,204.24525451660156,7749.39892578125,22603.669921875,18699.96484375,13983.25,-0.0,-49449.60546875,16003.4501953125,5910.396484375,0.0,6076.49462890625,0.0,0.0
11410.712890625,10008.017578125,25956.630859375,7814.56640625,24937.787109375,2264.181884765625,3579.45751953125,3623.96240234375,6678.1044921875,3680.38818359375,12679.89453125,-3256.003173828125,5119.6416015625,0.0,18549.76171875,1744.42919921875,21131.833984375,14580.8857421875,6322.86083984375,9466.8076171875,18951.09765625,25530.65625,12304.783203125,14988.58203125,16280.8095703125,4092.85205078125,24403.73046875,-6107.4892578125,-0.0,845.5912475585938,9484.291015625,4315.37646484375,20471.4140625,13415.8134765625,8629.1630859375,20524.66015625,7593.6318359375,8804.7978515625,3836.94970703125,-669.1614990234375,19388.19921875,4946.390625,14322.5986328125,5932.64892578125,2866.5859375,9043.216796875,10184.447265625,443.45855712890625,4104.77294921875,-1091.162353515625,10900.4970703125,30.19968605041504,2981.82177734375,-335.3754577636719,2976.258544921875,2644.06201171875,19598.802734375,2799.828857421875,9589.1953125,218.5503692626953,7740.65625,22610.822265625,18707.91015625,13996.7607421875,-0.0,-49456.7578125,16011.396484375,5915.9599609375,0.0,6093.18408203125,0.0,0.0
11406.7392578125,9986.5595703125,25946.298828125,7801.8505859375,24927.45703125,2249.876708984375,3566.741943359375,3610.451904296875,6656.646484375,3666.0830078125,12670.357421875,-3259.181884765625,5106.92578125,0.0,18538.6328125,1726.9453125,21120.70703125,14571.349609375,6310.14501953125,9448.5283203125,18939.17578125,25517.94140625,12293.65625,14975.0712890625,16266.50390625,4071.39453125,24394.193359375,-6118.61572265625,-0.0,832.8755493164062,9472.3701171875,4304.25,20460.287109375,13404.6865234375,8618.83203125,20510.35546875,7580.12158203125,8789.6982421875,3835.3603515625,-680.2876586914062,19377.8671875,4934.4697265625,14313.0615234375,5916.75439453125,2852.28076171875,9028.9111328125,10184.447265625,426.7692565917969,4098.41552734375,-1110.23583984375,10889.37109375,15.894571304321289,2973.07958984375,-354.4489440917969,2963.54296875,2624.988525390625,19588.470703125,2784.72900390625,9573.30078125,204.24525451660156,7743.83544921875,22598.107421875,18692.015625,13979.275390625,-0.0,-49459.93359375,15991.529296875,5910.396484375,0.0,6077.28955078125,0.0,0.0
11408.3291015625,9985.7646484375,25954.24609375,7815.36083984375,24921.89453125,2249.081787109375,3563.56298828125,3608.06787109375,6647.10986328125,3660.519775390625,12672.7421875,-3253.618896484375,5088.6474609375,0.0,18534.66015625,1726.1505126953125,21118.322265625,14573.7333984375,6306.96630859375,9437.4013671875,18935.998046875,25517.14453125,12291.2724609375,14973.4814453125,16251.4052734375,4067.4208984375,24388.630859375,-6120.205078125,-0.0,830.4913940429688,9470.7802734375,4302.66064453125,20457.109375,13405.482421875,8614.857421875,20510.35546875,7577.7373046875,8784.9306640625,3833.770751953125,-677.1087646484375,19376.27734375,4933.67529296875,14310.677734375,5917.54931640625,2847.512451171875,9025.7333984375,10205.109375,435.5112609863281,4089.673583984375,-1113.414794921875,10884.6025390625,15.09984302520752,2967.5166015625,-347.29638671875,2957.97998046875,2628.16748046875,19587.67578125,2784.72900390625,9568.5322265625,200.2716064453125,7765.29296875,22597.3125,18688.837890625,13964.17578125,-0.0,-49451.98828125,15993.9140625,5911.98583984375,0.0,6072.52099609375,0.0,0.0
11403.560546875,10003.2490234375,25961.3984375,7836.81884765625,24926.662109375,2265.771240234375,3574.689208984375,3616.01513671875,6663.79931640625,3665.288330078125,12686.2529296875,-3242.49267578125,5091.826171875,0.0,18546.58203125,1738.0714111328125,21126.26953125,14586.4482421875,6315.7080078125,9447.7333984375,18942.35546875,25526.681640625,12299.2197265625,14982.2236328125,16251.4052734375,4081.72607421875,24395.78515625,-6105.89990234375,-0.0,838.4386596679688,9478.728515625,4306.63427734375,20464.26171875,13414.2236328125,8621.2158203125,20518.302734375,7584.8896484375,8794.466796875,3831.386474609375,-656.44580078125,19381.841796875,4946.390625,14315.4462890625,5929.47021484375,2859.433349609375,9034.474609375,10214.646484375,452.2005615234375,4089.673583984375,-1093.5465087890625,10894.1396484375,24.636587142944336,2972.284912109375,-326.6334533691406,2969.10595703125,2639.293701171875,19598.802734375,2803.0078125,9583.6328125,202.65579223632812,7770.0615234375,22605.26171875,18699.169921875,13969.7392578125,-0.0,-49445.62890625,16012.9873046875,5915.9599609375,0.0,6070.13720703125,0.0,0.0
11395.61328125,10006.427734375,25957.42578125,7831.255859375,24925.07421875,2266.56591796875,3573.89453125,3615.22021484375,6669.3623046875,3662.109375,12702.1474609375,-3243.287353515625,5095.7998046875,0.0,18548.169921875,1742.0450439453125,21127.06640625,14582.474609375,6313.32421875,9450.912109375,18939.97265625,25525.888671875,12296.8359375,14979.8388671875,16249.8154296875,4083.3154296875,24395.78515625,-6106.69482421875,-0.0,838.4386596679688,9477.138671875,4303.45556640625,20463.466796875,13414.2236328125,8619.6259765625,20515.91796875,7584.8896484375,8792.0830078125,3829.00244140625,-651.6774291992188,19380.25,4948.77490234375,14313.857421875,5929.47021484375,2860.228271484375,9034.474609375,10209.083984375,437.89544677734375,4087.289306640625,-1086.3939208984375,10894.1396484375,22.25240135192871,2983.4111328125,-318.6861572265625,2972.284912109375,2642.472412109375,19598.802734375,2797.444580078125,9586.0166015625,201.0663299560547,7761.31982421875,22602.08203125,18698.373046875,13973.712890625,-0.0,-49446.421875,16009.0126953125,5914.3701171875,0.0,6062.189453125,0.0,0.0
11409.9189453125,10005.6337890625,25958.21875,7829.666015625,24926.662109375,2264.181884765625,3571.51025390625,3615.22021484375,6663.00439453125,3665.288330078125,12706.1201171875,-3242.49267578125,5098.18408203125,0.0,18539.4296875,1742.0450439453125,21130.244140625,14577.7060546875,6313.32421875,9449.322265625,18943.15234375,25526.681640625,12296.8359375,14978.25,16255.37890625,4088.083740234375,24393.400390625,-6109.0791015625,-0.0,845.5912475585938,9477.138671875,4305.83935546875,20465.8515625,13416.607421875,8620.421875,20516.71484375,7584.8896484375,8791.287109375,3838.5390625,-653.2669067382812,19381.841796875,4951.1591796875,14313.0615234375,5928.67529296875,2857.04931640625,9034.474609375,10204.3154296875,422.0008850097656,4092.0576171875,-1091.95703125,10891.7548828125,19.868215560913086,2991.3583984375,-316.3019714355469,2975.4638671875,2647.240966796875,19593.23828125,2795.855224609375,9577.2744140625,205.83470153808594,7765.29296875,22599.697265625,18696.78515625,13974.5078125,-0.0,-49444.0390625,16001.06640625,5912.78076171875,0.0,6075.7001953125,0.0,0.0
11418.66015625,9992.123046875,25958.21875,7833.64013671875,24926.662109375,2258.61865234375,3568.33154296875,3612.836181640625,6661.4150390625,3667.67236328125,12698.173828125,-3243.287353515625,5099.7734375,0.0,18539.4296875,1741.2503662109375,21130.244140625,14571.349609375,6311.73486328125,9450.912109375,18939.97265625,25524.296875,12297.6298828125,14975.865234375,16259.3515625,4079.341796875,24394.98828125,-6112.25732421875,-0.0,848.7701416015625,9476.34375,4307.4287109375,20465.8515625,13416.607421875,8618.037109375,20512.73828125,7584.09521484375,8789.6982421875,3837.744384765625,-657.2405395507812,19379.45703125,4941.6220703125,14311.47265625,5926.291015625,2856.254638671875,9032.8857421875,10198.751953125,420.41143798828125,4095.236328125,-1103.083251953125,10891.7548828125,17.48402976989746,2999.3056640625,-334.58074951171875,2974.669189453125,2646.4462890625,19594.03515625,2799.828857421875,9576.4794921875,206.6294403076172,7762.9091796875,22598.107421875,18695.1953125,13980.865234375,-0.0,-49443.24609375,16001.859375,5910.396484375,0.0,6082.85302734375,0.0,0.0
11413.09765625,9970.6650390625,25947.888671875,7825.6923828125,24921.099609375,2249.081787109375,3567.53662109375,3608.06787109375,6673.3359375,3666.877685546875,12677.5107421875,-3254.41357421875,5098.978515625,0.0,18538.6328125,1738.0714111328125,21120.70703125,14564.9912109375,6306.17138671875,9458.859375,18933.615234375,25513.966796875,12294.4521484375,14967.91796875,16252.994140625,4066.6259765625,24391.80859375,-6119.41015625,-0.0,832.8755493164062,9467.6015625,4298.68701171875,20456.314453125,13406.2763671875,8613.2685546875,20502.408203125,7579.32666015625,8784.9306640625,3825.028564453125,-681.8771362304688,19370.71484375,4930.49609375,14308.29296875,5919.93310546875,2858.638671875,9028.1171875,10177.294921875,425.1798095703125,4091.2626953125,-1113.414794921875,10891.7548828125,13.51038646697998,2998.510986328125,-345.7069396972656,2969.90087890625,2636.11474609375,19590.85546875,2787.907958984375,9582.04296875,201.0663299560547,7750.98779296875,22591.75,18693.60546875,14004.70703125,-0.0,-49455.9609375,16003.4501953125,5904.0390625,0.0,6079.673828125,0.0,0.0
11409.9189453125,9992.9169921875,25955.8359375,7826.4873046875,24925.8671875,2251.466064453125,3573.099853515625,3609.6572265625,6690.8203125,3670.8515625,12683.8681640625,-3258.38720703125,5107.720703125,0.0,18548.169921875,1738.8662109375,21123.88671875,14570.5537109375,6312.529296875,9470.7802734375,18937.587890625,25517.14453125,12300.0146484375,14970.302734375,16254.5830078125,4064.241943359375,24394.98828125,-6121.0,-0.0,826.5177612304688,9471.576171875,4301.0712890625,20461.876953125,13407.8662109375,8617.2421875,20505.5859375,7583.30029296875,8788.9033203125,3824.23388671875,-701.745361328125,19379.45703125,4935.2646484375,14312.267578125,5922.3173828125,2866.5859375,9031.2958984375,10179.6787109375,434.716552734375,4093.64697265625,-1115.7989501953125,10898.9072265625,14.30511474609375,3003.279541015625,-351.2700500488281,2975.4638671875,2624.988525390625,19598.0078125,2785.523681640625,9593.9638671875,202.65579223632812,7748.60400390625,22595.724609375,18700.7578125,14014.244140625,-0.0,-49467.87890625,16010.6025390625,5905.62841796875,0.0,6073.31591796875,0.0,0.0
11400.3818359375,10011.1962890625,25967.755859375,7834.4345703125,24936.994140625,2264.9765625,3575.484130859375,3616.01513671875,6682.078125,3672.440673828125,12698.9677734375,-3250.43994140625,5104.5419921875,0.0,18546.58203125,1739.660888671875,21134.21875,14579.2958984375,6318.88720703125,9463.6279296875,18950.3046875,25529.06640625,12308.7568359375,14979.8388671875,16287.1689453125,4080.13671875,24398.962890625,-6112.25732421875,-0.0,836.8492431640625,9483.4970703125,4312.197265625,20473.798828125,13418.9921875,8627.57421875,20519.09765625,7587.27392578125,8796.8515625,3841.718017578125,-676.3140258789062,19393.76171875,4947.98046875,14321.009765625,5931.8544921875,2868.97021484375,9036.8583984375,10201.13671875,437.89544677734375,4105.56787109375,-1097.520263671875,10898.9072265625,21.457672119140625,2999.3056640625,-367.9593505859375,2970.695556640625,2629.7568359375,19594.828125,2793.47119140625,9590.78515625,209.0136260986328,7745.4248046875,22603.669921875,18703.142578125,13982.455078125,-0.0,-49463.11328125,16009.8076171875,5914.3701171875,0.0,6081.26318359375,0.0,0.0
11395.61328125,10016.7587890625,25967.755859375,7834.4345703125,24938.583984375,2268.1552734375,3572.304931640625,3616.01513671875,6666.978515625,3670.056640625,12698.9677734375,-3248.0556640625,5103.7470703125,0.0,18544.197265625,1736.4820556640625,21137.396484375,14581.6806640625,6317.29736328125,9451.70703125,18952.6875,25532.24609375,12309.55078125,14980.6337890625,16282.400390625,4082.52099609375,24400.552734375,-6108.2841796875,-0.0,847.1806640625,9484.291015625,4314.58154296875,20476.18359375,13422.171875,8628.3681640625,20521.482421875,7587.27392578125,8796.0556640625,3851.254638671875,-654.8563842773438,19392.966796875,4951.1591796875,14320.2138671875,5932.64892578125,2863.4072265625,9035.26953125,10221.0048828125,433.1270751953125,4107.1572265625,-1091.95703125,10895.7294921875,25.43131446838379,2993.74267578125,-362.396240234375,2979.4375,2636.909423828125,19598.0078125,2791.881591796875,9584.4267578125,209.808349609375,7743.04052734375,22604.46484375,18699.169921875,13964.970703125,-0.0,-49457.55078125,16005.8349609375,5923.1123046875,0.0,6089.21044921875,0.0,0.0
11398.7919921875,10027.8857421875,25964.578125,7819.3349609375,24930.634765625,2260.2080078125,3563.56298828125,3607.273193359375,6650.2890625,3660.519775390625,12684.6630859375,-3256.7978515625,5102.95263671875,0.0,18537.044921875,1733.3031005859375,21131.0390625,14579.2958984375,6306.96630859375,9438.197265625,18944.740234375,25524.296875,12300.0146484375,14972.6865234375,16260.9423828125,4076.162841796875,24396.578125,-6111.462890625,-0.0,839.2333984375,9480.3173828125,4305.83935546875,20471.4140625,13414.2236328125,8622.009765625,20513.53515625,7580.12158203125,8788.9033203125,3843.3076171875,-662.0089111328125,19385.01953125,4943.2119140625,14311.47265625,5926.291015625,2851.486328125,9026.52734375,10221.798828125,425.9745178222656,4097.62060546875,-1094.34130859375,10886.986328125,19.073486328125,2996.921630859375,-341.7333068847656,2981.82177734375,2634.525390625,19596.41796875,2780.75537109375,9572.505859375,202.65579223632812,7762.9091796875,22595.724609375,18690.427734375,13953.0498046875,-0.0,-49462.3203125,15995.5029296875,5914.3701171875,0.0,6079.673828125,0.0,0.0
11409.123046875,10035.0380859375,25969.34765625,7817.7451171875,24935.404296875,2264.9765625,3561.178955078125,3608.862548828125,6647.10986328125,3660.519775390625,12675.1259765625,-3248.0556640625,5100.568359375,0.0,18531.48046875,1736.4820556640625,21131.833984375,14583.2705078125,6307.7607421875,9438.197265625,18947.125,25527.4765625,12299.2197265625,14974.2763671875,16267.2998046875,4077.752685546875,24397.373046875,-6105.89990234375,-0.0,841.6175537109375,9483.4970703125,4304.25,20474.591796875,13415.0185546875,8625.984375,20515.123046875,7579.32666015625,8788.1083984375,3840.128662109375,-667.572021484375,19392.171875,4943.2119140625,14312.267578125,5927.880859375,2849.896728515625,9027.322265625,10195.5732421875,419.61669921875,4100.7998046875,-1084.8045654296875,10883.80859375,24.636587142944336,3010.431884765625,-332.99127197265625,2965.92724609375,2641.677734375,19591.650390625,2786.318603515625,9561.3798828125,203.4505157470703,7782.77734375,22597.3125,18691.220703125,13960.2021484375,-0.0,-49459.140625,15998.681640625,5915.1650390625,0.0,6077.28955078125,0.0,0.0
11415.4814453125,10032.654296875,25970.935546875,7812.97705078125,24932.2265625,2256.234375,3560.384033203125,3608.06787109375,6651.87841796875,3658.1357421875,12694.19921875,-3236.134765625,5098.978515625,0.0,18533.072265625,1739.660888671875,21129.44921875,14579.2958984375,6306.17138671875,9439.7861328125,18945.53515625,25525.888671875,12297.6298828125,14972.6865234375,16264.9150390625,4072.984130859375,24394.193359375,-6107.4892578125,-0.0,848.7701416015625,9479.5224609375,4301.0712890625,20472.208984375,13411.044921875,8622.009765625,20512.73828125,7579.32666015625,8786.51953125,3846.486328125,-677.1087646484375,19392.966796875,4934.4697265625,14310.677734375,5923.1123046875,2851.486328125,9026.52734375,10186.8310546875,414.0535888671875,4096.03125,-1093.5465087890625,10884.6025390625,24.636587142944336,3006.458251953125,-325.8387145996094,2981.02685546875,2648.830322265625,19588.470703125,2793.47119140625,9566.1474609375,201.86106872558594,7784.36669921875,22595.724609375,18691.220703125,13961.7919921875,-0.0,-49449.60546875,15998.681640625,5909.6015625,0.0,6067.7529296875,0.0,0.0
11413.09765625,10025.5009765625,25962.98828125,7813.771484375,24929.841796875,2253.850341796875,3556.41064453125,3605.68359375,6643.93115234375,3650.983154296875,12696.583984375,-3241.697998046875,5101.36279296875,0.0,18533.072265625,1739.660888671875,21126.26953125,14574.52734375,6302.9921875,9431.8388671875,18943.15234375,25523.50390625,12293.65625,14970.302734375,16256.173828125,4070.60009765625,24393.400390625,-6113.05224609375,-0.0,834.4650268554688,9477.9326171875,4294.71337890625,20467.439453125,13412.634765625,8618.83203125,20511.9453125,7576.1474609375,8783.3408203125,3836.155029296875,-688.2349853515625,19387.404296875,4940.033203125,14309.8828125,5917.54931640625,2847.512451171875,9021.7587890625,10197.95703125,421.2061462402344,4097.62060546875,-1104.6727294921875,10883.80859375,19.868215560913086,2979.4375,-320.275634765625,2982.616455078125,2640.08837890625,19590.05859375,2793.47119140625,9564.55859375,197.0926971435547,7778.80322265625,22594.9296875,18687.248046875,13950.6650390625,-0.0,-49452.78125,15996.2978515625,5911.19140625,0.0,6059.0107421875,0.0,0.0
11421.83984375,10012.7861328125,25962.98828125,7812.97705078125,24929.841796875,2252.260986328125,3556.41064453125,3607.273193359375,6641.546875,3654.956787109375,12691.0205078125,-3252.823974609375,5096.59423828125,0.0,18533.865234375,1738.8662109375,21128.654296875,14579.2958984375,6302.19775390625,9431.044921875,18946.330078125,25525.09375,12296.041015625,14970.302734375,16255.37890625,4065.83154296875,24394.193359375,-6114.6416015625,-0.0,833.6702880859375,9481.1123046875,4295.5078125,20470.619140625,13413.4296875,8619.6259765625,20512.73828125,7577.7373046875,8784.134765625,3823.439453125,-679.492919921875,19388.19921875,4936.85400390625,14309.0888671875,5917.54931640625,2848.307373046875,9023.3486328125,10213.0576171875,408.4905090332031,4096.826171875,-1112.6199951171875,10884.6025390625,19.868215560913086,2973.07958984375,-322.6598205566406,2977.053466796875,2640.08837890625,19590.05859375,2797.444580078125,9562.96875,202.65579223632812,7774.830078125,22594.9296875,18684.86328125,13953.8447265625,-0.0,-49452.78125,15995.5029296875,5916.75439453125,0.0,6056.626953125,0.0,0.0
11426.6083984375,10004.837890625,25961.3984375,7807.41357421875,24919.509765625,2247.492431640625,3554.0263671875,3601.7099609375,6647.10986328125,3650.983154296875,12687.046875,-3256.003173828125,5091.03173828125,0.0,18533.865234375,1727.739990234375,21126.26953125,14577.7060546875,6299.01904296875,9434.2236328125,18939.97265625,25519.529296875,12292.0673828125,14966.3291015625,16256.9677734375,4057.08935546875,24390.220703125,-6119.41015625,-0.0,836.0545043945312,9476.34375,4294.71337890625,20466.646484375,13407.8662109375,8614.0634765625,20507.177734375,7571.37939453125,8779.3662109375,3827.412841796875,-674.724609375,19377.8671875,4929.701171875,14303.525390625,5914.3701171875,2846.7177734375,9017.78515625,10214.646484375,379.0855407714844,4084.905029296875,-1118.18310546875,10883.80859375,15.894571304321289,2987.384765625,-327.4281921386719,2970.695556640625,2632.935791015625,19585.291015625,2791.881591796875,9567.7373046875,193.11904907226562,7774.03515625,22589.365234375,18683.275390625,13958.61328125,-0.0,-49451.98828125,16001.06640625,5906.4228515625,0.0,6055.037109375,0.0,0.0
11417.8662109375,10006.427734375,25959.810546875,7815.36083984375,24918.71484375,2246.69775390625,3554.821044921875,3600.12060546875,6644.7255859375,3643.83056640625,12679.89453125,-3256.7978515625,5083.87890625,0.0,18533.865234375,1721.382080078125,21125.474609375,14572.9375,6297.4296875,9427.865234375,18938.3828125,25519.529296875,12291.2724609375,14963.9443359375,16261.736328125,4059.4736328125,24394.193359375,-6121.0,-0.0,830.4913940429688,9476.34375,4293.91845703125,20465.0546875,13407.8662109375,8613.2685546875,20506.3828125,7570.5849609375,8777.77734375,3830.591796875,-682.671875,19376.27734375,4934.4697265625,14303.525390625,5911.98583984375,2844.333740234375,9013.0166015625,10212.26171875,402.1326599121094,4085.699462890625,-1116.59375,10880.6298828125,11.126200675964355,2998.510986328125,-332.1965637207031,2975.4638671875,2625.783203125,19584.498046875,2784.72900390625,9566.943359375,184.3770294189453,7772.44580078125,22587.775390625,18680.890625,13945.8974609375,-0.0,-49453.57421875,16000.2705078125,5901.65478515625,0.0,6052.65283203125,0.0,0.0
11401.1767578125,10004.0439453125,25947.888671875,7816.1552734375,24919.509765625,2245.903076171875,3554.821044921875,3598.531005859375,6644.7255859375,3638.267578125,12664.0009765625,-3256.003173828125,5081.49462890625,0.0,18536.25,1721.382080078125,21119.9140625,14564.1962890625,6295.04541015625,9426.2763671875,18935.203125,25514.76171875,12290.4775390625,14962.35546875,16249.021484375,4057.88427734375,24400.552734375,-6122.5888671875,-0.0,832.8755493164062,9469.986328125,4285.97119140625,20458.69921875,13405.482421875,8610.0888671875,20502.408203125,7570.5849609375,8776.982421875,3816.286865234375,-689.8244018554688,19370.71484375,4929.701171875,14304.3203125,5911.19140625,2843.5390625,9009.837890625,10186.0361328125,422.7956237792969,4084.1103515625,-1116.59375,10883.013671875,8.74201488494873,2969.10595703125,-342.52801513671875,2969.90087890625,2624.19384765625,19578.93359375,2782.3447265625,9567.7373046875,178.0192108154297,7760.52490234375,22585.392578125,18678.5078125,13940.333984375,-0.0,-49455.1640625,16003.4501953125,5896.88623046875,0.0,6039.9375,0.0,0.0
11409.9189453125,10004.837890625,25951.06640625,7816.95068359375,24926.662109375,2253.0556640625,3563.56298828125,3603.29931640625,6653.4677734375,3643.035888671875,12672.7421875,-3256.7978515625,5087.8525390625,0.0,18541.017578125,1729.3294677734375,21123.08984375,14570.5537109375,6302.19775390625,9435.017578125,18939.17578125,25516.3515625,12296.8359375,14967.91796875,16245.046875,4059.4736328125,24415.650390625,-6113.84716796875,-0.0,837.6439208984375,9473.1650390625,4286.76611328125,20461.08203125,13407.8662109375,8615.6533203125,20503.998046875,7576.9423828125,8782.5458984375,3817.08154296875,-681.0823974609375,19374.689453125,4932.08544921875,14314.6513671875,5917.54931640625,2849.896728515625,9014.6064453125,10186.8310546875,429.94818115234375,4082.52099609375,-1110.23583984375,10894.1396484375,13.51038646697998,2966.7216796875,-343.32275390625,2962.748291015625,2628.962158203125,19578.93359375,2791.881591796875,9574.095703125,184.3770294189453,7754.96142578125,22591.75,18685.66015625,13949.076171875,-0.0,-49453.57421875,16003.4501953125,5900.85986328125,0.0,6031.990234375,0.0,0.0
11412.302734375,10011.990234375,25960.603515625,7818.53955078125,24937.787109375,2257.029296875,3572.304931640625,3608.06787109375,6655.0576171875,3648.598876953125,12678.3056640625,-3253.618896484375,5083.083984375,0.0,18541.8125,1738.0714111328125,21127.859375,14583.2705078125,6308.5556640625,9437.4013671875,18942.35546875,25521.119140625,12305.5771484375,14972.6865234375,16253.7900390625,4065.036865234375,24428.3671875,-6107.4892578125,-0.0,844.0017700195312,9477.9326171875,4292.3291015625,20469.03125,13413.4296875,8622.8056640625,20507.177734375,7584.8896484375,8786.51953125,3827.412841796875,-676.3140258789062,19384.2265625,4936.0595703125,14324.1884765625,5924.70166015625,2857.04931640625,9020.96484375,10197.1630859375,433.92181396484375,4078.547119140625,-1103.8780517578125,10903.67578125,18.278757095336914,2977.84814453125,-334.58074951171875,2955.595703125,2638.4990234375,19572.576171875,2803.802490234375,9574.890625,189.14540100097656,7754.1669921875,22598.107421875,18690.427734375,13949.076171875,-0.0,-49445.62890625,15999.4755859375,5911.98583984375,0.0,6034.3740234375,0.0,0.0
11408.3291015625,10008.017578125,25956.630859375,7814.56640625,24929.046875,2256.234375,3568.33154296875,3608.06787109375,6643.13671875,3645.420166015625,12686.2529296875,-3256.7978515625,5106.130859375,0.0,18533.865234375,1742.83984375,21124.681640625,14580.0908203125,6304.58203125,9427.865234375,18936.79296875,25518.736328125,12300.80859375,14968.712890625,16253.7900390625,4077.752685546875,24396.578125,-6107.4892578125,-0.0,836.8492431640625,9474.75390625,4289.150390625,20465.0546875,13410.2509765625,8617.2421875,20503.203125,7580.916015625,8783.3408203125,3829.00244140625,-686.6455078125,19380.25,4936.85400390625,14317.0361328125,5923.90673828125,2851.486328125,9020.1689453125,10197.95703125,425.1798095703125,4073.778564453125,-1103.8780517578125,10898.9072265625,19.073486328125,2988.974365234375,-343.32275390625,2968.311279296875,2648.03564453125,19569.396484375,2813.33935546875,9566.1474609375,191.5295867919922,7749.39892578125,22591.75,18684.068359375,13938.744140625,-0.0,-49447.21875,15993.9140625,5922.3173828125,0.0,6039.9375,0.0,0.0
11405.9453125,9997.685546875,25957.42578125,7813.771484375,24910.767578125,2256.234375,3555.61572265625,3608.862548828125,6640.75244140625,3653.3671875,12673.537109375,-3261.566162109375,5122.02587890625,0.0,18532.275390625,1746.018798828125,21121.501953125,14566.5810546875,6300.6083984375,9431.044921875,18932.8203125,25517.14453125,12291.2724609375,14967.1240234375,16255.37890625,4090.468017578125,24372.736328125,-6108.2841796875,-0.0,828.9019165039062,9467.6015625,4283.5869140625,20462.671875,13407.0712890625,8608.5,20500.818359375,7572.96875,8781.7509765625,3823.439453125,-693.0033569335938,19376.27734375,4938.44384765625,14297.9619140625,5923.1123046875,2845.12841796875,9021.7587890625,10186.0361328125,410.87469482421875,4099.21044921875,-1109.441162109375,10887.7822265625,20.66294288635254,2985.795166015625,-349.6805725097656,2967.5166015625,2657.572509765625,19591.650390625,2811.749755859375,9562.96875,198.68214416503906,7747.0146484375,22586.98046875,18680.890625,13950.6650390625,-0.0,-49462.3203125,15993.9140625,5927.880859375,0.0,6069.34228515625,0.0,0.0
11405.9453125,9984.17578125,25951.86328125,7809.00341796875,24905.205078125,2243.518798828125,3538.1318359375,3596.941650390625,6637.5732421875,3650.1884765625,12657.642578125,-3276.666015625,5109.31005859375,0.0,18529.095703125,1731.713623046875,21109.580078125,14553.8642578125,6290.27685546875,9428.66015625,18922.486328125,25504.431640625,12278.556640625,14954.4072265625,16246.6376953125,4061.063232421875,24366.37890625,-6124.97314453125,-0.0,813.8020629882812,9456.4755859375,4271.666015625,20453.134765625,13397.5341796875,8599.7578125,20488.896484375,7560.2529296875,8771.419921875,3817.08154296875,-704.9242553710938,19368.330078125,4924.93310546875,14283.6572265625,5908.01220703125,2834.796875,9012.22265625,10162.9892578125,400.543212890625,4098.41552734375,-1120.5673828125,10864.734375,7.9472856521606445,2972.284912109375,-364.7804260253906,2956.390380859375,2624.988525390625,19603.5703125,2776.78173828125,9558.9951171875,191.5295867919922,7738.27197265625,22575.85546875,18672.1484375,13957.0234375,-0.0,-49483.77734375,15992.3232421875,5899.2705078125,0.0,6079.673828125,0.0,0.0
11405.150390625,9991.328125,25947.888671875,7804.23486328125,24909.97265625,2234.77685546875,3542.10546875,3589.7890625,6641.546875,3644.62548828125,12675.1259765625,-3290.970947265625,5104.5419921875,0.0,18529.892578125,1708.66650390625,21108.78515625,14553.0703125,6290.27685546875,9429.455078125,18922.486328125,25498.8671875,12281.7353515625,14949.6396484375,16256.173828125,4035.631591796875,24375.916015625,-6140.0732421875,-0.0,802.6759033203125,9455.6806640625,4271.666015625,20451.544921875,13394.35546875,8601.34765625,20484.12890625,7561.0478515625,8766.6513671875,3804.365966796875,-700.9506225585938,19371.509765625,4915.39599609375,14286.8359375,5897.6806640625,2836.386474609375,9005.8642578125,10170.142578125,398.1590270996094,4100.7998046875,-1133.282958984375,10867.119140625,-2.384185791015625,2969.90087890625,-365.5751647949219,2967.5166015625,2589.225830078125,19599.595703125,2752.14501953125,9559.791015625,185.17176818847656,7735.09375,22575.060546875,18671.353515625,13957.818359375,-0.0,-49497.2890625,15994.70703125,5864.30224609375,0.0,6070.13720703125,0.0,0.0
11397.2021484375,9995.30078125,25945.505859375,7802.64501953125,24907.58984375,2230.80322265625,3546.873779296875,3586.610107421875,6646.31494140625,3644.62548828125,12683.8681640625,-3293.355224609375,5098.18408203125,0.0,18531.48046875,1698.3350830078125,21107.9921875,14556.2490234375,6291.0712890625,9430.2490234375,18922.486328125,25498.8671875,12285.708984375,14948.8447265625,16249.8154296875,4026.094970703125,24382.2734375,-6146.43115234375,-0.0,801.08642578125,9454.0908203125,4272.4609375,20451.544921875,13393.5615234375,8601.34765625,20481.744140625,7565.021484375,8766.6513671875,3801.186767578125,-715.2557373046875,19369.125,4910.6279296875,14289.2197265625,5894.501953125,2839.565185546875,9005.8642578125,10177.294921875,383.0591735839844,4093.64697265625,-1141.230224609375,10875.0654296875,-7.9472856521606445,2961.953369140625,-361.60150146484375,2970.695556640625,2579.68896484375,19594.828125,2746.58203125,9562.96875,184.3770294189453,7731.91455078125,22578.240234375,18674.53125,13957.818359375,-0.0,-49502.0546875,15997.88671875,5865.09716796875,0.0,6064.57373046875,0.0,0.0
11409.123046875,10005.6337890625,25952.658203125,7813.771484375,24914.7421875,2242.72412109375,3557.205078125,3596.146728515625,6651.08349609375,3650.983154296875,12689.431640625,-3275.871337890625,5102.95263671875,0.0,18534.66015625,1719.792724609375,21115.9375,14566.5810546875,6300.6083984375,9435.017578125,18929.640625,25507.609375,12296.041015625,14959.9716796875,16249.021484375,4042.7841796875,24391.015625,-6132.1259765625,-0.0,817.7757568359375,9462.8330078125,4279.61328125,20461.08203125,13403.892578125,8608.5,20491.28125,7572.96875,8776.982421875,3805.955078125,-720.0241088867188,19373.89453125,4922.548828125,14297.9619140625,5908.01220703125,2849.10205078125,9016.1962890625,10187.6259765625,375.1119079589844,4095.236328125,-1128.5146484375,10882.21875,4.76837158203125,2973.07958984375,-345.7069396972656,2973.874267578125,2603.53076171875,19595.623046875,2768.039794921875,9567.7373046875,197.0926971435547,7747.80908203125,22585.392578125,18681.68359375,13961.7919921875,-0.0,-49488.54296875,15998.681640625,5888.14404296875,0.0,6065.36865234375,0.0,0.0
11409.9189453125,10007.22265625,25956.630859375,7806.619140625,24919.509765625,2245.903076171875,3558.794677734375,3597.736328125,6643.93115234375,3650.1884765625,12691.0205078125,-3271.8974609375,5111.6943359375,0.0,18532.275390625,1718.9979248046875,21118.322265625,14573.7333984375,6300.6083984375,9431.044921875,18932.0234375,25510.787109375,12301.6044921875,14962.35546875,16254.5830078125,4046.758056640625,24396.578125,-6127.357421875,-0.0,829.6966552734375,9466.01171875,4276.4345703125,20461.876953125,13407.0712890625,8612.4736328125,20492.873046875,7572.96875,8775.3935546875,3812.31298828125,-719.2293701171875,19379.45703125,4928.11181640625,14300.3466796875,5911.19140625,2849.10205078125,9016.1962890625,10197.1630859375,388.6222839355469,4102.388671875,-1122.9515380859375,10882.21875,7.152557373046875,2979.4375,-347.29638671875,2976.258544921875,2611.47802734375,19594.03515625,2773.602783203125,9561.3798828125,196.29795837402344,7752.5771484375,22586.1875,18681.68359375,13953.0498046875,-0.0,-49477.41796875,15994.70703125,5893.70703125,0.0,6062.189453125,0.0,0.0
11407.5341796875,10004.837890625,25962.98828125,7813.771484375,24922.689453125,2250.67138671875,3561.178955078125,3602.504638671875,6651.87841796875,3658.1357421875,12687.046875,-3270.308349609375,5107.720703125,0.0,18533.865234375,1726.9453125,21123.08984375,14581.6806640625,6301.40283203125,9439.7861328125,18935.998046875,25513.171875,12307.9619140625,14964.740234375,16260.1474609375,4050.731689453125,24391.015625,-6121.79443359375,-0.0,828.107177734375,9471.576171875,4275.64013671875,20467.439453125,13410.2509765625,8614.857421875,20496.845703125,7575.35302734375,8778.572265625,3840.128662109375,-705.718994140625,19383.4296875,4928.11181640625,14302.73046875,5915.9599609375,2853.07568359375,9020.1689453125,10202.7255859375,406.1063232421875,4098.41552734375,-1114.20947265625,10884.6025390625,13.51038646697998,2980.232177734375,-351.2700500488281,2975.4638671875,2612.27294921875,19591.650390625,2778.37109375,9562.1748046875,200.2716064453125,7743.83544921875,22591.75,18684.068359375,13957.818359375,-0.0,-49473.4453125,15993.9140625,5904.83349609375,0.0,6062.984375,0.0,0.0
11411.5078125,10007.22265625,25966.962890625,7829.666015625,24923.482421875,2258.61865234375,3558.794677734375,3603.29931640625,6649.494140625,3649.393798828125,12681.484375,-3268.71875,5110.10498046875,0.0,18532.275390625,1730.1241455078125,21126.26953125,14582.474609375,6301.40283203125,9431.044921875,18940.767578125,25515.556640625,12311.935546875,14966.3291015625,16263.326171875,4057.08935546875,24388.630859375,-6113.84716796875,-0.0,832.080810546875,9475.548828125,4281.20263671875,20469.82421875,13416.607421875,8616.447265625,20500.818359375,7575.35302734375,8778.572265625,3843.3076171875,-682.671875,19386.609375,4934.4697265625,14301.140625,5921.5224609375,2851.486328125,9016.1962890625,10205.109375,417.2325134277344,4097.62060546875,-1107.8516845703125,10883.013671875,15.09984302520752,2983.4111328125,-346.5016784667969,2979.4375,2613.8623046875,19590.85546875,2788.70263671875,9561.3798828125,194.70851135253906,7743.04052734375,22591.75,18681.68359375,13941.923828125,-0.0,-49468.67578125,15991.529296875,5912.78076171875,0.0,6050.2685546875,0.0,0.0
