11320.908203125,10283.7880859375,26754.537109375,8357.365234375,25357.404296875,2749.760986328125,4041.98974609375,4098.41552734375,7128.71533203125,4010.995361328125,13100.306640625,-3330.70751953125,5462.96435546875,0.0,18967.787109375,1955.0323486328125,21582.4453125,14857.451171875,6825.12890625,9827.6142578125,19407.271484375,26013.8515625,12823.7412109375,15578.26953125,16744.13671875,4556.97412109375,24801.888671875,-5860.32861328125,-0.0,739.892333984375,9870.529296875,4742.1455078125,21000.703125,13856.8876953125,9324.55078125,21252.6328125,8111.79443359375,9321.3720703125,4091.2626953125,-319.48089599609375,19884.904296875,5361.23876953125,14728.705078125,6394.38623046875,3370.444091796875,9637.673828125,10395.8447265625,261.4656982421875,4545.84765625,-703.3348388671875,11409.9189453125,367.16461181640625,2696.51416015625,-712.87158203125,3232.161376953125,2911.885498046875,20008.087890625,3077.189208984375,10161.3994140625,417.2325134277344,7842.38134765625,22945.404296875,19131.501953125,13855.2978515625,-0.0,-48941.7734375,16427.041015625,5950.927734375,0.0,6461.9384765625,0.0,0.0
11317.7294921875,10276.634765625,26750.564453125,8355.7763671875,25364.556640625,2761.681884765625,4045.96337890625,4103.978515625,7133.48388671875,4011.789794921875,13100.306640625,-3325.939208984375,5451.837890625,0.0,18968.58203125,1963.7744140625,21584.830078125,14860.6298828125,6831.4873046875,9829.998046875,19409.65625,26020.208984375,12826.919921875,15585.4228515625,16745.7265625,4577.63671875,24808.248046875,-5851.5869140625,-0.0,748.6343383789062,9873.7080078125,4738.96630859375,21002.29296875,13861.65625,9329.3193359375,21256.60546875,8117.3583984375,9326.9345703125,4090.468017578125,-321.0703430175781,19887.2890625,5370.77587890625,14736.65234375,6402.33349609375,3374.41748046875,9641.6474609375,10397.4345703125,282.128662109375,4541.8740234375,-692.2086181640625,11412.302734375,373.5224304199219,2692.54052734375,-684.2613525390625,3237.724365234375,2920.627685546875,20012.85546875,3087.5205078125,10159.810546875,422.0008850097656,7860.66064453125,22950.96875,19135.474609375,13857.6826171875,-0.0,-48931.4375,16431.013671875,5948.54345703125,0.0,6457.169921875,0.0,0.0
11315.345703125,10262.330078125,26760.1015625,8357.365234375,25373.30078125,2766.4501953125,4047.552490234375,4109.54150390625,7131.89453125,4009.405517578125,13105.0751953125,-3327.52880859375,5448.6591796875,0.0,18969.376953125,1972.516357421875,21582.4453125,14865.3984375,6832.28173828125,9826.8193359375,19412.8359375,26021.798828125,12830.8935546875,15589.396484375,16752.87890625,4585.583984375,24809.041015625,-5843.63916015625,-0.0,759.7605590820312,9876.8876953125,4731.81396484375,21003.087890625,13863.24609375,9334.0869140625,21258.990234375,8119.7421875,9329.3193359375,4095.236328125,-320.275634765625,19895.234375,5369.1865234375,14740.6259765625,6407.896484375,3376.007080078125,9643.2373046875,10412.5341796875,298.0232238769531,4537.900390625,-681.0823974609375,11414.6875,378.2908020019531,2707.640380859375,-678.6982421875,3222.62451171875,2938.906494140625,20011.267578125,3103.415283203125,10160.60546875,419.61669921875,7859.07080078125,22954.14453125,19137.064453125,13845.76171875,-0.0,-48925.08203125,16423.06640625,5964.43798828125,0.0,6444.4541015625,0.0,0.0
11316.140625,10266.3037109375,26755.33203125,8342.265625,25359.7890625,2748.171630859375,4041.19482421875,4101.59423828125,7131.099609375,4003.8427734375,13099.5107421875,-3328.3232421875,5469.322265625,0.0,18970.966796875,1955.8270263671875,21576.0859375,14857.451171875,6825.923828125,9824.435546875,19407.271484375,26009.87890625,12825.330078125,15578.26953125,16758.44140625,4577.63671875,24805.865234375,-5851.5869140625,-0.0,774.065673828125,9869.734375,4732.60888671875,20996.728515625,13851.3251953125,9324.55078125,21249.453125,8113.38427734375,9321.3720703125,4100.7998046875,-294.0495910644531,19892.056640625,5354.88134765625,14729.5,6399.15478515625,3373.622802734375,9637.673828125,10402.9970703125,282.9233703613281,4546.64208984375,-686.6455078125,11413.8916015625,371.13824462890625,2723.534912109375,-685.8507690429688,3233.75048828125,2935.727294921875,20012.85546875,3097.057373046875,10161.3994140625,411.6694030761719,7875.76025390625,22946.19921875,19131.501953125,13844.1728515625,-0.0,-48930.64453125,16413.53125,5973.18017578125,0.0,6433.328125,0.0,0.0
11308.193359375,10263.125,26750.564453125,8343.060546875,25350.251953125,2740.22412109375,4037.221435546875,4098.41552734375,7127.1259765625,3999.074462890625,13082.02734375,-3325.14453125,5466.93798828125,0.0,18968.58203125,1954.2376708984375,21572.908203125,14849.50390625,6823.53955078125,9820.4609375,19399.32421875,26005.109375,12819.7666015625,15575.091796875,16755.26171875,4557.7685546875,24804.2734375,-5854.765625,-0.0,766.9130859375,9864.1708984375,4725.4560546875,20993.55078125,13849.7353515625,9317.3984375,21243.890625,8108.61572265625,9315.013671875,4103.978515625,-300.40740966796875,19883.314453125,5354.08642578125,14720.7578125,6395.9755859375,3368.8544921875,9632.1103515625,10395.0498046875,276.5655517578125,4548.2314453125,-689.0296630859375,11409.9189453125,369.5487976074219,2728.30322265625,-694.5927734375,3235.340087890625,2930.164306640625,20004.908203125,3094.673095703125,10158.2216796875,406.9010314941406,7879.73388671875,22939.046875,19125.9375,13839.404296875,-0.0,-48925.875,16410.3515625,5972.38525390625,0.0,6430.94384765625,0.0,0.0
11311.3720703125,10268.6884765625,26770.43359375,8370.08203125,25366.1484375,2756.913330078125,4051.526611328125,4111.13134765625,7138.25244140625,4014.174072265625,13087.58984375,-3312.4287109375,5464.5537109375,0.0,18973.349609375,1973.3111572265625,21591.982421875,14863.80859375,6836.25537109375,9833.1767578125,19414.42578125,26024.18359375,12830.8935546875,15587.0126953125,16767.978515625,4556.17919921875,24824.142578125,-5842.05029296875,-0.0,782.012939453125,9876.8876953125,4737.376953125,21010.240234375,13868.80859375,9332.498046875,21259.78515625,8122.9208984375,9329.3193359375,4089.673583984375,-351.2700500488281,19899.2109375,5368.3916015625,14737.447265625,6406.30712890625,3380.775390625,9645.62109375,10403.7919921875,294.0495910644531,4547.43701171875,-677.1087646484375,11424.2236328125,384.6486511230469,2741.813720703125,-679.492919921875,3258.38720703125,2954.80078125,19990.6015625,3106.593994140625,10166.962890625,421.2061462402344,7881.32373046875,22952.556640625,19139.447265625,13851.3251953125,-0.0,-48908.39453125,16427.8359375,5975.564453125,0.0,6450.81201171875,0.0,0.0
11311.3720703125,10257.5615234375,26772.021484375,8384.38671875,25374.09375,2755.32421875,4062.652587890625,4110.33642578125,7143.8154296875,4018.9423828125,13102.6904296875,-3316.40234375,5473.2958984375,0.0,18990.8359375,1971.7216796875,21595.16015625,14863.80859375,6837.8447265625,9838.740234375,19419.98828125,26026.568359375,12834.8662109375,15588.6015625,16770.36328125,4578.431640625,24836.0625,-5847.61279296875,-0.0,794.7285766601562,9880.06640625,4745.32470703125,21017.392578125,13873.5771484375,9335.6767578125,21259.78515625,8129.279296875,9331.703125,4096.826171875,-404.516845703125,19906.36328125,5370.77587890625,14747.779296875,6403.1279296875,3387.927978515625,9645.62109375,10401.408203125,294.84429931640625,4554.58984375,-686.6455078125,11444.8857421875,381.4697265625,2723.534912109375,-677.1087646484375,3232.9560546875,2956.390380859375,20004.908203125,3104.2099609375,10180.4736328125,426.7692565917969,7898.8076171875,22955.736328125,19145.01171875,13859.2724609375,-0.0,-48916.33984375,16435.78125,5956.4912109375,0.0,6463.52783203125,0.0,0.0
11271.6357421875,10234.515625,26758.51171875,8372.4658203125,25364.556640625,2741.01904296875,4052.321044921875,4100.7998046875,7135.8681640625,4018.14794921875,13097.126953125,-3336.2705078125,5468.52734375,0.0,18982.88671875,1954.2376708984375,21587.212890625,14851.09375,6827.51318359375,9833.1767578125,19412.041015625,26016.234375,12822.1513671875,15579.064453125,16757.646484375,4560.947265625,24813.810546875,-5862.712890625,-0.0,757.3763427734375,9869.734375,4734.9931640625,21007.060546875,13861.65625,9324.55078125,21247.86328125,8117.3583984375,9321.3720703125,4113.51513671875,-306.7652282714844,19896.826171875,5363.623046875,14738.2421875,6390.41259765625,3377.5966796875,9640.8525390625,10397.4345703125,270.2077331542969,4543.46337890625,-711.2821044921875,11429.787109375,370.3435363769531,2688.56689453125,-719.2293701171875,3228.1875,2925.39599609375,20016.828125,3083.546875,10176.4990234375,425.9745178222656,7878.14404296875,22944.609375,19137.064453125,13858.4775390625,-0.0,-48947.3359375,16431.80859375,5950.927734375,0.0,6473.859375,0.0,0.0
11262.8935546875,10219.4150390625,26753.744140625,8357.365234375,25340.71484375,2727.508544921875,4022.916259765625,4087.289306640625,7123.15234375,4006.22705078125,13083.6171875,-3354.54931640625,5471.70654296875,0.0,18959.83984375,1935.1640625,21576.880859375,14839.966796875,6810.029296875,9822.05078125,19396.146484375,26004.314453125,12800.693359375,15562.375,16732.216796875,4545.84765625,24778.046875,-5884.96533203125,-0.0,710.4873657226562,9857.0185546875,4728.63525390625,20995.935546875,13852.119140625,9304.6826171875,21234.353515625,8095.900390625,9305.4775390625,4103.18359375,-290.075927734375,19876.162109375,5353.2919921875,14708.8369140625,6376.10791015625,3356.138916015625,9625.7529296875,10395.0498046875,240.00804138183594,4518.8271484375,-731.1503295898438,11387.666015625,352.06475830078125,2696.51416015625,-763.7341918945312,3252.029296875,2905.52783203125,20021.59765625,3051.7578125,10150.2734375,414.84832763671875,7827.28173828125,22928.71484375,19119.58203125,13853.708984375,-0.0,-48970.3828125,16425.451171875,5952.51708984375,0.0,6468.2958984375,0.0,0.0
11265.2783203125,10224.1826171875,26745.0,8355.7763671875,25330.384765625,2719.561279296875,4021.32666015625,4083.3154296875,7123.15234375,3999.868896484375,13089.1796875,-3352.165283203125,5453.427734375,0.0,18956.662109375,1929.60107421875,21568.140625,14832.814453125,6805.26123046875,9819.6669921875,19385.814453125,25994.77734375,12794.3349609375,15556.017578125,16721.8828125,4544.25830078125,24778.84375,-5888.14404296875,-0.0,736.71337890625,9849.8662109375,4723.072265625,20985.603515625,13842.5830078125,9297.5302734375,21226.40625,8091.9267578125,9300.708984375,4070.60009765625,-311.5335998535156,19864.240234375,5334.21826171875,14701.68359375,6370.54443359375,3356.138916015625,9619.3955078125,10387.103515625,230.47129821777344,4514.05859375,-731.945068359375,11389.255859375,348.09112548828125,2698.103759765625,-733.5344848632812,3244.082275390625,2914.269775390625,20012.060546875,3046.19482421875,10148.6845703125,403.7221374511719,7810.5927734375,22920.767578125,19117.990234375,13852.119140625,-0.0,-48972.765625,16422.271484375,5945.3642578125,0.0,6461.9384765625,0.0,0.0
11280.376953125,10248.8203125,26744.20703125,8355.7763671875,25342.306640625,2733.866455078125,4036.426513671875,4095.236328125,7137.45751953125,4007.021484375,13102.6904296875,-3348.19140625,5450.24853515625,0.0,18970.966796875,1944.7008056640625,21574.498046875,14838.3779296875,6816.38720703125,9829.998046875,19394.556640625,26002.7265625,12807.845703125,15566.3486328125,16726.65234375,4569.689453125,24794.736328125,-5873.04443359375,-0.0,750.2238159179688,9857.0185546875,4733.40380859375,20991.16796875,13849.7353515625,9306.271484375,21237.53125,8101.46337890625,9310.2451171875,4093.64697265625,-317.8914489746094,19872.189453125,5345.3447265625,14715.1943359375,6383.26025390625,3370.444091796875,9628.931640625,10387.8974609375,243.18695068359375,4524.3896484375,-716.0504760742188,11407.5341796875,361.60150146484375,2708.43505859375,-700.1558837890625,3237.724365234375,2927.7802734375,20012.85546875,3066.857666015625,10168.552734375,409.28521728515625,7837.61328125,22931.89453125,19128.322265625,13858.4775390625,-0.0,-48967.203125,16433.396484375,5953.31201171875,0.0,6465.1171875,0.0,0.0
11281.1728515625,10253.5888671875,26752.94921875,8345.4443359375,25346.279296875,2735.455810546875,4039.605712890625,4095.236328125,7138.25244140625,4007.81640625,13104.279296875,-3345.0126953125,5453.427734375,0.0,18970.171875,1947.0850830078125,21576.0859375,14839.966796875,6817.9765625,9832.3818359375,19397.736328125,26004.314453125,12811.0244140625,15567.1435546875,16736.189453125,4568.10009765625,24799.505859375,-5871.45458984375,-0.0,742.2764892578125,9860.1982421875,4726.2509765625,20995.935546875,13851.3251953125,9309.451171875,21239.123046875,8103.84765625,9313.423828125,4122.25732421875,-335.3754577636719,19877.751953125,5348.5234375,14719.962890625,6384.0546875,3372.828125,9628.13671875,10379.9501953125,257.4920654296875,4533.1318359375,-716.84521484375,11411.5078125,361.60150146484375,2714.79296875,-716.0504760742188,3236.134765625,2918.243408203125,20012.85546875,3072.4208984375,10166.16796875,414.0535888671875,7850.32958984375,22932.6875,19129.1171875,13856.8876953125,-0.0,-48964.0234375,16427.041015625,5955.6962890625,0.0,6467.5009765625,0.0,0.0
11297.06640625,10251.9990234375,26755.33203125,8352.59765625,25353.431640625,2739.429443359375,4046.758056640625,4101.59423828125,7139.04736328125,4012.584716796875,13101.1005859375,-3333.886474609375,5456.6064453125,0.0,18971.76171875,1955.8270263671875,21580.060546875,14848.708984375,6825.12890625,9833.9716796875,19405.68359375,26009.87890625,12818.97265625,15573.501953125,16743.341796875,4551.41064453125,24809.837890625,-5863.5078125,-0.0,754.1974487304688,9868.14453125,4727.84033203125,21001.498046875,13856.09375,9318.98828125,21246.275390625,8108.61572265625,9318.1923828125,4164.3779296875,-322.6598205566406,19882.521484375,5350.11279296875,14727.91015625,6391.20703125,3375.21240234375,9635.2890625,10379.9501953125,272.5919189453125,4539.48974609375,-708.8978881835938,11415.4814453125,368.7540588378906,2724.32958984375,-723.2030029296875,3238.51904296875,2920.627685546875,20014.4453125,3079.573486328125,10163.7841796875,421.2061462402344,7857.48193359375,22939.046875,19132.294921875,13858.4775390625,-0.0,-48948.92578125,16425.451171875,5965.23291015625,0.0,6476.24365234375,0.0,0.0
11301.8349609375,10256.767578125,26752.154296875,8346.240234375,25359.7890625,2742.6083984375,4053.11572265625,4105.56787109375,7143.8154296875,4019.7373046875,13095.5380859375,-3333.886474609375,5457.4013671875,0.0,18978.119140625,1964.569091796875,21583.23828125,14851.09375,6828.30810546875,9840.3291015625,19406.4765625,26012.26171875,12824.53515625,15577.4755859375,16745.7265625,4546.64208984375,24819.375,-5858.7392578125,-0.0,760.5552978515625,9870.529296875,4737.376953125,21001.498046875,13856.8876953125,9322.166015625,21248.658203125,8112.58984375,9320.5771484375,4103.978515625,-306.7652282714844,19885.69921875,5351.7021484375,14733.4736328125,6395.18115234375,3380.775390625,9640.8525390625,10392.666015625,278.1549987792969,4545.05322265625,-705.718994140625,11424.2236328125,377.49609375,2725.9189453125,-702.5401000976562,3234.54541015625,2923.806396484375,20007.291015625,3082.752197265625,10172.5263671875,428.35870361328125,7852.71337890625,22943.01953125,19136.271484375,13872.7822265625,-0.0,-48948.12890625,16429.423828125,5960.46435546875,0.0,6477.0380859375,0.0,0.0
11309.783203125,10247.23046875,26751.359375,8345.4443359375,25351.84375,2737.04541015625,4042.7841796875,4094.44189453125,7130.3046875,4005.43212890625,13087.58984375,-3344.218017578125,5453.427734375,0.0,18973.349609375,1956.621826171875,21577.677734375,14844.7353515625,6818.771484375,9823.6396484375,19398.53125,26005.90234375,12817.3828125,15569.52734375,16739.369140625,4545.84765625,24813.017578125,-5867.4814453125,-0.0,754.9921875,9863.376953125,4734.9931640625,20993.55078125,13851.3251953125,9314.2197265625,21241.505859375,8104.64208984375,9311.8349609375,4048.347412109375,-309.1494140625,19880.9296875,5346.93408203125,14727.91015625,6389.6181640625,3372.033447265625,9629.7265625,10385.513671875,267.82354736328125,4540.28466796875,-708.8978881835938,11417.0712890625,367.9593505859375,2708.43505859375,-696.1822509765625,3227.392822265625,2923.01171875,20002.5234375,3084.341796875,10163.7841796875,418.0272521972656,7843.97119140625,22934.279296875,19125.142578125,13856.09375,-0.0,-48961.640625,16415.119140625,5924.70166015625,0.0,6456.375,0.0,0.0
11311.3720703125,10263.125,26760.1015625,8374.0546875,25359.7890625,2757.708251953125,4049.936767578125,4106.36279296875,7135.0732421875,4008.611083984375,13101.8955078125,-3321.1708984375,5469.322265625,0.0,18977.32421875,1967.7479248046875,21593.5703125,14857.451171875,6829.10302734375,9828.408203125,19412.041015625,26022.591796875,12826.125,15582.244140625,16748.109375,4571.27880859375,24807.453125,-5851.5869140625,-0.0,776.4498291015625,9878.4765625,4750.0927734375,21006.265625,13871.193359375,9325.3447265625,21257.400390625,8111.79443359375,9322.9609375,4076.957763671875,-282.9233703613281,19891.26171875,5369.1865234375,14735.0625,6404.7177734375,3379.980712890625,9635.2890625,10395.8447265625,279.7444763183594,4541.0791015625,-681.8771362304688,11421.0439453125,378.2908020019531,2688.56689453125,-685.0560302734375,3236.134765625,2950.827392578125,20014.4453125,3091.494384765625,10165.3740234375,418.0272521972656,7873.3759765625,22945.404296875,19133.88671875,13852.119140625,-0.0,-48938.58984375,16423.06640625,5939.8017578125,0.0,6448.427734375,0.0,0.0
11265.2783203125,10232.92578125,26759.306640625,8382.0029296875,25354.2265625,2755.32421875,4038.810791015625,4100.7998046875,7130.3046875,3999.074462890625,13108.25390625,-3322.76025390625,5473.2958984375,0.0,18959.83984375,1960.5953369140625,21591.982421875,14854.271484375,6824.33447265625,9822.845703125,19408.861328125,26023.388671875,12819.7666015625,15578.26953125,16747.31640625,4576.841796875,24789.96875,-5853.97119140625,-0.0,762.939453125,9876.8876953125,4746.9140625,21004.677734375,13872.7822265625,9319.7822265625,21256.60546875,8106.2314453125,9318.1923828125,4096.826171875,-313.91778564453125,19888.876953125,5371.57080078125,14722.34765625,6400.744140625,3370.444091796875,9631.31640625,10416.5078125,273.3866271972656,4522.80029296875,-681.0823974609375,11405.150390625,371.13824462890625,2677.440673828125,-708.1031494140625,3241.697998046875,2946.05908203125,20015.240234375,3077.98388671875,10152.6572265625,406.9010314941406,7877.349609375,22941.431640625,19127.52734375,13842.5830078125,-0.0,-48933.02734375,16421.4765625,5962.0537109375,0.0,6435.71240234375,0.0,0.0
11282.76171875,10240.078125,26783.1484375,8389.1552734375,25369.326171875,2765.655517578125,4048.347412109375,4107.1572265625,7141.43115234375,4002.253173828125,13116.2001953125,-3315.607666015625,5481.2431640625,0.0,18974.146484375,1959.006103515625,21602.3125,14866.98828125,6832.28173828125,9830.7919921875,19423.9609375,26035.30859375,12829.3037109375,15587.806640625,16762.4140625,4589.5576171875,24804.2734375,-5843.63916015625,-0.0,760.5552978515625,9887.21875,4758.8349609375,21021.365234375,13880.7294921875,9331.703125,21266.142578125,8116.56298828125,9327.7294921875,4087.289306640625,-325.8387145996094,19905.56640625,5384.28662109375,14735.0625,6409.486328125,3379.18603515625,9638.46875,10464.986328125,267.82354736328125,4540.28466796875,-672.3403930664062,11417.8662109375,377.49609375,2677.440673828125,-708.8978881835938,3246.46630859375,2951.6220703125,20024.77734375,3097.85205078125,10167.7578125,412.4641418457031,7886.88671875,22951.76171875,19137.064453125,13844.966796875,-0.0,-48917.9296875,16434.98828125,5974.76953125,0.0,6424.5859375,0.0,0.0
11312.9619140625,10256.767578125,26786.328125,8379.6181640625,25375.685546875,2764.86083984375,4052.321044921875,4105.56787109375,7147.7890625,4000.663818359375,13060.5693359375,-3312.4287109375,5480.4482421875,0.0,18980.50390625,1958.211181640625,21602.3125,14869.3720703125,6836.25537109375,9833.9716796875,19427.140625,26034.513671875,12832.482421875,15589.396484375,16771.158203125,4582.4052734375,24814.60546875,-5844.43408203125,-0.0,759.7605590820312,9886.423828125,4756.45068359375,21022.162109375,13877.55078125,9335.6767578125,21266.142578125,8119.7421875,9327.7294921875,4068.2158203125,-328.222900390625,19910.3359375,5381.107421875,14740.6259765625,6407.10205078125,3381.570068359375,9636.87890625,10454.654296875,263.05517578125,4552.20556640625,-678.6982421875,11424.2236328125,377.49609375,2678.2353515625,-710.4873657226562,3240.1083984375,2951.6220703125,20023.1875,3107.388671875,10178.0888671875,410.87469482421875,7867.81298828125,22954.14453125,19140.244140625,13845.76171875,-0.0,-48912.36328125,16431.80859375,5972.38525390625,0.0,6418.22802734375,0.0,0.0
11311.3720703125,10282.19921875,26783.1484375,8378.029296875,25369.326171875,2763.271240234375,4053.91064453125,4107.1572265625,7150.96826171875,4009.405517578125,13052.623046875,-3312.4287109375,5482.0380859375,0.0,18983.68359375,1966.1585693359375,21601.51953125,14868.5771484375,6837.8447265625,9841.125,19424.7578125,26035.30859375,12833.27734375,15590.1904296875,16754.46875,4578.431640625,24816.1953125,-5846.0234375,-0.0,765.3236083984375,9887.21875,4748.50341796875,21017.392578125,13878.345703125,9334.8818359375,21266.9375,8122.9208984375,9330.11328125,4096.03125,-313.1230773925781,19903.978515625,5380.3125,14740.6259765625,6406.30712890625,3384.749267578125,9644.03125,10434.787109375,259.0815124511719,4542.6689453125,-685.0560302734375,11427.40234375,379.8802795410156,2696.51416015625,-711.2821044921875,3250.43994140625,2947.648193359375,20022.392578125,3100.236083984375,10182.0634765625,418.0272521972656,7857.48193359375,22954.94140625,19145.01171875,13852.119140625,-0.0,-48912.36328125,16433.396484375,5979.5380859375,0.0,6430.94384765625,0.0,0.0
11298.65625,10282.19921875,26773.611328125,8375.64453125,25366.94140625,2756.11865234375,4053.11572265625,4106.36279296875,7145.40478515625,4015.763671875,13084.412109375,-3324.349609375,5478.06396484375,0.0,18978.119140625,1959.006103515625,21595.955078125,14866.1923828125,6837.0498046875,9841.9189453125,19421.578125,26033.720703125,12830.8935546875,15587.0126953125,16762.4140625,4580.81591796875,24815.400390625,-5855.560546875,-0.0,762.1447143554688,9884.0400390625,4742.1455078125,21010.240234375,13875.1669921875,9331.703125,21263.7578125,8121.3310546875,9326.9345703125,4083.3154296875,-315.50726318359375,19903.978515625,5379.51806640625,14740.6259765625,6400.744140625,3379.18603515625,9643.2373046875,10381.5390625,223.31874084472656,4543.46337890625,-694.5927734375,11422.6337890625,375.9066162109375,2706.845458984375,-712.87158203125,3251.23486328125,2917.44873046875,20017.623046875,3085.136474609375,10174.115234375,422.7956237792969,7867.0185546875,22953.3515625,19144.216796875,13853.708984375,-0.0,-48933.02734375,16433.396484375,5966.02783203125,0.0,6460.3486328125,0.0,0.0
11278.7880859375,10267.8935546875,26769.638671875,8370.08203125,25362.96875,2748.171630859375,4048.347412109375,4100.7998046875,7136.6630859375,4015.763671875,13085.2060546875,-3333.091796875,5466.93798828125,0.0,18967.787109375,1950.263916015625,21588.802734375,14861.4248046875,6831.4873046875,9840.3291015625,19414.42578125,26025.771484375,12825.330078125,15579.859375,16764.005859375,4577.63671875,24812.220703125,-5866.6865234375,-0.0,741.4818115234375,9877.681640625,4734.1982421875,21007.060546875,13868.0146484375,9326.140625,21256.60546875,8114.97412109375,9321.3720703125,4086.494384765625,-315.50726318359375,19896.826171875,5373.95458984375,14736.65234375,6393.59130859375,3375.21240234375,9639.2626953125,10371.2080078125,228.0871124267578,4534.72119140625,-703.3348388671875,11416.2763671875,367.9593505859375,2722.740234375,-708.1031494140625,3233.75048828125,2905.52783203125,20003.318359375,3066.857666015625,10162.9892578125,422.0008850097656,7857.48193359375,22948.583984375,19139.447265625,13863.24609375,-0.0,-48948.92578125,16419.88671875,5951.72265625,0.0,6479.421875,0.0,0.0
11249.3828125,10250.4091796875,26780.763671875,8371.6708984375,25372.505859375,2750.5556640625,4055.5,4107.1572265625,7150.17333984375,4022.121337890625,13112.2275390625,-3339.44970703125,5460.58056640625,0.0,18975.734375,1957.41650390625,21594.365234375,14864.603515625,6838.6396484375,9855.4296875,19420.78125,26024.9765625,12830.0986328125,15584.6279296875,16764.005859375,4576.04736328125,24822.552734375,-5860.32861328125,-0.0,750.2238159179688,9879.271484375,4740.55615234375,21015.802734375,13869.603515625,9333.29296875,21259.78515625,8122.12646484375,9326.140625,4134.17822265625,-299.6126708984375,19902.38671875,5373.15966796875,14746.189453125,6395.9755859375,3384.749267578125,9646.416015625,10404.5869140625,263.8498840332031,4529.158203125,-700.1558837890625,11428.197265625,371.13824462890625,2721.150634765625,-703.3348388671875,3245.671630859375,2928.57470703125,19997.755859375,3073.215576171875,10173.3203125,424.38507080078125,7836.81884765625,22954.94140625,19147.396484375,13894.240234375,-0.0,-48948.92578125,16422.271484375,5946.1591796875,0.0,6477.8330078125,0.0,0.0
11249.3828125,10235.3095703125,26785.53125,8369.2861328125,25384.42578125,2744.19775390625,4069.80517578125,4110.33642578125,7170.8359375,4027.6845703125,13118.5849609375,-3341.833740234375,5436.73828125,0.0,18994.80859375,1962.1849365234375,21598.33984375,14866.98828125,6848.17626953125,9867.3505859375,19427.140625,26023.388671875,12838.0458984375,15588.6015625,16770.36328125,4550.61572265625,24840.037109375,-5861.91796875,-0.0,757.3763427734375,9883.244140625,4746.9140625,21019.77734375,13869.603515625,9340.4453125,21260.580078125,8134.04736328125,9333.29296875,4155.6357421875,-305.17578125,19909.541015625,5360.4443359375,14759.7001953125,6396.7705078125,3397.46484375,9650.3896484375,10428.4287109375,261.4656982421875,4531.54248046875,-712.0768432617188,11445.681640625,373.5224304199219,2699.69287109375,-713.666259765625,3239.313720703125,2932.548583984375,20008.087890625,3074.01025390625,10197.95703125,429.1534423828125,7852.71337890625,22960.50390625,19156.93359375,13899.0087890625,-0.0,-48962.43359375,16438.9609375,5946.1591796875,0.0,6475.44873046875,0.0,0.0
11298.65625,10221.798828125,26760.1015625,8366.90234375,25383.630859375,2742.6083984375,4072.984130859375,4109.54150390625,7170.04150390625,4026.094970703125,13101.8955078125,-3345.807373046875,5445.48046875,0.0,18997.98828125,1961.3902587890625,21591.982421875,14867.7822265625,6847.3818359375,9863.376953125,19420.78125,26021.798828125,12839.634765625,15589.396484375,16754.46875,4546.64208984375,24835.267578125,-5862.712890625,-0.0,758.1710815429688,9881.6552734375,4739.76123046875,21009.4453125,13867.21875,9337.265625,21260.580078125,8136.431640625,9334.8818359375,4093.64697265625,-315.50726318359375,19897.619140625,5356.470703125,14762.083984375,6397.5654296875,3399.848876953125,9651.18359375,10416.5078125,261.4656982421875,4542.6689453125,-716.84521484375,11452.0390625,372.72772216796875,2668.698486328125,-740.6870727539062,3212.29296875,2930.164306640625,20019.212890625,3070.831298828125,10201.9306640625,427.5639953613281,7859.8662109375,22962.09375,19159.31640625,13878.345703125,-0.0,-48973.55859375,16439.755859375,5950.1328125,0.0,6474.65380859375,0.0,0.0
11336.8037109375,10228.1572265625,26767.25390625,8366.90234375,25375.685546875,2756.913330078125,4054.705078125,4112.720703125,7135.0732421875,4023.710693359375,13109.8427734375,-3332.297119140625,5489.98486328125,0.0,18979.70703125,1973.3111572265625,21596.75,14870.9609375,6845.79248046875,9840.3291015625,19423.166015625,26029.744140625,12836.4560546875,15594.1650390625,16751.2890625,4568.10009765625,24825.73046875,-5850.7919921875,-0.0,770.092041015625,9885.62890625,4746.119140625,21015.009765625,13874.37109375,9335.6767578125,21267.732421875,8127.689453125,9334.8818359375,4068.2158203125,-282.9233703613281,19900.00390625,5371.57080078125,14746.9833984375,6410.28076171875,3383.954345703125,9651.978515625,10422.0703125,297.2284851074219,4561.7421875,-696.9769897460938,11425.8125,380.67498779296875,2679.82470703125,-733.5344848632812,3213.88232421875,2936.522216796875,20026.365234375,3087.5205078125,10170.142578125,432.3323669433594,7861.455078125,22962.888671875,19151.369140625,13855.2978515625,-0.0,-48950.51171875,16421.4765625,5960.46435546875,0.0,6479.421875,0.0,0.0
11325.6767578125,10241.66796875,26768.841796875,8367.697265625,25357.404296875,2761.681884765625,4039.605712890625,4115.1044921875,7112.0263671875,4018.14794921875,13116.2001953125,-3317.991943359375,5491.57470703125,0.0,18956.662109375,1978.874267578125,21599.134765625,14868.5771484375,6840.22900390625,9826.8193359375,19419.193359375,26028.951171875,12827.7138671875,15593.369140625,16748.904296875,4575.25244140625,24804.2734375,-5844.43408203125,-0.0,759.7605590820312,9884.833984375,4753.271484375,21015.802734375,13876.755859375,9327.7294921875,21268.525390625,8118.15283203125,9333.29296875,4093.64697265625,-274.1813659667969,19896.03125,5371.57080078125,14727.91015625,6413.4599609375,3370.444091796875,9648.7998046875,10429.22265625,296.43377685546875,4550.61572265625,-686.6455078125,11402.7666015625,384.6486511230469,2703.666748046875,-724.79248046875,3234.54541015625,2942.085205078125,20012.85546875,3097.85205078125,10145.5048828125,430.7428894042969,7874.9658203125,22958.9140625,19141.83203125,13849.7353515625,-0.0,-48929.8515625,16409.5546875,5970.0009765625,0.0,6476.24365234375,0.0,0.0
11293.09375,10258.357421875,26756.921875,8362.1337890625,25351.84375,2752.93994140625,4033.24755859375,4105.56787109375,7112.0263671875,4002.253173828125,13090.76953125,-3331.502197265625,5478.85888671875,0.0,18957.45703125,1974.1058349609375,21588.0078125,14859.8359375,6830.6923828125,9817.2822265625,19410.451171875,26020.208984375,12817.3828125,15583.8330078125,16753.673828125,4566.5107421875,24782.81640625,-5852.38134765625,-0.0,741.4818115234375,9875.2978515625,4737.376953125,21007.060546875,13864.0400390625,9319.7822265625,21258.1953125,8109.41015625,9324.55078125,4102.388671875,-302.7915954589844,19888.876953125,5361.23876953125,14717.5791015625,6403.9228515625,3364.880859375,9639.2626953125,10398.228515625,260.6709899902344,4534.72119140625,-689.0296630859375,11399.5869140625,379.8802795410156,2707.640380859375,-713.666259765625,3236.9296875,2933.34326171875,20010.470703125,3093.87841796875,10146.30078125,422.0008850097656,7868.607421875,22949.376953125,19133.091796875,13833.0458984375,-0.0,-48934.62109375,16410.3515625,5969.20654296875,0.0,6446.83837890625,0.0,0.0
11306.603515625,10299.6826171875,26771.2265625,8382.0029296875,25370.12109375,2768.039794921875,4053.11572265625,4120.66796875,7134.27880859375,4021.32666015625,13098.716796875,-3318.78662109375,5481.2431640625,0.0,18975.734375,1987.6163330078125,21604.6953125,14878.11328125,6848.17626953125,9838.740234375,19426.345703125,26039.28125,12834.8662109375,15599.7275390625,16762.4140625,4588.7626953125,24806.658203125,-5834.8974609375,-0.0,770.88671875,9890.3974609375,4755.65576171875,21022.955078125,13882.3193359375,9335.6767578125,21273.294921875,8127.689453125,9341.240234375,4123.05224609375,-287.6917419433594,19903.18359375,5381.107421875,14737.447265625,6418.22802734375,3383.954345703125,9659.130859375,10393.4599609375,278.1549987792969,4545.84765625,-669.9561767578125,11421.0439453125,395.77484130859375,2729.09814453125,-668.3667602539062,3248.8505859375,2938.111572265625,20027.955078125,3109.77294921875,10166.962890625,439.48492431640625,7864.63427734375,22966.06640625,19153.75390625,13844.1728515625,-0.0,-48928.26171875,16430.21875,5976.35888671875,0.0,6466.70654296875,0.0,0.0
11332.8291015625,10288.5556640625,26768.048828125,8378.8232421875,25371.708984375,2764.86083984375,4053.91064453125,4120.66796875,7138.25244140625,4026.094970703125,13110.6376953125,-3317.991943359375,5483.62744140625,0.0,18977.32421875,1986.0267333984375,21605.4921875,14875.7294921875,6848.17626953125,9843.5087890625,19426.345703125,26038.48828125,12834.072265625,15596.548828125,16751.2890625,4582.4052734375,24810.6328125,-5836.48681640625,-0.0,774.065673828125,9891.1923828125,4762.80810546875,21021.365234375,13882.3193359375,9335.6767578125,21274.884765625,8130.8681640625,9342.0341796875,4111.92578125,-280.5391845703125,19901.59375,5380.3125,14739.8310546875,6416.638671875,3385.5439453125,9659.9267578125,10407.765625,290.87066650390625,4544.25830078125,-679.492919921875,11423.4287109375,391.80120849609375,2750.5556640625,-666.7772827148438,3243.287353515625,2931.75390625,20017.623046875,3108.18359375,10171.7314453125,437.89544677734375,7853.5078125,22965.2734375,19156.93359375,13852.9140625,-0.0,-48932.234375,16433.396484375,5970.7958984375,0.0,6476.24365234375,0.0,0.0
11342.3662109375,10277.4306640625,26761.689453125,8367.697265625,25375.685546875,2755.32421875,4050.731689453125,4117.48876953125,7131.099609375,4021.32666015625,13113.021484375,-3309.25,5492.369140625,0.0,18972.5546875,1971.7216796875,21600.72265625,14871.7568359375,6845.79248046875,9840.3291015625,19425.55078125,26031.3359375,12833.27734375,15590.9853515625,16754.46875,4549.8212890625,24813.017578125,-5846.0234375,-0.0,770.092041015625,9887.21875,4756.45068359375,21017.392578125,13877.55078125,9337.265625,21267.732421875,8128.48388671875,9337.265625,4108.7470703125,-288.4864807128906,19899.2109375,5369.1865234375,14741.4208984375,6410.28076171875,3380.775390625,9654.3623046875,10410.1494140625,295.6390380859375,4553.794921875,-697.771728515625,11421.83984375,384.6486511230469,2748.96630859375,-696.9769897460938,3257.592529296875,2946.853515625,20016.828125,3094.673095703125,10162.1943359375,436.3059997558594,7878.939453125,22962.888671875,19152.958984375,13849.7353515625,-0.0,-48923.4921875,16415.9140625,5970.0009765625,0.0,6467.5009765625,0.0,0.0
11328.8564453125,10279.01953125,26763.28125,8369.2861328125,25381.24609375,2759.297607421875,4055.5,4119.078125,7131.89453125,4026.889892578125,13118.5849609375,-3310.83935546875,5483.62744140625,0.0,18972.5546875,1964.569091796875,21599.927734375,14876.525390625,6849.765625,9841.125,19426.345703125,26032.923828125,12835.662109375,15594.958984375,16750.494140625,4580.81591796875,24818.578125,-5843.63916015625,-0.0,770.88671875,9888.80859375,4748.50341796875,21019.77734375,13875.9609375,9340.4453125,21270.91015625,8132.45751953125,9338.85546875,4115.8994140625,-296.43377685546875,19903.18359375,5369.1865234375,14746.9833984375,6412.6650390625,3380.775390625,9656.7470703125,10407.765625,301.2021484375,4546.64208984375,-688.2349853515625,11424.2236328125,385.443359375,2748.96630859375,-716.0504760742188,3259.181884765625,2961.953369140625,20017.623046875,3096.2626953125,10161.3994140625,437.89544677734375,7903.57568359375,22966.06640625,19156.13671875,13857.6826171875,-0.0,-48924.28515625,16417.50390625,5985.8955078125,0.0,6481.01171875,0.0,0.0
11305.80859375,10274.2509765625,26767.25390625,8362.9296875,25382.837890625,2760.092529296875,4057.08935546875,4118.28369140625,7135.8681640625,4027.6845703125,13116.2001953125,-3320.376220703125,5467.73291015625,0.0,18979.70703125,1967.7479248046875,21597.54296875,14876.525390625,6848.17626953125,9844.302734375,19424.7578125,26030.541015625,12835.662109375,15594.958984375,16755.26171875,4582.4052734375,24819.375,-5844.43408203125,-0.0,758.9658203125,9886.423828125,4743.73486328125,21018.982421875,13869.603515625,9338.0615234375,21266.9375,8132.45751953125,9338.85546875,4131.7939453125,-313.1230773925781,19903.978515625,5369.1865234375,14748.5732421875,6411.87060546875,3383.954345703125,9655.9521484375,10402.9970703125,278.1549987792969,4533.92626953125,-683.4666137695312,11427.40234375,387.0328369140625,2738.634765625,-723.2030029296875,3228.982177734375,2955.595703125,20022.392578125,3090.699462890625,10170.142578125,436.3059997558594,7873.3759765625,22965.2734375,19155.34375,13862.4501953125,-0.0,-48933.02734375,16422.271484375,5975.564453125,0.0,6477.8330078125,0.0,0.0
11289.9140625,10261.53515625,26772.021484375,8362.9296875,25374.09375,2756.11865234375,4051.526611328125,4115.1044921875,7130.3046875,4027.6845703125,13111.431640625,-3325.14453125,5471.70654296875,0.0,18975.734375,1962.1849365234375,21591.982421875,14873.345703125,6841.818359375,9841.125,19421.578125,26025.771484375,12828.509765625,15590.1904296875,16764.798828125,4570.484375,24813.810546875,-5849.20263671875,-0.0,754.9921875,9882.4501953125,4742.1455078125,21014.212890625,13867.21875,9330.9091796875,21262.96484375,8125.30517578125,9332.498046875,4118.28369140625,-325.04400634765625,19903.18359375,5366.80224609375,14739.0361328125,6408.69140625,3379.980712890625,9652.7734375,10406.1767578125,237.6238555908203,4551.41064453125,-690.619140625,11421.83984375,379.8802795410156,2712.40869140625,-723.2030029296875,3246.46630859375,2929.36962890625,20017.623046875,3081.95751953125,10163.7841796875,436.3059997558594,7835.22900390625,22958.9140625,19150.576171875,13871.9873046875,-0.0,-48941.7734375,16415.119140625,5973.18017578125,0.0,6481.01171875,0.0,0.0
11290.7099609375,10250.4091796875,26767.25390625,8358.955078125,25367.736328125,2761.681884765625,4049.142333984375,4111.92578125,7129.51025390625,4021.32666015625,13105.869140625,-3329.912841796875,5456.6064453125,0.0,18971.76171875,1959.80078125,21591.1875,14866.1923828125,6840.22900390625,9837.150390625,19418.3984375,26028.15625,12826.125,15587.0126953125,16762.4140625,4576.04736328125,24818.578125,-5851.5869140625,-0.0,754.1974487304688,9880.8603515625,4746.9140625,21011.033203125,13870.3984375,9328.5244140625,21262.16796875,8123.71533203125,9329.3193359375,4109.54150390625,-313.1230773925781,19901.59375,5377.1337890625,14735.8583984375,6407.896484375,3379.18603515625,9648.7998046875,10402.9970703125,223.31874084472656,4557.7685546875,-686.6455078125,11422.6337890625,378.2908020019531,2691.745849609375,-717.639892578125,3251.23486328125,2922.217041015625,19996.9609375,3080.3681640625,10163.7841796875,433.92181396484375,7849.5341796875,22954.94140625,19145.806640625,13862.4501953125,-0.0,-48944.15625,16419.88671875,5966.822265625,0.0,6471.47509765625,0.0,0.0
11297.8623046875,10267.8935546875,26760.896484375,8364.5185546875,25363.763671875,2764.06591796875,4054.705078125,4113.51513671875,7140.63623046875,4019.7373046875,13083.6171875,-3325.14453125,5445.48046875,0.0,18976.529296875,1966.1585693359375,21592.775390625,14861.4248046875,6842.61328125,9842.712890625,19416.80859375,26029.744140625,12830.0986328125,15588.6015625,16739.369140625,4576.04736328125,24822.552734375,-5845.228515625,-0.0,762.939453125,9882.4501953125,4750.88720703125,21008.650390625,13871.9873046875,9327.7294921875,21262.16796875,8125.30517578125,9333.29296875,4086.494384765625,-326.6334533691406,19892.8515625,5378.72314453125,14740.6259765625,6408.69140625,3385.5439453125,9653.568359375,10404.5869140625,271.79718017578125,4536.310546875,-678.6982421875,11432.96484375,383.0591735839844,2706.05078125,-700.1558837890625,3223.419189453125,2937.31689453125,19994.578125,3093.083740234375,10174.115234375,433.92181396484375,7882.91259765625,22957.32421875,19148.984375,13861.65625,-0.0,-48935.4140625,16429.423828125,5967.6171875,0.0,6458.75927734375,0.0,0.0
11286.7353515625,10264.7138671875,26768.048828125,8378.029296875,25366.94140625,2753.734619140625,4063.447509765625,4109.54150390625,7144.60986328125,4018.9423828125,13094.7431640625,-3325.939208984375,5481.2431640625,0.0,18986.859375,1959.80078125,21589.59765625,14860.6298828125,6843.408203125,9845.09765625,19414.42578125,26021.00390625,12832.482421875,15584.6279296875,16752.083984375,4566.5107421875,24831.294921875,-5848.40771484375,-0.0,771.6814575195312,9877.681640625,4742.9404296875,21009.4453125,13871.193359375,9326.9345703125,21255.8125,8126.89501953125,9329.3193359375,4090.468017578125,-356.8331298828125,19893.646484375,5363.623046875,14747.779296875,6402.33349609375,3388.72265625,9649.5947265625,10414.91796875,294.84429931640625,4552.20556640625,-687.4402465820312,11443.2978515625,381.4697265625,2710.024658203125,-709.692626953125,3234.54541015625,2941.29052734375,20026.365234375,3089.110107421875,10180.4736328125,428.35870361328125,7874.17138671875,22954.94140625,19149.78125,13860.861328125,-0.0,-48940.18359375,16427.8359375,5959.66943359375,0.0,6458.75927734375,0.0,0.0
11270.0458984375,10253.5888671875,26762.486328125,8373.2607421875,25358.19921875,2752.14501953125,4043.5791015625,4103.978515625,7126.33154296875,4010.200439453125,13110.6376953125,-3328.3232421875,5478.06396484375,0.0,18972.5546875,1955.0323486328125,21583.23828125,14856.65625,6833.87158203125,9826.8193359375,19406.4765625,26013.056640625,12822.9453125,15580.654296875,16755.26171875,4563.33154296875,24810.6328125,-5853.17626953125,-0.0,761.3499755859375,9871.3232421875,4740.55615234375,21003.087890625,13863.24609375,9319.7822265625,21249.453125,8112.58984375,9322.166015625,4086.494384765625,-360.8067932128906,19888.08203125,5359.6494140625,14729.5,6397.5654296875,3375.21240234375,9640.8525390625,10409.35546875,271.79718017578125,4545.84765625,-695.3875122070312,11410.712890625,376.70135498046875,2690.951171875,-720.0241088867188,3248.0556640625,2930.958984375,20027.955078125,3081.95751953125,10162.1943359375,421.2061462402344,7837.61328125,22945.404296875,19139.447265625,13835.4296875,-0.0,-48932.234375,16412.734375,5958.080078125,0.0,6456.375,0.0,0.0
11291.50390625,10246.4365234375,26754.537109375,8358.1611328125,25348.6640625,2756.11865234375,4034.04248046875,4101.59423828125,7121.56298828125,3998.279541015625,13114.611328125,-3326.73388671875,5468.52734375,0.0,18963.814453125,1957.41650390625,21581.650390625,14852.6826171875,6829.10302734375,9817.2822265625,19402.50390625,26014.646484375,12820.5615234375,15577.4755859375,16744.13671875,4566.5107421875,24792.353515625,-5851.5869140625,-0.0,766.1183471679688,9868.939453125,4745.32470703125,20999.908203125,13862.4501953125,9314.2197265625,21247.86328125,8107.8212890625,9320.5771484375,4095.236328125,-327.4281921386719,19880.13671875,5364.41796875,14717.5791015625,6399.94970703125,3369.649169921875,9635.2890625,10407.765625,251.13424682617188,4527.56884765625,-694.5927734375,11398.7919921875,375.9066162109375,2702.0771484375,-709.692626953125,3249.645263671875,2933.34326171875,20007.291015625,3089.110107421875,10153.453125,414.84832763671875,7810.5927734375,22941.431640625,19134.6796875,13831.4560546875,-0.0,-48925.08203125,16410.3515625,5962.0537109375,0.0,6436.5068359375,0.0,0.0
11279.5830078125,10232.92578125,26742.6171875,8357.365234375,25343.89453125,2753.734619140625,4035.631591796875,4100.0048828125,7118.3837890625,3990.33203125,13092.3583984375,-3317.197021484375,5469.322265625,0.0,18966.197265625,1957.41650390625,21576.0859375,14846.3251953125,6827.51318359375,9813.30859375,19394.556640625,26012.26171875,12820.5615234375,15573.501953125,16729.83203125,4568.89501953125,24797.12109375,-5853.97119140625,-0.0,768.5025634765625,9864.966796875,4734.9931640625,20991.16796875,13859.2724609375,9310.2451171875,21246.275390625,8107.02587890625,9318.1923828125,4085.699462890625,-294.0495910644531,19872.189453125,5366.00732421875,14718.373046875,6400.744140625,3369.649169921875,9632.9052734375,10383.923828125,256.69732666015625,4525.1845703125,-693.0033569335938,11406.7392578125,369.5487976074219,2677.440673828125,-706.5137329101562,3233.75048828125,2936.522216796875,20005.703125,3089.110107421875,10155.8369140625,409.28521728515625,7814.56640625,22941.431640625,19131.501953125,13826.6875,-0.0,-48921.109375,16409.5546875,5957.28564453125,0.0,6430.94384765625,0.0,0.0
11264.4833984375,10214.646484375,26755.33203125,8365.3134765625,25353.431640625,2756.11865234375,4041.19482421875,4111.92578125,7119.9736328125,4004.63720703125,13098.716796875,-3312.4287109375,5487.6005859375,0.0,18963.814453125,1972.516357421875,21581.650390625,14856.65625,6833.07666015625,9818.0771484375,19403.298828125,26017.03125,12828.509765625,15582.244140625,16740.95703125,4573.6630859375,24800.30078125,-5845.228515625,-0.0,758.9658203125,9871.3232421875,4735.7880859375,20998.3203125,13864.0400390625,9317.3984375,21252.6328125,8114.1787109375,9325.3447265625,4066.6259765625,-308.3547058105469,19883.314453125,5369.9814453125,14726.3212890625,6408.69140625,3374.41748046875,9643.2373046875,10405.380859375,263.8498840332031,4535.51611328125,-685.0560302734375,11409.9189453125,379.8802795410156,2663.135498046875,-720.81884765625,3236.9296875,2944.469482421875,20016.03515625,3103.415283203125,10155.8369140625,428.35870361328125,7851.1240234375,22948.583984375,19137.064453125,13825.0986328125,-0.0,-48917.1328125,16409.5546875,5955.6962890625,0.0,6446.04345703125,0.0,0.0
11277.9931640625,10240.078125,26769.638671875,8368.4921875,25359.7890625,2764.06591796875,4041.98974609375,4117.48876953125,7119.9736328125,4012.584716796875,13102.6904296875,-3308.455322265625,5475.6796875,0.0,18959.83984375,1984.437255859375,21589.59765625,14862.2197265625,6837.0498046875,9818.87109375,19413.62890625,26024.9765625,12834.8662109375,15588.6015625,16746.521484375,4575.25244140625,24795.53125,-5835.69189453125,-0.0,779.6287841796875,9877.681640625,4738.96630859375,21008.650390625,13870.3984375,9322.166015625,21258.1953125,8117.3583984375,9330.9091796875,4072.189453125,-289.2812194824219,19891.26171875,5377.1337890625,14727.115234375,6415.84375,3375.21240234375,9651.18359375,10430.8125,272.5919189453125,4536.310546875,-677.1087646484375,11406.7392578125,384.6486511230469,2677.440673828125,-708.8978881835938,3229.777099609375,2955.595703125,20017.623046875,3114.541259765625,10147.0947265625,432.3323669433594,7864.63427734375,22954.94140625,19142.626953125,13826.6875,-0.0,-48913.1640625,16405.58203125,5946.1591796875,0.0,6457.169921875,0.0,0.0
11290.7099609375,10235.3095703125,26765.666015625,8383.591796875,25359.7890625,2767.2451171875,4041.98974609375,4115.8994140625,7123.15234375,4015.763671875,13090.76953125,-3316.40234375,5464.5537109375,0.0,18965.40234375,1978.07958984375,21587.212890625,14859.8359375,6837.8447265625,9824.435546875,19412.041015625,26024.18359375,12836.4560546875,15589.396484375,16747.31640625,4576.841796875,24797.916015625,-5840.46044921875,-0.0,754.9921875,9877.681640625,4739.76123046875,21003.880859375,13869.603515625,9321.3720703125,21258.990234375,8118.947265625,9330.11328125,4087.289306640625,-298.8179626464844,19889.673828125,5381.90234375,14727.115234375,6415.84375,3377.5966796875,9649.5947265625,10422.0703125,258.28680419921875,4538.69482421875,-673.9298706054688,11410.712890625,381.4697265625,2676.64599609375,-709.692626953125,3230.57177734375,2949.23779296875,20012.85546875,3105.004638671875,10149.478515625,427.5639953613281,7856.6865234375,22953.3515625,19141.83203125,13843.376953125,-0.0,-48921.90234375,16404.787109375,5942.18603515625,0.0,6457.169921875,0.0,0.0
11283.556640625,10240.8720703125,26756.921875,8382.796875,25357.404296875,2764.86083984375,4049.142333984375,4111.92578125,7146.19970703125,4022.121337890625,13085.2060546875,-3339.44970703125,5470.91162109375,0.0,18975.734375,1955.8270263671875,21580.853515625,14859.0400390625,6839.43408203125,9844.302734375,19406.4765625,26021.798828125,12838.8408203125,15587.0126953125,16749.701171875,4572.8681640625,24805.865234375,-5850.7919921875,-0.0,730.3555908203125,9873.7080078125,4731.01953125,20998.3203125,13866.4248046875,9320.5771484375,21255.8125,8121.3310546875,9328.5244140625,4084.1103515625,-312.3283386230469,19887.2890625,5379.51806640625,14730.2939453125,6411.07568359375,3387.927978515625,9650.3896484375,10414.91796875,243.18695068359375,4542.6689453125,-681.8771362304688,11419.455078125,373.5224304199219,2674.26171875,-720.81884765625,3239.313720703125,2940.495849609375,20017.623046875,3079.573486328125,10166.962890625,428.35870361328125,7847.9453125,22952.556640625,19148.19140625,13877.55078125,-0.0,-48944.15625,16426.244140625,5960.46435546875,0.0,6466.70654296875,0.0,0.0
11285.1455078125,10256.767578125,26753.744140625,8362.1337890625,25355.021484375,2756.11865234375,4046.758056640625,4107.9521484375,7139.841796875,4008.611083984375,13091.564453125,-3339.44970703125,5471.70654296875,0.0,18970.966796875,1949.46923828125,21578.470703125,14855.861328125,6834.666015625,9833.1767578125,19403.298828125,26015.439453125,12835.662109375,15580.654296875,16748.109375,4569.689453125,24801.095703125,-5853.97119140625,-0.0,752.6079711914062,9869.734375,4727.84033203125,20997.5234375,13862.4501953125,9316.603515625,21248.658203125,8114.1787109375,9324.55078125,4087.289306640625,-336.9649353027344,19885.69921875,5359.6494140625,14726.3212890625,6407.10205078125,3381.570068359375,9643.2373046875,10398.228515625,262.26043701171875,4538.69482421875,-685.0560302734375,11415.4814453125,367.9593505859375,2695.719482421875,-726.3819580078125,3247.260986328125,2946.05908203125,20012.060546875,3075.599609375,10161.3994140625,417.2325134277344,7843.1767578125,22946.19921875,19141.83203125,13859.2724609375,-0.0,-48954.48828125,16429.423828125,5962.8486328125,0.0,6435.71240234375,0.0,0.0
11293.09375,10245.640625,26760.896484375,8358.1611328125,25358.19921875,2759.297607421875,4047.552490234375,4111.13134765625,7134.27880859375,4012.584716796875,13105.0751953125,-3330.70751953125,5469.322265625,0.0,18965.40234375,1960.5953369140625,21584.830078125,14857.451171875,6835.46044921875,9831.587890625,19408.861328125,26021.00390625,12836.4560546875,15583.8330078125,16750.494140625,4573.6630859375,24799.505859375,-5846.0234375,-0.0,756.5816040039062,9874.5029296875,4736.58251953125,21004.677734375,13867.21875,9319.7822265625,21250.248046875,8116.56298828125,9327.7294921875,4109.54150390625,-336.9649353027344,19892.056640625,5365.212890625,14727.115234375,6411.07568359375,3378.391357421875,9645.62109375,10384.71875,262.26043701171875,4535.51611328125,-677.9035034179688,11412.302734375,373.5224304199219,2720.35595703125,-750.2238159179688,3242.49267578125,2937.31689453125,20006.498046875,3092.2890625,10156.6318359375,426.7692565917969,7843.1767578125,22950.171875,19143.423828125,13855.2978515625,-0.0,-48945.7421875,16417.50390625,5965.23291015625,0.0,6435.71240234375,0.0,0.0
11293.09375,10235.3095703125,26765.666015625,8363.7236328125,25364.556640625,2756.913330078125,4049.936767578125,4110.33642578125,7139.841796875,4016.55810546875,13103.4853515625,-3332.297119140625,5474.88525390625,0.0,18971.76171875,1962.1849365234375,21588.0078125,14860.6298828125,6835.46044921875,9836.3564453125,19412.8359375,26022.591796875,12836.4560546875,15583.0380859375,16760.03125,4568.89501953125,24807.453125,-5850.7919921875,-0.0,751.0185546875,9874.5029296875,4742.9404296875,21006.265625,13869.603515625,9321.3720703125,21250.248046875,8118.947265625,9327.7294921875,4134.17822265625,-325.04400634765625,19897.619140625,5366.80224609375,14729.5,6407.10205078125,3382.364990234375,9645.62109375,10397.4345703125,257.4920654296875,4541.0791015625,-685.8507690429688,11416.2763671875,373.5224304199219,2721.150634765625,-752.6079711914062,3252.029296875,2920.627685546875,20010.470703125,3088.315185546875,10162.9892578125,427.5639953613281,7824.89794921875,22951.76171875,19144.216796875,13855.2978515625,-0.0,-48945.7421875,16415.9140625,5951.72265625,0.0,6459.55419921875,0.0,0.0
11270.8408203125,10238.48828125,26759.306640625,8359.75,25364.556640625,2752.93994140625,4049.936767578125,4108.7470703125,7140.63623046875,4015.763671875,13092.3583984375,-3349.781005859375,5473.2958984375,0.0,18975.734375,1971.7216796875,21585.623046875,14857.451171875,6833.07666015625,9835.560546875,19409.65625,26020.208984375,12834.8662109375,15580.654296875,16762.4140625,4566.5107421875,24812.220703125,-5850.7919921875,-0.0,750.2238159179688,9873.7080078125,4742.9404296875,21003.087890625,13867.21875,9321.3720703125,21249.453125,8118.15283203125,9326.140625,4088.878662109375,-339.34912109375,19896.03125,5366.80224609375,14731.08984375,6404.7177734375,3382.364990234375,9645.62109375,10392.666015625,263.8498840332031,4540.28466796875,-697.771728515625,11417.8662109375,376.70135498046875,2704.46142578125,-749.4290771484375,3245.671630859375,2924.601318359375,20013.650390625,3093.87841796875,10166.962890625,426.7692565917969,7789.9296875,22950.171875,19143.423828125,13851.3251953125,-0.0,-48952.89453125,16415.119140625,5954.9013671875,0.0,6469.88525390625,0.0,0.0
11239.0517578125,10249.6142578125,26762.486328125,8356.5712890625,25368.53125,2750.5556640625,4050.731689453125,4107.1572265625,7143.0205078125,4020.5322265625,13081.2333984375,-3356.93359375,5461.375,0.0,18972.5546875,1966.1585693359375,21584.033203125,14859.0400390625,6835.46044921875,9838.740234375,19412.041015625,26020.208984375,12836.4560546875,15580.654296875,16756.853515625,4558.5634765625,24812.220703125,-5855.560546875,-0.0,750.2238159179688,9872.9130859375,4742.9404296875,21004.677734375,13864.8349609375,9325.3447265625,21248.658203125,8120.53662109375,9326.140625,4073.778564453125,-319.48089599609375,19899.2109375,5363.623046875,14734.2685546875,6402.33349609375,3380.775390625,9647.2099609375,10379.1552734375,259.0815124511719,4531.54248046875,-700.9506225585938,11419.455078125,376.70135498046875,2690.951171875,-740.6870727539062,3221.034912109375,2915.859130859375,20008.087890625,3081.95751953125,10166.962890625,429.94818115234375,7801.0556640625,22952.556640625,19143.423828125,13856.8876953125,-0.0,-48969.5859375,16419.091796875,5947.74853515625,0.0,6477.8330078125,0.0,0.0
11237.4619140625,10251.2041015625,26761.689453125,8330.3447265625,25362.96875,2735.455810546875,4049.142333984375,4098.41552734375,7143.0205078125,4019.7373046875,13079.6435546875,-3352.165283203125,5461.375,0.0,18974.146484375,1945.49560546875,21572.908203125,14851.8876953125,6829.8974609375,9842.712890625,19404.888671875,26006.69921875,12830.0986328125,15571.1171875,16744.931640625,4537.900390625,24818.578125,-5873.04443359375,-0.0,735.918701171875,9863.376953125,4729.4296875,20995.935546875,13849.7353515625,9318.98828125,21236.73828125,8116.56298828125,9315.80859375,4055.5,-309.94415283203125,19892.8515625,5345.3447265625,14730.2939453125,6388.8232421875,3379.18603515625,9639.2626953125,10388.6923828125,239.2133026123047,4529.158203125,-715.2557373046875,11421.0439453125,364.7804260253906,2669.493408203125,-737.5081176757812,3234.54541015625,2896.78564453125,20000.138671875,3055.7314453125,10168.552734375,425.9745178222656,7834.4345703125,22944.609375,19141.83203125,13881.5244140625,-0.0,-48994.22265625,16427.041015625,5931.0595703125,0.0,6474.65380859375,0.0,0.0
11259.71484375,10243.2568359375,26768.841796875,8336.703125,25366.94140625,2741.813720703125,4051.526611328125,4097.62060546875,7132.68896484375,4009.405517578125,13059.775390625,-3343.423095703125,5468.52734375,0.0,18978.119140625,1946.2904052734375,21578.470703125,14855.0673828125,6828.30810546875,9828.408203125,19411.24609375,26013.056640625,12834.8662109375,15573.501953125,16756.853515625,4561.7421875,24832.884765625,-5873.04443359375,-0.0,729.5608520507812,9868.14453125,4725.4560546875,21003.087890625,13856.8876953125,9324.55078125,21242.30078125,8118.947265625,9316.603515625,4076.957763671875,-317.8914489746094,19899.2109375,5354.08642578125,14735.8583984375,6392.796875,3378.391357421875,9634.4951171875,10414.123046875,242.39222717285156,4545.05322265625,-716.84521484375,11427.40234375,364.7804260253906,2678.2353515625,-724.79248046875,3239.313720703125,2910.296142578125,20003.318359375,3050.168212890625,10168.552734375,420.41143798828125,7855.09765625,22948.583984375,19137.859375,13859.2724609375,-0.0,-48982.3046875,16422.271484375,5947.74853515625,0.0,6471.47509765625,0.0,0.0
11274.814453125,10228.951171875,26772.818359375,8350.212890625,25378.068359375,2752.93994140625,4056.294921875,4100.0048828125,7123.947265625,3992.71630859375,13080.4375,-3350.57568359375,5472.50146484375,0.0,18972.5546875,1951.8533935546875,21587.212890625,14863.0146484375,6833.07666015625,9814.8984375,19419.193359375,26024.9765625,12842.01953125,15581.4482421875,16773.54296875,4571.27880859375,24838.447265625,-5864.30224609375,-0.0,729.5608520507812,9877.681640625,4727.84033203125,21014.212890625,13866.4248046875,9333.29296875,21251.8359375,8123.71533203125,9322.9609375,4154.04638671875,-315.50726318359375,19907.15625,5369.1865234375,14745.39453125,6399.94970703125,3375.21240234375,9632.1103515625,10414.123046875,253.5184326171875,4551.41064453125,-708.8978881835938,11430.5810546875,370.3435363769531,2689.361572265625,-725.5872192382812,3209.114013671875,2911.0908203125,20015.240234375,3058.910400390625,10157.42578125,409.28521728515625,7853.5078125,22955.736328125,19134.6796875,13829.072265625,-0.0,-48972.765625,16415.9140625,5968.412109375,0.0,6455.580078125,0.0,0.0
11273.224609375,10223.388671875,26760.1015625,8329.55078125,25361.37890625,2741.813720703125,4037.221435546875,4087.289306640625,7108.052734375,3974.437744140625,13110.6376953125,-3364.880859375,5480.4482421875,0.0,18959.044921875,1939.9324951171875,21574.498046875,14848.708984375,6817.9765625,9800.59375,19404.888671875,26010.671875,12824.53515625,15568.7333984375,16768.7734375,4545.05322265625,24800.30078125,-5870.66015625,-0.0,720.0241088867188,9864.966796875,4723.072265625,20996.728515625,13852.119140625,9317.3984375,21239.916015625,8107.8212890625,9307.861328125,4118.28369140625,-352.06475830078125,19894.44140625,5352.4970703125,14726.3212890625,6387.23388671875,3358.523193359375,9617.0107421875,10410.1494140625,234.44493103027344,4540.28466796875,-708.1031494140625,11409.123046875,360.0120544433594,2654.3935546875,-735.918701171875,3218.65087890625,2895.1962890625,20011.267578125,3054.936767578125,10142.326171875,394.9801025390625,7852.71337890625,22942.224609375,19118.78515625,13817.1513671875,-0.0,-48987.8671875,16397.634765625,5955.6962890625,0.0,6423.79150390625,0.0,0.0
11254.9462890625,10242.4619140625,26760.1015625,8322.3984375,25348.6640625,2725.124267578125,4015.763671875,4080.93115234375,7097.72119140625,3976.82177734375,13122.55859375,-3367.264892578125,5490.77978515625,0.0,18953.482421875,1928.0115966796875,21563.37109375,14835.1982421875,6807.6455078125,9796.619140625,19396.146484375,26001.134765625,12808.640625,15558.40234375,16765.59375,4522.80029296875,24773.279296875,-5882.5810546875,-0.0,717.639892578125,9853.83984375,4710.3564453125,20987.98828125,13843.376953125,9305.4775390625,21230.37890625,8095.10498046875,9299.119140625,4072.984130859375,-356.8331298828125,19888.876953125,5337.39697265625,14702.4794921875,6373.7236328125,3345.0126953125,9611.447265625,10405.380859375,212.9872589111328,4545.05322265625,-723.2030029296875,11384.4873046875,347.29638671875,2634.525390625,-723.2030029296875,3264.7451171875,2895.990966796875,20015.240234375,3046.19482421875,10132.7900390625,395.77484130859375,7839.203125,22931.099609375,19112.427734375,13816.3564453125,-0.0,-48991.04296875,16393.662109375,5950.927734375,0.0,6432.533203125,0.0,0.0
11286.7353515625,10260.7412109375,26787.916015625,8351.802734375,25369.326171875,2745.787353515625,4039.605712890625,4103.978515625,7120.76806640625,4002.253173828125,13140.837890625,-3347.39697265625,5496.34326171875,0.0,18970.966796875,1951.8533935546875,21585.623046875,14860.6298828125,6831.4873046875,9820.4609375,19419.193359375,26024.9765625,12828.509765625,15582.244140625,16769.568359375,4551.41064453125,24801.095703125,-5859.53369140625,-0.0,731.1503295898438,9874.5029296875,4735.7880859375,21013.41796875,13865.6298828125,9328.5244140625,21252.6328125,8117.3583984375,9322.9609375,4069.01025390625,-332.99127197265625,19905.56640625,5362.82861328125,14726.3212890625,6392.796875,3367.264892578125,9637.673828125,10448.296875,213.78199768066406,4554.58984375,-701.745361328125,11409.123046875,367.16461181640625,2694.1298828125,-726.3819580078125,3282.229248046875,2916.65380859375,20020.802734375,3072.4208984375,10155.0419921875,422.0008850097656,7841.5869140625,22953.3515625,19138.654296875,13835.4296875,-0.0,-48964.81640625,16423.06640625,5965.23291015625,0.0,6453.99072265625,0.0,0.0
11278.7880859375,10236.1044921875,26779.17578125,8354.1875,25367.736328125,2746.58203125,4045.16845703125,4106.36279296875,7127.1259765625,4009.405517578125,13120.96875,-3345.807373046875,5485.216796875,0.0,18976.529296875,1959.006103515625,21587.212890625,14862.2197265625,6834.666015625,9829.998046875,19413.62890625,26023.388671875,12828.509765625,15583.8330078125,16757.646484375,4556.17919921875,24808.248046875,-5859.53369140625,-0.0,737.5081176757812,9872.119140625,4746.119140625,21007.85546875,13865.6298828125,9326.9345703125,21251.8359375,8120.53662109375,9324.55078125,4059.4736328125,-314.7125244140625,19901.59375,5362.82861328125,14731.08984375,6393.59130859375,3371.23876953125,9640.8525390625,10449.88671875,240.00804138183594,4544.25830078125,-701.745361328125,11417.0712890625,368.7540588378906,2704.46142578125,-755.786865234375,3247.260986328125,2915.064453125,20012.060546875,3077.98388671875,10162.9892578125,421.2061462402344,7832.05029296875,22955.736328125,19143.423828125,13848.1455078125,-0.0,-48962.43359375,16426.244140625,5961.25927734375,0.0,6456.375,0.0,0.0
11261.3037109375,10213.8515625,26759.306640625,8343.85546875,25358.19921875,2737.04541015625,4041.19482421875,4100.7998046875,7121.56298828125,4003.8427734375,13108.25390625,-3352.9599609375,5468.52734375,0.0,18974.939453125,1957.41650390625,21580.060546875,14852.6826171875,6829.10302734375,9825.2294921875,19403.298828125,26013.8515625,12819.7666015625,15575.091796875,16742.548828125,4552.20556640625,24809.837890625,-5868.27587890625,-0.0,736.71337890625,9863.376953125,4737.376953125,20997.5234375,13857.6826171875,9315.80859375,21242.30078125,8116.56298828125,9317.3984375,4078.547119140625,-302.7915954589844,19888.876953125,5349.31787109375,14727.115234375,6387.23388671875,3365.67578125,9632.9052734375,10412.5341796875,248.75006103515625,4537.900390625,-715.2557373046875,11414.6875,366.369873046875,2699.69287109375,-771.6814575195312,3221.034912109375,2913.47509765625,20006.498046875,3072.4208984375,10159.810546875,413.2588806152344,7809.00341796875,22949.376953125,19137.859375,13847.3515625,-0.0,-48962.43359375,16411.146484375,5952.51708984375,0.0,6450.017578125,0.0,0.0
11293.09375,10237.693359375,26746.591796875,8351.802734375,25358.19921875,2737.04541015625,4041.98974609375,4106.36279296875,7116.79443359375,4005.43212890625,13120.1748046875,-3339.44970703125,5461.375,0.0,18972.5546875,1965.36376953125,21580.060546875,14850.298828125,6830.6923828125,9822.05078125,19400.916015625,26015.439453125,12817.3828125,15576.6806640625,16739.369140625,4558.5634765625,24805.068359375,-5861.12353515625,-0.0,749.4290771484375,9863.376953125,4735.7880859375,20997.5234375,13859.2724609375,9318.1923828125,21242.30078125,8118.15283203125,9319.7822265625,4088.083740234375,-305.17578125,19885.69921875,5350.11279296875,14726.3212890625,6390.41259765625,3363.29150390625,9637.673828125,10396.6396484375,252.72369384765625,4533.1318359375,-708.8978881835938,11413.09765625,375.1119079589844,2706.845458984375,-754.1974487304688,3229.777099609375,2927.7802734375,20013.650390625,3081.95751953125,10162.9892578125,421.2061462402344,7825.6923828125,22950.171875,19140.244140625,13837.814453125,-0.0,-48945.7421875,16401.609375,5953.31201171875,0.0,6448.427734375,0.0,0.0
11308.193359375,10237.693359375,26727.517578125,8362.1337890625,25347.8671875,2731.482177734375,4033.24755859375,4101.59423828125,7112.8212890625,4003.8427734375,13113.021484375,-3344.218017578125,5456.6064453125,0.0,18963.017578125,1951.8533935546875,21573.701171875,14846.3251953125,6825.12890625,9819.6669921875,19392.171875,26012.26171875,12808.640625,15571.1171875,16717.91015625,4556.97412109375,24789.17578125,-5863.5078125,-0.0,757.3763427734375,9857.0185546875,4726.2509765625,20986.3984375,13856.09375,9311.0400390625,21235.1484375,8111.0,9316.603515625,4088.878662109375,-317.8914489746094,19872.984375,5351.7021484375,14716.7841796875,6388.02880859375,3356.138916015625,9635.2890625,10385.513671875,251.13424682617188,4514.05859375,-709.692626953125,11401.970703125,371.13824462890625,2709.229736328125,-741.4818115234375,3240.1083984375,2926.985595703125,20017.623046875,3079.573486328125,10154.2470703125,416.4377746582031,7839.9970703125,22944.609375,19135.474609375,13837.814453125,-0.0,-48948.12890625,16406.376953125,5936.62255859375,0.0,6442.86474609375,0.0,0.0
11290.7099609375,10228.951171875,26733.080078125,8347.0341796875,25348.6640625,2727.508544921875,4031.658203125,4096.03125,7112.8212890625,3999.868896484375,13095.5380859375,-3356.138916015625,5458.1962890625,0.0,18960.634765625,1943.9061279296875,21568.140625,14842.3505859375,6821.15576171875,9818.87109375,19388.994140625,26003.51953125,12805.4619140625,15566.3486328125,16719.5,4548.2314453125,24794.736328125,-5869.865234375,-0.0,740.6870727539062,9850.6611328125,4718.3037109375,20980.0390625,13852.9140625,9305.4775390625,21230.37890625,8107.8212890625,9313.423828125,4089.673583984375,-304.38104248046875,19872.189453125,5346.93408203125,14717.5791015625,6383.26025390625,3356.93359375,9632.1103515625,10375.1826171875,247.955322265625,4510.87939453125,-716.0504760742188,11403.560546875,367.16461181640625,2708.43505859375,-721.6135864257812,3221.034912109375,2912.680419921875,20008.8828125,3070.831298828125,10151.068359375,414.0535888671875,7848.73974609375,22939.046875,19132.294921875,13840.9931640625,-0.0,-48972.765625,16416.70703125,5946.1591796875,0.0,6444.4541015625,0.0,0.0
11288.3251953125,10240.078125,26758.51171875,8332.7294921875,25363.763671875,2738.634765625,4045.16845703125,4109.54150390625,7129.51025390625,4018.14794921875,13107.458984375,-3344.218017578125,5483.62744140625,0.0,18976.529296875,1955.0323486328125,21580.853515625,14851.8876953125,6833.07666015625,9834.7666015625,19403.298828125,26013.056640625,12818.97265625,15578.26953125,16743.341796875,4553.794921875,24807.453125,-5859.53369140625,-0.0,746.2501220703125,9862.58203125,4733.40380859375,20995.140625,13862.4501953125,9316.603515625,21240.7109375,8121.3310546875,9326.140625,4049.936767578125,-309.1494140625,19887.2890625,5353.2919921875,14731.8837890625,6389.6181640625,3372.033447265625,9644.826171875,10400.61328125,245.57113647460938,4529.158203125,-706.5137329101562,11419.455078125,380.67498779296875,2715.587646484375,-694.5927734375,3229.777099609375,2919.8330078125,20021.59765625,3074.804931640625,10173.3203125,431.5376281738281,7857.48193359375,22952.556640625,19147.396484375,13860.06640625,-0.0,-48971.96875,16436.576171875,5962.8486328125,0.0,6466.70654296875,0.0,0.0
11297.06640625,10233.7197265625,26752.94921875,8331.9345703125,25347.8671875,2735.455810546875,4037.221435546875,4106.36279296875,7124.7421875,4015.763671875,13093.154296875,-3338.65478515625,5474.0908203125,0.0,18965.40234375,1959.80078125,21578.470703125,14848.708984375,6827.51318359375,9833.9716796875,19399.32421875,26009.08203125,12811.8203125,15576.6806640625,16740.1640625,4531.54248046875,24794.736328125,-5857.9443359375,-0.0,744.6607055664062,9862.58203125,4735.7880859375,20993.55078125,13858.4775390625,9310.2451171875,21238.326171875,8115.7685546875,9320.5771484375,4057.08935546875,-325.8387145996094,19884.904296875,5347.728515625,14718.373046875,6387.23388671875,3365.67578125,9642.44140625,10401.408203125,248.75006103515625,4535.51611328125,-711.2821044921875,11410.712890625,379.0855407714844,2704.46142578125,-707.3084716796875,3228.982177734375,2922.217041015625,20009.67578125,3073.215576171875,10162.9892578125,430.7428894042969,7836.81884765625,22948.583984375,19141.83203125,13860.06640625,-0.0,-48955.28125,16426.244140625,5958.875,0.0,6471.47509765625,0.0,0.0
11295.4775390625,10205.9052734375,26741.822265625,8345.4443359375,25344.689453125,2735.455810546875,4031.658203125,4103.978515625,7118.3837890625,4010.200439453125,13076.46484375,-3345.0126953125,5454.22216796875,0.0,18955.072265625,1961.3902587890625,21573.701171875,14843.146484375,6825.12890625,9830.7919921875,19396.146484375,26007.494140625,12807.845703125,15575.8857421875,16731.419921875,4530.748046875,24785.19921875,-5857.9443359375,-0.0,716.84521484375,9858.6083984375,4733.40380859375,20987.19140625,13858.4775390625,9307.861328125,21235.943359375,8111.79443359375,9317.3984375,4074.573486328125,-330.6070861816406,19881.724609375,5353.2919921875,14712.810546875,6388.8232421875,3360.112548828125,9640.0576171875,10385.513671875,263.8498840332031,4526.77392578125,-716.84521484375,11401.970703125,375.1119079589844,2694.924560546875,-739.892333984375,3226.59814453125,2913.47509765625,19999.345703125,3072.4208984375,10145.5048828125,425.1798095703125,7832.05029296875,22943.814453125,19137.859375,13861.65625,-0.0,-48955.28125,16416.70703125,5951.72265625,0.0,6474.65380859375,0.0,0.0
11282.76171875,10201.13671875,26748.1796875,8349.4189453125,25354.2265625,2737.04541015625,4034.04248046875,4105.56787109375,7117.58935546875,4006.22705078125,13085.2060546875,-3341.0390625,5447.86474609375,0.0,18956.662109375,1963.7744140625,21575.29296875,14844.7353515625,6827.51318359375,9827.6142578125,19400.916015625,26009.87890625,12812.6142578125,15576.6806640625,16741.751953125,4564.9208984375,24792.353515625,-5853.97119140625,-0.0,727.1766357421875,9860.9921875,4734.1982421875,20990.37109375,13862.4501953125,9313.423828125,21236.73828125,8112.58984375,9319.7822265625,4080.13671875,-317.0967102050781,19886.494140625,5354.08642578125,14715.9892578125,6391.20703125,3360.9072265625,9636.87890625,10383.12890625,262.26043701171875,4525.1845703125,-714.4609985351562,11403.560546875,375.9066162109375,2694.1298828125,-774.8603515625,3224.2138671875,2918.243408203125,20001.73046875,3078.778564453125,10148.6845703125,422.0008850097656,7836.0244140625,22946.9921875,19137.064453125,13852.9140625,-0.0,-48952.1015625,16411.939453125,5947.74853515625,0.0,6455.580078125,0.0,0.0
11275.609375,10224.978515625,26759.306640625,8341.4716796875,25355.81640625,2737.04541015625,4036.426513671875,4105.56787109375,7119.1787109375,4000.663818359375,13090.76953125,-3325.939208984375,5450.24853515625,0.0,18961.4296875,1957.41650390625,21574.498046875,14847.9150390625,6828.30810546875,9824.435546875,19401.708984375,26009.08203125,12816.5888671875,15575.8857421875,16757.646484375,4570.484375,24799.505859375,-5853.17626953125,-0.0,748.6343383789062,9860.1982421875,4730.224609375,20994.34375,13856.8876953125,9315.80859375,21236.73828125,8114.1787109375,9320.5771484375,4081.72607421875,-307.5599670410156,19887.2890625,5345.3447265625,14719.1689453125,6392.796875,3364.086181640625,9637.673828125,10399.818359375,237.6238555908203,4527.56884765625,-704.9242553710938,11406.7392578125,372.72772216796875,2696.51416015625,-775.6550903320312,3221.034912109375,2940.495849609375,20006.498046875,3082.752197265625,10153.453125,417.2325134277344,7844.765625,22949.376953125,19137.859375,13841.7880859375,-0.0,-48937.00390625,16409.5546875,5950.1328125,0.0,6446.04345703125,0.0,0.0
11265.2783203125,10265.509765625,26752.94921875,8346.240234375,25364.556640625,2744.992431640625,4043.5791015625,4108.7470703125,7120.76806640625,3999.868896484375,13081.2333984375,-3337.0654296875,5463.7587890625,0.0,18970.171875,1970.132080078125,21572.908203125,14858.24609375,6833.87158203125,9823.6396484375,19404.888671875,26015.439453125,12821.3564453125,15581.4482421875,16782.283203125,4576.04736328125,24812.220703125,-5849.9970703125,-0.0,753.4027099609375,9863.376953125,4721.48291015625,20994.34375,13854.50390625,9320.5771484375,21242.30078125,8119.7421875,9326.140625,4067.4208984375,-353.65423583984375,19891.26171875,5354.08642578125,14727.91015625,6398.35986328125,3370.444091796875,9640.0576171875,10396.6396484375,241.5974884033203,4545.05322265625,-694.5927734375,11414.6875,379.0855407714844,2679.0302734375,-744.6607055664062,3230.57177734375,2950.032470703125,20013.650390625,3093.87841796875,10161.3994140625,418.0272521972656,7862.25048828125,22954.14453125,19141.0390625,13834.6357421875,-0.0,-48944.94921875,16416.70703125,5954.10693359375,0.0,6436.5068359375,0.0,0.0
11266.8671875,10270.2783203125,26756.12890625,8356.5712890625,25370.916015625,2749.760986328125,4048.347412109375,4111.13134765625,7120.76806640625,4004.63720703125,13081.2333984375,-3352.165283203125,5474.0908203125,0.0,18972.5546875,1969.33740234375,21576.880859375,14863.80859375,6837.0498046875,9824.435546875,19408.861328125,26021.798828125,12824.53515625,15583.8330078125,16780.6953125,4574.45751953125,24818.578125,-5846.0234375,-0.0,737.5081176757812,9869.734375,4715.91943359375,20996.728515625,13864.0400390625,9324.55078125,21246.275390625,8124.5107421875,9327.7294921875,4073.778564453125,-403.7221374511719,19897.619140625,5363.623046875,14735.8583984375,6398.35986328125,3373.622802734375,9642.44140625,10385.513671875,239.2133026123047,4556.17919921875,-693.0033569335938,11419.455078125,383.0591735839844,2655.188232421875,-732.73974609375,3238.51904296875,2932.548583984375,20009.67578125,3101.031005859375,10165.3740234375,423.59033203125,7854.30224609375,22958.12109375,19143.423828125,13833.0458984375,-0.0,-48951.30859375,16409.5546875,5954.9013671875,0.0,6438.0966796875,0.0,0.0
11273.224609375,10255.177734375,26750.564453125,8352.59765625,25362.173828125,2749.760986328125,4048.347412109375,4113.51513671875,7125.53662109375,4011.789794921875,13086.0009765625,-3341.0390625,5467.73291015625,0.0,18971.76171875,1962.1849365234375,21579.265625,14863.0146484375,6838.6396484375,9829.998046875,19405.68359375,26017.82421875,12825.330078125,15583.0380859375,16741.751953125,4562.53662109375,24811.42578125,-5849.20263671875,-0.0,739.0975952148438,9869.734375,4720.68798828125,20994.34375,13866.4248046875,9323.755859375,21243.890625,8122.9208984375,9328.5244140625,4095.236328125,-298.0232238769531,19887.2890625,5358.060546875,14731.8837890625,6399.15478515625,3376.8017578125,9646.416015625,10364.0556640625,238.4185791015625,4537.900390625,-700.9506225585938,11421.0439453125,383.0591735839844,2650.419921875,-716.84521484375,3228.982177734375,2923.01171875,19993.78125,3093.083740234375,10164.578125,433.92181396484375,7841.5869140625,22957.32421875,19146.6015625,13841.7880859375,-0.0,-48952.1015625,16419.091796875,5952.51708984375,0.0,6438.0966796875,0.0,0.0
11250.1787109375,10221.798828125,26748.9765625,8334.3193359375,25353.431640625,2741.813720703125,4049.936767578125,4105.56787109375,7133.48388671875,4010.995361328125,13102.6904296875,-3360.9072265625,5460.58056640625,0.0,18973.349609375,1951.0587158203125,21571.318359375,14858.24609375,6833.07666015625,9835.560546875,19400.119140625,26010.671875,12822.9453125,15575.8857421875,16729.037109375,4551.41064453125,24806.658203125,-5863.5078125,-0.0,719.2293701171875,9860.9921875,4717.5087890625,20990.37109375,13856.09375,9317.3984375,21236.73828125,8120.53662109375,9322.9609375,4075.368408203125,-303.5863342285156,19880.9296875,5350.90771484375,14727.91015625,6392.001953125,3379.980712890625,9641.6474609375,10373.5927734375,225.7029266357422,4522.80029296875,-709.692626953125,11426.6083984375,374.3171691894531,2665.519775390625,-734.3292236328125,3229.777099609375,2905.52783203125,19992.986328125,3068.447021484375,10166.16796875,423.59033203125,7812.18212890625,22950.96875,19145.806640625,13854.50390625,-0.0,-48975.15234375,16422.271484375,5939.0068359375,0.0,6457.169921875,0.0,0.0
11229.5146484375,10207.494140625,26738.64453125,8315.24609375,25339.921875,2719.561279296875,4039.605712890625,4091.2626953125,7131.099609375,4000.663818359375,13078.0537109375,-3383.954345703125,5449.45361328125,0.0,18970.171875,1939.9324951171875,21557.01171875,14837.5830078125,6821.15576171875,9830.7919921875,19386.609375,25993.982421875,12811.0244140625,15561.5810546875,16714.73046875,4523.59521484375,24786.791015625,-5884.17041015625,-0.0,714.4609985351562,9847.4814453125,4709.56201171875,20980.0390625,13838.6083984375,9303.0927734375,21217.6640625,8108.61572265625,9307.0673828125,4074.573486328125,-345.7069396972656,19866.625,5327.06591796875,14715.9892578125,6373.7236328125,3371.23876953125,9627.341796875,10387.103515625,223.31874084472656,4508.4951171875,-734.3292236328125,11416.2763671875,358.422607421875,2666.314453125,-755.786865234375,3214.677001953125,2880.89111328125,20003.318359375,3045.39990234375,10164.578125,403.7221374511719,7793.1083984375,22935.8671875,19134.6796875,13858.4775390625,-0.0,-49000.578125,16403.994140625,5911.98583984375,0.0,6450.81201171875,0.0,0.0
11201.69921875,10219.4150390625,26733.875,8303.32421875,25326.41015625,2706.05078125,4015.763671875,4083.3154296875,7112.8212890625,3988.742919921875,13058.185546875,-3374.41748046875,5443.89111328125,0.0,18954.27734375,1943.1114501953125,21545.88671875,14820.0986328125,6806.0556640625,9813.30859375,19374.689453125,25977.29296875,12796.7197265625,15549.66015625,16702.810546875,4513.263671875,24763.7421875,-5887.349609375,-0.0,721.6135864257812,9833.1767578125,4696.05126953125,20971.298828125,13826.6875,9289.58203125,21204.15234375,8088.748046875,9295.1455078125,4088.878662109375,-341.7333068847656,19858.6796875,5308.787109375,14691.3525390625,6364.1865234375,3351.37060546875,9617.0107421875,10392.666015625,216.96090698242188,4499.75341796875,-741.4818115234375,11381.30859375,351.2700500488281,2646.4462890625,-757.3763427734375,3198.78271484375,2887.2490234375,20004.908203125,3052.552490234375,10147.888671875,398.9537658691406,7799.466796875,22922.357421875,19120.375,13838.6083984375,-0.0,-49002.96484375,16384.919921875,5908.80712890625,0.0,6437.3017578125,0.0,0.0
11243.8203125,10238.48828125,26753.744140625,8314.4501953125,25347.8671875,2737.83984375,4034.04248046875,4109.54150390625,7125.53662109375,4007.81640625,13082.822265625,-3349.781005859375,5460.58056640625,0.0,18965.40234375,1967.7479248046875,21568.140625,14842.3505859375,6826.71875,9826.0244140625,19396.939453125,26004.314453125,12821.3564453125,15573.501953125,16733.8046875,4545.05322265625,24789.17578125,-5854.765625,-0.0,737.5081176757812,9855.4296875,4719.89306640625,20990.37109375,13849.7353515625,9311.0400390625,21228.791015625,8108.61572265625,9318.1923828125,4090.468017578125,-312.3283386230469,19881.724609375,5342.16552734375,14712.810546875,6395.18115234375,3368.8544921875,9640.0576171875,10400.61328125,229.6765594482422,4523.59521484375,-707.3084716796875,11398.7919921875,377.49609375,2692.54052734375,-730.3555908203125,3211.498291015625,2919.0380859375,20012.85546875,3088.315185546875,10160.60546875,427.5639953613281,7832.8447265625,22945.404296875,19137.859375,13845.76171875,-0.0,-48980.7109375,16406.376953125,5942.98046875,0.0,6451.60693359375,0.0,0.0
11278.7880859375,10229.7470703125,26750.564453125,8331.1396484375,25354.2265625,2747.376708984375,4038.810791015625,4111.92578125,7131.099609375,4011.789794921875,13081.2333984375,-3345.807373046875,5463.7587890625,0.0,18961.4296875,1963.7744140625,21572.908203125,14847.119140625,6829.10302734375,9831.587890625,19400.119140625,26010.671875,12826.919921875,15577.4755859375,16744.13671875,4557.7685546875,24790.763671875,-5853.17626953125,-0.0,725.5872192382812,9859.40234375,4730.224609375,20988.783203125,13858.4775390625,9315.013671875,21231.970703125,8113.38427734375,9320.5771484375,4071.39453125,-311.5335998535156,19884.109375,5352.4970703125,14719.1689453125,6400.744140625,3374.41748046875,9644.03125,10379.9501953125,239.2133026123047,4528.36376953125,-698.56640625,11405.150390625,379.0855407714844,2704.46142578125,-724.79248046875,3211.498291015625,2903.1435546875,20006.498046875,3087.5205078125,10156.6318359375,425.9745178222656,7831.255859375,22948.583984375,19141.0390625,13852.9140625,-0.0,-48969.5859375,16415.9140625,5958.080078125,0.0,6460.3486328125,0.0,0.0
11290.7099609375,10241.66796875,26751.359375,8335.11328125,25357.404296875,2749.760986328125,4039.605712890625,4111.13134765625,7131.099609375,4013.379638671875,13094.7431640625,-3343.423095703125,5478.85888671875,0.0,18962.224609375,1964.569091796875,21572.908203125,14852.6826171875,6831.4873046875,9829.203125,19403.298828125,26011.466796875,12830.0986328125,15579.859375,16753.673828125,4565.7158203125,24795.53125,-5851.5869140625,-0.0,726.3819580078125,9860.9921875,4732.60888671875,20991.16796875,13858.4775390625,9317.3984375,21232.763671875,8114.97412109375,9321.3720703125,4061.857666015625,-326.6334533691406,19888.876953125,5355.67626953125,14722.34765625,6403.9228515625,3375.21240234375,9643.2373046875,10396.6396484375,246.36587524414062,4533.92626953125,-693.0033569335938,11408.3291015625,381.4697265625,2717.17724609375,-728.76611328125,3228.982177734375,2903.938232421875,20001.73046875,3083.546875,10157.42578125,426.7692565917969,7828.076171875,22948.583984375,19144.216796875,13853.708984375,-0.0,-48959.25390625,16414.32421875,5970.0009765625,0.0,6452.40185546875,0.0,0.0
11258.919921875,10251.9990234375,26733.080078125,8327.9609375,25347.8671875,2748.171630859375,4038.810791015625,4108.7470703125,7127.92041015625,4011.789794921875,13086.0009765625,-3349.781005859375,5474.88525390625,0.0,18967.787109375,1952.648193359375,21565.755859375,14850.298828125,6829.8974609375,9827.6142578125,19392.966796875,26005.90234375,12826.919921875,15575.091796875,16722.6796875,4564.12646484375,24797.916015625,-5850.7919921875,-0.0,732.73974609375,9854.634765625,4720.68798828125,20981.630859375,13853.708984375,9310.2451171875,21227.994140625,8109.41015625,9319.7822265625,4034.04248046875,-362.396240234375,19872.189453125,5350.90771484375,14719.962890625,6403.1279296875,3375.21240234375,9639.2626953125,10395.8447265625,248.75006103515625,4525.1845703125,-687.4402465820312,11409.123046875,378.2908020019531,2694.1298828125,-745.4554443359375,3231.366455078125,2926.985595703125,20004.11328125,3081.95751953125,10158.2216796875,426.7692565917969,7840.79248046875,22945.404296875,19141.0390625,13851.3251953125,-0.0,-48963.23046875,16410.3515625,5974.76953125,0.0,6451.60693359375,0.0,0.0
11254.9462890625,10242.4619140625,26726.72265625,8331.1396484375,25345.484375,2741.813720703125,4035.631591796875,4100.0048828125,7131.099609375,4003.0478515625,13074.875,-3359.31787109375,5445.48046875,0.0,18967.787109375,1940.727294921875,21560.19140625,14842.3505859375,6823.53955078125,9825.2294921875,19386.609375,25999.546875,12822.9453125,15566.3486328125,16709.962890625,4549.8212890625,24799.505859375,-5861.91796875,-0.0,726.3819580078125,9848.27734375,4711.94580078125,20976.06640625,13848.9404296875,9305.4775390625,21221.638671875,8105.4375,9313.423828125,4044.3740234375,-398.1590270996094,19863.447265625,5343.75537109375,14715.9892578125,6392.001953125,3372.033447265625,9632.1103515625,10379.1552734375,233.65020751953125,4518.0322265625,-696.9769897460938,11407.5341796875,367.9593505859375,2686.1826171875,-760.5552978515625,3212.29296875,2926.985595703125,19994.578125,3067.65234375,10159.810546875,416.4377746582031,7832.8447265625,22937.45703125,19135.474609375,13844.966796875,-0.0,-48971.17578125,16407.966796875,5962.0537109375,0.0,6446.83837890625,0.0,0.0
11270.8408203125,10238.48828125,26736.259765625,8343.060546875,25355.81640625,2745.787353515625,4045.96337890625,4106.36279296875,7138.25244140625,4007.021484375,13086.7958984375,-3345.0126953125,5443.89111328125,0.0,18976.529296875,1955.8270263671875,21568.93359375,14846.3251953125,6828.30810546875,9830.7919921875,19396.146484375,26006.69921875,12832.482421875,15573.501953125,16725.859375,4551.41064453125,24809.041015625,-5857.1494140625,-0.0,723.9977416992188,9856.2236328125,4717.5087890625,20984.80859375,13853.708984375,9312.6298828125,21227.201171875,8113.38427734375,9318.98828125,4067.4208984375,-345.7069396972656,19875.3671875,5351.7021484375,14725.525390625,6395.9755859375,3378.391357421875,9636.0849609375,10374.38671875,209.808349609375,4522.00537109375,-700.9506225585938,11417.8662109375,379.0855407714844,2691.745849609375,-760.5552978515625,3201.96142578125,2939.701171875,19999.345703125,3085.136474609375,10172.5263671875,424.38507080078125,7829.666015625,22943.01953125,19139.447265625,13849.7353515625,-0.0,-48953.6953125,16419.091796875,5954.10693359375,0.0,6446.83837890625,0.0,0.0
11271.6357421875,10221.0048828125,26729.107421875,8345.4443359375,25334.357421875,2738.634765625,4028.47900390625,4096.826171875,7122.35791015625,3996.690185546875,13085.2060546875,-3359.31787109375,5450.24853515625,0.0,18956.662109375,1955.8270263671875,21560.19140625,14835.1982421875,6817.9765625,9815.693359375,19385.01953125,26000.341796875,12818.1767578125,15563.96484375,16721.08984375,4549.8212890625,24785.99609375,-5861.12353515625,-0.0,703.3348388671875,9848.27734375,4710.3564453125,20976.06640625,13850.529296875,9298.32421875,21216.869140625,8101.46337890625,9310.2451171875,4061.063232421875,-339.34912109375,19865.03515625,5353.2919921875,14706.4521484375,6388.02880859375,3363.29150390625,9625.7529296875,10365.6455078125,205.83470153808594,4510.87939453125,-709.692626953125,11399.5869140625,371.13824462890625,2667.109130859375,-754.9921875,3205.935302734375,2929.36962890625,19994.578125,3087.5205078125,10151.068359375,414.0535888671875,7816.1552734375,22933.482421875,19125.9375,13836.224609375,-0.0,-48969.5859375,16412.734375,5919.138671875,0.0,6443.6591796875,0.0,0.0
11272.4306640625,10228.1572265625,26732.287109375,8343.85546875,25330.384765625,2730.6875,4022.916259765625,4092.85205078125,7121.56298828125,3997.484619140625,13086.0009765625,-3370.444091796875,5458.99072265625,0.0,18947.919921875,1959.006103515625,21559.396484375,14834.404296875,6815.59228515625,9818.0771484375,19385.01953125,25997.95703125,12815.79296875,15560.7861328125,16729.037109375,4539.48974609375,24773.279296875,-5868.27587890625,-0.0,706.5137329101562,9848.27734375,4715.91943359375,20976.06640625,13849.7353515625,9296.734375,21213.689453125,8098.28466796875,9307.0673828125,4045.16845703125,-316.3019714355469,19864.240234375,5346.93408203125,14697.7109375,6380.0810546875,3357.728271484375,9626.5478515625,10383.12890625,247.16058349609375,4506.90625,-720.0241088867188,11389.255859375,367.16461181640625,2669.493408203125,-735.1239624023438,3213.88232421875,2904.73291015625,19994.578125,3073.215576171875,10141.5322265625,411.6694030761719,7809.00341796875,22931.89453125,19125.9375,13840.9931640625,-0.0,-48981.5078125,16417.50390625,5937.41748046875,0.0,6442.06982421875,0.0,0.0
11258.125,10220.2099609375,26743.412109375,8325.5771484375,25343.89453125,2730.6875,4036.426513671875,4098.41552734375,7135.8681640625,4007.81640625,13058.98046875,-3367.264892578125,5456.6064453125,0.0,18959.044921875,1947.0850830078125,21568.93359375,14843.9404296875,6825.12890625,9830.7919921875,19394.556640625,26002.7265625,12826.919921875,15568.7333984375,16735.39453125,4538.69482421875,24799.505859375,-5870.66015625,-0.0,720.0241088867188,9855.4296875,4725.4560546875,20986.3984375,13853.708984375,9309.451171875,21220.841796875,8111.0,9311.8349609375,4041.19482421875,-302.7915954589844,19872.984375,5347.728515625,14715.1943359375,6385.64453125,3371.23876953125,9635.2890625,10389.4873046875,240.00804138183594,4510.87939453125,-721.6135864257812,11408.3291015625,368.7540588378906,2681.414306640625,-739.892333984375,3229.777099609375,2899.964599609375,19996.166015625,3059.705078125,10158.2216796875,422.0008850097656,7818.53955078125,22941.431640625,19137.064453125,13855.2978515625,-0.0,-48979.12109375,16435.78125,5970.7958984375,0.0,6456.375,0.0,0.0
11254.1513671875,10208.2890625,26743.412109375,8314.4501953125,25351.046875,2730.6875,4045.16845703125,4103.978515625,7138.25244140625,4010.995361328125,13027.19140625,-3351.37060546875,5447.06982421875,0.0,18966.197265625,1947.8797607421875,21566.548828125,14849.50390625,6833.07666015625,9833.1767578125,19393.76171875,26001.134765625,12832.482421875,15571.912109375,16731.419921875,4536.310546875,24808.248046875,-5865.09716796875,-0.0,722.4083251953125,9855.4296875,4718.3037109375,20984.013671875,13850.529296875,9313.423828125,21221.638671875,8118.15283203125,9318.1923828125,4060.268310546875,-311.5335998535156,19876.162109375,5340.576171875,14726.3212890625,6389.6181640625,3379.18603515625,9640.0576171875,10377.56640625,211.39781188964844,4513.263671875,-728.76611328125,11420.25,368.7540588378906,2682.208984375,-766.1183471679688,3213.087890625,2906.322509765625,19997.755859375,3076.394287109375,10162.1943359375,428.35870361328125,7828.87158203125,22947.7890625,19144.216796875,13857.6826171875,-0.0,-48966.40625,16438.9609375,5970.7958984375,0.0,6456.375,0.0,0.0
11268.4560546875,10228.1572265625,26751.359375,8339.087890625,25357.404296875,2741.813720703125,4052.321044921875,4115.8994140625,7140.63623046875,4021.32666015625,13090.76953125,-3345.0126953125,5451.04345703125,0.0,18970.966796875,1962.9796142578125,21576.0859375,14858.24609375,6841.02392578125,9841.9189453125,19400.119140625,26009.87890625,12839.634765625,15582.244140625,16742.548828125,4549.0263671875,24799.505859375,-5850.7919921875,-0.0,735.1239624023438,9864.966796875,4726.2509765625,20991.9609375,13861.65625,9320.5771484375,21230.37890625,8126.099609375,9330.11328125,4079.341796875,-305.17578125,19883.314453125,5350.90771484375,14732.6787109375,6400.744140625,3385.5439453125,9648.7998046875,10369.6181640625,241.5974884033203,4526.77392578125,-716.84521484375,11423.4287109375,379.0855407714844,2680.619384765625,-754.9921875,3212.29296875,2919.8330078125,20002.5234375,3093.083740234375,10165.3740234375,434.716552734375,7829.666015625,22956.529296875,19152.958984375,13868.0146484375,-0.0,-48956.87109375,16433.396484375,5944.56982421875,0.0,6471.47509765625,0.0,0.0
11264.4833984375,10228.951171875,26751.359375,8347.0341796875,25354.2265625,2741.813720703125,4038.015869140625,4108.7470703125,7121.56298828125,4010.200439453125,13100.306640625,-3344.218017578125,5477.26953125,0.0,18962.224609375,1958.211181640625,21576.0859375,14855.0673828125,6833.07666015625,9827.6142578125,19400.119140625,26009.08203125,12830.8935546875,15577.4755859375,16755.26171875,4552.20556640625,24797.916015625,-5856.35498046875,-0.0,727.9713745117188,9861.787109375,4730.224609375,20991.9609375,13860.06640625,9315.80859375,21226.40625,8115.7685546875,9322.9609375,4067.4208984375,-312.3283386230469,19887.2890625,5352.4970703125,14716.7841796875,6396.7705078125,3368.8544921875,9640.8525390625,10374.38671875,236.03439331054688,4546.64208984375,-708.1031494140625,11405.9453125,371.9329833984375,2655.188232421875,-764.5289306640625,3228.982177734375,2915.859130859375,20011.267578125,3080.3681640625,10151.86328125,427.5639953613281,7781.1875,22950.171875,19141.0390625,13853.708984375,-0.0,-48961.640625,16407.966796875,5935.033203125,0.0,6457.169921875,0.0,0.0
11239.8466796875,10220.2099609375,26743.412109375,8336.703125,25349.458984375,2737.04541015625,4032.453125,4098.41552734375,7112.8212890625,3998.279541015625,13093.154296875,-3355.343994140625,5480.4482421875,0.0,18963.814453125,1940.727294921875,21569.728515625,14847.9150390625,6824.33447265625,9814.8984375,19394.556640625,26002.7265625,12823.7412109375,15569.52734375,16754.46875,4545.84765625,24805.068359375,-5865.89208984375,-0.0,714.4609985351562,9853.83984375,4724.6611328125,20987.19140625,13853.708984375,9307.861328125,21220.841796875,8108.61572265625,9314.2197265625,4049.936767578125,-327.4281921386719,19879.341796875,5347.728515625,14712.015625,6388.8232421875,3360.9072265625,9630.5205078125,10383.12890625,205.83470153808594,4541.0791015625,-711.2821044921875,11404.35546875,360.0120544433594,2648.830322265625,-795.5233154296875,3209.114013671875,2904.73291015625,20012.060546875,3068.447021484375,10151.86328125,413.2588806152344,7778.80322265625,22941.431640625,19133.091796875,13836.224609375,-0.0,-48974.35546875,16392.072265625,5936.62255859375,0.0,6445.2490234375,0.0,0.0
11240.6416015625,10227.3623046875,26746.591796875,8336.703125,25349.458984375,2743.403076171875,4038.015869140625,4103.978515625,7123.15234375,4000.663818359375,13097.126953125,-3352.165283203125,5470.1171875,0.0,18964.609375,1952.648193359375,21576.880859375,14849.50390625,6829.10302734375,9822.05078125,19396.939453125,26009.87890625,12826.919921875,15575.8857421875,16742.548828125,4567.30517578125,24803.48046875,-5863.5078125,-0.0,720.81884765625,9860.1982421875,4727.04541015625,20991.9609375,13859.2724609375,9311.8349609375,21225.611328125,8114.1787109375,9318.1923828125,4069.01025390625,-329.01763916015625,19879.341796875,5357.265625,14716.7841796875,6393.59130859375,3367.264892578125,9635.2890625,10383.923828125,222.5240020751953,4533.1318359375,-704.1295166015625,11406.7392578125,365.5751647949219,2677.440673828125,-773.2709350585938,3223.419189453125,2913.47509765625,20004.11328125,3072.4208984375,10153.453125,416.4377746582031,7839.203125,22948.583984375,19137.859375,13837.01953125,-0.0,-48968.79296875,16406.376953125,5942.18603515625,0.0,6446.04345703125,0.0,0.0
11240.6416015625,10225.7724609375,26748.1796875,8335.11328125,25346.279296875,2735.455810546875,4035.631591796875,4103.18359375,7139.841796875,4004.63720703125,13087.58984375,-3353.754638671875,5470.91162109375,0.0,18964.609375,1960.5953369140625,21574.498046875,14848.708984375,6827.51318359375,9834.7666015625,19395.3515625,26006.69921875,12826.125,15572.70703125,16724.267578125,4566.5107421875,24783.611328125,-5869.0703125,-0.0,732.73974609375,9858.6083984375,4725.4560546875,20991.16796875,13858.4775390625,9311.0400390625,21221.638671875,8114.97412109375,9316.603515625,4098.41552734375,-352.8594970703125,19876.162109375,5354.88134765625,14711.220703125,6389.6181640625,3372.828125,9638.46875,10386.3076171875,244.77639770507812,4517.2373046875,-706.5137329101562,11405.9453125,370.3435363769531,2677.440673828125,-733.5344848632812,3234.54541015625,2916.65380859375,20008.087890625,3070.03662109375,10161.3994140625,423.59033203125,7852.71337890625,22946.9921875,19140.244140625,13855.2978515625,-0.0,-48968.79296875,16429.423828125,5939.0068359375,0.0,6434.91748046875,0.0,0.0
11257.3310546875,10185.2421875,26743.412109375,8318.423828125,25338.33203125,2717.9716796875,4030.06884765625,4092.0576171875,7150.17333984375,4002.253173828125,13071.6962890625,-3362.49658203125,5455.81201171875,0.0,18966.197265625,1951.0587158203125,21560.98828125,14840.76171875,6818.771484375,9837.9453125,19387.404296875,25993.982421875,12817.3828125,15561.5810546875,16713.142578125,4530.748046875,24774.869140625,-5880.99169921875,-0.0,723.9977416992188,9846.6875,4707.177734375,20980.0390625,13845.76171875,9299.9140625,21208.12890625,8107.02587890625,9307.0673828125,4065.83154296875,-367.16461181640625,19866.625,5334.21826171875,14701.68359375,6375.31298828125,3370.444091796875,9628.931640625,10387.8974609375,243.98167419433594,4502.93212890625,-723.2030029296875,11405.150390625,361.60150146484375,2667.109130859375,-736.71337890625,3205.935302734375,2904.73291015625,20004.11328125,3062.884033203125,10173.3203125,419.61669921875,7822.513671875,22934.279296875,19135.474609375,13868.80859375,-0.0,-48979.91796875,16436.576171875,5941.39111328125,0.0,6426.97021484375,0.0,0.0
11254.1513671875,10206.69921875,26756.921875,8323.1923828125,25352.63671875,2723.534912109375,4037.221435546875,4090.468017578125,7147.7890625,4005.43212890625,13080.4375,-3359.31787109375,5465.3486328125,0.0,18972.5546875,1935.1640625,21569.728515625,14846.3251953125,6823.53955078125,9837.150390625,19398.53125,26003.51953125,12822.9453125,15563.96484375,16736.984375,4531.54248046875,24793.1484375,-5877.81298828125,-0.0,721.6135864257812,9856.2236328125,4722.27734375,20989.576171875,13852.119140625,9310.2451171875,21212.896484375,8111.0,9308.6552734375,4058.67919921875,-326.6334533691406,19880.9296875,5338.98681640625,14713.6044921875,6378.49169921875,3375.21240234375,9628.13671875,10380.7451171875,249.54476928710938,4525.1845703125,-720.0241088867188,11412.302734375,355.2436828613281,2679.0302734375,-732.73974609375,3213.087890625,2907.1171875,20008.087890625,3060.5,10174.91015625,413.2588806152344,7805.82421875,22939.046875,19137.064453125,13871.193359375,-0.0,-48975.15234375,16423.861328125,5950.1328125,0.0,6441.27490234375,0.0,0.0
11258.125,10244.0517578125,26759.306640625,8335.11328125,25361.37890625,2729.892822265625,4041.98974609375,4093.64697265625,7133.48388671875,4004.63720703125,13101.8955078125,-3350.57568359375,5472.50146484375,0.0,18973.349609375,1936.753662109375,21583.23828125,14850.298828125,6825.12890625,9830.7919921875,19405.68359375,26012.26171875,12828.509765625,15567.9384765625,16748.904296875,4534.72119140625,24809.041015625,-5872.24951171875,-0.0,729.5608520507812,9864.966796875,4742.9404296875,20999.908203125,13862.4501953125,9318.98828125,21220.841796875,8114.97412109375,9311.0400390625,4075.368408203125,-303.5863342285156,19888.08203125,5344.5498046875,14722.34765625,6381.67041015625,3373.622802734375,9630.5205078125,10382.3349609375,241.5974884033203,4537.900390625,-717.639892578125,11415.4814453125,360.8067932128906,2690.15625,-724.79248046875,3234.54541015625,2905.52783203125,20013.650390625,3064.473388671875,10165.3740234375,418.0272521972656,7809.00341796875,22944.609375,19139.447265625,13866.4248046875,-0.0,-48972.765625,16419.88671875,5944.56982421875,0.0,6446.04345703125,0.0,0.0
11261.3037109375,10236.8994140625,26740.232421875,8335.11328125,25344.689453125,2724.32958984375,4029.27392578125,4086.494384765625,7118.3837890625,3998.279541015625,13099.5107421875,-3364.086181640625,5461.375,0.0,18957.45703125,1934.369384765625,21576.880859375,14840.76171875,6813.2080078125,9818.0771484375,19392.966796875,26005.109375,12814.2041015625,15559.1962890625,16726.65234375,4533.92626953125,24800.30078125,-5880.99169921875,-0.0,726.3819580078125,9857.0185546875,4733.40380859375,20991.9609375,13859.2724609375,9306.271484375,21212.1015625,8103.84765625,9301.5029296875,4076.162841796875,-317.0967102050781,19869.009765625,5342.16552734375,14708.8369140625,6372.1337890625,3358.523193359375,9624.9580078125,10392.666015625,220.1398162841797,4522.80029296875,-731.945068359375,11402.7666015625,354.4489440917969,2692.54052734375,-747.839599609375,3228.982177734375,2891.22265625,20001.73046875,3050.168212890625,10144.7109375,417.2325134277344,7820.12939453125,22934.279296875,19129.912109375,13855.2978515625,-0.0,-48992.6328125,16424.65625,5942.18603515625,0.0,6444.4541015625,0.0,0.0
11274.814453125,10235.3095703125,26742.6171875,8328.755859375,25343.099609375,2723.534912109375,4024.505615234375,4082.52099609375,7100.10546875,3994.30615234375,13098.716796875,-3373.622802734375,5458.1962890625,0.0,18947.125,1927.2169189453125,21573.701171875,14842.3505859375,6810.029296875,9803.771484375,19392.966796875,26005.109375,12810.23046875,15557.6064453125,16730.626953125,4533.92626953125,24787.583984375,-5884.17041015625,-0.0,726.3819580078125,9856.2236328125,4727.04541015625,20989.576171875,13859.2724609375,9303.8876953125,21209.716796875,8099.0791015625,9296.734375,4071.39453125,-308.3547058105469,19871.392578125,5348.5234375,14704.068359375,6369.74951171875,3350.57568359375,9618.599609375,10401.408203125,224.11346435546875,4517.2373046875,-731.1503295898438,11393.2294921875,348.09112548828125,2697.308837890625,-765.3236083984375,3235.340087890625,2904.73291015625,19994.578125,3045.39990234375,10131.9951171875,410.87469482421875,7843.1767578125,22932.6875,19120.375,13825.8935546875,-0.0,-48990.25,16411.939453125,5957.28564453125,0.0,6454.78564453125,0.0,0.0
11277.9931640625,10236.8994140625,26745.0,8322.3984375,25343.099609375,2710.024658203125,4019.7373046875,4076.162841796875,7097.72119140625,3991.126953125,13094.7431640625,-3364.880859375,5455.81201171875,0.0,18946.330078125,1930.395751953125,21564.166015625,14838.3779296875,6805.26123046875,9800.59375,19388.994140625,25995.572265625,12808.640625,15551.2490234375,16722.6796875,4504.52197265625,24777.25390625,-5888.93896484375,-0.0,724.79248046875,9848.27734375,4712.740234375,20983.21875,13848.1455078125,9299.9140625,21200.1796875,8094.310546875,9291.966796875,4056.294921875,-322.6598205566406,19873.77734375,5331.83447265625,14700.0947265625,6365.77587890625,3346.602294921875,9613.8310546875,10395.0498046875,212.9872589111328,4514.85302734375,-731.1503295898438,11390.845703125,343.32275390625,2669.493408203125,-760.5552978515625,3224.2138671875,2926.190673828125,19996.9609375,3047.7841796875,10131.9951171875,402.9273986816406,7853.5078125,22927.919921875,19115.60546875,13826.6875,-0.0,-48980.7109375,16401.609375,5949.33837890625,0.0,6453.99072265625,0.0,0.0
11272.4306640625,10226.5673828125,26754.537109375,8335.908203125,25356.611328125,2727.508544921875,4027.6845703125,4086.494384765625,7105.66845703125,3995.8955078125,13098.716796875,-3356.93359375,5461.375,0.0,18954.27734375,1949.46923828125,21569.728515625,14847.9150390625,6812.41357421875,9806.15625,19398.53125,26004.314453125,12816.5888671875,15561.5810546875,16736.189453125,4551.41064453125,24789.96875,-5873.8388671875,-0.0,727.1766357421875,9856.2236328125,4714.330078125,20991.16796875,13855.2978515625,9310.2451171875,21210.51171875,8104.64208984375,9302.298828125,4063.447509765625,-330.6070861816406,19888.08203125,5346.93408203125,14712.810546875,6380.8759765625,3354.54931640625,9621.779296875,10401.408203125,220.93455505371094,4514.05859375,-709.692626953125,11401.1767578125,356.8331298828125,2657.572509765625,-752.6079711914062,3220.240234375,2926.190673828125,20004.908203125,3070.03662109375,10140.736328125,410.0799560546875,7842.38134765625,22936.662109375,19122.759765625,13831.4560546875,-0.0,-48971.96875,16409.5546875,5949.33837890625,0.0,6450.81201171875,0.0,0.0
11268.4560546875,10218.6201171875,26759.306640625,8336.703125,25359.7890625,2729.09814453125,4033.24755859375,4089.673583984375,7113.61572265625,3997.484619140625,13080.4375,-3356.93359375,5480.4482421875,0.0,18959.044921875,1947.0850830078125,21571.318359375,14849.50390625,6814.0029296875,9812.5146484375,19401.708984375,26005.109375,12820.5615234375,15562.375,16753.673828125,4547.43701171875,24801.095703125,-5873.8388671875,-0.0,736.71337890625,9860.9921875,4719.0986328125,20995.935546875,13857.6826171875,9314.2197265625,21210.51171875,8109.41015625,9305.4775390625,4091.2626953125,-329.01763916015625,19888.876953125,5348.5234375,14718.373046875,6381.67041015625,3358.523193359375,9624.1640625,10407.765625,230.47129821777344,4522.00537109375,-711.2821044921875,11407.5341796875,357.62786865234375,2669.493408203125,-764.5289306640625,3231.366455078125,2912.680419921875,20007.291015625,3062.089111328125,10146.30078125,412.4641418457031,7839.9970703125,22940.634765625,19124.349609375,13838.6083984375,-0.0,-48979.12109375,16419.88671875,5959.66943359375,0.0,6451.60693359375,0.0,0.0
11270.0458984375,10224.1826171875,26744.20703125,8320.80859375,25332.76953125,2720.35595703125,4016.55810546875,4077.752685546875,7106.462890625,3987.947998046875,13082.822265625,-3359.31787109375,5474.0908203125,0.0,18955.865234375,1926.422119140625,21560.98828125,14832.814453125,6802.08203125,9803.771484375,19385.814453125,25992.392578125,12803.8720703125,15550.4541015625,16751.2890625,4535.51611328125,24785.19921875,-5885.759765625,-0.0,722.4083251953125,9847.4814453125,4716.71435546875,20982.423828125,13847.3515625,9295.9404296875,21197.794921875,8095.10498046875,9293.556640625,4056.294921875,-335.3754577636719,19867.419921875,5338.98681640625,14695.3271484375,6372.9287109375,3347.39697265625,9613.037109375,10399.818359375,228.8818359375,4523.59521484375,-722.4083251953125,11396.408203125,344.11749267578125,2685.387939453125,-781.2182006835938,3236.134765625,2899.169921875,19999.345703125,3046.19482421875,10139.1474609375,405.31158447265625,7837.61328125,22929.509765625,19115.60546875,13829.072265625,-0.0,-48987.0703125,16415.119140625,5957.28564453125,0.0,6447.63330078125,0.0,0.0
11238.2578125,10233.7197265625,26748.1796875,8329.55078125,25335.154296875,2721.945556640625,4022.121337890625,4080.93115234375,7111.2314453125,3990.33203125,13083.6171875,-3356.138916015625,5462.16943359375,0.0,18959.044921875,1928.8062744140625,21564.9609375,14837.5830078125,6806.8505859375,9806.15625,19388.994140625,25997.95703125,12808.640625,15556.017578125,16745.7265625,4539.48974609375,24785.99609375,-5882.5810546875,-0.0,708.8978881835938,9849.0712890625,4718.3037109375,20985.603515625,13851.3251953125,9297.5302734375,21200.1796875,8097.4892578125,9298.32421875,4038.015869140625,-338.55438232421875,19871.392578125,5346.93408203125,14696.916015625,6373.7236328125,3352.165283203125,9615.4208984375,10387.8974609375,234.44493103027344,4525.1845703125,-723.2030029296875,11398.7919921875,345.7069396972656,2688.56689453125,-782.012939453125,3209.90869140625,2892.017333984375,20002.5234375,3044.605224609375,10143.916015625,403.7221374511719,7816.1552734375,22933.482421875,19121.169921875,13830.662109375,-0.0,-48981.5078125,16418.298828125,5943.775390625,0.0,6446.04345703125,0.0,0.0
11211.236328125,10222.5947265625,26763.28125,8340.6767578125,25345.484375,2722.740234375,4030.06884765625,4092.0576171875,7112.8212890625,3995.1005859375,13085.2060546875,-3342.62841796875,5453.427734375,0.0,18958.25,1949.46923828125,21570.5234375,14843.146484375,6814.0029296875,9810.9248046875,19395.3515625,26001.134765625,12815.79296875,15561.5810546875,16752.083984375,4547.43701171875,24795.53125,-5869.0703125,-0.0,734.3292236328125,9853.83984375,4723.072265625,20995.935546875,13856.8876953125,9304.6826171875,21203.359375,8106.2314453125,9305.4775390625,4101.59423828125,-348.8858642578125,19877.751953125,5338.19189453125,14706.4521484375,6382.46533203125,3358.523193359375,9624.1640625,10398.228515625,235.2396697998047,4526.77392578125,-716.0504760742188,11403.560546875,356.8331298828125,2687.77197265625,-754.1974487304688,3202.756103515625,2908.70654296875,19997.755859375,3063.6787109375,10147.888671875,410.0799560546875,7786.7509765625,22938.251953125,19127.52734375,13831.4560546875,-0.0,-48964.0234375,16415.119140625,5945.3642578125,0.0,6450.017578125,0.0,0.0
11231.8994140625,10219.4150390625,26753.744140625,8331.9345703125,25348.6640625,2728.30322265625,4037.221435546875,4093.64697265625,7122.35791015625,3997.484619140625,13081.2333984375,-3345.0126953125,5480.4482421875,0.0,18963.814453125,1949.46923828125,21570.5234375,14842.3505859375,6818.771484375,9816.4873046875,19392.171875,25998.75,12822.9453125,15564.7587890625,16753.673828125,4548.2314453125,24809.837890625,-5864.30224609375,-0.0,739.892333984375,9853.0458984375,4727.84033203125,20991.9609375,13856.09375,9305.4775390625,21203.359375,8111.79443359375,9308.6552734375,4095.236328125,-334.58074951171875,19877.751953125,5336.6025390625,14711.220703125,6388.02880859375,3366.47021484375,9627.341796875,10393.4599609375,220.1398162841797,4525.9794921875,-711.2821044921875,11416.2763671875,361.60150146484375,2668.698486328125,-735.918701171875,3244.082275390625,2915.859130859375,19989.80859375,3072.4208984375,10155.0419921875,414.0535888671875,7789.9296875,22940.634765625,19131.501953125,13835.4296875,-0.0,-48964.81640625,16415.119140625,5949.33837890625,0.0,6449.22265625,0.0,0.0
11266.8671875,10228.1572265625,26743.412109375,8325.5771484375,25343.099609375,2726.7138671875,4035.631591796875,4089.673583984375,7118.3837890625,3993.51123046875,13074.875,-3354.54931640625,5466.14306640625,0.0,18963.814453125,1937.54833984375,21566.548828125,14835.994140625,6815.59228515625,9812.5146484375,19385.814453125,25993.982421875,12822.1513671875,15560.7861328125,16743.341796875,4541.0791015625,24804.2734375,-5872.24951171875,-0.0,732.73974609375,9845.892578125,4731.01953125,20984.80859375,13849.7353515625,9302.298828125,21197.794921875,8109.41015625,9305.4775390625,4088.878662109375,-326.6334533691406,19874.572265625,5337.39697265625,14710.4267578125,6382.46533203125,3364.880859375,9622.57421875,10379.1552734375,206.6294403076172,4518.8271484375,-716.84521484375,11418.66015625,355.2436828613281,2663.135498046875,-734.3292236328125,3239.313720703125,2907.912109375,19989.013671875,3066.06298828125,10151.86328125,409.28521728515625,7800.26123046875,22935.8671875,19126.734375,13833.8408203125,-0.0,-48975.9453125,16409.5546875,5940.59619140625,0.0,6442.86474609375,0.0,0.0
11275.609375,10245.640625,26754.537109375,8321.6025390625,25344.689453125,2729.892822265625,4031.658203125,4092.0576171875,7110.43701171875,3995.1005859375,13097.126953125,-3351.37060546875,5458.99072265625,0.0,18959.044921875,1943.1114501953125,21568.93359375,14840.76171875,6817.9765625,9808.5400390625,19391.37890625,25996.3671875,12825.330078125,15563.1708984375,16748.904296875,4543.46337890625,24789.96875,-5869.865234375,-0.0,730.3555908203125,9849.8662109375,4733.40380859375,20990.37109375,13849.7353515625,9303.8876953125,21197.0,8107.8212890625,9307.861328125,4101.59423828125,-367.9593505859375,19883.314453125,5340.576171875,14708.8369140625,6384.0546875,3363.29150390625,9625.7529296875,10393.4599609375,219.3450927734375,4525.9794921875,-717.639892578125,11408.3291015625,362.396240234375,2695.719482421875,-738.3028564453125,3232.161376953125,2911.0908203125,20002.5234375,3072.4208984375,10143.916015625,414.0535888671875,7824.89794921875,22938.251953125,19125.142578125,13833.8408203125,-0.0,-48971.17578125,16403.19921875,5940.59619140625,0.0,6446.04345703125,0.0,0.0
11266.8671875,10240.8720703125,26748.1796875,8327.9609375,25340.71484375,2729.892822265625,4020.5322265625,4095.236328125,7105.66845703125,3995.1005859375,13108.25390625,-3345.0126953125,5463.7587890625,0.0,18956.662109375,1959.006103515625,21565.755859375,14839.171875,6816.38720703125,9806.15625,19386.609375,25993.189453125,12820.5615234375,15561.5810546875,16740.95703125,4544.25830078125,24787.583984375,-5867.4814453125,-0.0,727.1766357421875,9848.27734375,4726.2509765625,20986.3984375,13852.9140625,9299.9140625,21193.822265625,8102.2578125,9308.6552734375,4035.631591796875,-329.01763916015625,19876.162109375,5341.37109375,14699.2998046875,6386.43896484375,3356.93359375,9628.13671875,10383.12890625,229.6765594482422,4528.36376953125,-714.4609985351562,11389.255859375,371.9329833984375,2694.1298828125,-741.4818115234375,3244.082275390625,2912.680419921875,20008.8828125,3077.98388671875,10137.5576171875,418.82196044921875,7847.14990234375,22935.8671875,19123.5546875,13827.4833984375,-0.0,-48964.81640625,16400.01953125,5936.62255859375,0.0,6449.22265625,0.0,0.0
11284.3515625,10229.7470703125,26735.46484375,8332.7294921875,25340.71484375,2743.403076171875,4030.86328125,4105.56787109375,7118.3837890625,4002.253173828125,13103.4853515625,-3340.244384765625,5461.375,0.0,18965.40234375,1975.6953125,21567.34375,14846.3251953125,6824.33447265625,9818.87109375,19386.609375,26001.9296875,12827.7138671875,15571.1171875,16729.037109375,4559.35791015625,24797.916015625,-5852.38134765625,-0.0,733.5344848632812,9853.0458984375,4723.072265625,20982.423828125,13861.65625,9303.8876953125,21200.1796875,8112.58984375,9317.3984375,4053.91064453125,-321.0703430175781,19869.8046875,5356.470703125,14704.86328125,6399.15478515625,3367.264892578125,9636.87890625,10364.0556640625,240.00804138183594,4525.9794921875,-697.771728515625,11403.560546875,384.6486511230469,2685.387939453125,-735.918701171875,3233.75048828125,2915.859130859375,20004.908203125,3090.699462890625,10149.478515625,424.38507080078125,7870.99169921875,22943.814453125,19133.091796875,13836.224609375,-0.0,-48954.48828125,16411.939453125,5939.8017578125,0.0,6443.6591796875,0.0,0.0
11276.404296875,10207.494140625,26721.955078125,8308.0927734375,25325.6171875,2728.30322265625,4024.505615234375,4088.083740234375,7121.56298828125,3991.126953125,13089.1796875,-3371.23876953125,5457.4013671875,0.0,18962.224609375,1945.49560546875,21550.65625,14827.2509765625,6810.82373046875,9815.693359375,19371.509765625,25985.240234375,12817.3828125,15556.017578125,16709.962890625,4542.6689453125,24789.96875,-5869.865234375,-0.0,708.8978881835938,9837.9453125,4701.6142578125,20967.326171875,13843.376953125,9288.7880859375,21185.080078125,8102.2578125,9301.5029296875,4053.91064453125,-340.1438293457031,19852.3203125,5337.39697265625,14692.9423828125,6384.0546875,3360.9072265625,9620.984375,10375.1826171875,221.72927856445312,4506.90625,-712.0768432617188,11400.3818359375,365.5751647949219,2667.90380859375,-749.4290771484375,3217.061279296875,2896.78564453125,20000.138671875,3065.268310546875,10153.453125,403.7221374511719,7843.1767578125,22929.509765625,19125.9375,13834.6357421875,-0.0,-48982.3046875,16412.734375,5919.138671875,0.0,6422.20166015625,0.0,0.0
11243.025390625,10214.646484375,26725.927734375,8306.5029296875,25324.822265625,2719.561279296875,4024.505615234375,4087.289306640625,7135.8681640625,3995.1005859375,13089.1796875,-3365.67578125,5464.5537109375,0.0,18963.814453125,1942.316650390625,21550.65625,14820.0986328125,6810.82373046875,9825.2294921875,19369.919921875,25981.267578125,12816.5888671875,15552.837890625,16703.60546875,4535.51611328125,24781.2265625,-5867.4814453125,-0.0,716.0504760742188,9833.9716796875,4701.6142578125,20969.708984375,13837.814453125,9288.7880859375,21180.310546875,8101.46337890625,9298.32421875,4059.4736328125,-325.8387145996094,19850.73046875,5326.27099609375,14692.1474609375,6380.0810546875,3362.49658203125,9622.57421875,10385.513671875,211.39781188964844,4500.5478515625,-713.666259765625,11397.998046875,366.369873046875,2673.467041015625,-767.7078247070312,3231.366455078125,2908.70654296875,20015.240234375,3069.24169921875,10162.9892578125,402.9273986816406,7812.97705078125,22925.53515625,19127.52734375,13856.8876953125,-0.0,-48979.91796875,16420.68359375,5911.19140625,0.0,6430.94384765625,0.0,0.0
11246.9990234375,10217.826171875,26749.76953125,8330.3447265625,25348.6640625,2739.429443359375,4038.015869140625,4107.9521484375,7140.63623046875,4007.021484375,13106.6640625,-3345.0126953125,5469.322265625,0.0,18973.349609375,1981.2584228515625,21571.318359375,14843.146484375,6828.30810546875,9831.587890625,19390.583984375,26001.134765625,12837.2509765625,15571.1171875,16729.83203125,4560.15234375,24794.736328125,-5844.43408203125,-0.0,730.3555908203125,9857.0185546875,4719.89306640625,20991.16796875,13858.4775390625,9308.6552734375,21197.794921875,8117.3583984375,9317.3984375,4076.162841796875,-298.0232238769531,19873.77734375,5350.11279296875,14708.8369140625,6396.7705078125,3374.41748046875,9637.673828125,10407.765625,229.6765594482422,4522.00537109375,-691.4138793945312,11409.123046875,389.4170227050781,2688.56689453125,-776.4498291015625,3236.9296875,2927.7802734375,20013.650390625,3097.85205078125,10170.9365234375,424.38507080078125,7805.82421875,22944.609375,19140.244140625,13859.2724609375,-0.0,-48960.84765625,16425.451171875,5937.41748046875,0.0,6433.328125,0.0,0.0
11271.6357421875,10210.6728515625,26757.716796875,8345.4443359375,25362.173828125,2744.19775390625,4043.5791015625,4112.720703125,7134.27880859375,4010.200439453125,13094.7431640625,-3343.423095703125,5478.85888671875,0.0,18963.017578125,1974.9005126953125,21580.853515625,14855.861328125,6833.87158203125,9829.998046875,19403.298828125,26010.671875,12849.171875,15577.4755859375,16749.701171875,4563.33154296875,24804.2734375,-5846.818359375,-0.0,727.1766357421875,9868.14453125,4732.60888671875,20999.908203125,13869.603515625,9321.3720703125,21204.15234375,8124.5107421875,9322.9609375,4080.93115234375,-298.0232238769531,19885.69921875,5357.265625,14718.373046875,6399.15478515625,3373.622802734375,9643.2373046875,10402.2021484375,236.03439331054688,4533.1318359375,-694.5927734375,11409.123046875,388.6222839355469,2695.719482421875,-758.1710815429688,3223.419189453125,2928.57470703125,19999.345703125,3099.44140625,10157.42578125,431.5376281738281,7816.95068359375,22954.14453125,19141.83203125,13848.9404296875,-0.0,-48955.28125,16414.32421875,5972.38525390625,0.0,6434.91748046875,0.0,0.0
11278.7880859375,10209.083984375,26756.12890625,8348.6240234375,25359.7890625,2729.892822265625,4038.015869140625,4098.41552734375,7130.3046875,4005.43212890625,13085.2060546875,-3364.880859375,5500.31640625,0.0,18955.072265625,1943.9061279296875,21573.701171875,14851.09375,6826.71875,9824.435546875,19399.32421875,26005.90234375,12844.4033203125,15569.52734375,16757.646484375,4546.64208984375,24805.865234375,-5866.6865234375,-0.0,713.666259765625,9860.9921875,4723.072265625,20994.34375,13862.4501953125,9317.3984375,21196.20703125,8120.53662109375,9315.013671875,4072.984130859375,-324.249267578125,19883.314453125,5349.31787109375,14715.9892578125,6387.23388671875,3366.47021484375,9633.7001953125,10392.666015625,224.11346435546875,4536.310546875,-718.4346313476562,11404.35546875,368.7540588378906,2682.208984375,-747.0448608398438,3221.034912109375,2904.73291015625,19997.755859375,3068.447021484375,10145.5048828125,423.59033203125,7815.36083984375,22947.7890625,19136.271484375,13842.5830078125,-0.0,-48979.12109375,16407.171875,5971.59033203125,0.0,6442.06982421875,0.0,0.0
11294.6826171875,10244.8466796875,26770.43359375,8347.8291015625,25365.353515625,2744.19775390625,4049.936767578125,4111.13134765625,7131.89453125,4018.14794921875,13117.7900390625,-3349.781005859375,5502.70068359375,0.0,18970.171875,1951.0587158203125,21591.982421875,14866.1923828125,6839.43408203125,9830.7919921875,19414.42578125,26021.798828125,12856.32421875,15584.6279296875,16768.7734375,4563.33154296875,24816.1953125,-5854.765625,-0.0,742.2764892578125,9877.681640625,4739.76123046875,21011.830078125,13879.1396484375,9329.3193359375,21210.51171875,8131.6630859375,9330.11328125,4084.1103515625,-320.275634765625,19896.826171875,5363.623046875,14723.9375,6401.5390625,3379.18603515625,9647.2099609375,10413.3291015625,240.00804138183594,4549.8212890625,-707.3084716796875,11416.2763671875,378.2908020019531,2700.48779296875,-721.6135864257812,3253.618896484375,2903.938232421875,20011.267578125,3068.447021484375,10157.42578125,439.48492431640625,7836.81884765625,22962.09375,19148.984375,13848.9404296875,-0.0,-48967.203125,16403.19921875,5981.92236328125,0.0,6456.375,0.0,0.0
11288.3251953125,10246.4365234375,26757.716796875,8339.8818359375,25352.63671875,2742.6083984375,4042.7841796875,4111.13134765625,7119.9736328125,4016.55810546875,13099.5107421875,-3341.833740234375,5459.78564453125,0.0,18963.814453125,1954.2376708984375,21584.830078125,14859.8359375,6835.46044921875,9824.435546875,19404.888671875,26013.8515625,12852.3515625,15583.0380859375,16740.1640625,4555.38427734375,24807.453125,-5854.765625,-0.0,744.6607055664062,9872.119140625,4738.96630859375,21004.677734375,13873.5771484375,9322.9609375,21204.94921875,8126.89501953125,9327.7294921875,4073.778564453125,-329.01763916015625,19884.109375,5358.060546875,14716.7841796875,6399.94970703125,3372.828125,9644.826171875,10393.4599609375,224.90818786621094,4522.80029296875,-712.87158203125,11413.09765625,375.1119079589844,2703.666748046875,-723.9977416992188,3239.313720703125,2907.912109375,19992.986328125,3070.831298828125,10154.2470703125,437.89544677734375,7832.8447265625,22958.12109375,19145.01171875,13849.7353515625,-0.0,-48956.87109375,16407.966796875,5968.412109375,0.0,6464.32275390625,0.0,0.0
11265.2783203125,10217.0302734375,26748.9765625,8336.703125,25346.279296875,2738.634765625,4039.605712890625,4106.36279296875,7121.56298828125,4013.379638671875,13027.19140625,-3346.602294921875,5433.5595703125,0.0,18953.482421875,1955.0323486328125,21572.11328125,14853.4775390625,6831.4873046875,9823.6396484375,19396.146484375,26006.69921875,12848.376953125,15577.4755859375,16729.83203125,4545.05322265625,24796.328125,-5860.32861328125,-0.0,729.5608520507812,9863.376953125,4726.2509765625,20994.34375,13860.861328125,9317.3984375,21197.794921875,8123.71533203125,9322.9609375,4059.4736328125,-329.01763916015625,19872.984375,5351.7021484375,14712.810546875,6396.7705078125,3369.649169921875,9641.6474609375,10378.3603515625,180.4033966064453,4503.72705078125,-720.81884765625,11409.123046875,372.72772216796875,2679.82470703125,-748.6343383789062,3217.856201171875,2914.269775390625,19986.62890625,3070.03662109375,10146.30078125,430.7428894042969,7816.1552734375,22954.14453125,19141.83203125,13846.556640625,-0.0,-48967.203125,16415.119140625,5962.0537109375,0.0,6469.88525390625,0.0,0.0
