15744.3671875,15703.04296875,34561.15625,11802.513671875,28518.041015625,7003.1484375,8363.7236328125,9526.412109375,9611.447265625,6554.126953125,17634.234375,-782.8076782226562,8877.1181640625,0.0,23013.75,8107.02587890625,25317.66796875,20235.380859375,9992.123046875,12250.7412109375,23486.61328125,29908.814453125,24050.87109375,20078.81640625,21677.8125,7894.83349609375,29474.89453125,873.40673828125,0.0,1623.6304931640625,14104.8427734375,6629.6259765625,26334.126953125,16684.53125,15633.1064453125,25215.943359375,9632.9052734375,14549.095703125,9452.501953125,4758.0400390625,23248.1953125,9791.056640625,17410.9140625,11916.16015625,9319.7822265625,12603.6005859375,11980.533203125,2373.8544921875,10719.298828125,4038.810791015625,17255.1484375,6776.65087890625,8815.12890625,2916.65380859375,11889.1396484375,5676.74658203125,24073.123046875,4411.53857421875,18703.9375,3701.845947265625,9947.6171875,27005.671875,21832.78515625,11582.375,-0.0,-44465.06640625,20004.908203125,5893.70703125,0.0,7176.3994140625,0.0,0.0
15761.056640625,15696.68359375,34565.92578125,11816.8193359375,28518.8359375,7012.68505859375,8366.1083984375,9532.76953125,9609.0634765625,6556.5107421875,17646.154296875,-778.039306640625,8875.529296875,0.0,23012.95703125,8111.0,25322.4375,20238.55859375,9995.30078125,12253.125,23489.79296875,29917.55859375,24054.845703125,20084.380859375,21673.837890625,7909.138671875,29474.099609375,882.1487426757812,0.0,1630.7830810546875,14111.99609375,6626.447265625,26336.51171875,16695.658203125,15636.2861328125,25222.30078125,9636.87890625,14554.66015625,9460.44921875,4775.52392578125,23250.580078125,9802.1826171875,17413.296875,11925.697265625,9322.166015625,12606.7802734375,11975.765625,2388.159423828125,10717.7099609375,4051.526611328125,17256.736328125,6781.41943359375,8858.044921875,2938.906494140625,11886.755859375,5687.87255859375,24070.740234375,4417.896484375,18700.7578125,3707.408935546875,9934.90234375,27009.64453125,21835.16796875,11582.375,-0.0,-44453.9375,20004.11328125,5904.83349609375,0.0,7185.14111328125,0.0,0.0
15761.056640625,15698.2744140625,34572.28515625,11826.35546875,28524.3984375,7019.837890625,8371.6708984375,9540.716796875,9621.779296875,6566.0478515625,17646.154296875,-775.6550903320312,8877.1181640625,0.0,23018.517578125,8123.71533203125,25328.794921875,20244.916015625,10001.6591796875,12262.662109375,23494.5625,29920.736328125,24061.998046875,20089.9453125,21669.865234375,7913.9072265625,29476.484375,887.7118530273438,0.0,1632.37255859375,14116.763671875,6630.4208984375,26341.279296875,16700.42578125,15642.642578125,25226.275390625,9643.2373046875,14559.427734375,9492.23828125,4758.8349609375,23252.16796875,9809.3349609375,17416.4765625,11932.849609375,9329.3193359375,12614.7265625,11979.7392578125,2373.8544921875,10720.09375,4057.08935546875,17263.09375,6786.98193359375,8875.529296875,2944.469482421875,11893.11328125,5693.435546875,24074.712890625,4423.45947265625,18709.501953125,3717.740234375,9934.90234375,27014.4140625,21843.115234375,11594.2958984375,-0.0,-44449.16796875,20006.498046875,5908.01220703125,0.0,7197.06201171875,0.0,0.0
15759.4677734375,15708.6044921875,34572.28515625,11815.23046875,28523.603515625,7011.890625,8367.697265625,9535.94921875,9624.1640625,6565.2529296875,17644.564453125,-782.8076782226562,8874.734375,0.0,23016.9296875,8116.56298828125,25327.205078125,20239.353515625,9996.890625,12262.662109375,23493.767578125,29915.96875,24058.0234375,20082.79296875,21670.66015625,7903.57568359375,29474.099609375,879.7645263671875,0.0,1622.0411376953125,14111.201171875,6636.7783203125,26341.279296875,16695.658203125,15637.875,25219.91796875,9637.673828125,14553.8642578125,9492.23828125,4747.708984375,23251.375,9802.1826171875,17413.296875,11925.697265625,9326.9345703125,12609.958984375,11988.48046875,2353.19140625,10717.7099609375,4042.7841796875,17259.916015625,6780.62451171875,8870.7607421875,2954.006103515625,11892.318359375,5687.87255859375,24071.53515625,4416.30712890625,18707.1171875,3715.356201171875,9948.4130859375,27010.44140625,21840.73046875,11597.4736328125,-0.0,-44464.2734375,20009.67578125,5903.244140625,0.0,7201.0361328125,0.0,0.0
15769.0048828125,15737.21484375,34565.92578125,11816.0244140625,28520.42578125,7004.73779296875,8366.1083984375,9531.1806640625,9626.5478515625,6570.02099609375,17645.359375,-796.3180541992188,8873.939453125,0.0,23016.134765625,8111.79443359375,25324.822265625,20231.404296875,9993.712890625,12267.4306640625,23489.79296875,29910.40625,24054.845703125,20078.0234375,21675.427734375,7900.3974609375,29474.89453125,871.0225219726562,0.0,1609.325439453125,14107.2275390625,6643.13671875,26335.716796875,16693.2734375,15633.9013671875,25215.943359375,9632.1103515625,14549.8916015625,9466.8076171875,4731.01953125,23249.78515625,9799.00390625,17410.119140625,11918.544921875,9326.140625,12608.369140625,11974.17578125,2341.2705078125,10720.09375,4022.916259765625,17258.326171875,6775.85595703125,8859.634765625,2942.085205078125,11895.4970703125,5656.8779296875,24070.740234375,4406.77001953125,18707.91015625,3716.945556640625,9949.20703125,27005.671875,21839.9375,11611.779296875,-0.0,-44486.5234375,20011.267578125,5904.0390625,0.0,7215.34130859375,0.0,0.0
15764.236328125,15744.3671875,34554.796875,11802.513671875,28511.681640625,6989.6376953125,8361.33984375,9519.259765625,9625.7529296875,6563.66357421875,17627.875,-809.8284301757812,8873.939453125,0.0,23012.95703125,8097.4892578125,25316.873046875,20221.869140625,9984.9697265625,12264.251953125,23481.05078125,29902.458984375,24045.30859375,20066.896484375,21673.837890625,7890.0654296875,29469.33203125,855.1279907226562,0.0,1598.993896484375,14098.4853515625,6635.98388671875,26329.359375,16682.1484375,15625.9541015625,25204.81640625,9623.3681640625,14540.3544921875,9459.6552734375,4722.27734375,23241.04296875,9785.4931640625,17404.556640625,11905.8291015625,9321.3720703125,12599.6279296875,11963.8447265625,2338.88623046875,10714.53125,4008.611083984375,17254.353515625,6763.14013671875,8838.1767578125,2907.1171875,11885.166015625,5634.6259765625,24072.328125,4385.3125,18710.294921875,3707.408935546875,9912.650390625,26996.134765625,21832.78515625,11611.779296875,-0.0,-44504.00390625,20014.4453125,5895.29638671875,0.0,7202.62548828125,0.0,0.0
15761.056640625,15741.9833984375,34563.54296875,11789.798828125,28516.451171875,6991.2275390625,8361.33984375,9517.669921875,9627.341796875,6557.3056640625,17624.697265625,-799.4969482421875,8872.349609375,0.0,23016.9296875,8095.10498046875,25316.080078125,20225.84375,9982.5859375,12260.27734375,23485.818359375,29899.279296875,24044.513671875,20067.69140625,21679.40234375,7885.296875,29470.125,855.9227294921875,0.0,1607.7359619140625,14100.0751953125,6636.7783203125,26333.33203125,16681.353515625,15625.9541015625,25207.201171875,9623.3681640625,14540.3544921875,9469.986328125,4739.76123046875,23248.1953125,9783.904296875,17406.94140625,11907.41796875,9319.7822265625,12598.0380859375,11971.791015625,2343.654541015625,10716.12109375,4018.14794921875,17253.556640625,6762.345703125,8830.2294921875,2922.217041015625,11887.55078125,5652.10986328125,24072.328125,4386.90185546875,18714.26953125,3705.024658203125,9907.0859375,26994.546875,21829.60546875,11602.2421875,-0.0,-44492.8828125,20013.650390625,5892.91259765625,0.0,7195.47265625,0.0,0.0
15760.263671875,15742.7783203125,34573.078125,11792.9775390625,28518.041015625,6996.79052734375,8362.1337890625,9520.8486328125,9633.7001953125,6555.7158203125,17626.28515625,-796.3180541992188,8874.734375,0.0,23016.9296875,8103.84765625,25315.28515625,20228.228515625,9983.3798828125,12265.0458984375,23486.61328125,29900.07421875,24045.30859375,20070.076171875,21678.60546875,7880.5283203125,29471.716796875,861.4857788085938,0.0,1612.50439453125,14102.458984375,6637.5732421875,26333.33203125,16682.1484375,15627.54296875,25208.791015625,9624.1640625,14541.1494140625,9442.169921875,4731.81396484375,23252.96484375,9788.6728515625,17406.94140625,11910.59765625,9322.166015625,12599.6279296875,11977.35546875,2326.170654296875,10717.7099609375,4024.505615234375,17255.94140625,6766.3193359375,8835.79296875,2963.54296875,11893.908203125,5664.8251953125,24072.328125,4392.46533203125,18712.6796875,3705.024658203125,9922.1865234375,26996.134765625,21828.810546875,11605.421875,-0.0,-44492.0859375,20016.828125,5881.7861328125,0.0,7190.7041015625,0.0,0.0
15765.8251953125,15744.3671875,34573.87109375,11789.00390625,28516.451171875,7003.1484375,8365.3134765625,9528.7958984375,9637.673828125,6565.2529296875,17628.669921875,-797.9075317382812,8877.1181640625,0.0,23016.134765625,8119.7421875,25317.66796875,20229.81640625,9988.9443359375,12269.814453125,23485.025390625,29905.638671875,24048.486328125,20074.048828125,21670.66015625,7883.7080078125,29470.125,872.6119995117188,0.0,1610.914794921875,14102.458984375,6639.16259765625,26331.744140625,16684.53125,15629.9267578125,25209.5859375,9626.5478515625,14546.7119140625,9441.3759765625,4712.740234375,23249.78515625,9792.6455078125,17407.736328125,11916.16015625,9326.140625,12606.7802734375,11978.943359375,2326.96533203125,10717.7099609375,4031.658203125,17256.736328125,6776.65087890625,8849.3037109375,2979.4375,11891.5244140625,5668.798828125,24072.328125,4407.564453125,18711.08984375,3716.15087890625,9946.0283203125,26999.314453125,21835.16796875,11607.0107421875,-0.0,-44493.67578125,20020.802734375,5891.3232421875,0.0,7193.88330078125,0.0,0.0
15736.421875,15726.08984375,34564.3359375,11784.236328125,28514.861328125,6996.79052734375,8360.544921875,9524.822265625,9629.7265625,6568.431640625,17628.669921875,-801.08642578125,8877.9130859375,0.0,23011.365234375,8106.2314453125,25309.720703125,20223.458984375,9985.7646484375,12266.6357421875,23482.640625,29900.869140625,24044.513671875,20070.076171875,21669.068359375,7879.73388671875,29466.947265625,867.0488891601562,0.0,1599.7886962890625,14099.2802734375,6628.03662109375,26326.1796875,16679.763671875,15625.158203125,25205.611328125,9624.1640625,14543.533203125,9445.349609375,4719.0986328125,23248.1953125,9787.0830078125,17402.966796875,11912.1865234375,9322.9609375,12605.984375,11970.9970703125,2338.88623046875,10715.3251953125,4025.300537109375,17252.763671875,6770.29296875,8846.9189453125,2933.34326171875,11886.755859375,5660.85205078125,24069.150390625,4402.79638671875,18705.525390625,3716.15087890625,9938.8759765625,26995.33984375,21831.990234375,11606.216796875,-0.0,-44494.46875,20013.650390625,5895.29638671875,0.0,7197.06201171875,0.0,0.0
15749.1357421875,15712.580078125,34559.56640625,11802.513671875,28516.451171875,7003.1484375,8358.955078125,9524.822265625,9628.931640625,6563.66357421875,17625.490234375,-799.4969482421875,8878.7080078125,0.0,23010.572265625,8103.84765625,25314.490234375,20225.84375,9986.5595703125,12261.8671875,23485.818359375,29901.662109375,24049.28125,20074.84375,21673.044921875,7887.68115234375,29470.125,869.43310546875,0.0,1600.5833740234375,14102.458984375,6630.4208984375,26328.564453125,16682.1484375,15626.7490234375,25209.5859375,9624.1640625,14543.533203125,9454.0908203125,4739.76123046875,23250.580078125,9791.056640625,17403.76171875,11917.75,9322.166015625,12605.1904296875,11953.5126953125,2364.317626953125,10722.4775390625,4029.27392578125,17253.556640625,6769.49853515625,8847.7138671875,2903.938232421875,11886.755859375,5663.236328125,24071.53515625,4406.77001953125,18702.349609375,3712.971923828125,9924.5712890625,26996.931640625,21831.193359375,11599.8583984375,-0.0,-44487.31640625,20010.470703125,5896.09130859375,0.0,7195.47265625,0.0,0.0
15752.3154296875,15708.6044921875,34571.48828125,11831.919921875,28521.21875,7017.45361328125,8363.7236328125,9534.359375,9628.13671875,6559.68994140625,17643.76953125,-783.6024169921875,8871.5556640625,0.0,23009.77734375,8115.7685546875,25328.001953125,20236.96875,9992.9169921875,12256.3046875,23493.767578125,29912.791015625,24058.0234375,20084.380859375,21678.60546875,7902.78125,29471.716796875,882.1487426757812,0.0,1610.914794921875,14112.7900390625,6644.7255859375,26341.279296875,16695.658203125,15637.0791015625,25222.30078125,9629.7265625,14552.275390625,9474.75390625,4738.96630859375,23256.14453125,9805.361328125,17408.529296875,11931.259765625,9325.3447265625,12607.57421875,11960.666015625,2379.41748046875,10724.8623046875,4043.5791015625,17253.556640625,6780.62451171875,8855.66015625,2909.501220703125,11894.703125,5681.5146484375,24073.123046875,4422.66455078125,18696.78515625,3714.5615234375,9933.3125,27005.671875,21833.578125,11591.9111328125,-0.0,-44467.44921875,20008.087890625,5908.01220703125,0.0,7191.4990234375,0.0,0.0
15740.39453125,15701.4521484375,34573.078125,11827.1513671875,28517.24609375,7003.1484375,8361.33984375,9528.0009765625,9636.0849609375,6556.5107421875,17639.001953125,-793.933837890625,8862.0185546875,0.0,23008.982421875,8110.20556640625,25319.2578125,20232.201171875,9988.9443359375,12259.4833984375,23488.203125,29908.021484375,24054.845703125,20076.43359375,21673.044921875,7890.8603515625,29464.5625,874.9962158203125,0.0,1614.09375,14103.2529296875,6639.16259765625,26334.919921875,16688.505859375,15632.310546875,25212.765625,9624.9580078125,14547.5068359375,9470.7802734375,4726.2509765625,23252.96484375,9790.26171875,17404.556640625,11925.697265625,9326.140625,12601.216796875,11959.8701171875,2366.701904296875,10719.298828125,4034.04248046875,17251.173828125,6776.65087890625,8841.35546875,2915.064453125,11883.576171875,5678.33544921875,24068.35546875,4416.30712890625,18698.373046875,3708.20361328125,9938.0810546875,27000.109375,21830.400390625,11596.6796875,-0.0,-44470.625,20009.67578125,5900.85986328125,0.0,7179.578125,0.0,0.0
15761.056640625,15703.04296875,34567.515625,11812.05078125,28508.50390625,6999.9697265625,8358.1611328125,9523.232421875,9649.5947265625,6554.126953125,17626.28515625,-809.03369140625,8855.66015625,0.0,23012.162109375,8100.6689453125,25308.927734375,20225.84375,9984.9697265625,12263.45703125,23479.4609375,29900.07421875,24050.87109375,20070.87109375,21665.892578125,7885.296875,29459.794921875,871.0225219726562,0.0,1607.7359619140625,14095.306640625,6628.03662109375,26323.794921875,16680.55859375,15623.5693359375,25206.408203125,9617.8056640625,14541.1494140625,9472.3701171875,4713.53515625,23245.015625,9788.6728515625,17398.19921875,11919.3388671875,9325.3447265625,12597.2431640625,11959.076171875,2351.601806640625,10712.146484375,4030.86328125,17251.96875,6769.49853515625,8849.3037109375,2920.627685546875,11873.2451171875,5663.236328125,24067.560546875,4405.9755859375,18705.525390625,3703.435302734375,9939.6708984375,26993.751953125,21828.015625,11614.1630859375,-0.0,-44480.1640625,20023.98046875,5887.349609375,0.0,7176.3994140625,0.0,0.0
15772.9775390625,15716.552734375,34563.54296875,11805.693359375,28508.50390625,7003.94287109375,8354.9814453125,9521.6435546875,9645.62109375,6547.76904296875,17624.697265625,-805.06005859375,8862.8134765625,0.0,23008.1875,8107.02587890625,25309.720703125,20224.251953125,9980.99609375,12255.509765625,23475.48828125,29900.869140625,24050.87109375,20070.076171875,21661.123046875,7887.68115234375,29459.0,874.9962158203125,0.0,1607.7359619140625,14096.1005859375,6630.4208984375,26323.794921875,16683.736328125,15621.9794921875,25206.408203125,9615.4208984375,14540.3544921875,9468.396484375,4709.56201171875,23244.22265625,9792.6455078125,17397.404296875,11916.16015625,9322.166015625,12594.859375,11962.2548828125,2346.038818359375,10712.94140625,4035.631591796875,17249.583984375,6770.29296875,8861.224609375,2923.806396484375,11879.603515625,5664.8251953125,24065.970703125,4409.154296875,18699.96484375,3700.25634765625,9931.7236328125,26992.162109375,21824.8359375,11601.4482421875,-0.0,-44476.19140625,20012.85546875,5884.17041015625,0.0,7170.04150390625,0.0,0.0
15745.9580078125,15741.1904296875,34566.71875,11799.3359375,28516.451171875,7010.30126953125,8358.1611328125,9526.412109375,9636.87890625,6549.3583984375,17628.669921875,-794.7285766601562,8872.349609375,0.0,23005.8046875,8120.53662109375,25317.66796875,20228.228515625,9986.5595703125,12251.5361328125,23483.435546875,29904.841796875,24055.638671875,20075.640625,21662.712890625,7896.42333984375,29465.357421875,880.5592651367188,0.0,1626.8094482421875,14100.869140625,6639.16259765625,26329.359375,16685.328125,15627.54296875,25211.96875,9619.3955078125,14546.7119140625,9429.455078125,4734.9931640625,23249.78515625,9796.619140625,17402.171875,11922.5185546875,9320.5771484375,12600.421875,11973.380859375,2350.012451171875,10719.298828125,4041.98974609375,17249.583984375,6781.41943359375,8862.0185546875,2937.31689453125,11893.908203125,5676.74658203125,24069.150390625,4417.896484375,18695.1953125,3705.024658203125,9911.8544921875,26996.931640625,21826.42578125,11585.552734375,-0.0,-44469.0390625,20003.318359375,5899.2705078125,0.0,7164.478515625,0.0,0.0
15745.1630859375,15746.751953125,34562.74609375,11794.5673828125,28512.478515625,7003.1484375,8355.7763671875,9524.822265625,9624.1640625,6549.3583984375,17619.927734375,-791.5496826171875,8872.349609375,0.0,23005.0078125,8109.41015625,25316.080078125,20227.431640625,9981.791015625,12248.3564453125,23482.640625,29902.458984375,24047.693359375,20071.6640625,21655.55859375,7882.91259765625,29465.357421875,874.9962158203125,0.0,1626.8094482421875,14097.6904296875,6638.3681640625,26328.564453125,16680.55859375,15625.158203125,25210.380859375,9617.0107421875,14543.533203125,9435.8125,4739.76123046875,23245.015625,9794.2353515625,17401.376953125,11918.544921875,9315.80859375,12598.0380859375,11970.9970703125,2352.396728515625,10716.12109375,4038.015869140625,17247.19921875,6775.85595703125,8850.8916015625,2940.495849609375,11894.703125,5685.48828125,24069.150390625,4414.71728515625,18691.220703125,3705.8193359375,9906.2919921875,26994.546875,21824.8359375,11579.1962890625,-0.0,-44470.625,20002.5234375,5906.4228515625,0.0,7170.8359375,0.0,0.0
15753.904296875,15735.6259765625,34561.94921875,11792.1826171875,28512.478515625,6994.40625,8354.9814453125,9520.8486328125,9616.2158203125,6550.94775390625,17618.337890625,-797.9075317382812,8872.349609375,0.0,23004.212890625,8103.05322265625,25313.6953125,20225.048828125,9977.8173828125,12249.9462890625,23481.05078125,29896.89453125,24042.12890625,20066.103515625,21661.123046875,7887.68115234375,29466.947265625,867.8436279296875,0.0,1608.5306396484375,14095.306640625,6636.7783203125,26326.974609375,16677.37890625,15622.775390625,25207.201171875,9615.4208984375,14539.5595703125,9466.8076171875,4692.07763671875,23246.607421875,9785.4931640625,17401.376953125,11912.1865234375,9311.8349609375,12596.4482421875,11947.1552734375,2359.54931640625,10715.3251953125,4028.47900390625,17246.404296875,6770.29296875,8854.0712890625,2929.36962890625,11891.5244140625,5680.7197265625,24070.740234375,4408.359375,18692.8125,3706.6142578125,9918.212890625,26992.162109375,21824.041015625,11582.375,-0.0,-44480.9609375,20003.318359375,5900.85986328125,0.0,7178.783203125,0.0,0.0
15753.111328125,15731.6533203125,34568.30859375,11793.7724609375,28515.658203125,6994.40625,8356.5712890625,9520.8486328125,9609.0634765625,6555.7158203125,17617.544921875,-797.11279296875,8873.939453125,0.0,23008.1875,8103.84765625,25314.490234375,20226.63671875,9979.4072265625,12251.5361328125,23482.640625,29900.869140625,24040.541015625,20066.103515625,21668.275390625,7889.27099609375,29470.125,867.0488891601562,0.0,1605.351806640625,14097.6904296875,6633.599609375,26328.564453125,16678.17578125,15626.7490234375,25207.99609375,9619.3955078125,14540.3544921875,9474.75390625,4708.76708984375,23251.375,9783.904296875,17405.3515625,11910.59765625,9311.0400390625,12595.6533203125,11940.001953125,2361.138671875,10719.298828125,4026.889892578125,17248.7890625,6771.88232421875,8840.560546875,2923.806396484375,11892.318359375,5671.97802734375,24073.123046875,4406.77001953125,18698.373046875,3709.79296875,9929.33984375,26992.162109375,21825.6328125,11585.552734375,-0.0,-44479.37109375,20008.8828125,5894.501953125,0.0,7185.14111328125,0.0,0.0
15725.2939453125,15725.2939453125,34567.515625,11798.541015625,28517.24609375,6993.61181640625,8356.5712890625,9520.0537109375,9601.1162109375,6558.10009765625,17611.98046875,-801.08642578125,8872.349609375,0.0,23010.572265625,8107.02587890625,25312.10546875,20227.431640625,9978.6123046875,12254.71484375,23482.640625,29901.662109375,24038.15625,20066.896484375,21668.275390625,7888.4765625,29467.740234375,864.6647338867188,0.0,1603.7623291015625,14096.1005859375,6624.857421875,26330.947265625,16680.55859375,15625.9541015625,25206.408203125,9620.189453125,14539.5595703125,9451.70703125,4729.4296875,23248.990234375,9784.6982421875,17402.966796875,11908.2138671875,9308.6552734375,12599.6279296875,11967.0224609375,2361.138671875,10716.9150390625,4026.094970703125,17248.7890625,6772.6767578125,8827.845703125,2934.9326171875,11891.5244140625,5660.05712890625,24070.740234375,4403.59130859375,18699.169921875,3712.17724609375,9941.2607421875,26992.162109375,21826.42578125,11592.7060546875,-0.0,-44485.73046875,20004.908203125,5898.4755859375,0.0,7197.06201171875,0.0,0.0
15714.1689453125,15698.2744140625,34567.515625,11800.9248046875,28514.06640625,6988.84326171875,8353.392578125,9516.875,9594.7578125,6557.3056640625,17594.49609375,-812.212646484375,8872.349609375,0.0,23011.365234375,8104.64208984375,25312.900390625,20226.63671875,9976.2275390625,12256.3046875,23482.640625,29900.869140625,24034.181640625,20063.71875,21661.916015625,7886.88671875,29466.15234375,855.9227294921875,0.0,1597.404541015625,14094.51171875,6624.857421875,26330.15234375,16678.17578125,15622.775390625,25203.228515625,9618.599609375,14535.5859375,9454.0908203125,4738.171875,23246.607421875,9782.314453125,17399.787109375,11903.4453125,9304.6826171875,12597.2431640625,11985.3017578125,2335.70751953125,10712.94140625,4017.35302734375,17247.99609375,6768.70361328125,8819.103515625,2956.390380859375,11889.1396484375,5640.9833984375,24067.560546875,4394.84912109375,18701.552734375,3710.587646484375,9923.775390625,26989.779296875,21825.6328125,11592.7060546875,-0.0,-44505.59765625,20008.087890625,5899.2705078125,0.0,7194.677734375,0.0,0.0
15729.2685546875,15679.994140625,34568.30859375,11804.8984375,28514.861328125,6986.45947265625,8352.59765625,9512.9013671875,9589.1953125,6556.5107421875,17575.421875,-820.159912109375,8874.734375,0.0,23010.572265625,8100.6689453125,25312.900390625,20227.431640625,9976.2275390625,12253.125,23480.2578125,29899.279296875,24028.619140625,20060.5390625,21662.712890625,7885.296875,29466.947265625,853.5385131835938,0.0,1593.430908203125,14093.716796875,6628.83154296875,26330.15234375,16676.583984375,15622.775390625,25204.0234375,9617.0107421875,14532.4072265625,9459.6552734375,4738.171875,23247.400390625,9779.9296875,17398.9921875,11898.6767578125,9302.298828125,12593.26953125,11986.8916015625,2317.4287109375,10712.94140625,4014.96875,17249.583984375,6764.72998046875,8823.8720703125,2938.906494140625,11883.576171875,5636.21533203125,24069.150390625,4390.0810546875,18701.552734375,3707.408935546875,9909.470703125,26988.982421875,21824.041015625,11583.9638671875,-0.0,-44517.515625,20012.85546875,5890.5283203125,0.0,7189.90966796875,0.0,0.0
15735.6259765625,15696.68359375,34565.92578125,11799.3359375,28513.2734375,6985.66455078125,8352.59765625,9510.517578125,9582.8369140625,6555.7158203125,17596.0859375,-825.7230224609375,8864.40234375,0.0,23008.982421875,8096.69482421875,25311.3125,20225.048828125,9973.84375,12253.125,23477.873046875,29896.89453125,24026.236328125,20060.5390625,21661.123046875,7882.1181640625,29466.15234375,851.9490356445312,0.0,1586.2783203125,14092.921875,6628.03662109375,26326.974609375,16673.40625,15620.390625,25201.638671875,9615.4208984375,14530.0224609375,9465.2177734375,4727.84033203125,23245.810546875,9779.1357421875,17398.19921875,11898.6767578125,9299.119140625,12590.884765625,11980.533203125,2306.30224609375,10709.7626953125,4012.584716796875,17247.19921875,6760.755859375,8827.845703125,2902.348876953125,11878.8076171875,5641.7783203125,24068.35546875,4382.92822265625,18701.552734375,3707.408935546875,9937.2861328125,26986.599609375,21823.248046875,11579.1962890625,-0.0,-44522.28515625,20016.828125,5879.40234375,0.0,7192.29345703125,0.0,0.0
15741.9833984375,15706.220703125,34556.390625,11796.1572265625,28510.888671875,6992.02197265625,8352.59765625,9516.080078125,9576.4794921875,6557.3056640625,17627.875,-808.239013671875,8861.224609375,0.0,23006.59765625,8106.2314453125,25313.6953125,20223.458984375,9975.43359375,12252.3310546875,23478.666015625,29899.279296875,24023.8515625,20063.71875,21653.970703125,7889.27099609375,29464.5625,861.4857788085938,0.0,1600.5833740234375,14096.1005859375,6634.39404296875,26324.58984375,16677.37890625,15618.80078125,25207.201171875,9615.4208984375,14532.4072265625,9469.19140625,4721.48291015625,23242.6328125,9787.876953125,17398.19921875,11904.2392578125,9298.32421875,12593.26953125,11953.5126953125,2336.501953125,10708.1728515625,4022.121337890625,17246.404296875,6767.90869140625,8826.255859375,2895.1962890625,11876.423828125,5663.236328125,24067.560546875,4395.6435546875,18698.373046875,3706.6142578125,9930.1337890625,26988.982421875,21824.8359375,11575.2216796875,-0.0,-44502.41796875,20010.470703125,5885.759765625,0.0,7189.90966796875,0.0,0.0
15741.9833984375,15708.6044921875,34557.18359375,11795.361328125,28516.451171875,6992.81689453125,8355.7763671875,9520.0537109375,9577.2744140625,6561.279296875,17635.822265625,-796.3180541992188,8865.197265625,0.0,23008.1875,8107.8212890625,25315.28515625,20229.81640625,9980.2021484375,12256.3046875,23484.23046875,29903.25390625,24027.82421875,20067.69140625,21668.275390625,7889.27099609375,29464.5625,865.45947265625,0.0,1604.5570068359375,14099.2802734375,6636.7783203125,26330.15234375,16678.96875,15623.5693359375,25210.380859375,9619.3955078125,14536.380859375,9481.1123046875,4744.52978515625,23248.1953125,9783.1083984375,17402.171875,11909.0078125,9303.0927734375,12598.83203125,11960.666015625,2369.880615234375,10714.53125,4027.6845703125,17249.583984375,6770.29296875,8838.970703125,2913.47509765625,11882.7822265625,5673.5673828125,24069.150390625,4398.02783203125,18700.7578125,3709.79296875,9906.2919921875,26992.162109375,21828.015625,11583.1689453125,-0.0,-44492.0859375,20007.291015625,5898.4755859375,0.0,7188.3203125,0.0,0.0
15730.0625,15707.8115234375,34558.7734375,11792.1826171875,28510.09375,6990.4326171875,8348.6240234375,9514.4912109375,9569.3271484375,6550.94775390625,17624.697265625,-800.2916870117188,8860.4287109375,0.0,23001.830078125,8103.84765625,25310.515625,20230.611328125,9974.638671875,12246.767578125,23476.28125,29896.89453125,24021.466796875,20062.923828125,21657.1484375,7886.88671875,29456.615234375,862.280517578125,0.0,1597.404541015625,14092.921875,6624.06298828125,26326.974609375,16676.583984375,15618.0068359375,25205.611328125,9613.037109375,14530.818359375,9487.4697265625,4750.0927734375,23241.837890625,9778.3408203125,17395.01953125,11906.6240234375,9295.9404296875,12591.6796875,11967.0224609375,2365.906982421875,10704.994140625,4022.121337890625,17242.431640625,6763.93505859375,8847.7138671875,2934.9326171875,11877.21875,5668.798828125,24064.3828125,4400.412109375,18693.60546875,3705.8193359375,9916.623046875,26986.599609375,21820.068359375,11568.8642578125,-0.0,-44492.0859375,20004.11328125,5900.85986328125,0.0,7183.5517578125,0.0,0.0
15719.732421875,15711.7841796875,34550.828125,11792.9775390625,28502.146484375,6991.2275390625,8345.4443359375,9514.4912109375,9574.095703125,6548.5634765625,17630.2578125,-801.8811645507812,8857.25,0.0,23001.830078125,8111.0,25304.953125,20227.431640625,9970.6650390625,12248.3564453125,23469.92578125,29895.3046875,24018.287109375,20060.5390625,21635.69140625,7886.09228515625,29454.23046875,863.0752563476562,0.0,1598.19921875,14087.359375,6619.29443359375,26317.4375,16671.81640625,15613.23828125,25202.43359375,9609.8583984375,14531.6123046875,9467.6015625,4738.96630859375,23233.890625,9778.3408203125,17391.046875,11905.0341796875,9297.5302734375,12590.884765625,11960.666015625,2343.654541015625,10697.841796875,4018.9423828125,17242.431640625,6764.72998046875,8850.8916015625,2939.701171875,11874.8349609375,5664.8251953125,24062.791015625,4407.564453125,18695.1953125,3703.435302734375,9928.5439453125,26984.21484375,21818.48046875,11568.8642578125,-0.0,-44496.05859375,20005.703125,5900.85986328125,0.0,7181.96240234375,0.0,0.0
15704.6318359375,15723.705078125,34540.4921875,11777.8779296875,28498.96875,6987.25390625,8342.265625,9512.9013671875,9582.8369140625,6550.1533203125,17630.2578125,-810.6231689453125,8856.4560546875,0.0,23003.419921875,8103.05322265625,25299.390625,20222.6640625,9968.28125,12247.5625,23465.15625,29888.94921875,24017.4921875,20056.56640625,21628.5390625,7882.91259765625,29452.642578125,858.306884765625,0.0,1602.9676513671875,14083.3857421875,6614.5263671875,26311.078125,16665.458984375,15610.05859375,25196.076171875,9607.474609375,14529.228515625,9445.349609375,4732.60888671875,23228.326171875,9774.3671875,17387.8671875,11901.85546875,9299.119140625,12588.5009765625,11934.439453125,2334.91259765625,10698.6357421875,4013.379638671875,17241.63671875,6760.755859375,8842.150390625,2942.8798828125,11872.451171875,5652.10986328125,24061.998046875,4395.6435546875,18696.78515625,3705.8193359375,9930.1337890625,26980.2421875,21816.095703125,11571.248046875,-0.0,-44503.2109375,20009.67578125,5887.349609375,0.0,7181.16748046875,0.0,0.0
15738.8056640625,15738.8056640625,34545.26171875,11776.2880859375,28500.556640625,6988.84326171875,8342.265625,9513.6953125,9592.3740234375,6550.1533203125,17620.72265625,-814.5968017578125,8857.25,0.0,23002.625,8098.28466796875,25297.80078125,20221.869140625,9969.8701171875,12249.9462890625,23465.15625,29884.97265625,24021.466796875,20058.154296875,21642.84375,7881.32373046875,29451.84765625,857.5121459960938,0.0,1598.993896484375,14081.0009765625,6617.705078125,26310.28515625,16663.07421875,15610.05859375,25194.486328125,9608.2685546875,14528.43359375,9452.501953125,4726.2509765625,23232.30078125,9771.9833984375,17388.662109375,11901.85546875,9300.708984375,12587.70703125,11943.1806640625,2350.012451171875,10701.8154296875,4013.379638671875,17241.63671875,6760.755859375,8825.4609375,2937.31689453125,11874.0400390625,5644.95703125,24060.408203125,4390.87548828125,18696.78515625,3709.79296875,9931.7236328125,26980.2421875,21817.68359375,11576.8115234375,-0.0,-44504.80078125,20004.908203125,5879.40234375,0.0,7185.14111328125,0.0,0.0
15741.1904296875,15719.732421875,34548.44140625,11783.4404296875,28501.3515625,6985.66455078125,8342.265625,9512.1064453125,9600.3212890625,6550.94775390625,17613.568359375,-816.9810180664062,8858.83984375,0.0,23002.625,8097.4892578125,25296.2109375,20219.484375,9968.28125,12255.509765625,23464.361328125,29884.97265625,24022.259765625,20057.359375,21638.07421875,7878.14404296875,29454.23046875,856.7174072265625,0.0,1594.2255859375,14081.0009765625,6614.5263671875,26312.669921875,16664.6640625,15610.05859375,25194.486328125,9608.2685546875,14527.638671875,9457.2705078125,4708.76708984375,23230.7109375,9768.8037109375,17387.072265625,11901.0615234375,9303.0927734375,12586.9111328125,11967.818359375,2347.62841796875,10700.2255859375,4011.789794921875,17243.2265625,6758.3720703125,8831.818359375,2905.52783203125,11875.6298828125,5644.16259765625,24064.3828125,4390.0810546875,18697.580078125,3701.051025390625,9922.9814453125,26981.03515625,21817.68359375,11587.142578125,-0.0,-44507.1875,20006.498046875,5879.40234375,0.0,7186.73095703125,0.0,0.0
15736.421875,15703.04296875,34551.62109375,11794.5673828125,28502.94140625,6992.02197265625,8347.0341796875,9514.4912109375,9608.2685546875,6550.94775390625,17615.16015625,-808.239013671875,8860.4287109375,0.0,23005.0078125,8098.28466796875,25299.390625,20221.869140625,9972.2548828125,12258.6884765625,23465.951171875,29891.33203125,24027.029296875,20060.5390625,21636.486328125,7883.7080078125,29459.794921875,861.4857788085938,0.0,1600.5833740234375,14084.1796875,6620.0888671875,26315.84765625,16668.638671875,15612.443359375,25198.458984375,9609.8583984375,14530.818359375,9455.6806640625,4705.587890625,23229.123046875,9775.9560546875,17389.455078125,11908.2138671875,9307.0673828125,12589.294921875,11975.765625,2336.501953125,10704.2001953125,4018.14794921875,17247.19921875,6762.345703125,8842.150390625,2873.738525390625,11874.8349609375,5652.904296875,24065.17578125,4397.2333984375,18703.142578125,3699.461669921875,9917.4189453125,26985.802734375,21820.86328125,11589.52734375,-0.0,-44493.67578125,20009.67578125,5897.6806640625,0.0,7177.98876953125,0.0,0.0
15745.9580078125,15705.4267578125,34554.796875,11804.103515625,28508.50390625,7003.1484375,8351.0087890625,9521.6435546875,9609.8583984375,6550.1533203125,17615.953125,-795.5233154296875,8865.9921875,0.0,23008.982421875,8109.41015625,25308.927734375,20229.81640625,9977.0234375,12253.125,23473.103515625,29897.689453125,24034.181640625,20065.30859375,21649.203125,7894.0390625,29461.384765625,872.6119995117188,0.0,1617.272705078125,14092.1279296875,6634.39404296875,26319.822265625,16678.17578125,15618.0068359375,25204.81640625,9614.626953125,14537.1748046875,9447.7333984375,4720.68798828125,23236.275390625,9783.1083984375,17395.814453125,11918.544921875,9308.6552734375,12593.26953125,11970.2021484375,2350.80712890625,10708.9677734375,4030.86328125,17248.7890625,6770.29296875,8822.2822265625,2915.859130859375,11877.21875,5667.20947265625,24064.3828125,4413.1279296875,18702.349609375,3704.22998046875,9937.2861328125,26989.779296875,21823.248046875,11576.8115234375,-0.0,-44473.80859375,20008.8828125,5917.54931640625,0.0,7173.22021484375,0.0,0.0
15739.599609375,15686.353515625,34561.15625,11812.845703125,28512.478515625,7005.53271484375,8351.802734375,9520.8486328125,9607.474609375,6546.17919921875,17615.953125,-797.11279296875,8866.787109375,0.0,23006.59765625,8111.79443359375,25309.720703125,20230.611328125,9976.2275390625,12246.767578125,23477.873046875,29899.279296875,24034.9765625,20066.103515625,21659.533203125,7891.65478515625,29459.794921875,874.9962158203125,0.0,1624.42529296875,14092.1279296875,6633.599609375,26324.58984375,16681.353515625,15621.185546875,25206.408203125,9612.2431640625,14535.5859375,9436.607421875,4730.224609375,23245.015625,9788.6728515625,17397.404296875,11919.3388671875,9308.6552734375,12590.884765625,11968.6123046875,2355.57568359375,10712.94140625,4034.04248046875,17247.19921875,6771.087890625,8806.3876953125,2951.6220703125,11875.6298828125,5671.18310546875,24061.998046875,4417.896484375,18698.373046875,3701.051025390625,9939.6708984375,26988.982421875,21821.65625,11564.095703125,-0.0,-44469.0390625,20003.318359375,5904.0390625,0.0,7168.45166015625,0.0,0.0
15742.7783203125,15684.7626953125,34562.74609375,11796.951171875,28514.06640625,6997.58544921875,8353.392578125,9518.4638671875,9613.8310546875,6550.94775390625,17614.365234375,-813.8020629882812,8864.40234375,0.0,23007.392578125,8108.61572265625,25308.927734375,20229.81640625,9976.2275390625,12253.125,23477.873046875,29896.89453125,24036.56640625,20063.71875,21665.095703125,7875.76025390625,29462.1796875,863.8699951171875,0.0,1613.299072265625,14090.5380859375,6630.4208984375,26324.58984375,16675.791015625,15621.185546875,25200.84375,9611.447265625,14533.99609375,9436.607421875,4734.1982421875,23248.1953125,9783.904296875,17398.19921875,11912.1865234375,9312.6298828125,12591.6796875,11966.228515625,2343.654541015625,10715.3251953125,4022.121337890625,17250.37890625,6767.90869140625,8822.2822265625,2932.548583984375,11873.2451171875,5646.546875,24061.998046875,4398.82275390625,18701.552734375,3703.435302734375,9911.8544921875,26986.599609375,21822.453125,11576.0166015625,-0.0,-44495.265625,20006.498046875,5877.81298828125,0.0,7187.525390625,0.0,0.0
15730.857421875,15683.173828125,34554.796875,11787.4140625,28506.9140625,6984.0751953125,8347.8291015625,9508.1328125,9617.0107421875,6547.76904296875,17601.6484375,-824.9282836914062,8863.6083984375,0.0,23004.212890625,8091.9267578125,25300.98046875,20224.251953125,9969.0751953125,12253.125,23469.12890625,29884.97265625,24032.59375,20053.38671875,21652.380859375,7871.787109375,29459.0,847.1806640625,0.0,1589.4571533203125,14083.3857421875,6622.47314453125,26315.84765625,16667.046875,15613.23828125,25192.1015625,9607.474609375,14526.0498046875,9427.865234375,4734.1982421875,23241.837890625,9772.77734375,17394.224609375,11900.265625,9311.0400390625,12582.9384765625,11951.12890625,2328.554931640625,10709.7626953125,4006.22705078125,17247.19921875,6755.193359375,8829.4345703125,2915.859130859375,11870.06640625,5627.47314453125,24059.61328125,4374.18603515625,18699.96484375,3694.693359375,9911.060546875,26978.650390625,21815.30078125,11585.552734375,-0.0,-44519.109375,20005.703125,5857.9443359375,0.0,7185.14111328125,0.0,0.0
15726.08984375,15686.353515625,34552.4140625,11770.7255859375,28503.736328125,6981.69091796875,8345.4443359375,9504.1591796875,9619.3955078125,6541.4111328125,17593.703125,-828.107177734375,8862.0185546875,0.0,22997.85546875,8079.21142578125,25297.80078125,20218.69140625,9965.1025390625,12249.15234375,23465.15625,29883.384765625,24031.796875,20051.001953125,21638.07421875,7880.5283203125,29456.615234375,845.5912475585938,0.0,1583.8941650390625,14079.4111328125,6621.6787109375,26313.462890625,16664.6640625,15610.8544921875,25188.126953125,9605.08984375,14522.8701171875,9451.70703125,4719.89306640625,23236.275390625,9774.3671875,17392.634765625,11898.6767578125,9308.6552734375,12578.169921875,11944.7705078125,2323.786376953125,10704.994140625,4003.0478515625,17244.01953125,6748.04052734375,8838.1767578125,2923.806396484375,11861.32421875,5632.24169921875,24055.638671875,4371.00732421875,18695.1953125,3687.540771484375,9924.5712890625,26976.267578125,21810.53125,11584.7587890625,-0.0,-44525.46484375,20000.138671875,5869.865234375,0.0,7177.1943359375,0.0,0.0
15727.6787109375,15713.373046875,34564.3359375,11777.8779296875,28514.06640625,6992.02197265625,8358.1611328125,9514.4912109375,9640.0576171875,6548.5634765625,17604.828125,-826.5177612304688,8858.044921875,0.0,23006.59765625,8090.3369140625,25305.748046875,20228.228515625,9975.43359375,12258.6884765625,23476.28125,29889.7421875,24048.486328125,20062.12890625,21652.380859375,7881.32373046875,29465.357421875,855.9227294921875,0.0,1600.5833740234375,14089.7431640625,6631.21533203125,26325.384765625,16673.40625,15624.3642578125,25197.6640625,9615.4208984375,14533.99609375,9496.2119140625,4707.177734375,23246.607421875,9782.314453125,17401.376953125,11909.802734375,9320.5771484375,12586.9111328125,11946.3603515625,2326.170654296875,10718.5048828125,4010.995361328125,17254.353515625,6757.57763671875,8850.8916015625,2930.164306640625,11865.2978515625,5645.751953125,24069.150390625,4384.517578125,18703.142578125,3696.28271484375,9920.5966796875,26985.009765625,21822.453125,11596.6796875,-0.0,-44515.1328125,20000.138671875,5884.17041015625,0.0,7184.3466796875,0.0,0.0
15726.884765625,15737.21484375,34574.66796875,11786.6201171875,28517.24609375,6996.79052734375,8362.1337890625,9517.669921875,9659.130859375,6553.33203125,17610.392578125,-825.7230224609375,8863.6083984375,0.0,23008.982421875,8097.4892578125,25311.3125,20228.228515625,9980.2021484375,12266.6357421875,23481.845703125,29892.921875,24058.0234375,20066.103515625,21661.123046875,7877.349609375,29465.357421875,859.8963623046875,0.0,1607.7359619140625,14093.716796875,6636.7783203125,26330.947265625,16679.763671875,15628.337890625,25199.255859375,9620.984375,14537.1748046875,9476.34375,4711.1513671875,23250.580078125,9779.9296875,17404.556640625,11915.3662109375,9330.11328125,12593.26953125,11963.8447265625,2337.296630859375,10724.0673828125,4012.584716796875,17255.1484375,6763.93505859375,8843.7392578125,2915.064453125,11868.4765625,5643.36767578125,24065.17578125,4389.2861328125,18707.1171875,3704.22998046875,9884.833984375,26988.1875,21826.42578125,11603.83203125,-0.0,-44520.6953125,20011.267578125,5887.349609375,0.0,7188.3203125,0.0,0.0
15731.6533203125,15726.884765625,34563.54296875,11782.646484375,28509.298828125,6991.2275390625,8354.1875,9511.3115234375,9666.283203125,6545.384765625,17602.443359375,-832.080810546875,8865.197265625,0.0,23005.8046875,8095.900390625,25308.1328125,20222.6640625,9972.2548828125,12260.27734375,23473.8984375,29884.1796875,24052.4609375,20058.154296875,21652.380859375,7874.9658203125,29458.205078125,855.1279907226562,0.0,1598.993896484375,14088.154296875,6635.18896484375,26326.974609375,16673.40625,15621.9794921875,25194.486328125,9613.037109375,14530.0224609375,9457.2705078125,4719.0986328125,23242.6328125,9775.9560546875,17398.19921875,11909.802734375,9326.9345703125,12585.322265625,11970.2021484375,2339.680908203125,10715.3251953125,4007.81640625,17251.173828125,6757.57763671875,8827.845703125,2904.73291015625,11866.0927734375,5635.42041015625,24062.791015625,4385.3125,18705.525390625,3695.488037109375,9880.8603515625,26982.625,21820.86328125,11597.4736328125,-0.0,-44525.46484375,20012.060546875,5869.0703125,0.0,7172.42578125,0.0,0.0
15746.751953125,15706.220703125,34551.62109375,11777.0830078125,28504.529296875,6989.6376953125,8351.0087890625,9506.54296875,9667.873046875,6539.82177734375,17592.90625,-829.6966552734375,8861.224609375,0.0,23006.59765625,8091.9267578125,25302.568359375,20220.279296875,9968.28125,12261.8671875,23467.541015625,29880.205078125,24046.1015625,20053.38671875,21643.638671875,7872.58154296875,29452.642578125,851.154296875,0.0,1591.84130859375,14082.5908203125,6631.21533203125,26319.02734375,16667.046875,15614.8271484375,25191.306640625,9608.2685546875,14524.4599609375,9439.7861328125,4719.89306640625,23233.890625,9772.77734375,17391.046875,11905.8291015625,9322.166015625,12582.142578125,11953.5126953125,2341.2705078125,10707.3779296875,4007.021484375,17248.7890625,6750.4248046875,8805.5927734375,2919.8330078125,11862.9140625,5631.44677734375,24062.791015625,4385.3125,18708.705078125,3686.745849609375,9914.2392578125,26979.447265625,21816.888671875,11599.8583984375,-0.0,-44521.4921875,20008.8828125,5859.53369140625,0.0,7162.88916015625,0.0,0.0
15772.9775390625,15689.53125,34546.8515625,11777.8779296875,28499.76171875,6988.84326171875,8347.8291015625,9508.927734375,9657.5419921875,6540.61669921875,17589.7265625,-822.5440673828125,8855.66015625,0.0,23005.0078125,8097.4892578125,25299.390625,20221.07421875,9969.8701171875,12257.099609375,23464.361328125,29879.412109375,24044.513671875,20054.181640625,21635.69140625,7871.787109375,29451.05078125,855.9227294921875,0.0,1584.6888427734375,14081.7958984375,6623.26806640625,26315.0546875,16663.869140625,15611.6484375,25191.306640625,9607.474609375,14525.25390625,9440.5810546875,4717.5087890625,23231.505859375,9769.5986328125,17389.455078125,11908.2138671875,9318.98828125,12581.3486328125,11943.9765625,2339.680908203125,10706.583984375,4012.584716796875,17245.611328125,6752.80908203125,8821.4873046875,2919.8330078125,11869.271484375,5636.21533203125,24059.61328125,4387.69677734375,18708.705078125,3693.103759765625,9942.849609375,26978.650390625,21816.095703125,11595.8857421875,-0.0,-44515.1328125,20006.498046875,5881.7861328125,0.0,7161.29931640625,0.0,0.0
15786.4892578125,15709.400390625,34555.59375,11792.9775390625,28502.94140625,6997.58544921875,8347.0341796875,9510.517578125,9637.673828125,6539.02685546875,17604.828125,-813.00732421875,8856.4560546875,0.0,23000.240234375,8096.69482421875,25304.953125,20228.228515625,9971.458984375,12245.177734375,23470.720703125,29889.7421875,24046.1015625,20059.744140625,21643.638671875,7885.296875,29454.23046875,862.280517578125,0.0,1594.2255859375,14088.9482421875,6628.03662109375,26321.41015625,16672.611328125,15617.2109375,25197.6640625,9609.8583984375,14530.0224609375,9458.859375,4719.0986328125,23238.658203125,9783.904296875,17392.634765625,11912.982421875,9311.0400390625,12582.9384765625,11951.12890625,2342.065185546875,10709.7626953125,4025.300537109375,17244.01953125,6756.78271484375,8847.7138671875,2924.601318359375,11881.1923828125,5647.34130859375,24061.203125,4397.2333984375,18700.7578125,3696.28271484375,9932.517578125,26982.625,21812.916015625,11573.6318359375,-0.0,-44500.03515625,20000.935546875,5898.4755859375,0.0,7157.32568359375,0.0,0.0
15772.1845703125,15735.6259765625,34565.92578125,11815.23046875,28511.681640625,7015.0693359375,8351.0087890625,9516.875,9627.341796875,6538.232421875,17607.212890625,-807.4442749023438,8862.0185546875,0.0,22998.65234375,8104.64208984375,25313.6953125,20233.7890625,9975.43359375,12242.0,23480.2578125,29902.458984375,24048.486328125,20069.28125,21654.763671875,7909.138671875,29458.205078125,875.7908935546875,0.0,1599.7886962890625,14098.4853515625,6635.18896484375,26328.564453125,16686.916015625,15624.3642578125,25209.5859375,9613.8310546875,14536.380859375,9472.3701171875,4726.2509765625,23248.1953125,9805.361328125,17396.607421875,11924.9033203125,9309.451171875,12588.5009765625,11960.666015625,2350.012451171875,10716.12109375,4046.758056640625,17246.404296875,6763.93505859375,8842.150390625,2919.8330078125,11881.1923828125,5663.236328125,24063.587890625,4412.3330078125,18693.60546875,3697.077392578125,9934.107421875,26988.982421875,21814.50390625,11570.4541015625,-0.0,-44485.73046875,19997.755859375,5906.4228515625,0.0,7154.94140625,0.0,0.0
15752.3154296875,15731.6533203125,34570.6953125,11826.35546875,28514.06640625,7015.0693359375,8351.0087890625,9518.4638671875,9624.1640625,6536.642578125,17609.595703125,-793.13916015625,8870.7607421875,0.0,22997.85546875,8107.8212890625,25313.6953125,20232.99609375,9975.43359375,12242.7939453125,23481.05078125,29902.458984375,24048.486328125,20069.28125,21654.763671875,7917.880859375,29458.205078125,880.5592651367188,0.0,1618.8621826171875,14096.896484375,6637.5732421875,26329.359375,16686.12109375,15625.158203125,25210.380859375,9613.8310546875,14537.1748046875,9458.859375,4717.5087890625,23248.990234375,9804.56640625,17396.607421875,11925.697265625,9309.451171875,12586.9111328125,11969.4072265625,2359.54931640625,10719.298828125,4050.731689453125,17245.611328125,6767.1142578125,8830.2294921875,2917.44873046875,11879.603515625,5687.078125,24063.587890625,4421.0751953125,18693.60546875,3695.488037109375,9949.20703125,26988.1875,21816.095703125,11566.4794921875,-0.0,-44472.21875,19997.755859375,5905.62841796875,0.0,7153.35205078125,0.0,0.0
15744.3671875,15714.9638671875,34569.90234375,11828.740234375,28518.041015625,7015.86376953125,8356.5712890625,9522.4384765625,9634.4951171875,6544.58984375,17596.880859375,-789.16552734375,8889.833984375,0.0,23004.212890625,8113.38427734375,25315.28515625,20235.380859375,9979.4072265625,12253.9208984375,23481.05078125,29905.638671875,24053.255859375,20071.6640625,21657.1484375,7915.4970703125,29462.1796875,880.5592651367188,0.0,1622.8358154296875,14099.2802734375,6642.341796875,26329.359375,16689.30078125,15627.54296875,25213.560546875,9618.599609375,14540.3544921875,9446.14453125,4693.6669921875,23251.375,9805.361328125,17401.376953125,11927.287109375,9317.3984375,12592.474609375,11967.818359375,2367.49658203125,10726.4521484375,4048.347412109375,17251.173828125,6771.88232421875,8842.9453125,2924.601318359375,11888.3447265625,5683.10400390625,24065.17578125,4423.45947265625,18703.9375,3701.845947265625,9942.0546875,26992.95703125,21822.453125,11579.1962890625,-0.0,-44468.2421875,20004.908203125,5899.2705078125,0.0,7162.88916015625,0.0,0.0
15730.857421875,15707.8115234375,34559.56640625,11810.4619140625,28512.478515625,7005.53271484375,8351.0087890625,9516.875,9626.5478515625,6546.17919921875,17583.37109375,-798.7022705078125,8888.244140625,0.0,23001.03515625,8114.1787109375,25312.900390625,20229.81640625,9973.84375,12250.7412109375,23477.078125,29898.484375,24046.8984375,20064.51171875,21650.791015625,7894.83349609375,29459.0,874.2014770507812,0.0,1618.0673828125,14092.1279296875,6643.13671875,26326.1796875,16683.736328125,15622.775390625,25207.201171875,9613.8310546875,14533.99609375,9465.2177734375,4743.73486328125,23242.6328125,9795.8251953125,17396.607421875,11920.9287109375,9313.423828125,12588.5009765625,11970.2021484375,2360.343994140625,10724.8623046875,4036.426513671875,17247.19921875,6767.90869140625,8855.66015625,2930.958984375,11887.55078125,5664.03076171875,24058.818359375,4413.9228515625,18697.580078125,3706.6142578125,9905.4970703125,26988.1875,21818.48046875,11576.0166015625,-0.0,-44482.546875,20001.73046875,5890.5283203125,0.0,7170.04150390625,0.0,0.0
15735.6259765625,15710.1953125,34564.3359375,11804.8984375,28513.2734375,7001.55859375,8348.6240234375,9510.517578125,9613.8310546875,6540.61669921875,17619.1328125,-798.7022705078125,8877.9130859375,0.0,23000.240234375,8103.84765625,25316.873046875,20231.404296875,9969.0751953125,12243.5888671875,23478.666015625,29896.1015625,24042.92578125,20059.744140625,21656.35546875,7890.0654296875,29459.794921875,864.6647338867188,0.0,1621.246337890625,14091.33203125,6647.90478515625,26330.15234375,16682.943359375,15621.9794921875,25204.0234375,9609.8583984375,14528.43359375,9476.34375,4751.68212890625,23246.607421875,9794.2353515625,17395.814453125,11914.5712890625,9307.0673828125,12581.3486328125,11979.7392578125,2352.396728515625,10724.0673828125,4032.453125,17244.81640625,6762.345703125,8862.8134765625,2946.05908203125,11885.166015625,5660.05712890625,24064.3828125,4402.001953125,18692.8125,3699.461669921875,9899.1396484375,26985.009765625,21813.7109375,11566.4794921875,-0.0,-44488.90625,20000.138671875,5884.96533203125,0.0,7171.630859375,0.0,0.0
15732.4462890625,15672.048828125,34553.2109375,11795.361328125,28500.556640625,6984.86962890625,8338.2919921875,9495.41796875,9605.08984375,6530.28466796875,17617.544921875,-823.3388061523438,8850.09765625,0.0,22993.8828125,8078.416015625,25300.98046875,20216.306640625,9957.154296875,12236.435546875,23465.15625,29883.384765625,24027.029296875,20045.439453125,21648.40625,7874.17138671875,29447.875,843.20703125,0.0,1602.1728515625,14080.20703125,6632.8046875,26317.4375,16669.431640625,15608.4697265625,25188.126953125,9596.34765625,14514.9228515625,9455.6806640625,4701.6142578125,23232.30078125,9780.724609375,17384.6875,11896.29296875,9293.556640625,12567.837890625,11966.228515625,2319.812744140625,10711.3525390625,4010.995361328125,17236.07421875,6744.06689453125,8842.150390625,2907.1171875,11866.0927734375,5637.8046875,24055.638671875,4371.8017578125,18687.248046875,3689.925048828125,9907.0859375,26970.705078125,21800.994140625,11567.275390625,-0.0,-44517.515625,19997.755859375,5864.30224609375,0.0,7163.68359375,0.0,0.0
15722.91015625,15667.2802734375,34552.4140625,11789.00390625,28495.7890625,6977.716796875,8335.908203125,9490.6494140625,9602.7060546875,6530.28466796875,17619.1328125,-841.6175537109375,8843.7392578125,0.0,22993.8828125,8068.87890625,25295.416015625,20209.154296875,9953.181640625,12236.435546875,23458.798828125,29880.205078125,24023.056640625,20039.876953125,21642.84375,7864.63427734375,29444.6953125,834.4650268554688,0.0,1594.2255859375,14074.6435546875,6620.8837890625,26311.875,16667.046875,15604.49609375,25183.359375,9593.9638671875,14509.3603515625,9459.6552734375,4715.12451171875,23229.91796875,9773.572265625,17379.919921875,11890.728515625,9290.3779296875,12566.2490234375,11961.4599609375,2305.507568359375,10703.404296875,3997.484619140625,17234.484375,6736.9140625,8832.6142578125,2884.86474609375,11861.32421875,5625.08935546875,24054.845703125,4357.49658203125,18688.04296875,3684.36181640625,9918.212890625,26965.9375,21798.611328125,11573.6318359375,-0.0,-44535.796875,19999.345703125,5861.91796875,0.0,7166.0673828125,0.0,0.0
15711.7841796875,15672.841796875,34560.36328125,11795.361328125,28499.76171875,6980.89599609375,8339.087890625,9493.828125,9606.6787109375,6531.8740234375,17617.544921875,-834.4650268554688,8850.09765625,0.0,22996.267578125,8078.416015625,25300.18359375,20213.921875,9956.359375,12238.8203125,23464.361328125,29881.0,24027.029296875,20043.0546875,21634.1015625,7866.22314453125,29447.875,840.8228759765625,0.0,1591.84130859375,14077.02734375,6622.47314453125,26319.822265625,16670.2265625,15608.4697265625,25188.126953125,9597.9375,14514.12890625,9493.828125,4738.96630859375,23233.890625,9776.751953125,17384.6875,11897.0869140625,9293.556640625,12570.2216796875,11962.2548828125,2316.634033203125,10704.994140625,4002.253173828125,17238.458984375,6744.06689453125,8831.0244140625,2893.60693359375,11867.6826171875,5628.267578125,24057.23046875,4371.8017578125,18692.015625,3686.745849609375,9915.0341796875,26969.91015625,21802.583984375,11572.837890625,-0.0,-44525.46484375,20000.138671875,5882.5810546875,0.0,7162.09423828125,0.0,0.0
15733.2421875,15682.37890625,34553.2109375,11800.1298828125,28501.3515625,6982.4853515625,8343.060546875,9495.41796875,9612.2431640625,6527.10595703125,17615.16015625,-824.9282836914062,8856.4560546875,0.0,22997.060546875,8077.62158203125,25300.18359375,20213.126953125,9960.333984375,12238.025390625,23464.361328125,29881.0,24028.619140625,20043.849609375,21635.69140625,7870.99169921875,29447.078125,844.7965087890625,0.0,1590.251953125,14076.232421875,6627.24169921875,26317.4375,16670.2265625,15608.4697265625,25188.126953125,9599.5263671875,14515.7177734375,9470.7802734375,4724.6611328125,23233.095703125,9776.751953125,17385.482421875,11897.0869140625,9295.1455078125,12566.2490234375,11959.076171875,2322.99169921875,10709.7626953125,4007.021484375,17240.046875,6742.4775390625,8843.7392578125,2900.759521484375,11871.6552734375,5631.44677734375,24057.23046875,4377.365234375,18695.1953125,3682.7724609375,9909.470703125,26969.91015625,21801.791015625,11570.4541015625,-0.0,-44515.92578125,20001.73046875,5877.81298828125,0.0,7148.583984375,0.0,0.0
15746.751953125,15707.015625,34544.46875,11789.00390625,28495.7890625,6980.89599609375,8339.087890625,9493.033203125,9617.8056640625,6524.7216796875,17614.365234375,-823.3388061523438,8852.4814453125,0.0,22995.47265625,8076.03173828125,25294.623046875,20209.154296875,9956.359375,12240.41015625,23458.798828125,29877.02734375,24027.029296875,20039.876953125,21632.513671875,7870.99169921875,29447.078125,843.20703125,0.0,1599.7886962890625,14072.2587890625,6628.83154296875,26307.10546875,16663.869140625,15605.2900390625,25181.76953125,9597.142578125,14514.12890625,9432.6337890625,4711.1513671875,23228.326171875,9772.77734375,17382.302734375,11894.703125,9297.5302734375,12563.8642578125,11957.486328125,2319.01806640625,10708.1728515625,4006.22705078125,17240.046875,6742.4775390625,8843.7392578125,2905.52783203125,11866.88671875,5633.0361328125,24054.845703125,4376.5703125,18695.990234375,3678.798583984375,9915.8291015625,26965.9375,21799.40625,11573.6318359375,-0.0,-44518.3125,20002.5234375,5864.30224609375,0.0,7145.40478515625,0.0,0.0
15754.69921875,15708.6044921875,34552.4140625,11786.6201171875,28499.76171875,6987.25390625,8341.4716796875,9498.595703125,9629.7265625,6529.490234375,17618.337890625,-816.9810180664062,8853.2763671875,0.0,22998.65234375,8083.18408203125,25297.005859375,20211.5390625,9959.5380859375,12245.97265625,23463.568359375,29878.6171875,24030.208984375,20043.849609375,21632.513671875,7874.17138671875,29449.462890625,850.359619140625,0.0,1599.7886962890625,14074.6435546875,6628.83154296875,26311.875,16667.84375,15609.2646484375,25184.94921875,9599.5263671875,14518.1015625,9425.48046875,4728.63525390625,23231.505859375,9774.3671875,17387.072265625,11900.265625,9302.298828125,12569.427734375,11967.818359375,2319.812744140625,10709.7626953125,4011.789794921875,17244.01953125,6748.8349609375,8839.7666015625,2917.44873046875,11866.0927734375,5645.751953125,24055.638671875,4388.4912109375,18700.7578125,3681.9775390625,9921.3916015625,26969.91015625,21804.173828125,11579.990234375,-0.0,-44502.41796875,20006.498046875,5870.66015625,0.0,7147.7890625,0.0,0.0
15758.6728515625,15712.580078125,34555.59375,11781.056640625,28502.146484375,6987.25390625,8347.0341796875,9500.185546875,9640.8525390625,6531.07958984375,17618.337890625,-820.159912109375,8857.25,0.0,23004.212890625,8083.9794921875,25297.005859375,20212.33203125,9962.7177734375,12252.3310546875,23465.951171875,29877.8203125,24035.771484375,20046.234375,21641.25390625,7872.58154296875,29452.642578125,852.7437744140625,0.0,1592.6361083984375,14075.4384765625,6629.6259765625,26315.0546875,16668.638671875,15611.6484375,25186.5390625,9603.5,14519.69140625,9423.0966796875,4730.224609375,23236.275390625,9773.572265625,17391.046875,11904.2392578125,9307.861328125,12571.8115234375,11968.6123046875,2335.70751953125,10712.94140625,4010.995361328125,17247.19921875,6748.04052734375,8837.3818359375,2918.243408203125,11870.06640625,5644.16259765625,24060.408203125,4390.0810546875,18706.322265625,3682.7724609375,9929.33984375,26972.29296875,21807.3515625,11590.3212890625,-0.0,-44504.80078125,20010.470703125,5871.45458984375,0.0,7149.37841796875,0.0,0.0
15765.8251953125,15715.7578125,34557.98046875,11785.0302734375,28505.326171875,6987.25390625,8347.8291015625,9499.390625,9636.87890625,6532.6689453125,17625.490234375,-832.8755493164062,8860.4287109375,0.0,23002.625,8082.3896484375,25300.98046875,20215.51171875,9961.1279296875,12251.5361328125,23468.3359375,29877.8203125,24038.94921875,20049.4140625,21649.203125,7867.81298828125,29453.435546875,847.9754028320312,0.0,1599.7886962890625,14078.6171875,6634.39404296875,26319.822265625,16671.81640625,15615.6220703125,25186.5390625,9605.884765625,14521.28125,9461.2431640625,4731.01953125,23242.6328125,9770.3935546875,17391.83984375,11902.6494140625,9307.0673828125,12571.8115234375,11973.380859375,2352.396728515625,10716.12109375,4005.43212890625,17246.404296875,6744.86181640625,8859.634765625,2928.57470703125,11875.6298828125,5633.0361328125,24061.998046875,4381.33837890625,18701.552734375,3683.567138671875,9947.6171875,26975.47265625,21807.3515625,11590.3212890625,-0.0,-44517.515625,20002.5234375,5862.712890625,0.0,7157.32568359375,0.0,0.0
15761.8525390625,15714.9638671875,34553.2109375,11792.1826171875,28502.146484375,6988.84326171875,8345.4443359375,9503.3642578125,9629.7265625,6535.84814453125,17612.775390625,-830.4913940429688,8861.224609375,0.0,22997.060546875,8087.158203125,25302.568359375,20214.716796875,9962.7177734375,12246.767578125,23467.541015625,29879.412109375,24038.94921875,20051.001953125,21642.048828125,7867.0185546875,29452.642578125,849.5648803710938,0.0,1606.941162109375,14078.6171875,6634.39404296875,26317.4375,16672.611328125,15613.23828125,25188.923828125,9604.294921875,14522.0751953125,9471.576171875,4722.27734375,23238.658203125,9773.572265625,17390.251953125,11904.2392578125,9303.0927734375,12572.6064453125,11965.43359375,2357.959716796875,10713.736328125,4007.021484375,17242.431640625,6748.04052734375,8858.044921875,2949.23779296875,11875.6298828125,5630.65185546875,24059.61328125,4385.3125,18692.015625,3689.130126953125,9949.20703125,26975.47265625,21808.146484375,11584.7587890625,-0.0,-44519.109375,20000.138671875,5868.27587890625,0.0,7167.6572265625,0.0,0.0
15770.59375,15720.525390625,34560.36328125,11804.8984375,28504.529296875,6993.61181640625,8346.240234375,9508.927734375,9624.9580078125,6538.232421875,17615.16015625,-819.3651733398438,8863.6083984375,0.0,22996.267578125,8091.13232421875,25304.158203125,20218.69140625,9967.486328125,12243.5888671875,23470.720703125,29884.97265625,24040.541015625,20055.771484375,21646.818359375,7873.3759765625,29454.23046875,855.9227294921875,0.0,1611.7095947265625,14081.7958984375,6632.009765625,26319.822265625,16674.99609375,15615.6220703125,25194.486328125,9605.884765625,14525.25390625,9466.8076171875,4711.94580078125,23241.04296875,9783.904296875,17391.83984375,11912.1865234375,9304.6826171875,12578.9638671875,11967.0224609375,2353.986083984375,10716.12109375,4014.174072265625,17243.2265625,6753.603515625,8841.35546875,2939.701171875,11876.423828125,5637.01025390625,24061.203125,4392.46533203125,18689.6328125,3693.103759765625,9942.849609375,26979.447265625,21810.53125,11570.4541015625,-0.0,-44510.36328125,19995.37109375,5880.197265625,0.0,7170.04150390625,0.0,0.0
15776.953125,15730.0625,34563.54296875,11798.541015625,28504.529296875,6996.79052734375,8345.4443359375,9510.517578125,9620.189453125,6536.642578125,17609.595703125,-816.186279296875,8862.8134765625,0.0,22994.67578125,8091.13232421875,25304.158203125,20221.869140625,9965.896484375,12242.0,23469.12890625,29884.1796875,24039.74609375,20055.771484375,21653.17578125,7870.197265625,29453.435546875,858.306884765625,0.0,1608.5306396484375,14084.1796875,6636.7783203125,26320.615234375,16674.99609375,15616.4169921875,25192.896484375,9605.884765625,14526.0498046875,9456.4755859375,4722.27734375,23242.6328125,9787.0830078125,17390.251953125,11913.7763671875,9303.8876953125,12578.9638671875,11955.8974609375,2341.2705078125,10716.9150390625,4016.55810546875,17241.63671875,6755.193359375,8824.666015625,2911.885498046875,11876.423828125,5637.8046875,24059.61328125,4394.05419921875,18689.6328125,3692.30908203125,9940.46484375,26980.2421875,21806.55859375,11568.0693359375,-0.0,-44505.59765625,19993.78125,5884.17041015625,0.0,7166.0673828125,0.0,0.0
15761.056640625,15719.732421875,34560.36328125,11782.646484375,28499.76171875,6992.02197265625,8339.087890625,9505.7490234375,9617.8056640625,6529.490234375,17602.443359375,-821.7493896484375,8861.224609375,0.0,22992.29296875,8091.13232421875,25300.98046875,20213.126953125,9961.9228515625,12237.2314453125,23466.74609375,29881.794921875,24034.9765625,20051.001953125,21653.970703125,7877.349609375,29447.875,859.1016235351562,0.0,1598.993896484375,14081.0009765625,6632.8046875,26317.4375,16669.431640625,15610.05859375,25189.71875,9600.3212890625,14522.8701171875,9441.3759765625,4723.86669921875,23239.455078125,9779.1357421875,17383.09765625,11907.41796875,9297.5302734375,12571.8115234375,11955.8974609375,2329.349609375,10714.53125,4003.0478515625,17236.07421875,6752.01416015625,8821.4873046875,2908.70654296875,11873.2451171875,5638.599609375,24054.05078125,4394.84912109375,18687.248046875,3685.156494140625,9927.75,26975.47265625,21801.791015625,11561.7109375,-0.0,-44505.59765625,19995.37109375,5878.607421875,0.0,7151.7626953125,0.0,0.0
15757.083984375,15719.732421875,34565.92578125,11780.26171875,28497.376953125,6995.201171875,8339.087890625,9508.1328125,9620.189453125,6531.8740234375,17601.6484375,-816.186279296875,8858.044921875,0.0,22992.29296875,8101.46337890625,25304.953125,20213.126953125,9964.306640625,12238.025390625,23469.12890625,29884.1796875,24037.361328125,20054.181640625,21660.328125,7883.7080078125,29445.490234375,864.6647338867188,0.0,1607.7359619140625,14083.3857421875,6637.5732421875,26321.41015625,16671.021484375,15611.6484375,25192.896484375,9598.732421875,14525.25390625,9474.75390625,4726.2509765625,23241.04296875,9780.724609375,17382.302734375,11912.982421875,9296.734375,12575.78515625,11962.2548828125,2334.117919921875,10716.12109375,4011.789794921875,17236.8671875,6760.755859375,8842.150390625,2928.57470703125,11870.06640625,5641.7783203125,24054.845703125,4402.79638671875,18687.248046875,3692.30908203125,9938.8759765625,26977.857421875,21804.96875,11562.5068359375,-0.0,-44494.46875,19998.55078125,5875.4287109375,0.0,7146.994140625,0.0,0.0
15761.8525390625,15716.552734375,34560.36328125,11796.951171875,28495.7890625,7000.76416015625,8339.087890625,9510.517578125,9629.7265625,6537.4375,17603.23828125,-817.7757568359375,8856.4560546875,0.0,22990.703125,8103.84765625,25306.54296875,20217.099609375,9965.1025390625,12240.41015625,23469.12890625,29887.357421875,24041.333984375,20055.771484375,21649.203125,7892.44921875,29443.8984375,863.8699951171875,0.0,1614.09375,14085.76953125,6639.95751953125,26319.822265625,16675.791015625,15613.23828125,25196.076171875,9600.3212890625,14526.84375,9490.6494140625,4703.99853515625,23237.86328125,9789.466796875,17382.302734375,11916.16015625,9303.0927734375,12577.3740234375,11966.228515625,2328.554931640625,10717.7099609375,4019.7373046875,17238.458984375,6763.93505859375,8850.8916015625,2928.57470703125,11871.6552734375,5637.8046875,24055.638671875,4395.6435546875,18688.04296875,3696.28271484375,9953.181640625,26977.857421875,21805.763671875,11576.0166015625,-0.0,-44504.80078125,19999.345703125,5866.6865234375,0.0,7157.32568359375,0.0,0.0
15754.69921875,15707.8115234375,34564.3359375,11804.103515625,28494.994140625,7003.94287109375,8337.498046875,9509.72265625,9640.0576171875,6539.02685546875,17608.80078125,-815.3915405273438,8858.044921875,0.0,22990.703125,8099.87353515625,25307.3359375,20219.484375,9965.896484375,12243.5888671875,23468.3359375,29890.537109375,24042.12890625,20054.974609375,21634.896484375,7886.09228515625,29443.10546875,864.6647338867188,0.0,1607.7359619140625,14088.154296875,6639.95751953125,26323.0,16678.17578125,15613.23828125,25198.458984375,9599.5263671875,14526.84375,9466.8076171875,4721.48291015625,23237.0703125,9792.6455078125,17382.302734375,11918.544921875,9304.6826171875,12576.580078125,11969.4072265625,2325.375732421875,10713.736328125,4022.121337890625,17236.8671875,6762.345703125,8843.7392578125,2924.601318359375,11872.451171875,5643.36767578125,24053.255859375,4395.6435546875,18688.837890625,3693.103759765625,9943.64453125,26978.650390625,21806.55859375,11584.7587890625,-0.0,-44504.00390625,19999.345703125,5875.4287109375,0.0,7164.478515625,0.0,0.0
15745.1630859375,15681.5849609375,34560.36328125,11792.9775390625,28494.19921875,7001.55859375,8335.908203125,9506.54296875,9644.826171875,6540.61669921875,17600.05859375,-825.7230224609375,8858.83984375,0.0,22989.115234375,8087.158203125,25304.953125,20216.306640625,9962.7177734375,12245.97265625,23468.3359375,29884.1796875,24041.333984375,20052.591796875,21636.486328125,7878.939453125,29442.310546875,858.306884765625,0.0,1583.8941650390625,14085.76953125,6633.599609375,26322.20703125,16677.37890625,15610.8544921875,25193.69140625,9597.9375,14525.25390625,9454.88671875,4751.68212890625,23234.685546875,9787.876953125,17377.53515625,11915.3662109375,9302.298828125,12577.3740234375,11952.7177734375,2338.091552734375,10711.3525390625,4018.9423828125,17234.484375,6755.193359375,8827.0498046875,2922.217041015625,11871.6552734375,5637.01025390625,24050.87109375,4389.2861328125,18688.837890625,3692.30908203125,9920.5966796875,26977.857421875,21806.55859375,11593.5009765625,-0.0,-44519.109375,19998.55078125,5875.4287109375,0.0,7177.98876953125,0.0,0.0
15747.546875,15679.994140625,34549.234375,11780.26171875,28489.431640625,6986.45947265625,8332.7294921875,9498.595703125,9640.8525390625,6538.232421875,17588.93359375,-834.4650268554688,8856.4560546875,0.0,22989.115234375,8080.005859375,25297.005859375,20209.154296875,9955.5654296875,12244.3837890625,23461.18359375,29876.232421875,24033.388671875,20044.64453125,21635.69140625,7859.07080078125,29439.130859375,846.385986328125,0.0,1579.92041015625,14077.822265625,6634.39404296875,26314.2578125,16667.84375,15604.49609375,25184.94921875,9593.9638671875,14517.3076171875,9446.14453125,4701.6142578125,23229.123046875,9771.9833984375,17373.5625,11902.6494140625,9295.9404296875,12573.4013671875,11949.5390625,2328.554931640625,10707.3779296875,4003.8427734375,17232.099609375,6747.24560546875,8827.0498046875,2919.0380859375,11866.88671875,5627.47314453125,24049.28125,4372.5966796875,18688.04296875,3688.33544921875,9919.802734375,26969.115234375,21801.791015625,11598.26953125,-0.0,-44542.15234375,20000.138671875,5853.97119140625,0.0,7178.783203125,0.0,0.0
15728.4736328125,15687.1474609375,34549.234375,11778.671875,28492.609375,6980.10107421875,8331.1396484375,9497.0068359375,9632.9052734375,6536.642578125,17587.34375,-835.259765625,8858.044921875,0.0,22989.908203125,8083.18408203125,25297.005859375,20205.974609375,9953.181640625,12243.5888671875,23458.798828125,29876.232421875,24027.029296875,20042.26171875,21636.486328125,7859.07080078125,29439.130859375,844.0017700195312,0.0,1587.072998046875,14076.232421875,6638.3681640625,26314.2578125,16666.25390625,15604.49609375,25183.359375,9592.3740234375,14514.12890625,9449.322265625,4695.2568359375,23229.123046875,9768.0087890625,17373.5625,11897.8818359375,9292.76171875,12570.2216796875,11959.8701171875,2305.507568359375,10710.556640625,4000.663818359375,17230.509765625,6744.86181640625,8834.203125,2923.806396484375,11865.2978515625,5628.267578125,24049.28125,4374.18603515625,18688.04296875,3688.33544921875,9928.5439453125,26965.140625,21800.19921875,11596.6796875,-0.0,-44542.94921875,20003.318359375,5846.818359375,0.0,7175.6044921875,0.0,0.0
15730.857421875,15690.3271484375,34555.59375,11790.5927734375,28498.96875,6991.2275390625,8334.3193359375,9504.1591796875,9627.341796875,6535.84814453125,17598.470703125,-827.3125,8869.1708984375,0.0,22992.29296875,8095.900390625,25301.775390625,20213.126953125,9956.359375,12245.177734375,23466.74609375,29884.1796875,24031.00390625,20048.619140625,21646.818359375,7876.5556640625,29443.8984375,855.1279907226562,0.0,1581.5098876953125,14081.0009765625,6638.3681640625,26316.642578125,16671.81640625,15610.05859375,25191.306640625,9596.34765625,14518.8974609375,9456.4755859375,4728.63525390625,23239.455078125,9779.9296875,17379.125,11906.6240234375,9292.76171875,12571.8115234375,11954.3076171875,2300.7392578125,10716.9150390625,4014.174072265625,17234.484375,6751.21923828125,8822.2822265625,2923.806396484375,11870.861328125,5637.8046875,24052.4609375,4389.2861328125,18688.04296875,3689.130126953125,9909.470703125,26969.115234375,21801.791015625,11590.3212890625,-0.0,-44522.28515625,20001.73046875,5869.865234375,0.0,7162.09423828125,0.0,0.0
15740.39453125,15681.5849609375,34558.7734375,11800.9248046875,28498.171875,6993.61181640625,8332.7294921875,9504.1591796875,9619.3955078125,6534.25830078125,17608.80078125,-828.9019165039062,8857.25,0.0,22990.703125,8099.87353515625,25304.953125,20213.126953125,9954.7705078125,12242.0,23465.951171875,29886.564453125,24028.619140625,20047.822265625,21645.2265625,7879.73388671875,29441.515625,859.1016235351562,0.0,1577.5362548828125,14082.5908203125,6640.75244140625,26320.615234375,16674.19921875,15608.4697265625,25191.306640625,9594.7578125,14517.3076171875,9474.75390625,4707.177734375,23236.275390625,9787.0830078125,17376.7421875,11907.41796875,9289.58203125,12572.6064453125,11961.4599609375,2317.4287109375,10711.3525390625,4018.14794921875,17232.89453125,6752.80908203125,8819.103515625,2888.043701171875,11865.2978515625,5634.6259765625,24057.23046875,4390.0810546875,18688.04296875,3689.925048828125,9907.8818359375,26969.91015625,21800.19921875,11581.580078125,-0.0,-44515.92578125,20000.138671875,5890.5283203125,0.0,7151.7626953125,0.0,0.0
15710.1953125,15682.37890625,34569.1015625,11791.388671875,28499.76171875,6988.04833984375,8331.1396484375,9497.0068359375,9614.626953125,6530.28466796875,17600.85546875,-836.8492431640625,8850.8916015625,0.0,22989.115234375,8089.54248046875,25303.36328125,20207.5625,9951.591796875,12237.2314453125,23466.74609375,29880.205078125,24026.236328125,20043.0546875,21657.943359375,7867.81298828125,29439.92578125,851.154296875,0.0,1579.125732421875,14080.20703125,6641.546875,26320.615234375,16667.84375,15607.6748046875,25186.5390625,9590.78515625,14512.5390625,9446.14453125,4701.6142578125,23240.248046875,9777.5458984375,17375.9453125,11903.4453125,9284.01953125,12567.04296875,11958.28125,2315.839111328125,10715.3251953125,4013.379638671875,17231.306640625,6747.24560546875,8827.0498046875,2850.691650390625,11874.0400390625,5624.29443359375,24052.4609375,4386.90185546875,18686.453125,3685.156494140625,9906.2919921875,26966.73046875,21796.2265625,11573.6318359375,-0.0,-44516.72265625,19996.9609375,5879.40234375,0.0,7150.17333984375,0.0,0.0
15748.3427734375,15696.68359375,34560.36328125,11786.6201171875,28497.376953125,6984.0751953125,8333.5234375,9495.41796875,9620.984375,6530.28466796875,17597.67578125,-838.4386596679688,8850.09765625,0.0,22989.115234375,8086.36376953125,25303.36328125,20204.38671875,9951.591796875,12239.615234375,23464.361328125,29879.412109375,24027.029296875,20041.46484375,21649.99609375,7860.66064453125,29439.130859375,850.359619140625,0.0,1584.6888427734375,14077.822265625,6643.13671875,26319.822265625,16669.431640625,15607.6748046875,25182.56640625,9591.5791015625,14510.94921875,9458.859375,4711.1513671875,23236.275390625,9775.162109375,17375.150390625,11903.4453125,9286.4033203125,12565.453125,11947.1552734375,2326.96533203125,10710.556640625,4009.405517578125,17232.89453125,6746.45068359375,8850.8916015625,2899.169921875,11871.6552734375,5625.08935546875,24052.4609375,4379.74951171875,18689.6328125,3683.567138671875,9925.365234375,26965.9375,21797.021484375,11578.400390625,-0.0,-44522.28515625,19998.55078125,5857.1494140625,0.0,7155.736328125,0.0,0.0
15770.59375,15696.68359375,34557.98046875,11782.646484375,28494.994140625,6985.66455078125,8333.5234375,9494.6220703125,9624.9580078125,6528.69580078125,17598.470703125,-832.8755493164062,8851.6875,0.0,22989.115234375,8080.80029296875,25302.568359375,20204.38671875,9953.181640625,12242.0,23461.9765625,29880.205078125,24027.029296875,20043.0546875,21636.486328125,7871.787109375,29435.158203125,848.7701416015625,0.0,1593.430908203125,14076.232421875,6644.7255859375,26320.615234375,16670.2265625,15606.8798828125,25181.76953125,9593.9638671875,14510.154296875,9475.548828125,4684.92529296875,23234.685546875,9781.51953125,17375.150390625,11902.6494140625,9288.7880859375,12564.6591796875,11959.076171875,2328.554931640625,10707.3779296875,4010.995361328125,17232.099609375,6743.2724609375,8865.9921875,2936.522216796875,11864.5029296875,5625.8837890625,24049.28125,4370.21240234375,18689.6328125,3679.59326171875,9948.4130859375,26965.9375,21797.814453125,11579.1962890625,-0.0,-44523.875,20000.935546875,5842.8447265625,0.0,7151.7626953125,0.0,0.0
15758.6728515625,15707.015625,34554.796875,11781.8515625,28494.994140625,6982.4853515625,8331.1396484375,9491.443359375,9624.1640625,6527.10595703125,17579.396484375,-835.259765625,8853.2763671875,0.0,22989.115234375,8075.2373046875,25299.390625,20200.41015625,9950.001953125,12243.5888671875,23459.59375,29877.02734375,24026.236328125,20041.46484375,21635.69140625,7869.40283203125,29436.74609375,845.5912475585938,0.0,1592.6361083984375,14073.8486328125,6637.5732421875,26317.4375,16665.458984375,15605.2900390625,25180.181640625,9592.3740234375,14509.3603515625,9481.1123046875,4683.3359375,23233.890625,9773.572265625,17372.765625,11898.6767578125,9288.7880859375,12564.6591796875,11960.666015625,2330.144287109375,10705.7890625,4008.611083984375,17232.89453125,6739.29833984375,8858.044921875,2926.985595703125,11863.708984375,5615.55224609375,24046.1015625,4371.00732421875,18691.220703125,3676.41455078125,9950.001953125,26964.345703125,21796.2265625,11582.375,-0.0,-44533.4140625,20001.73046875,5839.666015625,0.0,7153.35205078125,0.0,0.0
15760.263671875,15710.9892578125,34560.36328125,11798.541015625,28498.96875,6986.45947265625,8335.11328125,9497.8017578125,9624.1640625,6531.8740234375,17584.166015625,-836.0545043945312,8852.4814453125,0.0,22994.67578125,8084.77392578125,25302.568359375,20204.38671875,9954.7705078125,12248.3564453125,23464.361328125,29880.205078125,24028.619140625,20045.439453125,21642.84375,7880.5283203125,29441.515625,845.5912475585938,0.0,1598.993896484375,14077.822265625,6634.39404296875,26319.822265625,16669.431640625,15609.2646484375,25184.154296875,9597.142578125,14514.9228515625,9472.3701171875,4712.740234375,23237.0703125,9777.5458984375,17376.7421875,11900.265625,9291.171875,12569.427734375,11956.69140625,2345.244140625,10710.556640625,4010.995361328125,17237.6640625,6744.06689453125,8845.3291015625,2895.1962890625,11865.2978515625,5617.1416015625,24050.87109375,4375.77587890625,18699.169921875,3683.567138671875,9934.90234375,26967.525390625,21800.19921875,11591.9111328125,-0.0,-44533.4140625,20007.291015625,5845.228515625,0.0,7159.7099609375,0.0,0.0
15771.388671875,15704.6318359375,34563.54296875,11792.9775390625,28498.96875,6990.4326171875,8335.11328125,9502.5703125,9617.8056640625,6535.05322265625,17617.544921875,-829.6966552734375,8847.7138671875,0.0,22988.3203125,8097.4892578125,25305.748046875,20209.154296875,9957.154296875,12248.3564453125,23465.15625,29882.58984375,24027.029296875,20048.619140625,21640.458984375,7885.296875,29439.92578125,850.359619140625,0.0,1602.9676513671875,14079.4111328125,6636.7783203125,26323.0,16674.19921875,15608.4697265625,25188.126953125,9595.5537109375,14517.3076171875,9485.0859375,4734.9931640625,23237.0703125,9781.51953125,17377.53515625,11904.2392578125,9287.9931640625,12571.8115234375,11965.43359375,2345.244140625,10708.9677734375,4010.200439453125,17233.689453125,6752.01416015625,8846.1240234375,2871.354248046875,11862.9140625,5633.8310546875,24050.078125,4386.10693359375,18690.427734375,3688.33544921875,9937.2861328125,26967.525390625,21801.791015625,11588.732421875,-0.0,-44521.4921875,20000.138671875,5854.765625,0.0,7159.7099609375,0.0,0.0
15776.1572265625,15718.9365234375,34571.48828125,11788.208984375,28501.3515625,6996.79052734375,8337.498046875,9508.927734375,9613.8310546875,6539.02685546875,17627.875,-817.7757568359375,8851.6875,0.0,22988.3203125,8105.4375,25314.490234375,20219.484375,9962.7177734375,12245.177734375,23469.92578125,29889.7421875,24031.796875,20054.974609375,21643.638671875,7881.32373046875,29444.6953125,859.8963623046875,0.0,1605.351806640625,14085.76953125,6643.93115234375,26330.15234375,16682.1484375,15614.8271484375,25195.279296875,9600.3212890625,14523.6650390625,9505.7490234375,4738.96630859375,23241.837890625,9792.6455078125,17383.09765625,11911.392578125,9290.3779296875,12577.3740234375,11986.8916015625,2349.2177734375,10713.736328125,4015.763671875,17235.279296875,6759.96142578125,8854.8662109375,2910.296142578125,11870.06640625,5644.95703125,24051.666015625,4397.2333984375,18686.453125,3701.051025390625,9948.4130859375,26974.677734375,21804.173828125,11583.9638671875,-0.0,-44509.5703125,19992.986328125,5866.6865234375,0.0,7156.53076171875,0.0,0.0
15773.7734375,15727.6787109375,34573.078125,11796.951171875,28497.376953125,6991.2275390625,8332.7294921875,9502.5703125,9612.2431640625,6531.07958984375,17619.1328125,-820.9546508789062,8854.8662109375,0.0,22986.73046875,8094.310546875,25312.10546875,20215.51171875,9958.744140625,12242.7939453125,23467.541015625,29887.357421875,24030.208984375,20050.20703125,21642.84375,7873.3759765625,29441.515625,854.333251953125,0.0,1604.5570068359375,14084.1796875,6643.13671875,26329.359375,16679.763671875,15610.8544921875,25190.51171875,9597.142578125,14518.1015625,9489.853515625,4712.740234375,23241.04296875,9787.876953125,17380.71484375,11908.2138671875,9287.9931640625,12570.2216796875,11990.865234375,2342.065185546875,10711.3525390625,4014.96875,17233.689453125,6749.6298828125,8849.3037109375,2942.8798828125,11866.88671875,5640.1884765625,24047.693359375,4385.3125,18687.248046875,3689.130126953125,9945.2333984375,26971.498046875,21799.40625,11581.580078125,-0.0,-44519.109375,19995.37109375,5865.09716796875,0.0,7156.53076171875,0.0,0.0
15778.5419921875,15734.8310546875,34575.4609375,11809.6669921875,28500.556640625,6992.81689453125,8335.11328125,9502.5703125,9620.189453125,6534.25830078125,17617.544921875,-816.186279296875,8861.224609375,0.0,22987.5234375,8092.72119140625,25310.515625,20213.126953125,9959.5380859375,12249.9462890625,23469.12890625,29887.357421875,24031.796875,20050.20703125,21646.0234375,7872.58154296875,29443.10546875,854.333251953125,0.0,1597.404541015625,14084.9755859375,6650.2890625,26330.15234375,16679.763671875,15610.8544921875,25191.306640625,9597.9375,14518.8974609375,9454.0908203125,4716.71435546875,23239.455078125,9786.2880859375,17381.509765625,11907.41796875,9289.58203125,12572.6064453125,11991.66015625,2330.93896484375,10713.736328125,4014.96875,17236.07421875,6750.4248046875,8866.787109375,2941.29052734375,11867.6826171875,5633.8310546875,24047.693359375,4382.13330078125,18692.015625,3687.540771484375,9956.359375,26973.08984375,21801.791015625,11595.08984375,-0.0,-44515.1328125,20000.935546875,5873.8388671875,0.0,7162.88916015625,0.0,0.0
15792.0517578125,15725.2939453125,34569.1015625,11825.5615234375,28500.556640625,6988.84326171875,8335.908203125,9501.7744140625,9627.341796875,6534.25830078125,17623.90234375,-821.7493896484375,8858.044921875,0.0,22989.115234375,8081.59521484375,25310.515625,20213.126953125,9957.94921875,12252.3310546875,23469.92578125,29889.7421875,24031.00390625,20049.4140625,21650.791015625,7867.81298828125,29443.10546875,849.5648803710938,0.0,1584.6888427734375,14084.1796875,6655.0576171875,26330.15234375,16678.96875,15610.05859375,25188.923828125,9595.5537109375,14516.5126953125,9480.3173828125,4707.177734375,23240.248046875,9782.314453125,17380.71484375,11905.0341796875,9289.58203125,12569.427734375,11981.328125,2332.5283203125,10716.12109375,4007.021484375,17236.07421875,6743.2724609375,8888.244140625,2903.1435546875,11865.2978515625,5623.49951171875,24048.486328125,4374.18603515625,18694.400390625,3686.745849609375,9963.5126953125,26971.498046875,21801.791015625,11603.0380859375,-0.0,-44523.875,20002.5234375,5867.4814453125,0.0,7163.68359375,0.0,0.0
15803.1787109375,15727.6787109375,34577.0546875,11822.3828125,28502.94140625,6990.4326171875,8339.8818359375,9499.390625,9631.31640625,6535.84814453125,17619.927734375,-826.5177612304688,8858.044921875,0.0,22989.908203125,8076.03173828125,25314.490234375,20217.099609375,9961.1279296875,12254.71484375,23472.30859375,29888.15234375,24034.181640625,20050.20703125,21658.73828125,7869.40283203125,29445.490234375,846.385986328125,0.0,1591.046630859375,14087.359375,6660.6201171875,26334.919921875,16682.943359375,15614.033203125,25190.51171875,9597.142578125,14518.1015625,9468.396484375,4724.6611328125,23248.1953125,9783.904296875,17381.509765625,11907.41796875,9292.76171875,12569.427734375,11994.0439453125,2338.88623046875,10718.5048828125,4004.63720703125,17237.6640625,6740.88818359375,8899.37109375,2905.52783203125,11874.0400390625,5625.08935546875,24051.666015625,4371.00732421875,18696.78515625,3688.33544921875,9965.896484375,26974.677734375,21801.791015625,11605.421875,-0.0,-44523.875,20005.703125,5865.09716796875,0.0,7158.12060546875,0.0,0.0
15810.3310546875,15725.2939453125,34581.0234375,11810.4619140625,28498.96875,6994.40625,8335.11328125,9503.3642578125,9624.9580078125,6537.4375,17610.392578125,-829.6966552734375,8850.09765625,0.0,22985.935546875,8080.80029296875,25316.873046875,20217.89453125,9961.9228515625,12251.5361328125,23473.103515625,29888.94921875,24034.181640625,20051.798828125,21655.55859375,7867.81298828125,29442.310546875,848.7701416015625,0.0,1602.1728515625,14088.9482421875,6666.18359375,26335.716796875,16682.943359375,15613.23828125,25192.1015625,9600.3212890625,14520.486328125,9466.8076171875,4749.2978515625,23247.400390625,9784.6982421875,17379.125,11909.0078125,9288.7880859375,12571.017578125,11991.66015625,2335.70751953125,10713.736328125,4007.021484375,17235.279296875,6743.2724609375,8883.4765625,2926.985595703125,11860.5302734375,5631.44677734375,24050.87109375,4375.77587890625,18692.015625,3691.51416015625,9959.5380859375,26976.267578125,21803.37890625,11596.6796875,-0.0,-44527.0546875,20002.5234375,5863.5078125,0.0,7163.68359375,0.0,0.0
15806.3564453125,15726.08984375,34575.4609375,11800.1298828125,28494.994140625,6995.99609375,8332.7294921875,9502.5703125,9618.599609375,6535.05322265625,17600.85546875,-829.6966552734375,8842.9453125,0.0,22982.755859375,8084.77392578125,25316.873046875,20211.5390625,9959.5380859375,12245.97265625,23470.720703125,29888.15234375,24028.619140625,20051.001953125,21648.40625,7870.99169921875,29437.541015625,852.7437744140625,0.0,1605.351806640625,14086.564453125,6664.59423828125,26331.744140625,16682.1484375,15612.443359375,25192.1015625,9596.34765625,14520.486328125,9488.2646484375,4735.7880859375,23243.427734375,9786.2880859375,17373.5625,11910.59765625,9284.8134765625,12570.2216796875,11961.4599609375,2331.733642578125,10708.1728515625,4013.379638671875,17230.509765625,6745.65625,8844.53515625,2944.469482421875,11848.609375,5636.21533203125,24044.513671875,4382.13330078125,18690.427734375,3689.130126953125,9950.001953125,26973.8828125,21801.791015625,11590.3212890625,-0.0,-44525.46484375,20001.73046875,5850.7919921875,0.0,7159.7099609375,0.0,0.0
15792.8466796875,15734.037109375,34578.640625,11789.00390625,28498.96875,7001.55859375,8334.3193359375,9508.1328125,9620.189453125,6536.642578125,17613.568359375,-823.3388061523438,8849.3037109375,0.0,22986.73046875,8096.69482421875,25318.46484375,20216.306640625,9962.7177734375,12249.9462890625,23473.103515625,29890.537109375,24030.208984375,20054.974609375,21661.123046875,7878.939453125,29435.953125,858.306884765625,0.0,1600.5833740234375,14088.9482421875,6664.59423828125,26335.716796875,16686.12109375,15615.6220703125,25196.076171875,9599.5263671875,14524.4599609375,9496.2119140625,4731.81396484375,23246.607421875,9791.056640625,17375.150390625,11915.3662109375,9287.1982421875,12574.1962890625,11966.228515625,2349.2177734375,10711.3525390625,4018.9423828125,17231.306640625,6755.193359375,8844.53515625,2954.80078125,11864.5029296875,5638.599609375,24042.92578125,4390.87548828125,18692.8125,3694.693359375,9951.591796875,26977.857421875,21804.173828125,11590.3212890625,-0.0,-44518.3125,20001.73046875,5856.35498046875,0.0,7149.37841796875,0.0,0.0
15802.3837890625,15745.1630859375,34579.4375,11804.103515625,28501.3515625,7005.53271484375,8338.2919921875,9511.3115234375,9620.984375,6541.4111328125,17603.23828125,-812.212646484375,8855.66015625,0.0,22988.3203125,8097.4892578125,25322.4375,20223.458984375,9966.69140625,12253.9208984375,23476.28125,29896.1015625,24034.9765625,20060.5390625,21666.685546875,7884.50244140625,29440.720703125,863.0752563476562,0.0,1607.7359619140625,14092.921875,6666.978515625,26335.716796875,16686.916015625,15618.0068359375,25200.048828125,9605.08984375,14529.228515625,9490.6494140625,4732.60888671875,23246.607421875,9792.6455078125,17378.330078125,11918.544921875,9291.171875,12578.169921875,11981.328125,2356.3701171875,10715.3251953125,4022.916259765625,17235.279296875,6759.16650390625,8831.818359375,2957.97998046875,11874.8349609375,5643.36767578125,24046.1015625,4393.259765625,18693.60546875,3701.845947265625,9961.1279296875,26981.830078125,21809.736328125,11591.1171875,-0.0,-44512.75,20000.935546875,5861.91796875,0.0,7148.583984375,0.0,0.0
15794.435546875,15737.21484375,34586.58984375,11812.845703125,28504.529296875,7004.73779296875,8338.2919921875,9510.517578125,9616.2158203125,6543.794921875,17573.833984375,-814.5968017578125,8848.5078125,0.0,22983.55078125,8093.51611328125,25322.4375,20222.6640625,9969.0751953125,12251.5361328125,23476.28125,29895.3046875,24034.9765625,20062.12890625,21665.095703125,7883.7080078125,29441.515625,865.45947265625,0.0,1610.1201171875,14096.1005859375,6670.95166015625,26336.51171875,16686.916015625,15618.0068359375,25199.255859375,9606.6787109375,14529.228515625,9455.6806640625,4719.89306640625,23252.16796875,9791.8505859375,17379.919921875,11919.3388671875,9290.3779296875,12578.169921875,11975.765625,2354.781005859375,10717.7099609375,4022.121337890625,17235.279296875,6756.78271484375,8817.513671875,2955.595703125,11870.861328125,5636.21533203125,24046.1015625,4394.05419921875,18690.427734375,3695.488037109375,9978.6123046875,26984.21484375,21811.326171875,11595.8857421875,-0.0,-44515.1328125,19999.345703125,5860.32861328125,0.0,7156.53076171875,0.0,0.0
15772.9775390625,15722.1162109375,34578.640625,11793.7724609375,28499.76171875,6996.79052734375,8337.498046875,9504.1591796875,9617.0107421875,6537.4375,17583.37109375,-824.9282836914062,8842.9453125,0.0,22981.962890625,8087.158203125,25316.873046875,20215.51171875,9965.896484375,12249.15234375,23470.720703125,29886.564453125,24030.208984375,20054.974609375,21654.763671875,7874.9658203125,29438.337890625,858.306884765625,0.0,1602.1728515625,14087.359375,6663.79931640625,26334.919921875,16681.353515625,15611.6484375,25191.306640625,9601.91015625,14523.6650390625,9463.6279296875,4729.4296875,23248.1953125,9783.1083984375,17378.330078125,11913.7763671875,9286.4033203125,12572.6064453125,11953.5126953125,2350.80712890625,10713.736328125,4014.174072265625,17232.099609375,6750.4248046875,8843.7392578125,2951.6220703125,11874.8349609375,5628.267578125,24045.30859375,4389.2861328125,18688.837890625,3688.33544921875,9967.486328125,26979.447265625,21808.146484375,11597.4736328125,-0.0,-44525.46484375,20000.138671875,5849.20263671875,0.0,7156.53076171875,0.0,0.0
15771.388671875,15724.5009765625,34571.48828125,11813.640625,28493.404296875,6992.81689453125,8334.3193359375,9499.390625,9619.3955078125,6532.6689453125,17594.49609375,-836.0545043945312,8842.9453125,0.0,22981.962890625,8079.21142578125,25316.873046875,20209.154296875,9962.7177734375,12248.3564453125,23466.74609375,29887.357421875,24027.029296875,20048.619140625,21647.611328125,7867.0185546875,29435.953125,848.7701416015625,0.0,1596.6097412109375,14084.9755859375,6664.59423828125,26331.744140625,16686.12109375,15607.6748046875,25187.333984375,9598.732421875,14518.1015625,9488.2646484375,4719.0986328125,23238.658203125,9783.1083984375,17375.150390625,11907.41796875,9287.1982421875,12566.2490234375,11955.8974609375,2346.038818359375,10706.583984375,4003.0478515625,17229.71484375,6744.06689453125,8862.0185546875,2952.416748046875,11873.2451171875,5612.37353515625,24044.513671875,4371.8017578125,18689.6328125,3684.36181640625,9938.0810546875,26973.8828125,21804.173828125,11596.6796875,-0.0,-44534.20703125,20000.138671875,5849.20263671875,0.0,7146.994140625,0.0,0.0
15738.0107421875,15722.91015625,34568.30859375,11816.8193359375,28495.7890625,6997.58544921875,8335.908203125,9499.390625,9623.3681640625,6532.6689453125,17615.16015625,-832.080810546875,8845.3291015625,0.0,22984.345703125,8076.03173828125,25318.46484375,20206.76953125,9962.7177734375,12249.15234375,23465.951171875,29885.76953125,24031.00390625,20049.4140625,21645.2265625,7874.17138671875,29435.953125,847.9754028320312,0.0,1598.19921875,14086.564453125,6668.56787109375,26331.744140625,16686.916015625,15610.05859375,25188.923828125,9600.3212890625,14517.3076171875,9502.5703125,4737.376953125,23236.275390625,9789.466796875,17375.9453125,11908.2138671875,9288.7880859375,12566.2490234375,11981.328125,2340.475830078125,10706.583984375,4007.021484375,17232.099609375,6744.06689453125,8855.66015625,2942.085205078125,11873.2451171875,5612.37353515625,24046.1015625,4365.4443359375,18690.427734375,3685.156494140625,9935.6962890625,26975.47265625,21803.37890625,11599.8583984375,-0.0,-44528.64453125,20002.5234375,5861.12353515625,0.0,7153.35205078125,0.0,0.0
15753.904296875,15740.39453125,34560.36328125,11796.951171875,28491.81640625,6996.79052734375,8332.7294921875,9496.2119140625,9612.2431640625,6527.10595703125,17627.080078125,-826.5177612304688,8846.1240234375,0.0,22981.166015625,8076.8271484375,25313.6953125,20202.001953125,9957.94921875,12242.7939453125,23461.18359375,29879.412109375,24030.208984375,20045.439453125,21636.486328125,7876.5556640625,29434.36328125,845.5912475585938,0.0,1592.6361083984375,14080.20703125,6658.23583984375,26326.974609375,16678.17578125,15607.6748046875,25183.359375,9597.142578125,14514.12890625,9500.98046875,4742.9404296875,23229.91796875,9785.4931640625,17372.765625,11906.6240234375,9285.609375,12561.48046875,11988.48046875,2335.70751953125,10703.404296875,4007.81640625,17229.71484375,6740.88818359375,8862.8134765625,2919.0380859375,11868.4765625,5625.8837890625,24044.513671875,4367.03369140625,18685.66015625,3681.182861328125,9965.1025390625,26972.29296875,21798.611328125,11594.2958984375,-0.0,-44527.0546875,19996.166015625,5855.560546875,0.0,7143.8154296875,0.0,0.0
15818.27734375,15758.6728515625,34565.1328125,11779.4677734375,28496.583984375,6984.86962890625,8333.5234375,9489.853515625,9598.732421875,6519.953125,17617.544921875,-822.5440673828125,8838.1767578125,0.0,22980.37109375,8072.85302734375,25310.515625,20198.02734375,9953.181640625,12235.6416015625,23462.771484375,29877.8203125,24030.208984375,20043.0546875,21654.763671875,7865.4287109375,29436.74609375,840.0281372070312,0.0,1596.6097412109375,14077.02734375,6658.23583984375,26328.564453125,16671.021484375,15608.4697265625,25177.796875,9596.34765625,14510.94921875,9496.2119140625,4742.1455078125,23235.478515625,9779.1357421875,17374.357421875,11900.265625,9280.8408203125,12555.1220703125,11996.4287109375,2330.144287109375,10716.12109375,4002.253173828125,17229.71484375,6735.32470703125,8889.0390625,2933.34326171875,11839.072265625,5633.8310546875,24045.30859375,4366.2392578125,18682.48046875,3670.056640625,10000.865234375,26970.705078125,21794.63671875,11580.78515625,-0.0,-44521.4921875,19991.3984375,5844.43408203125,0.0,7123.947265625,0.0,0.0
15840.5302734375,15741.1904296875,34581.0234375,11785.0302734375,28509.298828125,6988.04833984375,8336.703125,9490.6494140625,9595.5537109375,6517.56884765625,17594.49609375,-821.7493896484375,8839.7666015625,0.0,22984.345703125,8068.87890625,25313.6953125,20204.38671875,9957.154296875,12237.2314453125,23473.103515625,29884.1796875,24034.181640625,20044.64453125,21680.990234375,7860.66064453125,29442.310546875,840.8228759765625,0.0,1595.020263671875,14083.3857421875,6658.23583984375,26337.3046875,16676.583984375,15617.2109375,25182.56640625,9600.3212890625,14512.5390625,9502.5703125,4732.60888671875,23250.580078125,9784.6982421875,17381.509765625,11901.0615234375,9280.8408203125,12555.1220703125,11982.123046875,2307.09716796875,10724.8623046875,4006.22705078125,17233.689453125,6733.7353515625,8917.6494140625,2946.853515625,11836.6884765625,5633.0361328125,24048.486328125,4367.828125,18686.453125,3668.46728515625,9996.890625,26975.47265625,21795.431640625,11579.990234375,-0.0,-44516.72265625,19996.166015625,5838.87109375,0.0,7119.9736328125,0.0,0.0
15823.8408203125,15733.2421875,34578.640625,11791.388671875,28506.9140625,6988.84326171875,8338.2919921875,9489.853515625,9590.78515625,6519.15869140625,17565.884765625,-828.9019165039062,8857.25,0.0,22986.73046875,8066.4951171875,25316.873046875,20204.38671875,9959.5380859375,12242.0,23473.8984375,29886.564453125,24031.00390625,20044.64453125,21661.123046875,7877.349609375,29443.8984375,839.2333984375,0.0,1595.8150634765625,14084.9755859375,6656.646484375,26337.3046875,16682.1484375,15614.8271484375,25185.744140625,9603.5,14514.12890625,9512.1064453125,4697.64111328125,23247.400390625,9788.6728515625,17383.09765625,11900.265625,9280.0458984375,12557.5068359375,11960.666015625,2298.35498046875,10716.9150390625,4003.8427734375,17235.279296875,6732.14599609375,8916.8544921875,2932.548583984375,11885.166015625,5621.115234375,24049.28125,4363.06005859375,18689.6328125,3669.261962890625,9975.43359375,26977.0625,21797.021484375,11583.9638671875,-0.0,-44527.84765625,19999.345703125,5833.3076171875,0.0,7123.15234375,0.0,0.0
15794.435546875,15730.857421875,34563.54296875,11789.798828125,28497.376953125,6980.89599609375,8333.5234375,9485.880859375,9582.04296875,6518.36376953125,17598.470703125,-844.7965087890625,8854.8662109375,0.0,22984.345703125,8065.70068359375,25310.515625,20197.232421875,9953.181640625,12239.615234375,23463.568359375,29878.6171875,24022.259765625,20039.876953125,21636.486328125,7870.197265625,29440.720703125,832.8755493164062,0.0,1580.7152099609375,14077.822265625,6649.494140625,26326.1796875,16675.791015625,15606.8798828125,25178.58984375,9596.34765625,14506.9765625,9499.390625,4684.92529296875,23236.275390625,9781.51953125,17374.357421875,11889.9345703125,9274.482421875,12553.5322265625,11968.6123046875,2312.66015625,10708.1728515625,3990.33203125,17230.509765625,6727.37744140625,8889.0390625,2904.73291015625,11889.9345703125,5598.068359375,24046.8984375,4355.11279296875,18688.837890625,3669.261962890625,9962.7177734375,26968.3203125,21792.25390625,11584.7587890625,-0.0,-44545.33203125,19998.55078125,5830.12890625,0.0,7128.71533203125,0.0,0.0
15780.92578125,15747.546875,34566.71875,11770.7255859375,28498.171875,6974.5380859375,8334.3193359375,9484.291015625,9580.453125,6520.748046875,17631.0546875,-846.385986328125,8850.8916015625,0.0,22984.345703125,8070.46875,25305.748046875,20198.02734375,9950.001953125,12238.8203125,23461.9765625,29873.052734375,24020.671875,20038.287109375,21640.458984375,7856.6865234375,29439.92578125,829.6966552734375,0.0,1576.7415771484375,14075.4384765625,6647.90478515625,26325.384765625,16667.84375,15604.49609375,25174.6171875,9596.34765625,14506.9765625,9466.01171875,4722.27734375,23237.86328125,9769.5986328125,17374.357421875,11889.9345703125,9272.0986328125,12554.328125,11986.0966796875,2332.5283203125,10710.556640625,3984.769287109375,17231.306640625,6728.17236328125,8847.7138671875,2917.44873046875,11885.9609375,5602.04150390625,24045.30859375,4359.08642578125,18689.6328125,3669.261962890625,9947.6171875,26969.91015625,21792.25390625,11584.7587890625,-0.0,-44551.6875,20001.73046875,5829.33447265625,0.0,7132.68896484375,0.0,0.0
15778.5419921875,15748.3427734375,34577.84765625,11768.3408203125,28500.556640625,6968.97509765625,8335.11328125,9481.1123046875,9583.6328125,6519.15869140625,17623.10546875,-856.7174072265625,8850.8916015625,0.0,22987.5234375,8068.87890625,25301.775390625,20199.6171875,9949.20703125,12242.0,23462.771484375,29867.490234375,24019.876953125,20035.90234375,21661.123046875,7838.40869140625,29442.310546875,825.7230224609375,0.0,1573.5626220703125,14071.46484375,6647.10986328125,26323.0,16663.07421875,15607.6748046875,25169.849609375,9595.5537109375,14505.38671875,9458.0654296875,4724.6611328125,23245.810546875,9757.677734375,17376.7421875,11887.55078125,9274.482421875,12553.5322265625,11971.791015625,2345.244140625,10713.736328125,3978.4111328125,17235.279296875,6725.7880859375,8833.408203125,2952.416748046875,11881.1923828125,5604.42578125,24047.693359375,4350.34423828125,18695.1953125,3669.261962890625,9937.2861328125,26969.115234375,21794.63671875,11592.7060546875,-0.0,-44559.640625,20004.908203125,5823.77099609375,0.0,7137.45751953125,0.0,0.0
15805.5625,15714.9638671875,34582.61328125,11797.74609375,28502.146484375,6976.92236328125,8343.060546875,9490.6494140625,9595.5537109375,6528.69580078125,17622.3125,-857.5121459960938,8854.0712890625,0.0,22996.267578125,8075.2373046875,25307.3359375,20205.1796875,9957.154296875,12253.9208984375,23468.3359375,29874.642578125,24025.439453125,20041.46484375,21647.611328125,7843.1767578125,29448.66796875,831.2861328125,0.0,1583.099365234375,14077.822265625,6651.08349609375,26329.359375,16673.40625,15612.443359375,25177.796875,9603.5,14510.94921875,9484.291015625,4712.740234375,23243.427734375,9766.4189453125,17380.71484375,11897.8818359375,9285.609375,12563.8642578125,11967.0224609375,2357.959716796875,10714.53125,3987.153564453125,17243.2265625,6731.3515625,8862.0185546875,2955.595703125,11875.6298828125,5611.57861328125,24054.05078125,4351.93408203125,18707.91015625,3677.209228515625,9936.4921875,26975.47265625,21804.96875,11614.1630859375,-0.0,-44553.28125,20016.03515625,5835.69189453125,0.0,7143.8154296875,0.0,0.0
15832.58203125,15713.373046875,34572.28515625,11822.3828125,28506.9140625,6994.40625,8348.6240234375,9504.1591796875,9595.5537109375,6541.4111328125,17642.974609375,-837.6439208984375,8861.224609375,0.0,22996.267578125,8088.748046875,25324.025390625,20214.716796875,9969.0751953125,12257.099609375,23474.693359375,29892.921875,24036.56640625,20055.771484375,21642.048828125,7865.4287109375,29453.435546875,849.5648803710938,0.0,1595.8150634765625,14094.51171875,6674.92529296875,26338.099609375,16691.685546875,15621.9794921875,25192.1015625,9613.037109375,14525.25390625,9484.291015625,4714.330078125,23245.015625,9786.2880859375,17386.27734375,11912.982421875,9290.3779296875,12575.78515625,11985.3017578125,2365.906982421875,10720.09375,4003.0478515625,17244.81640625,6745.65625,8900.166015625,2919.0380859375,11888.3447265625,5629.0625,24050.078125,4371.00732421875,18704.732421875,3689.925048828125,9952.3857421875,26986.599609375,21813.7109375,11610.984375,-0.0,-44537.3828125,20009.67578125,5852.38134765625,0.0,7162.09423828125,0.0,0.0
15827.0205078125,15734.8310546875,34565.92578125,11826.35546875,28508.50390625,7001.55859375,8347.0341796875,9508.927734375,9585.2216796875,6539.82177734375,17641.38671875,-821.7493896484375,8859.634765625,0.0,22991.498046875,8102.2578125,25331.177734375,20216.306640625,9972.2548828125,12249.9462890625,23476.28125,29899.279296875,24035.771484375,20059.744140625,21643.638671875,7873.3759765625,29451.84765625,860.6910400390625,0.0,1611.7095947265625,14096.896484375,6685.2568359375,26339.689453125,16698.837890625,15621.9794921875,25195.279296875,9613.8310546875,14529.228515625,9476.34375,4734.9931640625,23245.810546875,9791.8505859375,17386.27734375,11918.544921875,9286.4033203125,12578.9638671875,11981.328125,2360.343994140625,10720.09375,4002.253173828125,17242.431640625,6752.01416015625,8918.4443359375,2896.78564453125,11890.728515625,5644.16259765625,24054.05078125,4386.10693359375,18693.60546875,3693.103759765625,9948.4130859375,26988.982421875,21812.916015625,11598.26953125,-0.0,-44522.28515625,20000.138671875,5850.7919921875,0.0,7150.96826171875,0.0,0.0
15808.740234375,15719.732421875,34554.00390625,11789.798828125,28496.583984375,6992.81689453125,8338.2919921875,9501.7744140625,9577.2744140625,6529.490234375,17625.490234375,-830.4913940429688,8847.7138671875,0.0,22985.140625,8087.158203125,25314.490234375,20204.38671875,9962.7177734375,12242.0,23464.361328125,29881.0,24025.439453125,20050.20703125,21634.896484375,7863.83935546875,29442.310546875,851.154296875,0.0,1601.3780517578125,14081.0009765625,6666.18359375,26327.767578125,16682.1484375,15610.05859375,25182.56640625,9604.294921875,14520.486328125,9472.3701171875,4731.81396484375,23231.505859375,9776.751953125,17374.357421875,11909.802734375,9276.072265625,12568.6328125,11978.1494140625,2335.70751953125,10708.1728515625,4000.663818359375,17235.279296875,6740.88818359375,8909.7021484375,2911.885498046875,11878.013671875,5628.267578125,24053.255859375,4374.18603515625,18688.04296875,3682.7724609375,9944.4384765625,26978.650390625,21804.96875,11587.142578125,-0.0,-44525.46484375,19994.578125,5848.40771484375,0.0,7127.92041015625,0.0,0.0
15789.6669921875,15714.1689453125,34554.00390625,11772.3154296875,28494.19921875,6995.201171875,8338.2919921875,9504.1591796875,9576.4794921875,6528.69580078125,17607.212890625,-827.3125,8849.3037109375,0.0,22985.935546875,8080.005859375,25307.3359375,20205.1796875,9961.1279296875,12242.0,23460.388671875,29878.6171875,24025.439453125,20051.798828125,21631.716796875,7870.197265625,29442.310546875,853.5385131835938,0.0,1598.993896484375,14077.822265625,6651.87841796875,26323.794921875,16673.40625,15607.6748046875,25182.56640625,9606.6787109375,14521.28125,9462.0390625,4703.20361328125,23228.326171875,9778.3408203125,17375.150390625,11912.1865234375,9278.45703125,12570.2216796875,11973.380859375,2327.760009765625,10707.3779296875,4012.584716796875,17234.484375,6740.09326171875,8896.19140625,2933.34326171875,11875.6298828125,5623.49951171875,24051.666015625,4373.3916015625,18689.6328125,3681.182861328125,9959.5380859375,26978.650390625,21804.173828125,11587.9375,-0.0,-44519.109375,19996.166015625,5848.40771484375,0.0,7123.947265625,0.0,0.0
15776.953125,15738.8056640625,34557.98046875,11781.056640625,28496.583984375,7005.53271484375,8339.8818359375,9508.927734375,9575.6845703125,6529.490234375,17594.49609375,-820.159912109375,8853.2763671875,0.0,22982.755859375,8089.54248046875,25308.927734375,20205.974609375,9963.5126953125,12238.025390625,23462.771484375,29879.412109375,24028.619140625,20057.359375,21644.43359375,7878.939453125,29442.310546875,863.8699951171875,0.0,1610.914794921875,14082.5908203125,6649.494140625,26325.384765625,16674.19921875,15608.4697265625,25187.333984375,9608.2685546875,14525.25390625,9487.4697265625,4702.4091796875,23233.095703125,9784.6982421875,17377.53515625,11920.134765625,9278.45703125,12574.990234375,11959.076171875,2338.091552734375,10710.556640625,4023.710693359375,17232.89453125,6749.6298828125,8877.1181640625,2943.6748046875,11876.423828125,5633.8310546875,24050.078125,4386.90185546875,18681.68359375,3682.7724609375,9969.8701171875,26978.650390625,21804.173828125,11586.3486328125,-0.0,-44498.4453125,19985.833984375,5845.228515625,0.0,7123.15234375,0.0,0.0
15767.416015625,15741.1904296875,34550.828125,11784.236328125,28491.01953125,6999.9697265625,8338.2919921875,9506.54296875,9585.2216796875,6527.90087890625,17599.263671875,-822.5440673828125,8848.5078125,0.0,22981.962890625,8091.9267578125,25299.390625,20198.02734375,9961.9228515625,12241.2041015625,23455.619140625,29873.052734375,24025.439453125,20052.591796875,21647.611328125,7869.40283203125,29439.130859375,859.8963623046875,0.0,1609.325439453125,14074.6435546875,6637.5732421875,26316.642578125,16665.458984375,15604.49609375,25180.181640625,9605.884765625,14521.28125,9462.8330078125,4692.07763671875,23230.7109375,9777.5458984375,17375.150390625,11915.3662109375,9280.8408203125,12570.2216796875,11951.923828125,2338.091552734375,10706.583984375,4018.9423828125,17231.306640625,6748.8349609375,8852.4814453125,2934.137939453125,11869.271484375,5625.8837890625,24047.693359375,4385.3125,18686.453125,3681.9775390625,9956.359375,26973.08984375,21804.173828125,11597.4736328125,-0.0,-44499.23828125,19992.193359375,5843.63916015625,0.0,7115.205078125,0.0,0.0
15754.69921875,15722.91015625,34549.234375,11786.6201171875,28487.83984375,6992.81689453125,8334.3193359375,9497.0068359375,9595.5537109375,6523.92724609375,17605.623046875,-833.6702880859375,8842.9453125,0.0,22985.140625,8079.21142578125,25289.853515625,20194.849609375,9956.359375,12243.5888671875,23450.8515625,29866.6953125,24019.083984375,20043.849609375,21645.2265625,7859.8662109375,29436.74609375,847.9754028320312,0.0,1597.404541015625,14065.1064453125,6629.6259765625,26313.462890625,16659.89453125,15598.93359375,25172.234375,9601.1162109375,14515.7177734375,9441.3759765625,4628.49951171875,23229.91796875,9771.1875,17368.79296875,11908.2138671875,9280.8408203125,12563.0693359375,11951.923828125,2315.839111328125,10701.8154296875,4007.81640625,17232.89453125,6742.4775390625,8846.1240234375,2914.269775390625,11863.708984375,5620.32080078125,24044.513671875,4373.3916015625,18694.400390625,3674.0302734375,9948.4130859375,26965.9375,21801.791015625,11603.0380859375,-0.0,-44519.109375,19998.55078125,5842.05029296875,0.0,7116.79443359375,0.0,0.0
15764.236328125,15713.373046875,34552.4140625,11773.904296875,28481.484375,6984.0751953125,8331.1396484375,9489.853515625,9599.5263671875,6527.10595703125,17597.67578125,-848.7701416015625,8839.7666015625,0.0,22981.962890625,8073.6474609375,25285.87890625,20187.697265625,9949.20703125,12245.177734375,23445.287109375,29858.748046875,24014.314453125,20038.287109375,21634.896484375,7847.14990234375,29431.185546875,839.2333984375,0.0,1574.357421875,14060.337890625,6629.6259765625,26308.6953125,16651.154296875,15592.5751953125,25163.4921875,9595.5537109375,14510.94921875,9436.607421875,4630.0888671875,23222.765625,9761.6513671875,17362.435546875,11899.4716796875,9274.482421875,12559.0966796875,11961.4599609375,2307.09716796875,10697.046875,3992.71630859375,17230.509765625,6737.708984375,8831.818359375,2909.501220703125,11857.3505859375,5613.962890625,24042.12890625,4367.828125,18692.015625,3673.235595703125,9938.8759765625,26959.578125,21797.814453125,11607.806640625,-0.0,-44546.12890625,19998.55078125,5846.0234375,0.0,7143.0205078125,0.0,0.0
15750.7265625,15707.015625,34550.03125,11752.4462890625,28477.509765625,6976.12744140625,8326.37109375,9486.6748046875,9591.5791015625,6528.69580078125,17588.93359375,-853.5385131835938,8838.1767578125,0.0,22978.783203125,8076.03173828125,25285.87890625,20181.337890625,9946.8232421875,12239.615234375,23442.109375,29857.158203125,24015.107421875,20034.3125,21631.716796875,7836.81884765625,29428.005859375,833.6702880859375,0.0,1561.6417236328125,14057.1591796875,6628.83154296875,26306.310546875,16646.384765625,15590.1904296875,25159.517578125,9590.78515625,14506.9765625,9431.8388671875,4686.51416015625,23218.791015625,9750.525390625,17356.873046875,11893.908203125,9268.919921875,12555.9169921875,11970.2021484375,2307.891845703125,10697.841796875,3981.59033203125,17224.154296875,6733.7353515625,8811.951171875,2911.0908203125,11859.734375,5605.220703125,24038.94921875,4359.08642578125,18682.48046875,3677.209228515625,9907.8818359375,26956.400390625,21792.25390625,11606.216796875,-0.0,-44555.6640625,19999.345703125,5851.5869140625,0.0,7160.5048828125,0.0,0.0
15737.21484375,15696.68359375,34552.4140625,11751.6513671875,28477.509765625,6971.359375,8327.1669921875,9482.701171875,9602.7060546875,6526.3115234375,17584.958984375,-855.9227294921875,8842.9453125,0.0,22982.755859375,8069.67431640625,25285.0859375,20177.365234375,9948.4130859375,12243.5888671875,23443.69921875,29852.390625,24019.083984375,20031.9296875,21631.716796875,7835.22900390625,29431.185546875,827.3125,0.0,1568.794189453125,14058.7490234375,6625.65234375,26308.6953125,16646.384765625,15592.5751953125,25158.724609375,9591.5791015625,14505.38671875,9423.0966796875,4672.20947265625,23221.96875,9749.73046875,17360.052734375,11891.5244140625,9272.0986328125,12555.9169921875,11974.17578125,2304.712890625,10698.6357421875,3973.642822265625,17224.947265625,6729.76171875,8828.6396484375,2891.22265625,11864.5029296875,5596.47900390625,24040.541015625,4345.57568359375,18688.837890625,3674.0302734375,9891.1923828125,26957.98828125,21793.046875,11616.5478515625,-0.0,-44561.2265625,20001.73046875,5841.25537109375,0.0,7151.7626953125,0.0,0.0
15749.931640625,15692.7109375,34550.03125,11762.7783203125,28482.279296875,6980.10107421875,8333.5234375,9488.2646484375,9610.6533203125,6529.490234375,17599.263671875,-847.1806640625,8849.3037109375,0.0,22985.935546875,8074.44287109375,25289.853515625,20184.517578125,9951.591796875,12248.3564453125,23449.26171875,29857.953125,24026.236328125,20038.287109375,21632.513671875,7849.5341796875,29436.74609375,837.6439208984375,0.0,1579.125732421875,14064.3115234375,6628.03662109375,26315.0546875,16652.7421875,15598.93359375,25166.669921875,9597.142578125,14510.94921875,9469.19140625,4667.44091796875,23225.943359375,9760.0625,17364.8203125,11898.6767578125,9278.45703125,12559.890625,11963.0498046875,2310.276123046875,10702.6103515625,3983.974365234375,17228.921875,6736.9140625,8875.529296875,2892.81201171875,11870.861328125,5614.75732421875,24046.1015625,4355.11279296875,18692.015625,3678.798583984375,9914.2392578125,26964.345703125,21796.2265625,11624.4951171875,-0.0,-44545.33203125,19999.345703125,5839.666015625,0.0,7144.60986328125,0.0,0.0
15772.9775390625,15673.6376953125,34542.87890625,11768.3408203125,28483.072265625,6987.25390625,8328.755859375,9487.4697265625,9597.142578125,6523.13232421875,17611.98046875,-840.8228759765625,8847.7138671875,0.0,22977.193359375,8077.62158203125,25290.6484375,20189.28515625,9949.20703125,12232.462890625,23450.056640625,29864.310546875,24026.236328125,20040.669921875,21634.1015625,7856.6865234375,29433.568359375,844.7965087890625,0.0,1581.5098876953125,14066.6962890625,6627.24169921875,26309.490234375,16655.921875,15598.93359375,25166.669921875,9593.9638671875,14509.3603515625,9475.548828125,4673.00390625,23225.1484375,9765.625,17363.23046875,11902.6494140625,9271.3037109375,12554.328125,11940.796875,2310.276123046875,10704.2001953125,3992.71630859375,17224.154296875,6738.50390625,8889.0390625,2881.68603515625,11870.06640625,5625.08935546875,24043.71875,4367.03369140625,18677.7109375,3674.824951171875,9930.9287109375,26964.345703125,21789.869140625,11606.216796875,-0.0,-44530.23046875,19985.833984375,5847.61279296875,0.0,7138.25244140625,0.0,0.0
15788.078125,15679.201171875,34538.90625,11761.9833984375,28479.099609375,6982.4853515625,8323.1923828125,9482.701171875,9591.5791015625,6517.56884765625,17614.365234375,-848.7701416015625,8843.7392578125,0.0,22973.21875,8072.05859375,25288.263671875,20186.900390625,9944.4384765625,12223.720703125,23447.671875,29858.748046875,24024.64453125,20037.4921875,21628.5390625,7848.73974609375,29428.005859375,839.2333984375,0.0,1569.5889892578125,14063.517578125,6627.24169921875,26307.10546875,16652.7421875,15595.75390625,25161.107421875,9589.1953125,14504.591796875,9446.9384765625,4670.6201171875,23218.791015625,9760.8564453125,17358.4609375,11897.0869140625,9266.5361328125,12547.17578125,11950.333984375,2302.328857421875,10701.0205078125,3987.153564453125,17218.58984375,6732.9404296875,8885.06640625,2889.63330078125,11862.119140625,5613.962890625,24039.74609375,4365.4443359375,18671.353515625,3670.056640625,9930.1337890625,26960.373046875,21785.89453125,11598.26953125,-0.0,-44531.02734375,19985.833984375,5842.05029296875,0.0,7136.6630859375,0.0,0.0
15783.3095703125,15695.890625,34550.828125,11764.3671875,28485.45703125,6986.45947265625,8327.9609375,9487.4697265625,9594.7578125,6520.748046875,17616.748046875,-844.0017700195312,8849.3037109375,0.0,22972.42578125,8077.62158203125,25293.03125,20193.2578125,9948.4130859375,12224.5146484375,23454.03125,29861.927734375,24031.796875,20041.46484375,21633.306640625,7849.5341796875,29431.185546875,843.20703125,0.0,1566.4100341796875,14070.669921875,6632.8046875,26313.462890625,16657.51171875,15602.111328125,25165.080078125,9590.78515625,14509.3603515625,9446.14453125,4663.46728515625,23227.533203125,9768.0087890625,17362.435546875,11902.6494140625,9269.71484375,12550.353515625,11966.228515625,2311.07080078125,10706.583984375,3992.71630859375,17221.76953125,6736.11962890625,8874.734375,2903.1435546875,11872.451171875,5621.115234375,24041.333984375,4367.03369140625,18671.353515625,3677.209228515625,9927.75,26963.552734375,21787.484375,11607.0107421875,-0.0,-44524.66796875,19989.013671875,5843.63916015625,0.0,7137.45751953125,0.0,0.0
15772.1845703125,15688.73828125,34559.56640625,11777.8779296875,28494.19921875,6992.02197265625,8335.11328125,9487.4697265625,9605.08984375,6519.953125,17618.337890625,-840.8228759765625,8860.4287109375,0.0,22974.810546875,8067.29052734375,25298.595703125,20201.20703125,9952.3857421875,12230.0791015625,23461.18359375,29870.66796875,24042.12890625,20046.234375,21645.2265625,7856.6865234375,29436.74609375,840.0281372070312,0.0,1560.846923828125,14078.6171875,6636.7783203125,26319.822265625,16663.07421875,15610.8544921875,25171.4375,9597.142578125,14510.94921875,9450.1181640625,4653.1357421875,23236.275390625,9777.5458984375,17368.79296875,11905.0341796875,9276.072265625,12551.1484375,11968.6123046875,2290.407958984375,10712.94140625,3994.30615234375,17226.537109375,6732.9404296875,8872.349609375,2886.454345703125,11878.013671875,5620.32080078125,24043.71875,4355.11279296875,18676.916015625,3670.056640625,9934.90234375,26969.91015625,21787.484375,11615.7529296875,-0.0,-44528.64453125,19992.193359375,5838.076171875,0.0,7138.25244140625,0.0,0.0
15741.1904296875,15661.716796875,34557.98046875,11784.236328125,28495.7890625,6987.25390625,8336.703125,9480.3173828125,9617.0107421875,6515.97998046875,17608.0078125,-859.1016235351562,8859.634765625,0.0,22980.37109375,8052.18994140625,25297.005859375,20195.642578125,9949.20703125,12234.0517578125,23461.18359375,29868.28515625,24045.30859375,20043.0546875,21648.40625,7839.9970703125,29438.337890625,827.3125,0.0,1548.926025390625,14077.02734375,6630.4208984375,26319.822265625,16663.07421875,15611.6484375,25167.46484375,9598.732421875,14505.38671875,9440.5810546875,4655.52001953125,23238.658203125,9778.3408203125,17370.3828125,11899.4716796875,9280.0458984375,12547.9697265625,11956.69140625,2241.92919921875,10713.736328125,3983.1796875,17230.509765625,6721.814453125,8861.224609375,2851.486328125,11876.423828125,5600.45263671875,24044.513671875,4335.24462890625,18684.068359375,3662.109375,9917.4189453125,26967.525390625,21785.89453125,11625.2900390625,-0.0,-44556.45703125,19997.755859375,5832.51318359375,0.0,7128.71533203125,0.0,0.0
15737.21484375,15662.51171875,34556.390625,11797.74609375,28497.376953125,6988.04833984375,8341.4716796875,9485.880859375,9626.5478515625,6515.97998046875,17592.111328125,-855.1279907226562,8858.83984375,0.0,22985.140625,8062.52197265625,25304.953125,20198.02734375,9952.3857421875,12237.2314453125,23465.951171875,29873.052734375,24050.87109375,20048.619140625,21651.5859375,7836.0244140625,29441.515625,833.6702880859375,0.0,1569.5889892578125,14081.7958984375,6638.3681640625,26326.1796875,16670.2265625,15615.6220703125,25170.64453125,9604.294921875,14510.154296875,9466.8076171875,4674.59326171875,23237.0703125,9777.5458984375,17374.357421875,11904.2392578125,9286.4033203125,12551.943359375,11941.591796875,2271.33447265625,10718.5048828125,3987.947998046875,17235.279296875,6728.96728515625,8847.7138671875,2870.5595703125,11880.3974609375,5602.04150390625,24046.8984375,4346.37060546875,18688.837890625,3666.0830078125,9909.470703125,26973.08984375,21791.458984375,11625.2900390625,-0.0,-44546.921875,19997.755859375,5834.1025390625,0.0,7123.15234375,0.0,0.0
15766.62109375,15668.0732421875,34546.05859375,11795.361328125,28490.224609375,6986.45947265625,8339.087890625,9485.0859375,9624.9580078125,6519.953125,17560.32421875,-851.9490356445312,8845.3291015625,0.0,22985.140625,8065.70068359375,25301.775390625,20192.46484375,9953.181640625,12238.025390625,23459.59375,29868.28515625,24050.87109375,20046.234375,21642.048828125,7842.38134765625,29437.541015625,832.8755493164062,0.0,1578.3310546875,14077.822265625,6639.16259765625,26320.615234375,16665.458984375,15611.6484375,25168.259765625,9604.294921875,14510.94921875,9473.9599609375,4680.15673828125,23228.326171875,9769.5986328125,17369.587890625,11902.6494140625,9284.01953125,12551.943359375,11937.6181640625,2307.891845703125,10710.556640625,3984.769287109375,17233.689453125,6728.96728515625,8834.203125,2903.1435546875,11871.6552734375,5606.81005859375,24045.30859375,4350.34423828125,18690.427734375,3666.877685546875,9899.1396484375,26972.29296875,21791.458984375,11626.8798828125,-0.0,-44535.796875,20000.138671875,5830.92333984375,0.0,7124.7421875,0.0,0.0
15764.236328125,15676.021484375,34542.08203125,11770.7255859375,28491.01953125,6983.2802734375,8340.6767578125,9485.0859375,9624.9580078125,6525.5166015625,17580.19140625,-855.9227294921875,8848.5078125,0.0,22986.73046875,8063.31640625,25296.2109375,20190.080078125,9954.7705078125,12242.0,23454.82421875,29861.927734375,24048.486328125,20043.849609375,21642.84375,7840.79248046875,29438.337890625,832.080810546875,0.0,1581.5098876953125,14073.0546875,6637.5732421875,26315.84765625,16656.716796875,15609.2646484375,25165.080078125,9602.7060546875,14511.744140625,9440.5810546875,4676.18310546875,23227.533203125,9765.625,17368.79296875,11899.4716796875,9282.4296875,12553.5322265625,11940.001953125,2319.812744140625,10708.9677734375,3979.2060546875,17235.279296875,6727.37744140625,8843.7392578125,2907.912109375,11870.861328125,5606.015625,24045.30859375,4348.7548828125,18693.60546875,3670.056640625,9891.9873046875,26970.705078125,21794.63671875,11634.826171875,-0.0,-44540.56640625,20001.73046875,5829.33447265625,0.0,7131.099609375,0.0,0.0
