4992.48486328125,3769.397705078125,8872.349609375,5296.0712890625,15551.2490234375,5539.25830078125,8134.04736328125,12339.7509765625,4090.468017578125,6632.009765625,4160.404296875,6796.51904296875,-5307.99267578125,0.0,11625.2900390625,11443.2978515625,790.7549438476562,708.1031494140625,3640.651611328125,5486.80615234375,3482.500732421875,10333.0615234375,7269.38232421875,21856.626953125,-1248.5185546875,232.85548400878906,4584.7890625,12339.7509765625,-5230.10888671875,2207.756103515625,17365.61328125,-10420.4814453125,-3801.981689453125,2565.3837890625,9319.7822265625,11216.7998046875,5526.54248046875,8683.9990234375,5133.94677734375,-0.0,5581.37890625,25850.931640625,29881.794921875,8071.26318359375,17797.15234375,12566.2490234375,-1739.660888671875,-3407.00146484375,4016.55810546875,12696.583984375,10468.1650390625,12567.04296875,9989.73828125,1064.1416015625,-1840.5914306640625,8093.51611328125,0.0,3989.53759765625,7448.1962890625,6089.21044921875,4776.31884765625,9709.994140625,9481.9072265625,15669.6640625,-12260.27734375,2648.830322265625,10732.0146484375,6993.61181640625,5423.22802734375,3857.612548828125,0.0,9260.177734375
5082.2890625,3768.60302734375,8974.0751953125,5271.4345703125,15570.3232421875,5555.94775390625,8154.7099609375,12362.0029296875,4101.59423828125,6648.69921875,4188.2197265625,6826.71875,-5334.21826171875,0.0,11643.5693359375,11464.7548828125,812.212646484375,723.9977416992188,3658.930419921875,5501.90576171875,3503.16357421875,10348.1611328125,7289.2509765625,21873.31640625,-1215.934814453125,251.928955078125,4608.63134765625,12354.8505859375,-5215.8037109375,2226.82958984375,17385.482421875,-10406.970703125,-3764.62939453125,2582.0732421875,9339.650390625,11235.078125,5548.00048828125,8703.8681640625,5126.79443359375,-0.0,5579.78955078125,25861.263671875,29903.25390625,8088.748046875,17815.431640625,12585.322265625,-1688.0035400390625,-3356.93359375,4057.08935546875,12714.068359375,10488.033203125,12587.70703125,10020.732421875,1054.6048583984375,-1824.6968994140625,8108.61572265625,0.0,4060.268310546875,7460.1171875,6107.4892578125,4800.955078125,9726.68359375,9499.390625,15686.353515625,-12236.435546875,2671.082763671875,10749.4990234375,7010.30126953125,5430.38037109375,3857.612548828125,0.0,9280.0458984375
5119.6416015625,3887.017578125,9037.654296875,5257.92431640625,15579.859375,5562.3056640625,8164.24658203125,12377.8984375,4110.33642578125,6663.79931640625,4196.1669921875,6844.20263671875,-5335.8076171875,0.0,11642.7734375,11480.6494140625,820.9546508789062,733.5344848632812,3668.46728515625,5513.0322265625,3507.13720703125,10352.9287109375,7297.19775390625,21881.26171875,-1186.52978515625,252.72369384765625,4618.16796875,12364.3876953125,-5215.8037109375,2244.3134765625,17394.224609375,-10391.076171875,-3761.450439453125,2583.662841796875,9347.59765625,11241.435546875,5557.537109375,8712.609375,5110.8994140625,-0.0,5583.76318359375,25858.083984375,29911.994140625,8097.4892578125,17822.583984375,12598.83203125,-1655.419677734375,-3332.297119140625,4079.341796875,12717.2470703125,10485.6494140625,12603.6005859375,10048.548828125,1091.162353515625,-1835.0283203125,8108.61572265625,0.0,4067.4208984375,7467.27001953125,6132.9208984375,4816.05517578125,9735.4248046875,9508.927734375,15695.0947265625,-12218.158203125,2686.1826171875,10751.087890625,7046.8583984375,5418.45947265625,3887.017578125,0.0,9291.966796875
5089.44189453125,3907.680419921875,8997.9169921875,5264.2822265625,15571.912109375,5556.7421875,8158.68359375,12369.9501953125,4112.720703125,6663.79931640625,4190.603515625,6837.0498046875,-5340.576171875,0.0,11639.5947265625,11472.7021484375,813.00732421875,728.76611328125,3663.698974609375,5514.62158203125,3499.98486328125,10345.7763671875,7294.01904296875,21877.2890625,-1192.0928955078125,243.18695068359375,4613.3994140625,12355.6455078125,-5215.8037109375,2240.340087890625,17388.662109375,-10394.255859375,-3772.57666015625,2574.1259765625,9341.240234375,11236.66796875,5552.7685546875,8707.8408203125,5164.94140625,-0.0,5575.81591796875,25850.138671875,29908.021484375,8090.3369140625,17823.376953125,12595.6533203125,-1663.366943359375,-3333.886474609375,4075.368408203125,12706.916015625,10481.6748046875,12595.6533203125,10043.7802734375,1102.28857421875,-1832.6441650390625,8102.2578125,0.0,4041.98974609375,7469.654296875,6126.5625,4820.02880859375,9731.4521484375,9505.7490234375,15703.04296875,-12221.3359375,2683.798583984375,10748.7041015625,7063.5478515625,5428.791015625,3904.501708984375,0.0,9297.5302734375
5064.0107421875,3911.654052734375,8965.3330078125,5252.361328125,15562.375,5547.20556640625,8145.1728515625,12352.466796875,4099.21044921875,6640.75244140625,4181.86181640625,6828.30810546875,-5351.7021484375,0.0,11630.8525390625,11452.833984375,799.4969482421875,717.639892578125,3650.983154296875,5497.1376953125,3487.26904296875,10336.240234375,7281.30322265625,21866.1640625,-1214.3453369140625,232.0607452392578,4600.68359375,12347.6982421875,-5228.51953125,2233.982177734375,17377.53515625,-10408.560546875,-3789.265869140625,2562.999755859375,9330.11328125,11227.130859375,5541.642578125,8695.1259765625,5175.2724609375,-0.0,5570.2529296875,25841.39453125,29895.3046875,8080.005859375,17809.072265625,12577.3740234375,-1673.698486328125,-3352.165283203125,4064.241943359375,12697.37890625,10473.728515625,12578.169921875,10022.322265625,1099.109619140625,-1821.5179443359375,8091.9267578125,0.0,3997.484619140625,7459.322265625,6097.9521484375,4813.6708984375,9719.53125,9490.6494140625,15679.201171875,-12234.0517578125,2675.056396484375,10739.1669921875,7023.0166015625,5435.14892578125,3859.996826171875,0.0,9259.3828125
5087.8525390625,3932.317138671875,8978.048828125,5239.6455078125,15576.6806640625,5555.94775390625,8158.68359375,12360.4130859375,4112.720703125,6648.69921875,4200.935546875,6844.99755859375,-5338.98681640625,0.0,11645.953125,11463.9599609375,812.212646484375,734.3292236328125,3663.698974609375,5506.67431640625,3501.57421875,10348.9560546875,7294.8134765625,21875.69921875,-1203.2191162109375,240.00804138183594,4614.1943359375,12350.876953125,-5220.57177734375,2256.234375,17391.83984375,-10397.4345703125,-3770.9873046875,2568.562744140625,9346.0078125,11239.0517578125,5554.35791015625,8707.8408203125,5157.78857421875,-0.0,5590.12060546875,25854.111328125,29911.19921875,8088.748046875,17821.7890625,12586.1171875,-1657.0091552734375,-3347.39697265625,4079.341796875,12702.1474609375,10491.2119140625,12589.294921875,10050.1376953125,1111.8253173828125,-1800.85498046875,8118.15283203125,0.0,4021.32666015625,7469.654296875,6107.4892578125,4826.38671875,9730.65625,9502.5703125,15688.73828125,-12218.158203125,2690.15625,10755.8564453125,7026.1953125,5455.01708984375,3865.559814453125,0.0,9267.330078125
5093.41552734375,3944.23828125,8985.99609375,5275.408203125,15593.369140625,5568.6630859375,8180.93603515625,12382.6669921875,4135.767578125,6676.51513671875,4217.62451171875,6859.302734375,-5308.787109375,0.0,11662.642578125,11486.212890625,829.6966552734375,751.0185546875,3682.7724609375,5532.900390625,3520.647705078125,10367.234375,7313.88720703125,21894.7734375,-1189.708740234375,251.928955078125,4639.62548828125,12360.4130859375,-5203.8828125,2261.797607421875,17409.32421875,-10379.1552734375,-3754.2978515625,2591.60986328125,9362.697265625,11254.9462890625,5576.6103515625,8724.5302734375,5153.81494140625,-0.0,5608.39990234375,25867.62109375,29931.86328125,8101.46337890625,17845.630859375,12607.57421875,-1654.625,-3333.886474609375,4092.85205078125,12710.888671875,10508.6962890625,12609.1640625,10046.1640625,1128.5146484375,-1796.086669921875,8134.04736328125,0.0,4075.368408203125,7485.54833984375,6135.3046875,4833.53955078125,9748.1416015625,9523.232421875,15721.3212890625,-12205.44140625,2698.103759765625,10770.162109375,7061.16357421875,5469.322265625,3906.091064453125,0.0,9316.603515625
5064.8056640625,3913.24365234375,8965.3330078125,5265.87158203125,15577.4755859375,5554.35791015625,8168.220703125,12375.513671875,4123.05224609375,6670.15673828125,4196.9619140625,6841.02392578125,-5313.55517578125,0.0,11649.92578125,11478.2646484375,816.186279296875,735.918701171875,3668.46728515625,5523.36376953125,3507.931884765625,10352.134765625,7298.78759765625,21881.26171875,-1211.1663818359375,238.4185791015625,4623.73095703125,12355.6455078125,-5218.98291015625,2244.3134765625,17395.01953125,-10391.87109375,-3765.424072265625,2578.894287109375,9348.392578125,11241.435546875,5562.3056640625,8711.814453125,5105.33642578125,-0.0,5594.0947265625,25853.314453125,29917.55859375,8091.13232421875,17830.529296875,12597.2431640625,-1682.4404296875,-3351.37060546875,4072.984130859375,12698.173828125,10493.595703125,12601.216796875,10012.7861328125,1115.004150390625,-1820.72314453125,8115.7685546875,0.0,4077.752685546875,7472.8330078125,6131.3310546875,4814.4658203125,9733.8359375,9509.72265625,15713.373046875,-12224.5146484375,2676.64599609375,10756.65234375,7049.24267578125,5454.22216796875,3908.475341796875,0.0,9326.9345703125
5044.14208984375,3886.222900390625,8954.20703125,5249.18212890625,15566.3486328125,5547.20556640625,8153.12109375,12370.74609375,4108.7470703125,6659.82568359375,4177.09375,6828.30810546875,-5327.06591796875,0.0,11639.5947265625,11473.49609375,805.06005859375,721.6135864257812,3655.75146484375,5512.2373046875,3499.190185546875,10341.8037109375,7286.86669921875,21871.724609375,-1226.2662353515625,232.0607452392578,4607.83642578125,12351.671875,-5230.90380859375,2229.213623046875,17384.6875,-10406.1767578125,-3773.371337890625,2566.178466796875,9338.0615234375,11231.8994140625,5547.20556640625,8703.072265625,5091.03173828125,-0.0,5583.76318359375,25845.369140625,29904.046875,8083.18408203125,17817.81640625,12590.0908203125,-1704.69287109375,-3370.444091796875,4056.294921875,12693.4052734375,10483.2646484375,12598.83203125,10012.7861328125,1087.188720703125,-1839.001953125,8105.4375,0.0,4061.857666015625,7459.322265625,6127.357421875,4803.33935546875,9722.7099609375,9498.595703125,15698.2744140625,-12238.8203125,2666.314453125,10748.7041015625,7024.6064453125,5445.48046875,3889.401611328125,0.0,9311.8349609375
5056.06298828125,3878.275634765625,8939.90234375,5255.54052734375,15577.4755859375,5560.71630859375,8161.06787109375,12385.8447265625,4115.1044921875,6665.388671875,4181.86181640625,6830.6923828125,-5317.529296875,0.0,11652.310546875,11488.5966796875,810.6231689453125,727.1766357421875,3664.49365234375,5518.59521484375,3507.13720703125,10352.134765625,7294.01904296875,21882.853515625,-1218.3189697265625,247.955322265625,4607.0419921875,12368.361328125,-5220.57177734375,2239.545166015625,17390.251953125,-10392.666015625,-3768.60302734375,2570.15234375,9346.802734375,11241.435546875,5555.15283203125,8711.814453125,5095.7998046875,-0.0,5594.88916015625,25862.05859375,29912.791015625,8095.10498046875,17828.146484375,12598.0380859375,-1703.1033935546875,-3388.72265625,4065.83154296875,12706.916015625,10495.185546875,12613.9326171875,10029.4755859375,1086.3939208984375,-1823.902099609375,8111.79443359375,0.0,4076.957763671875,7467.27001953125,6139.2783203125,4814.4658203125,9731.4521484375,9507.3388671875,15707.015625,-12229.283203125,2677.440673828125,10759.0361328125,7014.2744140625,5455.81201171875,3877.480712890625,0.0,9311.8349609375
5071.1630859375,3883.0439453125,8931.16015625,5257.92431640625,15590.1904296875,5571.84228515625,8176.962890625,12400.9443359375,4128.61474609375,6682.078125,4188.2197265625,6830.6923828125,-5311.9658203125,0.0,11668.205078125,11506.0810546875,821.7493896484375,740.6870727539062,3679.59326171875,5534.490234375,3519.05810546875,10362.4658203125,7306.734375,21893.978515625,-1218.3189697265625,256.69732666015625,4626.115234375,12385.8447265625,-5212.625,2251.466064453125,17398.9921875,-10395.8447265625,-3765.424072265625,2576.51025390625,9359.5185546875,11253.357421875,5572.63720703125,8726.9140625,5118.8466796875,-0.0,5627.47314453125,25877.15625,29927.888671875,8110.20556640625,17843.24609375,12614.7265625,-1697.540283203125,-3399.848876953125,4076.957763671875,12716.4521484375,10511.875,12630.6220703125,10035.83203125,1103.8780517578125,-1814.3653564453125,8118.947265625,0.0,4095.236328125,7468.06494140625,6160.736328125,4814.4658203125,9744.9619140625,9521.6435546875,15730.0625,-12222.92578125,2683.798583984375,10775.7255859375,7007.9169921875,5469.322265625,3886.222900390625,0.0,9346.0078125
5081.49462890625,3894.170166015625,8967.716796875,5296.86572265625,15596.548828125,5576.6103515625,8182.525390625,12398.560546875,4130.9990234375,6675.72021484375,4200.935546875,6835.46044921875,-5325.47607421875,0.0,11676.15234375,11502.90234375,831.2861328125,747.839599609375,3681.9775390625,5528.9267578125,3524.621337890625,10370.4140625,7313.88720703125,21897.951171875,-1190.50341796875,258.28680419921875,4634.857421875,12384.255859375,-5204.677734375,2248.287109375,17407.736328125,-10391.87109375,-3755.092529296875,2594.788818359375,9365.08203125,11258.919921875,5577.4052734375,8730.09375,5113.28369140625,-0.0,5616.3466796875,25879.541015625,29935.041015625,8111.79443359375,17846.42578125,12613.1376953125,-1683.235107421875,-3372.828125,4086.494384765625,12717.2470703125,10518.2333984375,12628.2373046875,10043.7802734375,1102.28857421875,-1812.7760009765625,8123.71533203125,0.0,4080.13671875,7486.34326171875,6151.19921875,4816.05517578125,9750.525390625,9522.4384765625,15714.9638671875,-12214.18359375,2689.361572265625,10783.671875,7000.76416015625,5464.5537109375,3863.175537109375,0.0,9309.451171875
5052.08984375,3867.944091796875,8942.2861328125,5288.1240234375,15578.26953125,5553.5634765625,8158.68359375,12359.619140625,4111.92578125,6655.0576171875,4181.86181640625,6820.36083984375,-5341.37109375,0.0,11647.5419921875,11462.37109375,810.6231689453125,728.76611328125,3658.930419921875,5508.26416015625,3503.16357421875,10353.724609375,7290.84033203125,21874.109375,-1211.961181640625,236.82911682128906,4603.86279296875,12350.08203125,-5213.41943359375,2233.1875,17387.072265625,-10409.35546875,-3774.960693359375,2581.278564453125,9345.2138671875,11239.8466796875,5555.15283203125,8703.072265625,5091.826171875,-0.0,5584.55810546875,25865.236328125,29909.611328125,8083.9794921875,17823.376953125,12582.9384765625,-1699.9244384765625,-3378.391357421875,4059.4736328125,12693.4052734375,10489.623046875,12587.70703125,10010.4013671875,1064.936279296875,-1849.3333740234375,8108.61572265625,0.0,4023.710693359375,7476.806640625,6109.87353515625,4800.955078125,9728.2724609375,9501.7744140625,15695.890625,-12232.462890625,2675.85107421875,10754.267578125,7042.884765625,5449.45361328125,3890.9912109375,0.0,9283.224609375
5015.5322265625,3819.465576171875,8932.75,5269.05078125,15563.96484375,5524.15869140625,8136.431640625,12322.2666015625,4100.0048828125,6629.6259765625,4158.81494140625,6802.876953125,-5335.8076171875,0.0,11634.0322265625,11425.0185546875,788.3707885742188,707.3084716796875,3637.472900390625,5492.369140625,3489.6533203125,10329.0869140625,7273.35595703125,21849.474609375,-1246.92919921875,208.21888732910156,4586.37841796875,12313.525390625,-5229.314453125,2221.2666015625,17367.998046875,-10439.5546875,-3781.318603515625,2561.41015625,9327.7294921875,11216.00390625,5532.900390625,8677.6416015625,5083.083984375,-0.0,5591.71044921875,25830.26953125,29889.7421875,8055.369140625,17801.919921875,12558.30078125,-1722.9715576171875,-3391.10693359375,4042.7841796875,12668.7685546875,10476.1123046875,12549.5595703125,9978.6123046875,1044.2734375,-1879.533203125,8089.54248046875,0.0,3972.848388671875,7471.2431640625,6076.49462890625,4779.49755859375,9708.404296875,9480.3173828125,15676.8173828125,-12257.8935546875,2657.572509765625,10741.5517578125,7052.42138671875,5445.48046875,3873.50732421875,0.0,9256.2041015625
5013.94287109375,3825.823486328125,8915.2646484375,5269.845703125,15568.7333984375,5533.6953125,8148.3525390625,12332.5986328125,4116.69384765625,6635.18896484375,4168.3515625,6812.41357421875,-5315.939453125,0.0,11653.900390625,11433.7607421875,800.2916870117188,718.4346313476562,3648.598876953125,5502.70068359375,3503.16357421875,10337.830078125,7286.07177734375,21859.8046875,-1227.0609130859375,219.3450927734375,4603.06787109375,12323.0615234375,-5216.5986328125,2230.00830078125,17378.330078125,-10424.455078125,-3765.424072265625,2571.74169921875,9338.85546875,11223.9521484375,5544.8212890625,8688.767578125,5060.83154296875,-0.0,5603.63134765625,25834.2421875,29902.458984375,8065.70068359375,17817.81640625,12568.6328125,-1729.3294677734375,-3383.15966796875,4071.39453125,12679.099609375,10496.775390625,12559.890625,10000.865234375,1062.5521240234375,-1834.233642578125,8097.4892578125,0.0,3983.1796875,7487.9326171875,6084.4423828125,4780.29248046875,9719.53125,9491.443359375,15674.4326171875,-12242.7939453125,2664.72509765625,10762.21484375,7042.08984375,5476.474609375,3857.612548828125,0.0,9248.2568359375
5009.17431640625,3857.612548828125,8923.212890625,5253.95068359375,15583.8330078125,5548.79541015625,8163.4521484375,12351.671875,4126.23095703125,6645.5205078125,4174.70947265625,6827.51318359375,-5311.9658203125,0.0,11665.8212890625,11452.833984375,816.186279296875,733.5344848632812,3664.49365234375,5511.44287109375,3514.289794921875,10351.33984375,7298.78759765625,21874.109375,-1204.0137939453125,233.65020751953125,4611.81005859375,12340.5458984375,-5221.36669921875,2237.955810546875,17392.634765625,-10397.4345703125,-3755.88720703125,2578.894287109375,9353.1611328125,11236.66796875,5556.7421875,8703.072265625,5083.083984375,-0.0,5606.015625,25849.341796875,29915.96875,8080.005859375,17831.326171875,12581.3486328125,-1724.56103515625,-3368.059814453125,4093.64697265625,12694.19921875,10509.4912109375,12578.169921875,10008.8115234375,1095.9306640625,-1806.4180908203125,8107.8212890625,0.0,4010.200439453125,7498.26416015625,6100.33642578125,4792.21337890625,9733.041015625,9504.1591796875,15672.841796875,-12226.1044921875,2674.26171875,10774.9296875,7043.6796875,5493.1640625,3864.76513671875,0.0,9249.8466796875
5017.916015625,3883.0439453125,9012.22265625,5264.2822265625,15590.1904296875,5562.3056640625,8170.6044921875,12372.3349609375,4126.23095703125,6652.67333984375,4186.63037109375,6841.818359375,-5300.83984375,0.0,11669.0,11475.0859375,823.3388061523438,739.892333984375,3673.235595703125,5513.82666015625,3518.263671875,10356.1083984375,7302.76123046875,21882.056640625,-1192.0928955078125,250.33950805664062,4621.34716796875,12362.0029296875,-5212.625,2259.41357421875,17398.19921875,-10393.4599609375,-3745.555908203125,2578.099609375,9355.544921875,11246.2041015625,5567.86865234375,8714.19921875,5137.12548828125,-0.0,5602.83642578125,25859.673828125,29923.12109375,8093.51611328125,17834.505859375,12590.884765625,-1692.77197265625,-3343.423095703125,4095.236328125,12713.2734375,10514.259765625,12596.4482421875,9998.48046875,1122.9515380859375,-1798.4708251953125,8117.3583984375,0.0,4042.7841796875,7487.9326171875,6120.205078125,4806.5185546875,9739.3994140625,9510.517578125,15683.9697265625,-12218.158203125,2688.56689453125,10776.51953125,7046.06396484375,5493.958984375,3869.533447265625,0.0,9261.767578125
5018.7109375,3896.55419921875,9010.6328125,5281.7666015625,15602.111328125,5568.6630859375,8184.90966796875,12385.05078125,4138.9462890625,6667.77294921875,4196.1669921875,6842.61328125,-5288.1240234375,0.0,11677.7421875,11488.5966796875,824.9282836914062,746.2501220703125,3681.9775390625,5528.1318359375,3525.416015625,10361.671875,7311.5029296875,21890.798828125,-1196.0665283203125,258.28680419921875,4632.47314453125,12374.71875,-5199.9091796875,2250.67138671875,17403.76171875,-10397.4345703125,-3738.4033203125,2586.046875,9363.4921875,11251.767578125,5579.78955078125,8723.7353515625,5171.298828125,-0.0,5620.32080078125,25869.2109375,29931.068359375,8101.46337890625,17848.810546875,12605.1904296875,-1683.235107421875,-3364.086181640625,4096.826171875,12720.42578125,10523.001953125,12611.548828125,9971.458984375,1128.5146484375,-1808.007568359375,8125.30517578125,0.0,4072.984130859375,7489.5224609375,6141.66259765625,4816.85009765625,9748.1416015625,9522.4384765625,15705.4267578125,-12221.3359375,2690.951171875,10786.056640625,7052.42138671875,5497.1376953125,3901.322509765625,0.0,9289.58203125
5012.353515625,3876.68603515625,8948.6435546875,5266.66650390625,15590.1904296875,5546.4111328125,8168.220703125,12354.056640625,4122.25732421875,6643.13671875,4179.4775390625,6819.56640625,-5291.30322265625,0.0,11664.2314453125,11457.6025390625,806.6495361328125,729.5608520507812,3664.49365234375,5510.6484375,3507.13720703125,10342.59765625,7293.22412109375,21870.13671875,-1223.882080078125,233.65020751953125,4618.16796875,12342.9296875,-5208.65087890625,2219.677001953125,17383.09765625,-10407.765625,-3763.834716796875,2568.562744140625,9346.0078125,11232.693359375,5561.5107421875,8701.4833984375,5176.8623046875,-0.0,5614.75732421875,25849.341796875,29913.583984375,8077.62158203125,17835.298828125,12581.3486328125,-1726.9453125,-3407.796142578125,4070.60009765625,12692.6103515625,10507.9013671875,12582.142578125,9992.9169921875,1100.6990966796875,-1830.2598876953125,8103.84765625,0.0,4030.06884765625,7488.7275390625,6100.33642578125,4803.33935546875,9728.2724609375,9503.3642578125,15680.7900390625,-12234.8466796875,2666.314453125,10773.3408203125,7023.0166015625,5477.26953125,3863.970458984375,0.0,9249.8466796875
5025.86376953125,3871.123046875,8956.591796875,5242.02978515625,15565.5546875,5532.10595703125,8144.37890625,12336.5712890625,4102.388671875,6624.06298828125,4157.22509765625,6809.234375,-5308.787109375,0.0,11636.416015625,11440.9130859375,790.7549438476562,708.8978881835938,3644.62548828125,5488.3955078125,3484.885009765625,10325.1142578125,7270.9716796875,21851.857421875,-1232.6240234375,218.5503692626953,4599.88916015625,12328.625,-5218.98291015625,2218.88232421875,17365.61328125,-10416.5078125,-3782.11328125,2555.052490234375,9324.55078125,11215.2099609375,5537.6689453125,8683.205078125,5102.15771484375,-0.0,5581.37890625,25832.65234375,29891.33203125,8061.7265625,17808.279296875,12561.48046875,-1706.2822265625,-3393.490966796875,4058.67919921875,12678.3056640625,10480.0859375,12563.8642578125,10005.6337890625,1076.0625,-1839.796630859375,8088.748046875,0.0,3985.563720703125,7472.0380859375,6076.49462890625,4789.8291015625,9709.19921875,9482.701171875,15660.1279296875,-12246.767578125,2653.598876953125,10743.935546875,7000.76416015625,5452.6328125,3828.207763671875,0.0,9226.0048828125
5027.453125,3854.433837890625,8930.365234375,5249.18212890625,15549.66015625,5517.80078125,8124.5107421875,12323.8564453125,4077.752685546875,6608.962890625,4155.6357421875,6798.90283203125,-5344.5498046875,0.0,11614.1630859375,11425.0185546875,778.8340454101562,691.4138793945312,3628.730712890625,5470.91162109375,3468.990234375,10316.3720703125,7255.8720703125,21837.552734375,-1234.2135009765625,207.42416381835938,4559.35791015625,12314.3193359375,-5237.26123046875,2217.292724609375,17355.283203125,-10428.4287109375,-3805.955078125,2549.4892578125,9308.6552734375,11200.9052734375,5517.005859375,8668.8994140625,5102.95263671875,-0.0,5558.33203125,25819.9375,29873.84765625,8049.01123046875,17786.822265625,12546.3798828125,-1700.71923828125,-3387.13330078125,4050.731689453125,12667.1787109375,10455.44921875,12551.1484375,10015.169921875,1052.220703125,-1851.7176513671875,8083.18408203125,0.0,3980.79541015625,7436.275390625,6066.9580078125,4768.37158203125,9694.8935546875,9466.8076171875,15642.642578125,-12256.3046875,2646.4462890625,10717.7099609375,6992.02197265625,5410.51220703125,3807.544677734375,0.0,9218.056640625
5040.1689453125,3850.4599609375,8966.1279296875,5261.89794921875,15551.2490234375,5528.1318359375,8133.251953125,12337.3671875,4087.289306640625,6628.83154296875,4187.42529296875,6810.029296875,-5355.67626953125,0.0,11622.111328125,11440.1181640625,785.1918334960938,696.9769897460938,3639.062255859375,5486.01171875,3472.964111328125,10323.5244140625,7266.20361328125,21848.677734375,-1214.3453369140625,220.1398162841797,4572.0732421875,12330.21484375,-5237.26123046875,2232.392578125,17362.435546875,-10415.712890625,-3799.597412109375,2556.641845703125,9313.423828125,11210.44140625,5527.33740234375,8682.41015625,5140.3046875,-0.0,5544.02685546875,25830.26953125,29879.412109375,8061.7265625,17797.947265625,12562.275390625,-1676.8773193359375,-3367.264892578125,4059.4736328125,12679.099609375,10462.6015625,12566.2490234375,10030.26953125,1076.0625,-1847.7440185546875,8092.72119140625,0.0,3999.074462890625,7448.1962890625,6092.3896484375,4777.11328125,9705.2255859375,9478.728515625,15668.869140625,-12248.3564453125,2655.98291015625,10727.24609375,7015.0693359375,5419.25439453125,3837.744384765625,0.0,9251.435546875
5044.14208984375,3849.665283203125,8971.69140625,5276.203125,15563.96484375,5543.23193359375,8148.3525390625,12355.6455078125,4100.7998046875,6651.87841796875,4197.75634765625,6825.12890625,-5366.80224609375,0.0,11638.80078125,11457.6025390625,797.11279296875,712.0768432617188,3653.3671875,5503.49560546875,3487.26904296875,10337.03515625,7280.50830078125,21862.984375,-1205.603271484375,238.4185791015625,4604.65771484375,12349.2880859375,-5232.4931640625,2243.518798828125,17374.357421875,-10409.35546875,-3784.49755859375,2570.947021484375,9328.5244140625,11224.7470703125,5544.8212890625,8697.509765625,5144.27783203125,-0.0,5560.71630859375,25846.958984375,29895.3046875,8076.8271484375,17813.841796875,12581.3486328125,-1672.1090087890625,-3364.880859375,4074.573486328125,12692.6103515625,10481.6748046875,12582.9384765625,10028.6796875,1081.6256103515625,-1827.875732421875,8091.9267578125,0.0,4021.32666015625,7459.322265625,6117.02587890625,4785.06103515625,9717.146484375,9494.6220703125,15691.9150390625,-12239.615234375,2664.72509765625,10745.525390625,7043.6796875,5434.3544921875,3888.60693359375,0.0,9289.58203125
5074.34228515625,3827.412841796875,8955.001953125,5274.61376953125,15569.52734375,5555.94775390625,8153.12109375,12366.771484375,4107.1572265625,6655.85205078125,4193.78271484375,6825.923828125,-5370.77587890625,0.0,11644.36328125,11469.5234375,803.4705810546875,719.2293701171875,3659.72509765625,5509.853515625,3491.24267578125,10346.572265625,7286.07177734375,21870.13671875,-1213.550537109375,248.75006103515625,4611.81005859375,12366.771484375,-5226.13525390625,2263.386962890625,17379.919921875,-10406.1767578125,-3790.85546875,2574.920654296875,9335.6767578125,11231.1044921875,5547.20556640625,8703.072265625,5147.45703125,-0.0,5572.63720703125,25858.87890625,29904.046875,8088.748046875,17817.81640625,12588.5009765625,-1672.1090087890625,-3373.622802734375,4074.573486328125,12707.7099609375,10486.443359375,12594.859375,10031.064453125,1045.068115234375,-1829.4652099609375,8099.87353515625,0.0,4026.094970703125,7468.859375,6127.357421875,4795.392578125,9721.9150390625,9498.595703125,15694.2998046875,-12231.66796875,2670.2880859375,10751.8837890625,7040.50048828125,5435.943359375,3902.117431640625,0.0,9294.3505859375
5091.826171875,3809.928955078125,8957.3857421875,5273.81884765625,15578.26953125,5552.7685546875,8152.32568359375,12354.056640625,4103.18359375,6635.18896484375,4197.75634765625,6825.923828125,-5345.3447265625,0.0,11641.1845703125,11456.8076171875,804.2653198242188,723.9977416992188,3655.75146484375,5496.34326171875,3501.57421875,10348.1611328125,7287.6611328125,21867.751953125,-1207.1927490234375,243.98167419433594,4602.2734375,12353.2607421875,-5221.36669921875,2264.181884765625,17383.09765625,-10406.970703125,-3777.344970703125,2572.536376953125,9341.240234375,11231.8994140625,5545.6162109375,8697.509765625,5119.6416015625,-0.0,5586.1474609375,25856.494140625,29904.841796875,8080.80029296875,17815.431640625,12575.78515625,-1675.287841796875,-3369.649169921875,4087.289306640625,12703.736328125,10484.8544921875,12582.142578125,10038.216796875,1030.7630615234375,-1826.286376953125,8104.64208984375,0.0,4004.63720703125,7464.8857421875,6100.33642578125,4806.5185546875,9724.2998046875,9490.6494140625,15679.201171875,-12219.7470703125,2673.467041015625,10749.4990234375,6996.79052734375,5443.09619140625,3834.5654296875,0.0,9240.3095703125
5079.9052734375,3836.94970703125,8947.849609375,5280.9716796875,15579.064453125,5540.052734375,8150.73681640625,12356.4404296875,4103.978515625,6636.7783203125,4197.75634765625,6828.30810546875,-5335.8076171875,0.0,11641.1845703125,11459.19140625,802.6759033203125,723.9977416992188,3653.3671875,5497.9326171875,3507.13720703125,10342.59765625,7285.27685546875,21863.779296875,-1201.629638671875,229.6765594482422,4594.326171875,12346.1083984375,-5224.5458984375,2240.340087890625,17382.302734375,-10414.123046875,-3767.013671875,2568.562744140625,9341.240234375,11229.5146484375,5546.4111328125,8695.919921875,5091.03173828125,-0.0,5596.47900390625,25845.369140625,29900.07421875,8075.2373046875,17815.431640625,12574.990234375,-1696.7454833984375,-3360.112548828125,4084.905029296875,12683.07421875,10484.8544921875,12582.9384765625,10035.83203125,1061.7574462890625,-1808.007568359375,8080.005859375,0.0,4005.43212890625,7464.0908203125,6104.310546875,4799.3662109375,9721.9150390625,9491.443359375,15684.7626953125,-12221.3359375,2664.72509765625,10751.087890625,7004.73779296875,5442.30126953125,3837.744384765625,0.0,9253.8193359375
5067.189453125,3883.838623046875,8959.7705078125,5261.89794921875,15581.4482421875,5538.46337890625,8158.68359375,12361.208984375,4109.54150390625,6644.7255859375,4201.73046875,6826.71875,-5338.98681640625,0.0,11654.6943359375,11463.1650390625,809.03369140625,728.76611328125,3660.519775390625,5503.49560546875,3510.316162109375,10344.1875,7290.04541015625,21866.95703125,-1197.656005859375,228.8818359375,4608.63134765625,12340.5458984375,-5222.9560546875,2241.92919921875,17388.662109375,-10405.380859375,-3763.834716796875,2574.920654296875,9346.0078125,11234.283203125,5552.7685546875,8699.8935546875,5098.18408203125,-0.0,5595.68408203125,25845.369140625,29907.2265625,8075.2373046875,17821.7890625,12581.3486328125,-1680.0562744140625,-3368.059814453125,4079.341796875,12684.6630859375,10496.775390625,12586.9111328125,10041.396484375,1092.7518310546875,-1804.82861328125,8083.9794921875,0.0,4063.447509765625,7472.0380859375,6113.05224609375,4800.955078125,9726.68359375,9497.8017578125,15679.994140625,-12220.5419921875,2673.467041015625,10762.21484375,7042.08984375,5457.4013671875,3866.354736328125,0.0,9252.23046875
5048.1162109375,3899.7333984375,8969.306640625,5241.2353515625,15580.654296875,5548.00048828125,8162.65771484375,12369.15625,4116.69384765625,6655.0576171875,4202.52490234375,6825.923828125,-5337.39697265625,0.0,11657.8740234375,11469.5234375,809.03369140625,729.5608520507812,3665.288330078125,5513.0322265625,3511.111083984375,10345.7763671875,7292.4296875,21871.724609375,-1196.861328125,235.2396697998047,4616.57861328125,12348.4921875,-5216.5986328125,2226.82958984375,17389.455078125,-10406.970703125,-3761.450439453125,2573.3310546875,9348.392578125,11237.4619140625,5558.33203125,8707.046875,5113.28369140625,-0.0,5594.0947265625,25850.931640625,29911.19921875,8083.18408203125,17827.3515625,12589.294921875,-1671.314208984375,-3382.364990234375,4076.957763671875,12698.9677734375,10499.9541015625,12594.859375,10035.83203125,1096.7254638671875,-1806.4180908203125,8111.79443359375,0.0,4107.1572265625,7472.8330078125,6114.6416015625,4800.955078125,9731.4521484375,9504.1591796875,15693.505859375,-12220.5419921875,2675.056396484375,10763.8046875,7049.24267578125,5470.1171875,3879.0703125,0.0,9274.482421875
5034.60546875,3883.838623046875,8970.1015625,5237.26123046875,15584.6279296875,5551.9736328125,8164.24658203125,12376.30859375,4118.28369140625,6661.4150390625,4195.3720703125,6824.33447265625,-5325.47607421875,0.0,11653.900390625,11479.060546875,805.06005859375,727.9713745117188,3666.877685546875,5516.2109375,3511.90576171875,10343.392578125,7296.4033203125,21875.69921875,-1202.4244384765625,238.4185791015625,4621.34716796875,12362.0029296875,-5215.00927734375,2218.08740234375,17387.8671875,-10406.970703125,-3763.834716796875,2561.41015625,9349.982421875,11236.66796875,5561.5107421875,8710.2255859375,5110.10498046875,-0.0,5599.65771484375,25851.7265625,29915.173828125,8087.95263671875,17828.94140625,12594.859375,-1679.2615966796875,-3377.5966796875,4081.72607421875,12710.0947265625,10499.16015625,12605.1904296875,10022.322265625,1091.162353515625,-1819.928466796875,8128.48388671875,0.0,4097.62060546875,7468.06494140625,6129.74169921875,4798.5712890625,9732.24609375,9507.3388671875,15700.6591796875,-12225.310546875,2674.26171875,10761.419921875,7035.732421875,5463.7587890625,3877.480712890625,0.0,9282.4296875
5015.5322265625,3869.533447265625,8954.20703125,5248.3876953125,15579.859375,5543.23193359375,8158.68359375,12360.4130859375,4111.13134765625,6651.08349609375,4181.06689453125,6822.74462890625,-5307.99267578125,0.0,11645.158203125,11463.9599609375,801.8811645507812,723.2030029296875,3662.109375,5505.8798828125,3506.342529296875,10339.4189453125,7293.22412109375,21867.751953125,-1221.4979248046875,233.65020751953125,4613.3994140625,12347.6982421875,-5213.41943359375,2214.90869140625,17383.89453125,-10409.35546875,-3767.013671875,2565.3837890625,9344.4189453125,11228.720703125,5551.9736328125,8701.4833984375,5102.15771484375,-0.0,5601.2470703125,25842.189453125,29910.40625,8079.21142578125,17820.19921875,12583.732421875,-1696.7454833984375,-3365.67578125,4076.162841796875,12700.5576171875,10488.828125,12589.294921875,10026.2958984375,1099.109619140625,-1838.207275390625,8115.7685546875,0.0,4049.936767578125,7468.06494140625,6112.25732421875,4796.98193359375,9727.478515625,9498.595703125,15688.73828125,-12226.8994140625,2667.90380859375,10751.8837890625,7042.08984375,5451.837890625,3870.328125,0.0,9264.9462890625
5011.55859375,3856.81787109375,8951.0283203125,5283.35546875,15568.7333984375,5541.642578125,8153.12109375,12361.208984375,4111.13134765625,6659.03076171875,4176.298828125,6821.15576171875,-5311.1708984375,0.0,11641.1845703125,11463.9599609375,801.08642578125,719.2293701171875,3656.54638671875,5511.44287109375,3502.368896484375,10338.6240234375,7286.07177734375,21863.779296875,-1236.59765625,228.8818359375,4587.96826171875,12346.1083984375,-5218.18798828125,2218.88232421875,17381.509765625,-10423.66015625,-3771.781982421875,2581.278564453125,9334.8818359375,11227.92578125,5545.6162109375,8700.6884765625,5099.7734375,-0.0,5593.2998046875,25841.39453125,29897.689453125,8080.005859375,17817.01953125,12587.70703125,-1711.0506591796875,-3370.444091796875,4061.857666015625,12695.7890625,10484.0595703125,12590.0908203125,10015.96484375,1090.36767578125,-1832.6441650390625,8109.41015625,0.0,4036.426513671875,7463.29638671875,6120.205078125,4787.4453125,9722.7099609375,9499.390625,15703.8369140625,-12233.2568359375,2667.109130859375,10749.4990234375,7055.6005859375,5448.6591796875,3906.8857421875,0.0,9296.734375
5021.89013671875,3847.28125,8972.4853515625,5245.208984375,15568.7333984375,5551.17919921875,8161.8623046875,12381.0771484375,4122.25732421875,6678.1044921875,4187.42529296875,6829.8974609375,-5324.681640625,0.0,11645.953125,11484.623046875,805.06005859375,722.4083251953125,3666.877685546875,5526.54248046875,3502.368896484375,10342.59765625,7292.4296875,21874.904296875,-1215.934814453125,234.44493103027344,4612.6044921875,12363.5927734375,-5215.00927734375,2235.571533203125,17384.6875,-10406.970703125,-3773.371337890625,2562.205078125,9338.85546875,11233.4892578125,5554.35791015625,8713.404296875,5131.5625,-0.0,5588.53125,25846.958984375,29904.046875,8091.9267578125,17828.146484375,12604.3955078125,-1691.9771728515625,-3373.622802734375,4057.08935546875,12708.5048828125,10489.623046875,12608.369140625,9997.685546875,1107.0570068359375,-1823.107421875,8116.56298828125,0.0,4056.294921875,7468.859375,6145.63623046875,4789.8291015625,9731.4521484375,9510.517578125,15716.552734375,-12227.6943359375,2676.64599609375,10755.0625,7065.931640625,5458.99072265625,3927.548828125,0.0,9326.9345703125
5021.89013671875,3859.996826171875,8967.716796875,5222.9560546875,15576.6806640625,5547.20556640625,8162.65771484375,12372.3349609375,4115.1044921875,6668.56787109375,4184.24609375,6831.4873046875,-5331.83447265625,0.0,11648.3369140625,11475.880859375,803.4705810546875,722.4083251953125,3666.0830078125,5520.9794921875,3505.5478515625,10340.2138671875,7294.01904296875,21872.51953125,-1211.1663818359375,233.65020751953125,4626.115234375,12357.2353515625,-5213.41943359375,2240.340087890625,17387.072265625,-10404.5869140625,-3770.1923828125,2551.078857421875,9342.830078125,11232.693359375,5557.537109375,8711.0205078125,5122.02587890625,-0.0,5607.60498046875,25843.779296875,29914.37890625,8085.568359375,17828.94140625,12598.0380859375,-1691.9771728515625,-3376.007080078125,4073.778564453125,12706.916015625,10492.0068359375,12598.83203125,10000.865234375,1109.441162109375,-1838.207275390625,8118.15283203125,0.0,4049.936767578125,7456.14404296875,6131.3310546875,4786.650390625,9729.8623046875,9507.3388671875,15703.04296875,-12229.283203125,2679.82470703125,10755.8564453125,7056.39501953125,5463.7587890625,3898.143798828125,0.0,9311.8349609375
5020.30029296875,3871.917724609375,8935.1337890625,5259.513671875,15591.7802734375,5551.9736328125,8172.98876953125,12369.9501953125,4118.28369140625,6668.56787109375,4190.603515625,6836.25537109375,-5315.939453125,0.0,11656.2841796875,11473.49609375,810.6231689453125,731.945068359375,3672.440673828125,5521.7744140625,3518.263671875,10351.33984375,7305.1455078125,21878.083984375,-1201.629638671875,242.39222717285156,4631.67822265625,12355.6455078125,-5207.0615234375,2250.67138671875,17397.404296875,-10402.9970703125,-3760.65576171875,2570.15234375,9354.7509765625,11239.8466796875,5567.86865234375,8714.9931640625,5088.6474609375,-0.0,5633.8310546875,25856.494140625,29926.30078125,8089.54248046875,17836.888671875,12598.83203125,-1688.79833984375,-3380.775390625,4093.64697265625,12706.916015625,10501.5439453125,12597.2431640625,10011.1962890625,1107.0570068359375,-1831.0546875,8122.9208984375,0.0,4042.7841796875,7459.322265625,6128.94677734375,4794.59765625,9737.0146484375,9513.6953125,15695.890625,-12223.720703125,2687.77197265625,10760.625,7072.2900390625,5463.7587890625,3909.269775390625,0.0,9300.708984375
5041.75830078125,3870.328125,8944.6708984375,5278.58740234375,15583.8330078125,5559.92138671875,8172.98876953125,12378.6923828125,4123.05224609375,6678.1044921875,4199.34619140625,6835.46044921875,-5319.91357421875,0.0,11657.8740234375,11482.23828125,812.212646484375,732.73974609375,3674.824951171875,5528.1318359375,3511.111083984375,10357.697265625,7303.55615234375,21883.646484375,-1196.0665283203125,244.77639770507812,4623.73095703125,12362.7978515625,-5207.0615234375,2254.64501953125,17397.404296875,-10400.61328125,-3769.397705078125,2574.920654296875,9349.1865234375,11243.8203125,5567.86865234375,8719.76171875,5084.67333984375,-0.0,5598.068359375,25873.98046875,29923.916015625,8095.10498046875,17838.478515625,12606.7802734375,-1679.2615966796875,-3413.359375,4089.673583984375,12710.0947265625,10501.5439453125,12608.369140625,10017.5546875,1104.6727294921875,-1818.3389892578125,8130.8681640625,0.0,4048.347412109375,7465.6806640625,6144.841796875,4798.5712890625,9739.3994140625,9519.259765625,15710.1953125,-12219.7470703125,2688.56689453125,10763.8046875,7090.568359375,5459.78564453125,3942.6484375,0.0,9319.7822265625
5060.037109375,3863.970458984375,8959.7705078125,5260.30859375,15576.6806640625,5556.7421875,8169.01513671875,12377.8984375,4126.23095703125,6674.92529296875,4197.75634765625,6826.71875,-5315.939453125,0.0,11660.2578125,11479.8544921875,809.8284301757812,727.9713745117188,3670.8515625,5528.1318359375,3504.753173828125,10355.3134765625,7298.78759765625,21882.056640625,-1201.629638671875,238.4185791015625,4626.115234375,12360.4130859375,-5203.8828125,2247.492431640625,17391.83984375,-10405.380859375,-3774.166015625,2578.099609375,9344.4189453125,11243.025390625,5563.89453125,8716.5830078125,5101.36279296875,-0.0,5591.71044921875,25870.80078125,29917.55859375,8091.13232421875,17835.298828125,12603.6005859375,-1683.235107421875,-3414.154052734375,4068.2158203125,12706.1201171875,10504.72265625,12606.7802734375,10022.322265625,1089.5728759765625,-1812.7760009765625,8123.71533203125,0.0,4045.16845703125,7472.0380859375,6140.86767578125,4792.21337890625,9737.8095703125,9516.875,15718.1416015625,-12220.5419921875,2683.003662109375,10769.3671875,7070.7001953125,5458.99072265625,3918.01220703125,0.0,9319.7822265625
5067.189453125,3853.638916015625,8962.94921875,5304.0185546875,15583.0380859375,5558.33203125,8171.39892578125,12379.4873046875,4131.7939453125,6669.3623046875,4203.3193359375,6829.10302734375,-5299.25,0.0,11666.615234375,11481.4443359375,814.5968017578125,731.945068359375,3674.0302734375,5528.1318359375,3512.700439453125,10359.287109375,7303.55615234375,21883.646484375,-1193.682373046875,247.955322265625,4628.49951171875,12365.181640625,-5189.57763671875,2255.439697265625,17395.814453125,-10408.560546875,-3751.913818359375,2593.994140625,9348.392578125,11243.8203125,5564.689453125,8719.76171875,5105.33642578125,-0.0,5599.65771484375,25863.6484375,29921.53125,8094.310546875,17836.888671875,12602.8056640625,-1684.8245849609375,-3361.701904296875,4081.72607421875,12707.7099609375,10509.4912109375,12607.57421875,10031.859375,1065.7310791015625,-1811.981201171875,8123.71533203125,0.0,4038.015869140625,7487.13818359375,6135.3046875,4795.392578125,9739.3994140625,9517.669921875,15714.9638671875,-12211.7998046875,2686.977294921875,10777.314453125,7046.8583984375,5479.65380859375,3874.302001953125,0.0,9291.171875
5044.93701171875,3819.465576171875,8956.591796875,5305.6083984375,15566.3486328125,5542.43701171875,8154.7099609375,12360.4130859375,4112.720703125,6643.13671875,4189.0146484375,6816.38720703125,-5311.9658203125,0.0,11647.5419921875,11463.1650390625,801.08642578125,716.0504760742188,3655.75146484375,5505.0849609375,3496.805908203125,10344.1875,7285.27685546875,21865.3671875,-1201.629638671875,234.44493103027344,4610.22021484375,12350.08203125,-5197.52490234375,2241.134765625,17380.71484375,-10425.25,-3770.9873046875,2584.45751953125,9334.0869140625,11226.3369140625,5545.6162109375,8700.6884765625,5073.54736328125,-0.0,5597.2734375,25848.546875,29902.458984375,8078.416015625,17818.609375,12581.3486328125,-1691.1824951171875,-3364.880859375,4069.01025390625,12697.37890625,10492.8017578125,12587.70703125,10015.169921875,1045.068115234375,-1835.0283203125,8111.0,0.0,3995.8955078125,7469.654296875,6113.84716796875,4789.0341796875,9721.1201171875,9497.8017578125,15683.173828125,-12219.7470703125,2674.26171875,10756.65234375,7021.42724609375,5473.2958984375,3846.486328125,0.0,9255.4091796875
5007.5849609375,3778.9345703125,8920.033203125,5224.5458984375,15539.328125,5509.853515625,8124.5107421875,12320.677734375,4081.72607421875,6603.39990234375,4157.22509765625,6794.134765625,-5343.75537109375,0.0,11625.2900390625,11423.4287109375,771.6814575195312,685.0560302734375,3621.578125,5468.52734375,3471.37451171875,10307.6298828125,7255.0771484375,21833.578125,-1227.0609130859375,200.2716064453125,4582.4052734375,12311.140625,-5232.4931640625,2214.90869140625,17350.515625,-10448.296875,-3804.365966796875,2537.568359375,9303.8876953125,11195.341796875,5518.59521484375,8666.515625,5078.31591796875,-0.0,5577.4052734375,25813.580078125,29874.642578125,8045.83251953125,17789.205078125,12545.5859375,-1738.8662109375,-3385.5439453125,4044.3740234375,12665.5888671875,10468.9599609375,12547.9697265625,9988.9443359375,1026.789306640625,-1842.9755859375,8082.3896484375,0.0,3959.337646484375,7436.275390625,6070.93212890625,4767.57666015625,9690.125,9463.6279296875,15634.6953125,-12248.3564453125,2644.856689453125,10732.0146484375,6979.306640625,5454.22216796875,3803.571044921875,0.0,9203.751953125
4975.7958984375,3755.88720703125,8927.9814453125,5217.3935546875,15544.0966796875,5509.853515625,8121.3310546875,12323.8564453125,4085.699462890625,6612.9365234375,4150.07275390625,6797.3134765625,-5346.1396484375,0.0,11626.083984375,11423.4287109375,771.6814575195312,685.0560302734375,3621.578125,5472.50146484375,3473.7587890625,10307.6298828125,7255.0771484375,21833.578125,-1257.2606201171875,203.4505157470703,4576.841796875,12309.55078125,-5245.208984375,2218.88232421875,17350.515625,-10456.244140625,-3800.39208984375,2536.773681640625,9305.4775390625,11193.751953125,5518.59521484375,8666.515625,5032.22119140625,-0.0,5590.12060546875,25815.16796875,29871.462890625,8043.4482421875,17791.58984375,12546.3798828125,-1765.09228515625,-3381.570068359375,4029.27392578125,12664.794921875,10468.1650390625,12547.9697265625,9988.9443359375,1021.2262573242188,-1853.30712890625,8082.3896484375,0.0,3989.53759765625,7448.9912109375,6070.93212890625,4761.21923828125,9690.125,9465.2177734375,15637.875,-12257.8935546875,2644.06201171875,10735.1943359375,6996.79052734375,5455.81201171875,3824.23388671875,0.0,9218.8515625
4960.69580078125,3779.729248046875,8928.775390625,5250.77197265625,15544.8916015625,5516.2109375,8125.30517578125,12332.5986328125,4084.1103515625,6621.6787109375,4160.404296875,6802.876953125,-5340.576171875,0.0,11621.31640625,11433.7607421875,781.2182006835938,689.0296630859375,3627.93603515625,5477.26953125,3476.142822265625,10317.166015625,7259.845703125,21840.73046875,-1264.4132080078125,208.21888732910156,4576.04736328125,12319.087890625,-5238.85107421875,2214.90869140625,17358.4609375,-10441.939453125,-3789.265869140625,2546.310546875,9307.861328125,11201.69921875,5520.18505859375,8675.2578125,5110.10498046875,-0.0,5572.63720703125,25820.732421875,29874.642578125,8049.8056640625,17793.177734375,12554.328125,-1724.56103515625,-3383.15966796875,4022.916259765625,12669.5634765625,10464.19140625,12558.30078125,10000.865234375,1022.815673828125,-1862.8438720703125,8082.3896484375,0.0,4007.81640625,7438.65966796875,6082.05810546875,4760.42431640625,9695.689453125,9473.9599609375,15651.384765625,-12257.8935546875,2648.03564453125,10729.630859375,7012.68505859375,5439.9169921875,3848.075927734375,0.0,9232.361328125
5012.353515625,3851.254638671875,8954.20703125,5252.361328125,15555.22265625,5531.31103515625,8141.2001953125,12343.724609375,4092.0576171875,6635.98388671875,4177.88818359375,6817.18212890625,-5318.32373046875,0.0,11635.62109375,11447.2705078125,792.3444213867188,701.745361328125,3643.83056640625,5489.1904296875,3483.29541015625,10326.703125,7274.94580078125,21854.2421875,-1235.00830078125,223.31874084472656,4596.7099609375,12332.5986328125,-5221.36669921875,2226.034912109375,17368.79296875,-10414.123046875,-3792.44482421875,2551.87353515625,9321.3720703125,11214.416015625,5534.490234375,8691.1513671875,5168.1201171875,-0.0,5571.84228515625,25835.83203125,29888.94921875,8063.31640625,17806.6875,12570.2216796875,-1695.1561279296875,-3391.901611328125,4049.936767578125,12684.6630859375,10479.291015625,12572.6064453125,10009.6064453125,1072.0888671875,-1841.38623046875,8091.9267578125,0.0,4035.631591796875,7447.4013671875,6094.77392578125,4778.703125,9709.19921875,9485.880859375,15672.048828125,-12245.97265625,2659.161865234375,10743.1416015625,7023.8115234375,5417.6650390625,3863.175537109375,0.0,9255.4091796875
5071.1630859375,3887.812255859375,8977.25390625,5252.361328125,15564.7587890625,5548.00048828125,8155.50537109375,12359.619140625,4111.13134765625,6650.2890625,4196.1669921875,6837.0498046875,-5301.63427734375,0.0,11651.515625,11459.986328125,808.239013671875,716.84521484375,3658.930419921875,5508.26416015625,3496.010986328125,10341.8037109375,7287.6611328125,21869.341796875,-1197.656005859375,241.5974884033203,4607.0419921875,12348.4921875,-5202.29345703125,2235.571533203125,17383.89453125,-10395.8447265625,-3781.318603515625,2564.58935546875,9335.6767578125,11230.3095703125,5548.79541015625,8704.662109375,5129.97314453125,-0.0,5577.4052734375,25850.931640625,29902.458984375,8081.59521484375,17820.19921875,12583.732421875,-1669.724853515625,-3368.8544921875,4065.036865234375,12702.1474609375,10493.595703125,12586.1171875,10030.26953125,1110.23583984375,-1812.7760009765625,8106.2314453125,0.0,4050.731689453125,7465.6806640625,6111.462890625,4804.92919921875,9725.09375,9501.7744140625,15690.3271484375,-12219.7470703125,2678.2353515625,10759.0361328125,7046.8583984375,5452.6328125,3875.891357421875,0.0,9270.5087890625
5060.037109375,3866.354736328125,8967.716796875,5241.2353515625,15559.1962890625,5536.07958984375,8144.37890625,12350.876953125,4103.18359375,6643.13671875,4194.57763671875,6816.38720703125,-5334.21826171875,0.0,11638.0048828125,11452.833984375,793.13916015625,707.3084716796875,3650.1884765625,5500.31640625,3484.090087890625,10329.0869140625,7275.740234375,21856.626953125,-1207.1927490234375,226.49765014648438,4589.5576171875,12340.5458984375,-5227.724609375,2214.90869140625,17371.97265625,-10418.8916015625,-3783.702880859375,2554.257568359375,9326.9345703125,11216.7998046875,5540.052734375,8694.3310546875,5121.23095703125,-0.0,5567.86865234375,25832.65234375,29892.921875,8071.26318359375,17812.251953125,12575.78515625,-1673.698486328125,-3372.828125,4070.60009765625,12690.2265625,10482.470703125,12576.580078125,10026.2958984375,1091.162353515625,-1841.38623046875,8083.9794921875,0.0,4022.916259765625,7455.34912109375,6105.89990234375,4784.26611328125,9714.7626953125,9491.443359375,15686.353515625,-12235.6416015625,2659.956787109375,10747.9091796875,7037.32177734375,5442.30126953125,3878.275634765625,0.0,9279.2509765625
5055.2685546875,3867.1494140625,8964.5390625,5251.56640625,15575.8857421875,5555.15283203125,8155.50537109375,12372.3349609375,4114.3095703125,6659.82568359375,4209.67724609375,6823.53955078125,-5338.98681640625,0.0,11646.748046875,11475.0859375,801.8811645507812,721.6135864257812,3662.109375,5514.62158203125,3496.010986328125,10341.8037109375,7288.4560546875,21871.724609375,-1197.656005859375,244.77639770507812,4604.65771484375,12362.0029296875,-5227.724609375,2231.597900390625,17383.09765625,-10410.1494140625,-3774.960693359375,2565.3837890625,9339.650390625,11231.8994140625,5551.17919921875,8709.4306640625,5136.3310546875,-0.0,5578.99462890625,25850.138671875,29903.25390625,8087.158203125,17823.376953125,12590.884765625,-1670.51953125,-3376.8017578125,4076.957763671875,12706.916015625,10488.828125,12597.2431640625,10036.6279296875,1090.36767578125,-1819.928466796875,8101.46337890625,0.0,4032.453125,7465.6806640625,6129.74169921875,4794.59765625,9728.2724609375,9504.9541015625,15703.8369140625,-12229.283203125,2670.2880859375,10754.267578125,7028.57958984375,5450.24853515625,3903.706787109375,0.0,9304.6826171875
5056.85791015625,3883.0439453125,8978.84375,5276.998046875,15597.34375,5574.2265625,8175.373046875,12392.998046875,4129.40966796875,6674.130859375,4226.36669921875,6841.818359375,-5312.7607421875,0.0,11658.6689453125,11495.7490234375,820.9546508789062,740.6870727539062,3682.7724609375,5530.51611328125,3517.46875,10362.4658203125,7309.11865234375,21890.005859375,-1181.7613525390625,265.4393615722656,4630.0888671875,12380.2822265625,-5205.47265625,2257.823974609375,17401.376953125,-10399.0244140625,-3756.68212890625,2586.841552734375,9358.7236328125,11250.1787109375,5568.6630859375,8726.9140625,5125.99951171875,-0.0,5604.42578125,25876.36328125,29922.326171875,8108.61572265625,17840.06640625,12608.369140625,-1663.366943359375,-3371.23876953125,4088.878662109375,12729.16796875,10501.5439453125,12619.4951171875,10052.521484375,1103.083251953125,-1792.1129150390625,8122.9208984375,0.0,4061.063232421875,7487.13818359375,6144.046875,4804.13427734375,9748.1416015625,9523.232421875,15717.34765625,-12212.59375,2684.59326171875,10765.3935546875,7014.2744140625,5456.6064453125,3904.501708984375,0.0,9315.013671875
5032.22119140625,3857.612548828125,8975.6650390625,5265.87158203125,15583.8330078125,5562.3056640625,8164.24658203125,12387.4345703125,4117.48876953125,6660.6201171875,4205.70361328125,6828.30810546875,-5318.32373046875,0.0,11645.953125,11492.5703125,808.239013671875,727.9713745117188,3673.235595703125,5517.80078125,3504.753173828125,10349.7509765625,7297.99267578125,21878.876953125,-1208.7822265625,252.72369384765625,4611.81005859375,12370.74609375,-5212.625,2249.081787109375,17388.662109375,-10414.123046875,-3767.013671875,2573.3310546875,9346.0078125,11239.8466796875,5559.12646484375,8719.76171875,5121.23095703125,-0.0,5598.068359375,25863.6484375,29910.40625,8099.87353515625,17828.94140625,12600.421875,-1681.645751953125,-3377.5966796875,4072.984130859375,12722.015625,10489.623046875,12616.31640625,10036.6279296875,1080.0361328125,-1816.74951171875,8113.38427734375,0.0,4068.2158203125,7463.29638671875,6140.86767578125,4787.4453125,9735.4248046875,9511.3115234375,15701.4521484375,-12226.1044921875,2669.493408203125,10752.677734375,7011.890625,5451.04345703125,3876.68603515625,0.0,9292.76171875
5025.06884765625,3805.955078125,8935.9287109375,5263.4873046875,15563.1708984375,5533.6953125,8146.7626953125,12353.2607421875,4099.21044921875,6635.18896484375,4177.09375,6808.43994140625,-5338.19189453125,0.0,11641.1845703125,11457.6025390625,782.8076782226562,702.5401000976562,3649.393798828125,5494.75341796875,3480.11669921875,10323.5244140625,7275.740234375,21855.83203125,-1229.445068359375,222.5240020751953,4595.12109375,12338.9560546875,-5234.08251953125,2222.06103515625,17362.435546875,-10434.787109375,-3798.008056640625,2548.694580078125,9323.755859375,11216.7998046875,5541.642578125,8693.5361328125,5111.6943359375,-0.0,5580.583984375,25833.44921875,29891.33203125,8072.05859375,17813.046875,12572.6064453125,-1715.0242919921875,-3380.775390625,4047.552490234375,12695.7890625,10483.2646484375,12580.5537109375,10007.22265625,1033.94189453125,-1851.7176513671875,8085.568359375,0.0,4030.06884765625,7447.4013671875,6102.720703125,4769.9609375,9712.37890625,9488.2646484375,15670.4580078125,-12251.5361328125,2642.472412109375,10747.115234375,6995.99609375,5439.9169921875,3854.433837890625,0.0,9266.5361328125
5036.98974609375,3809.928955078125,8954.20703125,5264.2822265625,15563.1708984375,5537.6689453125,8152.32568359375,12350.08203125,4108.7470703125,6634.39404296875,4183.451171875,6810.82373046875,-5334.21826171875,0.0,11641.1845703125,11452.833984375,788.3707885742188,708.8978881835938,3653.3671875,5499.52197265625,3483.29541015625,10329.0869140625,7277.330078125,21859.8046875,-1218.3189697265625,224.11346435546875,4595.12109375,12340.5458984375,-5228.51953125,2213.319091796875,17367.205078125,-10427.6337890625,-3794.0341796875,2554.257568359375,9326.9345703125,11219.18359375,5546.4111328125,8698.3037109375,5124.41015625,-0.0,5567.07373046875,25837.421875,29893.716796875,8072.85302734375,17817.01953125,12571.017578125,-1688.79833984375,-3401.4384765625,4049.142333984375,12691.8154296875,10484.0595703125,12577.3740234375,10011.1962890625,1034.736572265625,-1838.207275390625,8098.28466796875,0.0,4007.81640625,7468.859375,6095.568359375,4783.4716796875,9716.3515625,9494.6220703125,15671.2529296875,-12241.2041015625,2652.80419921875,10747.115234375,6990.4326171875,5453.427734375,3836.155029296875,0.0,9260.177734375
5033.81103515625,3823.439453125,8975.6650390625,5258.71875,15578.26953125,5554.35791015625,8171.39892578125,12375.513671875,4136.5625,6674.130859375,4199.34619140625,6822.74462890625,-5327.8603515625,0.0,11653.900390625,11479.060546875,800.2916870117188,726.3819580078125,3674.824951171875,5537.6689453125,3497.6005859375,10343.392578125,7295.6083984375,21879.673828125,-1200.0401611328125,236.03439331054688,4615.78369140625,12363.5927734375,-5220.57177734375,2224.4453125,17382.302734375,-10418.8916015625,-3776.55029296875,2559.82080078125,9342.0341796875,11234.283203125,5564.689453125,8719.76171875,5119.6416015625,-0.0,5580.583984375,25852.521484375,29909.611328125,8092.72119140625,17840.861328125,12602.8056640625,-1671.314208984375,-3389.517578125,4060.268310546875,12706.1201171875,10498.3642578125,12603.6005859375,10023.9111328125,1049.8365478515625,-1812.7760009765625,8114.97412109375,0.0,4011.789794921875,7491.11181640625,6134.51025390625,4793.00830078125,9735.4248046875,9522.4384765625,15731.6533203125,-12227.6943359375,2665.519775390625,10760.625,7035.732421875,5472.50146484375,3896.55419921875,0.0,9335.6767578125
5021.09521484375,3821.05517578125,8958.9755859375,5255.54052734375,15584.6279296875,5556.7421875,8168.220703125,12374.71875,4130.9990234375,6670.95166015625,4197.75634765625,6825.12890625,-5337.39697265625,0.0,11649.1318359375,11477.470703125,801.08642578125,724.79248046875,3675.619873046875,5534.490234375,3499.98486328125,10341.0078125,7296.4033203125,21877.2890625,-1202.4244384765625,236.03439331054688,4614.1943359375,12364.3876953125,-5219.77734375,2227.624267578125,17381.509765625,-10417.3017578125,-3777.344970703125,2562.999755859375,9343.6240234375,11235.873046875,5562.3056640625,8718.1728515625,5095.7998046875,-0.0,5587.73681640625,25851.7265625,29910.40625,8094.310546875,17837.68359375,12603.6005859375,-1688.79833984375,-3361.701904296875,4072.189453125,12706.916015625,10492.8017578125,12601.216796875,10023.9111328125,1049.041748046875,-1813.5706787109375,8111.0,0.0,3986.358642578125,7481.5751953125,6136.09912109375,4788.23974609375,9736.220703125,9520.8486328125,15728.4736328125,-12226.8994140625,2662.3408203125,10757.4462890625,7043.6796875,5460.58056640625,3879.864990234375,0.0,9337.265625
5028.248046875,3829.797119140625,8955.001953125,5266.66650390625,15585.4228515625,5549.58984375,8164.24658203125,12355.6455078125,4113.51513671875,6646.31494140625,4191.3984375,6817.9765625,-5342.16552734375,0.0,11649.92578125,11456.0126953125,800.2916870117188,720.81884765625,3667.67236328125,5507.46923828125,3500.779296875,10341.0078125,7294.8134765625,21870.931640625,-1209.576904296875,228.8818359375,4608.63134765625,12346.1083984375,-5218.18798828125,2226.82958984375,17380.71484375,-10421.2763671875,-3770.1923828125,2559.82080078125,9342.0341796875,11229.5146484375,5555.94775390625,8708.63671875,5052.08984375,-0.0,5591.71044921875,25849.341796875,29910.40625,8083.9794921875,17828.94140625,12585.322265625,-1695.9508056640625,-3372.033447265625,4076.957763671875,12700.5576171875,10492.8017578125,12579.7587890625,10019.1435546875,1036.3260498046875,-1816.74951171875,8109.41015625,0.0,3987.153564453125,7468.06494140625,6108.2841796875,4784.26611328125,9729.8623046875,9508.1328125,15667.2802734375,-12229.283203125,2662.3408203125,10754.267578125,7043.6796875,5451.837890625,3867.944091796875,0.0,9268.919921875
5026.65869140625,3839.333740234375,8956.591796875,5236.466796875,15579.064453125,5532.900390625,8158.68359375,12340.5458984375,4107.1572265625,6629.6259765625,4183.451171875,6814.0029296875,-5342.96044921875,0.0,11645.158203125,11444.8857421875,790.7549438476562,712.87158203125,3656.54638671875,5495.54833984375,3493.626953125,10329.0869140625,7288.4560546875,21859.8046875,-1218.3189697265625,215.37144470214844,4607.0419921875,12321.47265625,-5221.36669921875,2228.4189453125,17371.97265625,-10420.4814453125,-3780.52392578125,2550.2841796875,9334.0869140625,11216.7998046875,5551.9736328125,8697.509765625,5108.51513671875,-0.0,5588.53125,25831.064453125,29904.046875,8065.70068359375,17822.583984375,12571.017578125,-1694.361328125,-3376.007080078125,4072.984130859375,12680.689453125,10488.828125,12568.6328125,10020.732421875,1056.1943359375,-1820.72314453125,8103.05322265625,0.0,4034.837158203125,7461.70654296875,6091.5947265625,4778.703125,9721.9150390625,9499.390625,15653.7685546875,-12233.2568359375,2659.956787109375,10753.47265625,7026.1953125,5449.45361328125,3851.254638671875,0.0,9226.0048828125
5013.14794921875,3853.638916015625,8955.001953125,5240.4404296875,15592.5751953125,5536.87451171875,8168.220703125,12359.619140625,4126.23095703125,6650.2890625,4185.041015625,6819.56640625,-5338.98681640625,0.0,11649.92578125,11463.9599609375,794.7285766601562,720.0241088867188,3667.67236328125,5517.005859375,3503.16357421875,10333.0615234375,7299.58203125,21867.751953125,-1219.1136474609375,229.6765594482422,4622.93603515625,12336.5712890625,-5219.77734375,2236.3662109375,17378.330078125,-10422.0703125,-3776.55029296875,2550.2841796875,9343.6240234375,11224.7470703125,5563.10009765625,8709.4306640625,5118.05224609375,-0.0,5609.1943359375,25835.037109375,29915.96875,8076.8271484375,17835.298828125,12589.294921875,-1686.4140625,-3385.5439453125,4085.699462890625,12680.689453125,10494.3916015625,12588.5009765625,10011.1962890625,1095.135986328125,-1823.107421875,8103.05322265625,0.0,4076.957763671875,7478.39599609375,6116.2314453125,4783.4716796875,9728.2724609375,9512.1064453125,15702.248046875,-12232.462890625,2665.519775390625,10759.830078125,7039.70556640625,5461.375,3871.123046875,0.0,9262.5615234375
5004.40576171875,3848.87060546875,8916.060546875,5273.02392578125,15606.8798828125,5549.58984375,8177.75732421875,12372.3349609375,4134.97314453125,6672.541015625,4184.24609375,6818.771484375,-5322.29736328125,0.0,11654.6943359375,11476.67578125,801.8811645507812,730.3555908203125,3679.59326171875,5532.10595703125,3519.05810546875,10344.1875,7310.70849609375,21878.083984375,-1211.961181640625,240.80276489257812,4622.93603515625,12352.466796875,-5207.8564453125,2235.571533203125,17388.662109375,-10421.2763671875,-3763.834716796875,2561.41015625,9357.9296875,11235.873046875,5574.2265625,8720.5576171875,5048.91064453125,-0.0,5652.10986328125,25850.931640625,29928.68359375,8089.54248046875,17845.630859375,12605.1904296875,-1722.1768798828125,-3407.796142578125,4098.41552734375,12694.9951171875,10499.16015625,12599.6279296875,9997.685546875,1099.109619140625,-1824.6968994140625,8103.05322265625,0.0,4076.162841796875,7476.806640625,6130.53662109375,4786.650390625,9739.3994140625,9523.232421875,15711.7841796875,-12230.873046875,2671.877685546875,10761.419921875,7061.16357421875,5470.1171875,3913.24365234375,0.0,9308.6552734375
4986.12744140625,3831.386474609375,8912.0869140625,5253.15625,15591.7802734375,5544.02685546875,8167.42626953125,12365.9775390625,4121.46240234375,6659.82568359375,4177.88818359375,6812.41357421875,-5313.55517578125,0.0,11651.515625,11469.5234375,797.11279296875,722.4083251953125,3668.46728515625,5516.2109375,3509.521484375,10339.4189453125,7298.78759765625,21870.13671875,-1202.4244384765625,233.65020751953125,4601.478515625,12346.1083984375,-5211.830078125,2228.4189453125,17380.71484375,-10426.044921875,-3773.371337890625,2559.026123046875,9345.2138671875,11228.720703125,5562.3056640625,8712.609375,5083.083984375,-0.0,5632.24169921875,25851.7265625,29912.791015625,8083.18408203125,17836.09375,12594.859375,-1731.713623046875,-3419.717041015625,4077.752685546875,12691.8154296875,10495.98046875,12592.474609375,9985.7646484375,1084.8045654296875,-1837.4124755859375,8096.69482421875,0.0,4046.758056640625,7474.42236328125,6121.0,4781.8818359375,9730.65625,9510.517578125,15678.40625,-12233.2568359375,2664.72509765625,10758.240234375,7051.62646484375,5455.01708984375,3902.117431640625,0.0,9294.3505859375
4994.07421875,3844.89697265625,8961.3603515625,5240.4404296875,15590.9853515625,5550.384765625,8173.783203125,12372.3349609375,4144.509765625,6663.79931640625,4193.78271484375,6829.8974609375,-5313.55517578125,0.0,11675.357421875,11475.0859375,804.2653198242188,726.3819580078125,3676.41455078125,5528.9267578125,3505.5478515625,10342.59765625,7301.96630859375,21878.083984375,-1188.9139404296875,236.03439331054688,4622.93603515625,12354.056640625,-5215.00927734375,2237.955810546875,17384.6875,-10406.970703125,-3768.60302734375,2564.58935546875,9347.59765625,11235.078125,5568.6630859375,8718.9677734375,5130.767578125,-0.0,5598.86328125,25849.341796875,29918.3515625,8088.748046875,17846.42578125,12598.0380859375,-1687.208740234375,-3379.18603515625,4082.52099609375,12702.94140625,10518.2333984375,12599.6279296875,10009.6064453125,1091.95703125,-1821.5179443359375,8110.20556640625,0.0,4041.98974609375,7503.03271484375,6122.5888671875,4802.544921875,9736.220703125,9521.6435546875,15694.2998046875,-12223.720703125,2674.26171875,10781.2880859375,7045.26904296875,5504.2900390625,3881.45458984375,0.0,9281.6357421875
5044.93701171875,3871.917724609375,9010.6328125,5288.1240234375,15602.111328125,5569.4580078125,8201.599609375,12400.9443359375,4178.6826171875,6701.9462890625,4214.44580078125,6849.765625,-5305.6083984375,0.0,11702.3779296875,11502.90234375,820.159912109375,741.4818115234375,3700.25634765625,5568.6630859375,3515.87939453125,10360.876953125,7319.4501953125,21899.541015625,-1183.3509521484375,252.72369384765625,4645.18896484375,12382.6669921875,-5201.49853515625,2255.439697265625,17399.787109375,-10391.87109375,-3752.70849609375,2590.0205078125,9361.107421875,11252.5625,5594.88916015625,8743.603515625,5141.89404296875,-0.0,5593.2998046875,25858.87890625,29939.015625,8112.58984375,17879.8046875,12629.826171875,-1659.393310546875,-3328.3232421875,4099.21044921875,12725.1943359375,10546.84375,12627.4423828125,10043.7802734375,1096.7254638671875,-1798.4708251953125,8131.6630859375,0.0,4071.39453125,7532.43798828125,6160.736328125,4812.08203125,9756.087890625,9551.0478515625,15750.7265625,-12212.59375,2686.977294921875,10808.30859375,7068.31591796875,5549.58984375,3933.906494140625,0.0,9348.392578125
5062.42138671875,3834.5654296875,8973.28125,5264.2822265625,15577.4755859375,5553.5634765625,8181.7314453125,12385.8447265625,4161.99365234375,6685.2568359375,4188.2197265625,6830.6923828125,-5319.11865234375,0.0,11684.1005859375,11487.8017578125,798.7022705078125,720.81884765625,3679.59326171875,5551.17919921875,3492.03759765625,10340.2138671875,7298.78759765625,21879.673828125,-1219.1136474609375,237.6238555908203,4630.8837890625,12364.3876953125,-5213.41943359375,2249.876708984375,17375.9453125,-10416.5078125,-3790.85546875,2569.357666015625,9336.4716796875,11232.693359375,5576.6103515625,8725.3251953125,5145.86767578125,-0.0,5568.6630859375,25846.162109375,29916.763671875,8094.310546875,17863.115234375,12612.3427734375,-1689.593017578125,-3349.781005859375,4069.80517578125,12709.2998046875,10527.7705078125,12613.9326171875,10030.26953125,1064.936279296875,-1836.6177978515625,8114.97412109375,0.0,4066.6259765625,7518.1328125,6150.404296875,4785.85595703125,9735.4248046875,9533.564453125,15736.421875,-12235.6416015625,2663.93017578125,10789.2353515625,7042.08984375,5529.7216796875,3912.448974609375,0.0,9338.85546875
5042.552734375,3824.23388671875,8941.4912109375,5254.74560546875,15563.1708984375,5549.58984375,8167.42626953125,12384.255859375,4142.919921875,6673.3359375,4178.6826171875,6823.53955078125,-5310.37646484375,0.0,11670.58984375,11489.3916015625,789.960205078125,712.87158203125,3670.8515625,5534.490234375,3484.090087890625,10331.4716796875,7289.2509765625,21871.724609375,-1231.829345703125,232.85548400878906,4623.73095703125,12361.208984375,-5211.830078125,2253.0556640625,17369.587890625,-10422.0703125,-3798.008056640625,2555.84716796875,9326.9345703125,11227.130859375,5562.3056640625,8717.3779296875,5126.79443359375,-0.0,5573.431640625,25842.189453125,29905.638671875,8091.13232421875,17845.630859375,12605.984375,-1733.3031005859375,-3365.67578125,4048.347412109375,12704.53125,10512.669921875,12613.1376953125,10031.859375,1062.5521240234375,-1834.233642578125,8110.20556640625,0.0,4056.294921875,7503.03271484375,6153.58349609375,4775.52392578125,9726.68359375,9520.8486328125,15715.7578125,-12241.2041015625,2659.161865234375,10774.9296875,7038.9111328125,5497.1376953125,3897.34912109375,0.0,9337.265625
5033.01611328125,3799.597412109375,8950.2333984375,5246.00341796875,15557.6064453125,5542.43701171875,8148.3525390625,12372.3349609375,4107.9521484375,6651.08349609375,4182.65673828125,6821.15576171875,-5323.091796875,0.0,11638.0048828125,11476.67578125,783.6024169921875,706.5137329101562,3655.75146484375,5505.0849609375,3479.32177734375,10325.908203125,7278.91943359375,21862.984375,-1231.829345703125,229.6765594482422,4604.65771484375,12353.2607421875,-5218.98291015625,2240.340087890625,17364.8203125,-10426.044921875,-3798.008056640625,2544.720947265625,9319.7822265625,11220.7724609375,5544.8212890625,8706.251953125,5075.931640625,-0.0,5577.4052734375,25838.216796875,29894.509765625,8083.18408203125,17818.609375,12590.0908203125,-1714.2296142578125,-3372.033447265625,4042.7841796875,12700.5576171875,10480.880859375,12600.421875,10024.70703125,1069.7047119140625,-1823.107421875,8102.2578125,0.0,4045.96337890625,7463.29638671875,6132.9208984375,4773.14013671875,9717.146484375,9501.7744140625,15675.2265625,-12240.41015625,2657.572509765625,10743.1416015625,7015.0693359375,5438.32763671875,3875.891357421875,0.0,9300.708984375
5034.60546875,3787.676513671875,8912.880859375,5231.69873046875,15544.8916015625,5522.5693359375,8126.89501953125,12337.3671875,4077.752685546875,6612.14208984375,4173.1201171875,6802.08203125,-5338.19189453125,0.0,11622.111328125,11439.3232421875,768.5025634765625,689.0296630859375,3631.114990234375,5468.52734375,3468.990234375,10312.3984375,7262.22998046875,21843.115234375,-1231.829345703125,212.19253540039062,4586.37841796875,12323.8564453125,-5234.08251953125,2202.98779296875,17351.30859375,-10452.2705078125,-3805.955078125,2539.157958984375,9306.271484375,11203.2890625,5523.36376953125,8680.8203125,4994.07421875,-0.0,5574.2265625,25821.52734375,29878.6171875,8056.16357421875,17793.974609375,12555.1220703125,-1705.487548828125,-3387.927978515625,4036.426513671875,12677.5107421875,10465.78125,12564.6591796875,9990.533203125,1051.4259033203125,-1840.5914306640625,8076.03173828125,0.0,4002.253173828125,7433.09619140625,6085.23681640625,4754.861328125,9696.4833984375,9473.9599609375,15628.337890625,-12250.7412109375,2639.293701171875,10729.630859375,6992.81689453125,5408.9228515625,3822.64453125,0.0,9205.341796875
5024.2744140625,3817.876220703125,8946.259765625,5223.7509765625,15543.3017578125,5520.9794921875,8128.48388671875,12334.982421875,4086.494384765625,6621.6787109375,4177.09375,6799.69775390625,-5350.90771484375,0.0,11629.263671875,11437.7333984375,770.88671875,690.619140625,3634.293701171875,5478.06396484375,3472.169189453125,10311.603515625,7261.43505859375,21842.322265625,-1225.471435546875,210.6030731201172,4577.63671875,12321.47265625,-5241.2353515625,2195.04052734375,17352.103515625,-10451.4765625,-3792.44482421875,2538.36328125,9306.271484375,11204.0830078125,5524.15869140625,8680.8203125,5012.353515625,-0.0,5558.33203125,25820.732421875,29875.4375,8056.9580078125,17797.947265625,12555.9169921875,-1696.7454833984375,-3400.6435546875,4042.7841796875,12677.5107421875,10471.34375,12560.685546875,9980.99609375,1039.5050048828125,-1847.7440185546875,8075.2373046875,0.0,3992.71630859375,7438.65966796875,6078.87890625,4754.861328125,9697.2783203125,9477.138671875,15650.5908203125,-12248.3564453125,2636.909423828125,10736.783203125,7017.45361328125,5430.38037109375,3850.4599609375,0.0,9214.8779296875
5009.17431640625,3836.94970703125,8957.3857421875,5234.08251953125,15554.427734375,5532.10595703125,8138.0205078125,12347.6982421875,4089.673583984375,6626.447265625,4188.2197265625,6806.0556640625,-5347.728515625,0.0,11630.05859375,11449.654296875,781.2182006835938,700.1558837890625,3644.62548828125,5482.83251953125,3479.32177734375,10319.55078125,7270.9716796875,21855.03515625,-1218.3189697265625,224.11346435546875,4590.3525390625,12334.1875,-5228.51953125,2202.98779296875,17360.845703125,-10437.1708984375,-3794.8291015625,2541.5419921875,9316.603515625,11215.2099609375,5532.900390625,8689.5625,5133.94677734375,-0.0,5564.689453125,25832.65234375,29886.564453125,8068.87890625,17801.919921875,12566.2490234375,-1687.208740234375,-3404.6171875,4055.5,12691.8154296875,10472.93359375,12573.4013671875,10009.6064453125,1060.962646484375,-1835.822998046875,8083.9794921875,0.0,4004.63720703125,7444.22314453125,6093.97900390625,4768.37158203125,9708.404296875,9485.880859375,15660.1279296875,-12236.435546875,2645.651611328125,10737.578125,7034.14306640625,5417.6650390625,3860.79150390625,0.0,9225.208984375
4994.869140625,3833.770751953125,8947.0546875,5240.4404296875,15554.427734375,5532.10595703125,8134.841796875,12338.9560546875,4080.93115234375,6616.11572265625,4184.24609375,6798.90283203125,-5339.78125,0.0,11626.8798828125,11440.9130859375,778.8340454101562,700.1558837890625,3640.651611328125,5475.6796875,3480.9111328125,10321.9345703125,7268.58740234375,21852.65234375,-1219.1136474609375,223.31874084472656,4589.5576171875,12331.8037109375,-5225.34033203125,2216.498046875,17360.052734375,-10437.9658203125,-3796.41845703125,2543.92626953125,9317.3984375,11216.00390625,5531.31103515625,8686.3828125,5124.41015625,-0.0,5572.63720703125,25837.421875,29884.97265625,8064.11083984375,17793.974609375,12559.0966796875,-1699.9244384765625,-3416.538330078125,4062.652587890625,12687.8427734375,10468.1650390625,12565.453125,10018.3486328125,1070.4993896484375,-1844.5650634765625,8080.80029296875,0.0,3982.38525390625,7438.65966796875,6082.05810546875,4767.57666015625,9707.6103515625,9478.728515625,15652.1796875,-12237.2314453125,2647.240966796875,10733.6044921875,7026.1953125,5407.33349609375,3844.10205078125,0.0,9209.3154296875
4985.33251953125,3791.650146484375,8957.3857421875,5251.56640625,15557.6064453125,5528.1318359375,8130.07373046875,12327.03515625,4076.162841796875,6602.60546875,4169.94091796875,6786.1875,-5328.6552734375,0.0,11613.369140625,11428.9921875,780.4234619140625,696.1822509765625,3635.088623046875,5468.52734375,3481.705810546875,10322.73046875,7266.20361328125,21847.8828125,-1230.2398681640625,219.3450927734375,4582.4052734375,12320.677734375,-5223.7509765625,2217.292724609375,17360.052734375,-10445.912109375,-3788.47119140625,2547.10498046875,9314.2197265625,11211.236328125,5525.74755859375,8680.8203125,5102.15771484375,-0.0,5578.99462890625,25838.216796875,29883.384765625,8056.9580078125,17789.205078125,12548.7646484375,-1711.845458984375,-3445.1484375,4062.652587890625,12679.89453125,10457.0390625,12552.73828125,9990.533203125,1025.199951171875,-1842.9755859375,8073.6474609375,0.0,3966.490234375,7430.71240234375,6064.57373046875,4753.271484375,9703.6357421875,9469.986328125,15645.822265625,-12241.2041015625,2641.677734375,10720.09375,6994.40625,5410.51220703125,3804.365966796875,0.0,9192.6259765625
5014.73779296875,3768.60302734375,8945.46484375,5280.9716796875,15568.7333984375,5536.87451171875,8139.6103515625,12343.724609375,4088.083740234375,6625.65234375,4171.5302734375,6794.134765625,-5322.29736328125,0.0,11622.111328125,11444.8857421875,788.3707885742188,704.9242553710938,3647.80419921875,5483.62744140625,3490.447998046875,10331.4716796875,7274.94580078125,21856.626953125,-1221.4979248046875,227.29237365722656,4585.583984375,12332.5986328125,-5222.9560546875,2212.5244140625,17367.998046875,-10437.1708984375,-3783.702880859375,2566.973388671875,9321.3720703125,11219.978515625,5536.07958984375,8691.1513671875,5060.83154296875,-0.0,5584.55810546875,25843.779296875,29891.33203125,8068.0849609375,17802.71484375,12567.04296875,-1706.2822265625,-3411.769775390625,4068.2158203125,12689.431640625,10467.3701171875,12570.2216796875,9992.123046875,1004.5369873046875,-1817.5443115234375,8089.54248046875,0.0,4006.22705078125,7434.68603515625,6090.00537109375,4760.42431640625,9713.1728515625,9485.0859375,15665.689453125,-12238.8203125,2643.267333984375,10731.220703125,7019.04296875,5427.20166015625,3851.254638671875,0.0,9237.1298828125
5048.1162109375,3805.16064453125,8921.623046875,5261.10302734375,15579.859375,5548.79541015625,8157.88916015625,12355.6455078125,4100.0048828125,6637.5732421875,4192.193359375,6822.74462890625,-5315.939453125,0.0,11641.1845703125,11456.0126953125,795.5233154296875,716.0504760742188,3659.72509765625,5496.34326171875,3501.57421875,10339.4189453125,7288.4560546875,21870.13671875,-1207.9874267578125,238.4185791015625,4611.81005859375,12345.314453125,-5217.3935546875,2231.597900390625,17378.330078125,-10420.4814453125,-3786.881591796875,2563.79443359375,9335.6767578125,11230.3095703125,5551.9736328125,8705.45703125,5097.38916015625,-0.0,5598.86328125,25849.341796875,29904.046875,8080.005859375,17821.7890625,12579.7587890625,-1696.7454833984375,-3357.728271484375,4065.036865234375,12701.3525390625,10485.6494140625,12584.52734375,10023.1171875,1042.6839599609375,-1813.5706787109375,8111.79443359375,0.0,4046.758056640625,7445.017578125,6103.515625,4781.8818359375,9725.888671875,9499.390625,15673.6376953125,-12225.310546875,2660.75146484375,10747.9091796875,7029.37451171875,5435.14892578125,3866.354736328125,0.0,9253.8193359375
5033.01611328125,3818.6708984375,8957.3857421875,5239.6455078125,15571.1171875,5546.4111328125,8154.7099609375,12354.8505859375,4107.1572265625,6638.3681640625,4194.57763671875,6821.9501953125,-5315.14501953125,0.0,11644.36328125,11456.0126953125,793.13916015625,712.87158203125,3658.1357421875,5500.31640625,3494.421630859375,10333.85546875,7284.482421875,21867.751953125,-1219.9083251953125,239.2133026123047,4609.42578125,12341.33984375,-5203.8828125,2234.77685546875,17376.7421875,-10408.560546875,-3794.0341796875,2551.87353515625,9330.9091796875,11226.3369140625,5549.58984375,8703.8681640625,5141.89404296875,-0.0,5584.55810546875,25846.162109375,29900.07421875,8077.62158203125,17820.19921875,12578.169921875,-1695.1561279296875,-3368.8544921875,4051.526611328125,12699.763671875,10487.2392578125,12582.142578125,10027.0908203125,1064.936279296875,-1827.875732421875,8114.1787109375,0.0,4043.5791015625,7468.06494140625,6101.92626953125,4778.703125,9722.7099609375,9499.390625,15676.021484375,-12234.8466796875,2667.90380859375,10750.2939453125,7029.37451171875,5457.4013671875,3855.228515625,0.0,9249.8466796875
5001.22705078125,3830.591796875,8976.4599609375,5250.77197265625,15583.0380859375,5542.43701171875,8153.91552734375,12355.6455078125,4107.9521484375,6637.5732421875,4184.24609375,6814.0029296875,-5311.9658203125,0.0,11636.416015625,11458.396484375,794.7285766601562,713.666259765625,3657.341064453125,5501.111328125,3497.6005859375,10334.6513671875,7286.86669921875,21866.1640625,-1215.934814453125,234.44493103027344,4605.4521484375,12343.724609375,-5205.47265625,2230.00830078125,17376.7421875,-10418.09765625,-3771.781982421875,2561.41015625,9334.8818359375,11224.7470703125,5549.58984375,8703.072265625,5081.49462890625,-0.0,5599.65771484375,25842.984375,29905.638671875,8076.03173828125,17817.81640625,12578.169921875,-1703.8980712890625,-3376.007080078125,4074.573486328125,12696.583984375,10479.291015625,12582.142578125,9973.048828125,1061.7574462890625,-1835.0283203125,8105.4375,0.0,4019.7373046875,7463.29638671875,6101.13134765625,4762.80810546875,9722.7099609375,9500.185546875,15673.6376953125,-12242.7939453125,2663.93017578125,10743.1416015625,7018.248046875,5458.1962890625,3856.81787109375,0.0,9253.025390625
4975.0009765625,3847.28125,8939.90234375,5272.2294921875,15592.5751953125,5551.17919921875,8159.47802734375,12373.923828125,4111.92578125,6643.13671875,4180.2724609375,6820.36083984375,-5296.0712890625,0.0,11636.416015625,11477.470703125,799.4969482421875,720.81884765625,3664.49365234375,5505.8798828125,3511.111083984375,10341.0078125,7294.8134765625,21872.51953125,-1218.3189697265625,238.4185791015625,4597.5048828125,12362.0029296875,-5205.47265625,2238.75048828125,17385.482421875,-10415.712890625,-3767.80810546875,2567.76806640625,9344.4189453125,11231.8994140625,5554.35791015625,8711.0205078125,5088.6474609375,-0.0,5640.1884765625,25850.138671875,29911.994140625,8086.36376953125,17823.376953125,12587.70703125,-1722.9715576171875,-3370.444091796875,4078.547119140625,12706.1201171875,10481.6748046875,12600.421875,9971.458984375,1044.2734375,-1825.4915771484375,8106.2314453125,0.0,4038.015869140625,7464.0908203125,6118.61572265625,4770.755859375,9729.8623046875,9505.7490234375,15676.021484375,-12239.615234375,2667.90380859375,10744.73046875,6987.25390625,5446.275390625,3841.718017578125,0.0,9260.9716796875
4955.1328125,3839.333740234375,8971.69140625,5277.79248046875,15583.8330078125,5555.94775390625,8164.24658203125,12387.4345703125,4116.69384765625,6646.31494140625,4202.52490234375,6825.12890625,-5302.42919921875,0.0,11647.5419921875,11491.775390625,805.06005859375,727.1766357421875,3669.261962890625,5508.26416015625,3511.90576171875,10347.3662109375,7298.78759765625,21878.876953125,-1204.80859375,244.77639770507812,4610.22021484375,12369.15625,-5207.0615234375,2250.67138671875,17390.251953125,-10413.3291015625,-3763.834716796875,2565.3837890625,9346.802734375,11239.0517578125,5560.71630859375,8718.9677734375,5137.12548828125,-0.0,5609.9892578125,25858.083984375,29911.19921875,8092.72119140625,17828.146484375,12596.4482421875,-1695.1561279296875,-3380.775390625,4071.39453125,12706.916015625,10489.623046875,12616.31640625,10013.580078125,1058.5784912109375,-1819.1337890625,8109.41015625,0.0,4061.857666015625,7464.0908203125,6143.251953125,4781.8818359375,9736.220703125,9510.517578125,15679.994140625,-12228.4892578125,2673.467041015625,10755.0625,6985.66455078125,5450.24853515625,3830.591796875,0.0,9259.3828125
4992.48486328125,3828.207763671875,8996.3271484375,5266.66650390625,15587.806640625,5556.7421875,8175.373046875,12375.513671875,4127.025390625,6667.77294921875,4214.44580078125,6828.30810546875,-5330.24462890625,0.0,11661.8466796875,11476.67578125,811.4179077148438,731.945068359375,3678.00390625,5524.15869140625,3511.111083984375,10352.9287109375,7307.529296875,21882.056640625,-1185.735107421875,244.77639770507812,4626.90966796875,12359.619140625,-5207.0615234375,2246.69775390625,17394.224609375,-10408.560546875,-3759.06640625,2572.536376953125,9349.1865234375,11243.025390625,5568.6630859375,8723.7353515625,5121.23095703125,-0.0,5587.73681640625,25860.46875,29920.736328125,8092.72119140625,17840.861328125,12599.6279296875,-1665.7510986328125,-3373.622802734375,4079.341796875,12708.5048828125,10503.927734375,12603.6005859375,10027.0908203125,1076.0625,-1810.3917236328125,8108.61572265625,0.0,4038.810791015625,7472.0380859375,6128.15234375,4793.00830078125,9740.98828125,9521.6435546875,15710.1953125,-12218.158203125,2669.493408203125,10770.162109375,7049.24267578125,5456.6064453125,3905.29638671875,0.0,9297.5302734375
5069.57373046875,3836.94970703125,8975.6650390625,5282.56103515625,15602.111328125,5557.537109375,8181.7314453125,12372.3349609375,4133.38330078125,6677.3095703125,4220.0087890625,6836.25537109375,-5338.19189453125,0.0,11670.58984375,11474.2919921875,812.212646484375,734.3292236328125,3681.9775390625,5533.6953125,3514.289794921875,10354.5185546875,7312.2978515625,21887.62109375,-1179.377197265625,243.18695068359375,4634.0625,12354.8505859375,-5203.08837890625,2248.287109375,17396.607421875,-10399.818359375,-3764.62939453125,2580.483642578125,9356.33984375,11246.9990234375,5575.021484375,8726.9140625,5161.76220703125,-0.0,5604.42578125,25858.87890625,29929.48046875,8093.51611328125,17846.42578125,12605.1904296875,-1662.572265625,-3362.49658203125,4102.388671875,12710.888671875,10515.8486328125,12600.421875,10056.49609375,1094.34130859375,-1794.4971923828125,8117.3583984375,0.0,4038.015869140625,7479.19091796875,6126.5625,4802.544921875,9748.1416015625,9527.2060546875,15725.2939453125,-12211.7998046875,2671.877685546875,10780.494140625,7075.46875,5463.7587890625,3921.985595703125,0.0,9321.3720703125
5090.23681640625,3845.691650390625,8947.849609375,5239.6455078125,15599.7275390625,5549.58984375,8172.98876953125,12368.361328125,4123.05224609375,6667.77294921875,4212.8564453125,6823.53955078125,-5331.03955078125,0.0,11661.8466796875,11471.1123046875,801.08642578125,726.3819580078125,3674.824951171875,5522.5693359375,3507.931884765625,10342.59765625,7304.3505859375,21878.083984375,-1188.9139404296875,238.4185791015625,4626.90966796875,12349.2880859375,-5205.47265625,2238.75048828125,17386.27734375,-10406.970703125,-3782.908203125,2564.58935546875,9350.7763671875,11238.2578125,5568.6630859375,8717.3779296875,5143.4833984375,-0.0,5621.115234375,25849.341796875,29921.53125,8087.158203125,17837.68359375,12599.6279296875,-1678.466796875,-3391.901611328125,4096.03125,12701.3525390625,10506.3125,12597.2431640625,10066.0322265625,1087.9835205078125,-1800.060302734375,8111.0,0.0,4047.552490234375,7465.6806640625,6128.15234375,4802.544921875,9740.193359375,9516.875,15705.4267578125,-12216.568359375,2666.314453125,10769.3671875,7066.7265625,5458.1962890625,3902.912109375,0.0,9312.6298828125
5067.189453125,3825.028564453125,8910.4970703125,5216.5986328125,15576.6806640625,5532.900390625,8155.50537109375,12353.2607421875,4106.36279296875,6639.95751953125,4183.451171875,6807.6455078125,-5347.728515625,0.0,11648.3369140625,11453.62890625,781.2182006835938,708.1031494140625,3657.341064453125,5501.111328125,3490.447998046875,10322.73046875,7284.482421875,21858.21484375,-1219.1136474609375,221.72927856445312,4610.22021484375,12337.3671875,-5227.724609375,2217.292724609375,17367.998046875,-10431.607421875,-3799.597412109375,2545.515869140625,9330.11328125,11217.59375,5551.17919921875,8700.6884765625,5081.49462890625,-0.0,5590.91552734375,25831.857421875,29901.662109375,8071.26318359375,17821.7890625,12578.169921875,-1709.461181640625,-3399.05419921875,4062.652587890625,12687.046875,10493.595703125,12580.5537109375,10034.2431640625,1068.115234375,-1824.6968994140625,8094.310546875,0.0,4027.6845703125,7459.322265625,6105.10498046875,4781.8818359375,9721.9150390625,9498.595703125,15676.8173828125,-12242.0,2648.830322265625,10756.65234375,7027.78466796875,5446.275390625,3853.638916015625,0.0,9262.5615234375
5056.06298828125,3831.386474609375,8959.7705078125,5254.74560546875,15587.0126953125,5550.384765625,8164.24658203125,12368.361328125,4119.078125,6643.13671875,4192.193359375,6830.6923828125,-5331.83447265625,0.0,11660.2578125,11470.3173828125,793.933837890625,720.0241088867188,3670.056640625,5507.46923828125,3499.98486328125,10340.2138671875,7297.99267578125,21871.724609375,-1208.7822265625,236.03439331054688,4618.962890625,12358.029296875,-5213.41943359375,2243.518798828125,17383.09765625,-10416.5078125,-3786.0869140625,2562.999755859375,9342.0341796875,11230.3095703125,5559.92138671875,8713.404296875,5095.0048828125,-0.0,5592.5048828125,25846.162109375,29912.791015625,8088.748046875,17832.9140625,12587.70703125,-1696.7454833984375,-3368.8544921875,4080.13671875,12706.1201171875,10503.927734375,12594.859375,10032.654296875,1089.5728759765625,-1812.7760009765625,8116.56298828125,0.0,4032.453125,7475.21728515625,6111.462890625,4797.77685546875,9733.8359375,9509.72265625,15668.0732421875,-12230.873046875,2668.698486328125,10766.9833984375,7009.50634765625,5468.52734375,3834.5654296875,0.0,9244.283203125
5043.34765625,3844.10205078125,9012.22265625,5279.38232421875,15603.701171875,5563.89453125,8184.90966796875,12385.05078125,4139.7412109375,6670.15673828125,4215.240234375,6843.408203125,-5288.9189453125,0.0,11667.4111328125,11488.5966796875,811.4179077148438,735.918701171875,3689.925048828125,5530.51611328125,3515.08447265625,10358.4931640625,7317.06640625,21890.798828125,-1187.324462890625,247.16058349609375,4635.65185546875,12366.771484375,-5190.37255859375,2252.260986328125,17399.787109375,-10406.970703125,-3763.039794921875,2575.71533203125,9357.134765625,11249.3828125,5580.583984375,8732.478515625,5125.99951171875,-0.0,5598.068359375,25861.263671875,29935.041015625,8102.2578125,17851.98828125,12610.7529296875,-1661.7774658203125,-3349.781005859375,4111.13134765625,12717.2470703125,10511.875,12611.548828125,10041.396484375,1090.36767578125,-1790.5235595703125,8128.48388671875,0.0,4053.11572265625,7487.13818359375,6138.4833984375,4808.90283203125,9752.9091796875,9531.974609375,15698.2744140625,-12208.62109375,2683.003662109375,10775.7255859375,7048.4482421875,5485.216796875,3892.580810546875,0.0,9280.8408203125
5037.78466796875,3824.23388671875,8985.99609375,5257.1298828125,15589.396484375,5551.9736328125,8176.962890625,12374.71875,4133.38330078125,6672.541015625,4204.90869140625,6825.923828125,-5296.0712890625,0.0,11661.052734375,11477.470703125,801.8811645507812,726.3819580078125,3683.567138671875,5528.1318359375,3503.95849609375,10344.982421875,7305.93994140625,21881.26171875,-1196.0665283203125,234.44493103027344,4617.373046875,12355.6455078125,-5199.1142578125,2237.955810546875,17387.8671875,-10418.8916015625,-3778.9345703125,2570.947021484375,9343.6240234375,11239.0517578125,5571.84228515625,8723.7353515625,5118.8466796875,-0.0,5582.96826171875,25850.138671875,29918.3515625,8091.13232421875,17847.21875,12605.1904296875,-1664.16162109375,-3364.086181640625,4085.699462890625,12697.37890625,10504.72265625,12602.01171875,10033.4482421875,1061.7574462890625,-1811.981201171875,8117.3583984375,0.0,4055.5,7479.98583984375,6132.1259765625,4794.59765625,9744.1669921875,9524.822265625,15705.4267578125,-12223.720703125,2669.493408203125,10769.3671875,7062.75341796875,5470.1171875,3912.448974609375,0.0,9302.298828125
5026.65869140625,3792.44482421875,8948.6435546875,5253.95068359375,15561.5810546875,5532.900390625,8151.53125,12352.466796875,4107.9521484375,6645.5205078125,4182.65673828125,6798.1083984375,-5332.62890625,0.0,11641.9794921875,11456.8076171875,778.8340454101562,703.3348388671875,3658.1357421875,5503.49560546875,3482.500732421875,10325.908203125,7278.91943359375,21859.8046875,-1226.2662353515625,214.57672119140625,4600.68359375,12335.77734375,-5218.18798828125,2211.729736328125,17363.23046875,-10439.5546875,-3805.16064453125,2553.462890625,9319.7822265625,11218.388671875,5546.4111328125,8701.4833984375,5092.62109375,-0.0,5564.689453125,25832.65234375,29892.921875,8070.46875,17822.583984375,12579.7587890625,-1692.77197265625,-3404.6171875,4039.605712890625,12677.5107421875,10484.8544921875,12579.7587890625,9996.890625,1026.789306640625,-1840.5914306640625,8094.310546875,0.0,4019.7373046875,7458.52783203125,6106.69482421875,4772.34521484375,9717.94140625,9499.390625,15676.021484375,-12245.177734375,2642.472412109375,10748.7041015625,7037.32177734375,5446.275390625,3872.71240234375,0.0,9263.3564453125
5021.09521484375,3803.571044921875,8954.20703125,5261.89794921875,15566.3486328125,5535.28466796875,8154.7099609375,12346.9033203125,4106.36279296875,6636.7783203125,4182.65673828125,6800.49267578125,-5326.27099609375,0.0,11649.92578125,11451.244140625,782.012939453125,707.3084716796875,3657.341064453125,5499.52197265625,3488.063720703125,10330.6767578125,7282.09814453125,21860.599609375,-1221.4979248046875,215.37144470214844,4604.65771484375,12331.8037109375,-5214.21435546875,2224.4453125,17368.79296875,-10437.9658203125,-3794.0341796875,2559.82080078125,9323.755859375,11219.978515625,5548.00048828125,8699.8935546875,5079.11083984375,-0.0,5574.2265625,25839.009765625,29897.689453125,8069.67431640625,17820.994140625,12574.990234375,-1696.7454833984375,-3417.3330078125,4057.88427734375,12682.2783203125,10492.8017578125,12574.1962890625,10001.6591796875,1033.147216796875,-1833.4388427734375,8102.2578125,0.0,4003.8427734375,7459.322265625,6096.36328125,4768.37158203125,9718.7353515625,9498.595703125,15668.0732421875,-12239.615234375,2647.240966796875,10757.4462890625,7026.1953125,5448.6591796875,3860.79150390625,0.0,9250.640625
5017.12158203125,3814.697265625,8968.5126953125,5234.876953125,15579.859375,5551.9736328125,8167.42626953125,12362.0029296875,4122.25732421875,6657.44140625,4193.78271484375,6810.029296875,-5315.939453125,0.0,11662.642578125,11465.5498046875,795.5233154296875,723.9977416992188,3671.64599609375,5517.80078125,3505.5478515625,10344.982421875,7297.19775390625,21874.904296875,-1204.80859375,229.6765594482422,4618.16796875,12346.1083984375,-5209.44580078125,2241.134765625,17384.6875,-10430.0185546875,-3771.781982421875,2573.3310546875,9338.85546875,11233.4892578125,5562.3056640625,8715.7890625,5067.189453125,-0.0,5593.2998046875,25855.69921875,29910.40625,8083.9794921875,17836.09375,12594.859375,-1694.361328125,-3414.154052734375,4074.573486328125,12690.2265625,10506.3125,12590.0908203125,10011.1962890625,1051.4259033203125,-1815.954833984375,8112.58984375,0.0,4023.710693359375,7476.806640625,6116.2314453125,4774.7294921875,9735.4248046875,9514.4912109375,15691.1220703125,-12230.0791015625,2663.135498046875,10768.5732421875,7054.0107421875,5455.01708984375,3894.170166015625,0.0,9285.609375
5008.37939453125,3789.265869140625,8951.0283203125,5240.4404296875,15574.2958984375,5543.23193359375,8161.8623046875,12362.0029296875,4122.25732421875,6661.4150390625,4184.24609375,6803.67138671875,-5344.5498046875,0.0,11655.490234375,11465.5498046875,791.5496826171875,719.2293701171875,3669.261962890625,5519.39013671875,3503.16357421875,10335.4453125,7293.22412109375,21870.931640625,-1220.703125,223.31874084472656,4612.6044921875,12343.724609375,-5229.314453125,2217.292724609375,17380.71484375,-10434.787109375,-3774.960693359375,2564.58935546875,9334.8818359375,11228.720703125,5555.15283203125,8711.0205078125,5029.04248046875,-0.0,5594.0947265625,25840.6015625,29903.25390625,8078.416015625,17832.12109375,12594.859375,-1709.461181640625,-3393.490966796875,4055.5,12679.89453125,10498.3642578125,12590.0908203125,10004.837890625,1022.815673828125,-1838.207275390625,8091.13232421875,0.0,4018.14794921875,7476.01171875,6124.17822265625,4770.755859375,9730.65625,9511.3115234375,15697.4794921875,-12242.0,2647.240966796875,10760.625,7054.8056640625,5453.427734375,3910.064697265625,0.0,9310.2451171875
4998.8427734375,3779.729248046875,8939.107421875,5271.4345703125,15574.2958984375,5548.00048828125,8165.0419921875,12364.3876953125,4119.873046875,6657.44140625,4184.24609375,6814.7978515625,-5339.78125,0.0,11656.2841796875,11464.7548828125,801.8811645507812,723.2030029296875,3670.056640625,5516.2109375,3510.316162109375,10340.2138671875,7295.6083984375,21875.69921875,-1209.576904296875,228.8818359375,4611.81005859375,12348.4921875,-5223.7509765625,2222.855712890625,17387.072265625,-10418.09765625,-3759.06640625,2561.41015625,9341.240234375,11234.283203125,5558.33203125,8712.609375,5013.14794921875,-0.0,5597.2734375,25842.984375,29904.841796875,8082.3896484375,17833.708984375,12593.26953125,-1710.2559814453125,-3375.21240234375,4061.063232421875,12688.63671875,10499.9541015625,12590.0908203125,10012.7861328125,1038.710205078125,-1866.8175048828125,8092.72119140625,0.0,4005.43212890625,7475.21728515625,6118.61572265625,4773.14013671875,9733.041015625,9512.9013671875,15687.1474609375,-12236.435546875,2651.214599609375,10762.21484375,7041.29541015625,5458.1962890625,3884.63330078125,0.0,9285.609375
5008.37939453125,3803.571044921875,8930.365234375,5295.27685546875,15580.654296875,5557.537109375,8169.01513671875,12369.15625,4123.05224609375,6658.23583984375,4185.83544921875,6823.53955078125,-5328.6552734375,0.0,11659.462890625,11470.3173828125,808.239013671875,730.3555908203125,3674.824951171875,5519.39013671875,3514.289794921875,10350.544921875,7298.78759765625,21883.646484375,-1200.0401611328125,239.2133026123047,4616.57861328125,12357.2353515625,-5215.8037109375,2233.1875,17393.431640625,-10411.7392578125,-3770.1923828125,2577.304931640625,9346.802734375,11243.8203125,5564.689453125,8718.1728515625,5098.18408203125,-0.0,5601.2470703125,25856.494140625,29911.19921875,8089.54248046875,17838.478515625,12594.859375,-1704.69287109375,-3368.8544921875,4071.39453125,12699.763671875,10501.5439453125,12594.0634765625,10012.7861328125,1065.7310791015625,-1866.8175048828125,8103.05322265625,0.0,4029.27392578125,7480.7802734375,6119.41015625,4771.55078125,9738.6044921875,9517.669921875,15685.55859375,-12234.0517578125,2655.98291015625,10764.5986328125,7038.9111328125,5462.16943359375,3875.891357421875,0.0,9272.892578125
5016.3271484375,3810.7236328125,8955.7958984375,5280.9716796875,15576.6806640625,5555.94775390625,8166.630859375,12377.1025390625,4123.8466796875,6665.388671875,4173.91455078125,6814.7978515625,-5319.11865234375,0.0,11649.1318359375,11479.060546875,805.06005859375,725.5872192382812,3674.0302734375,5524.15869140625,3507.931884765625,10344.982421875,7294.01904296875,21878.876953125,-1209.576904296875,233.65020751953125,4611.01513671875,12362.7978515625,-5220.57177734375,2233.1875,17387.072265625,-10424.455078125,-3772.57666015625,2571.74169921875,9339.650390625,11237.4619140625,5559.92138671875,8719.76171875,5131.5625,-0.0,5594.88916015625,25847.75390625,29907.2265625,8091.9267578125,17834.505859375,12600.421875,-1703.1033935546875,-3361.701904296875,4065.83154296875,12698.9677734375,10493.595703125,12602.8056640625,10015.96484375,1056.989013671875,-1821.5179443359375,8102.2578125,0.0,4074.573486328125,7471.2431640625,6133.71533203125,4764.39794921875,9734.630859375,9517.669921875,15699.068359375,-12234.0517578125,2648.830322265625,10755.8564453125,7047.6533203125,5462.16943359375,3904.501708984375,0.0,9295.9404296875
5006.7900390625,3811.518310546875,8974.0751953125,5247.5927734375,15579.064453125,5555.94775390625,8165.83642578125,12386.6396484375,4124.6416015625,6669.3623046875,4183.451171875,6810.029296875,-5311.9658203125,0.0,11641.9794921875,11488.5966796875,804.2653198242188,727.1766357421875,3675.619873046875,5526.54248046875,3510.316162109375,10341.8037109375,7296.4033203125,21880.46875,-1209.576904296875,235.2396697998047,4599.09423828125,12362.0029296875,-5215.00927734375,2232.392578125,17387.072265625,-10410.1494140625,-3770.9873046875,2560.615478515625,9341.240234375,11237.4619140625,5559.92138671875,8722.146484375,5102.15771484375,-0.0,5602.04150390625,25844.57421875,29908.814453125,8094.310546875,17837.68359375,12607.57421875,-1722.1768798828125,-3364.086181640625,4064.241943359375,12701.3525390625,10485.6494140625,12613.1376953125,10016.7587890625,1058.5784912109375,-1807.212890625,8098.28466796875,0.0,4082.52099609375,7466.47509765625,6150.404296875,4780.29248046875,9737.0146484375,9520.8486328125,15703.8369140625,-12233.2568359375,2654.3935546875,10750.2939453125,7050.83203125,5457.4013671875,3906.8857421875,0.0,9303.0927734375
5018.7109375,3831.386474609375,8973.28125,5254.74560546875,15600.5224609375,5568.6630859375,8180.1416015625,12388.2294921875,4126.23095703125,6659.03076171875,4201.73046875,6825.923828125,-5292.09765625,0.0,11663.4365234375,11490.185546875,816.9810180664062,739.892333984375,3686.745849609375,5521.7744140625,3525.416015625,10354.5185546875,7310.70849609375,21890.798828125,-1206.39794921875,251.928955078125,4614.1943359375,12369.9501953125,-5190.37255859375,2252.260986328125,17401.376953125,-10391.076171875,-3763.834716796875,2574.920654296875,9356.33984375,11248.5888671875,5571.84228515625,8729.298828125,5129.97314453125,-0.0,5628.267578125,25860.46875,29922.326171875,8103.84765625,17847.21875,12605.984375,-1708.66650390625,-3358.523193359375,4077.752685546875,12716.4521484375,10506.3125,12613.9326171875,10014.375,1079.241455078125,-1809.5970458984375,8116.56298828125,0.0,4066.6259765625,7470.44873046875,6140.0732421875,4802.544921875,9746.5517578125,9525.6162109375,15689.53125,-12218.9521484375,2675.056396484375,10770.95703125,7030.9638671875,5466.93798828125,3859.2021484375,0.0,9262.5615234375
4990.8955078125,3797.21337890625,8973.28125,5247.5927734375,15587.806640625,5552.7685546875,8171.39892578125,12367.56640625,4111.92578125,6645.5205078125,4193.78271484375,6814.0029296875,-5301.63427734375,0.0,11660.2578125,11471.9072265625,800.2916870117188,721.6135864257812,3670.8515625,5504.2900390625,3508.726806640625,10340.2138671875,7298.78759765625,21873.31640625,-1218.3189697265625,235.2396697998047,4622.93603515625,12353.2607421875,-5199.1142578125,2230.80322265625,17384.6875,-10412.5341796875,-3776.55029296875,2559.026123046875,9342.830078125,11231.8994140625,5563.89453125,8712.609375,5129.1787109375,-0.0,5608.39990234375,25845.369140625,29914.37890625,8087.158203125,17837.68359375,12587.70703125,-1691.9771728515625,-3378.391357421875,4069.80517578125,12700.5576171875,10503.927734375,12594.0634765625,9979.4072265625,1058.5784912109375,-1811.1864013671875,8103.05322265625,0.0,4053.91064453125,7452.169921875,6115.4365234375,4778.703125,9731.4521484375,9510.517578125,15668.869140625,-12226.1044921875,2655.98291015625,10766.9833984375,7015.86376953125,5457.4013671875,3845.691650390625,0.0,9239.5146484375
5016.3271484375,3805.955078125,8985.99609375,5249.18212890625,15587.0126953125,5557.537109375,8176.16748046875,12377.8984375,4130.9990234375,6668.56787109375,4205.70361328125,6820.36083984375,-5314.35009765625,0.0,11669.794921875,11479.8544921875,803.4705810546875,725.5872192382812,3678.00390625,5527.33740234375,3506.342529296875,10344.1875,7301.171875,21878.083984375,-1198.45068359375,241.5974884033203,4632.47314453125,12361.208984375,-5206.26708984375,2240.340087890625,17387.072265625,-10410.1494140625,-3776.55029296875,2560.615478515625,9345.2138671875,11236.66796875,5570.2529296875,8723.7353515625,5153.81494140625,-0.0,5598.86328125,25853.314453125,29919.1484375,8094.310546875,17846.42578125,12603.6005859375,-1665.7510986328125,-3374.41748046875,4076.162841796875,12706.1201171875,10511.875,12603.6005859375,9996.890625,1059.373291015625,-1799.2655029296875,8109.41015625,0.0,4049.142333984375,7479.19091796875,6129.74169921875,4784.26611328125,9737.0146484375,9522.4384765625,15703.8369140625,-12219.7470703125,2660.75146484375,10774.1357421875,7049.24267578125,5464.5537109375,3905.29638671875,0.0,9295.9404296875
5047.3212890625,3840.92333984375,8985.2021484375,5255.54052734375,15590.9853515625,5563.10009765625,8176.16748046875,12381.87109375,4138.9462890625,6674.130859375,4211.26708984375,6822.74462890625,-5338.19189453125,0.0,11667.4111328125,11483.828125,806.6495361328125,727.9713745117188,3681.9775390625,5533.6953125,3510.316162109375,10348.1611328125,7303.55615234375,21882.056640625,-1187.324462890625,248.75006103515625,4626.90966796875,12368.361328125,-5212.625,2238.75048828125,17390.251953125,-10406.1767578125,-3774.166015625,2568.562744140625,9348.392578125,11240.6416015625,5570.2529296875,8726.1201171875,5162.55712890625,-0.0,5601.2470703125,25856.494140625,29919.943359375,8100.6689453125,17847.21875,12608.369140625,-1654.625,-3364.086181640625,4096.826171875,12714.068359375,10510.28515625,12609.958984375,10029.4755859375,1072.0888671875,-1801.649658203125,8111.79443359375,0.0,4034.837158203125,7495.8798828125,6136.89404296875,4793.802734375,9739.3994140625,9525.6162109375,15709.400390625,-12220.5419921875,2663.93017578125,10774.9296875,7051.62646484375,5478.06396484375,3908.475341796875,0.0,9302.298828125
5014.73779296875,3826.6181640625,8951.0283203125,5240.4404296875,15573.501953125,5548.00048828125,8155.50537109375,12364.3876953125,4117.48876953125,6657.44140625,4186.63037109375,6808.43994140625,-5358.060546875,0.0,11642.7734375,11468.728515625,789.960205078125,712.0768432617188,3662.904052734375,5513.82666015625,3494.421630859375,10330.6767578125,7284.482421875,21866.1640625,-1212.755859375,234.44493103027344,4603.06787109375,12349.2880859375,-5238.05615234375,2223.650634765625,17372.765625,-10426.8388671875,-3790.85546875,2551.078857421875,9330.9091796875,11223.9521484375,5549.58984375,8707.046875,5120.43603515625,-0.0,5590.12060546875,25842.189453125,29900.07421875,8083.9794921875,17827.3515625,12590.0908203125,-1683.235107421875,-3389.517578125,4074.573486328125,12696.583984375,10487.2392578125,12593.26953125,10017.5546875,1056.1943359375,-1823.902099609375,8094.310546875,0.0,4040.400146484375,7468.859375,6121.0,4774.7294921875,9720.3251953125,9505.7490234375,15687.1474609375,-12242.7939453125,2644.06201171875,10751.8837890625,7035.732421875,5455.01708984375,3883.838623046875,0.0,9281.6357421875
4988.51171875,3817.08154296875,8947.849609375,5229.314453125,15566.3486328125,5540.052734375,8147.55712890625,12349.2880859375,4103.18359375,6631.21533203125,4179.4775390625,6802.876953125,-5340.576171875,0.0,11636.416015625,11449.654296875,783.6024169921875,704.9242553710938,3652.57275390625,5493.1640625,3488.8583984375,10322.73046875,7276.53515625,21857.419921875,-1227.0609130859375,225.7029266357422,4599.88916015625,12337.3671875,-5228.51953125,2227.624267578125,17367.205078125,-10433.9912109375,-3791.650146484375,2543.92626953125,9323.755859375,11216.00390625,5541.642578125,8694.3310546875,5106.92578125,-0.0,5581.37890625,25838.216796875,29892.126953125,8072.05859375,17816.224609375,12572.6064453125,-1692.77197265625,-3409.3857421875,4060.268310546875,12687.8427734375,10479.291015625,12575.78515625,10004.837890625,1047.4522705078125,-1828.6705322265625,8091.13232421875,0.0,4026.094970703125,7465.6806640625,6093.97900390625,4766.7822265625,9710.7890625,9493.033203125,15661.716796875,-12242.7939453125,2642.472412109375,10743.935546875,7003.1484375,5436.73828125,3825.823486328125,0.0,9232.361328125
4985.33251953125,3808.33935546875,8951.8232421875,5227.724609375,15554.427734375,5527.33740234375,8136.431640625,12338.9560546875,4100.7998046875,6626.447265625,4166.76171875,6791.75048828125,-5338.19189453125,0.0,11634.0322265625,11439.3232421875,775.6550903320312,695.3875122070312,3642.2412109375,5490.77978515625,3480.9111328125,10315.5771484375,7266.20361328125,21846.294921875,-1243.750244140625,210.6030731201172,4571.27880859375,12327.830078125,-5222.16162109375,2226.82958984375,17357.66796875,-10437.1708984375,-3794.0341796875,2537.568359375,9313.423828125,11206.4677734375,5532.10595703125,8687.1787109375,5089.44189453125,-0.0,5573.431640625,25826.294921875,29878.6171875,8060.93212890625,17808.279296875,12563.8642578125,-1698.3350830078125,-3412.564453125,4049.142333984375,12675.1259765625,10475.318359375,12565.453125,10005.6337890625,1028.3787841796875,-1841.38623046875,8078.416015625,0.0,4013.379638671875,7463.29638671875,6090.00537109375,4759.6298828125,9702.046875,9486.6748046875,15662.51171875,-12250.7412109375,2636.909423828125,10740.7568359375,7012.68505859375,5442.30126953125,3840.128662109375,0.0,9236.3359375
4998.04833984375,3805.955078125,8961.3603515625,5234.876953125,15566.3486328125,5535.28466796875,8150.73681640625,12352.466796875,4116.69384765625,6647.90478515625,4167.556640625,6798.90283203125,-5334.21826171875,0.0,11648.3369140625,11453.62890625,783.6024169921875,704.9242553710938,3655.75146484375,5511.44287109375,3490.447998046875,10324.3193359375,7277.330078125,21856.626953125,-1238.1871337890625,216.96090698242188,4591.14697265625,12337.3671875,-5218.18798828125,2218.88232421875,17366.41015625,-10438.759765625,-3786.881591796875,2541.5419921875,9324.55078125,11216.7998046875,5546.4111328125,8699.8935546875,5102.95263671875,-0.0,5585.3525390625,25833.44921875,29892.921875,8072.05859375,17824.96875,12579.7587890625,-1694.361328125,-3415.74365234375,4058.67919921875,12682.2783203125,10490.41796875,12579.7587890625,10012.7861328125,1035.5313720703125,-1836.6177978515625,8080.80029296875,0.0,4036.426513671875,7474.42236328125,6109.0791015625,4757.24560546875,9712.37890625,9500.185546875,15688.73828125,-12244.3837890625,2640.08837890625,10755.0625,7054.8056640625,5456.6064453125,3890.196533203125,0.0,9279.2509765625
5009.17431640625,3811.518310546875,8944.6708984375,5236.466796875,15582.244140625,5552.7685546875,8170.6044921875,12373.923828125,4135.767578125,6670.15673828125,4185.83544921875,6810.029296875,-5325.47607421875,0.0,11661.052734375,11474.2919921875,797.9075317382812,720.81884765625,3674.824951171875,5532.10595703125,3501.57421875,10340.2138671875,7296.4033203125,21873.31640625,-1221.4979248046875,232.0607452392578,4618.16796875,12358.029296875,-5215.8037109375,2223.650634765625,17379.919921875,-10418.8916015625,-3783.702880859375,2553.462890625,9340.4453125,11232.693359375,5564.689453125,8718.1728515625,5131.5625,-0.0,5598.068359375,25851.7265625,29915.173828125,8088.748046875,17844.8359375,12601.216796875,-1705.487548828125,-3419.717041015625,4075.368408203125,12700.5576171875,10506.3125,12601.216796875,10013.580078125,1049.041748046875,-1816.74951171875,8099.87353515625,0.0,4044.3740234375,7487.13818359375,6134.51025390625,4773.93505859375,9730.65625,9518.4638671875,15714.1689453125,-12232.462890625,2656.777587890625,10767.77734375,7085.80029296875,5472.50146484375,3927.548828125,0.0,9315.013671875
4997.25341796875,3790.060791015625,8920.8291015625,5265.87158203125,15581.4482421875,5553.5634765625,8169.01513671875,12375.513671875,4135.767578125,6676.51513671875,4185.041015625,6810.82373046875,-5326.27099609375,0.0,11660.2578125,11477.470703125,797.9075317382812,719.2293701171875,3673.235595703125,5534.490234375,3501.57421875,10340.2138671875,7296.4033203125,21874.109375,-1214.3453369140625,231.26602172851562,4615.78369140625,12363.5927734375,-5224.5458984375,2219.677001953125,17378.330078125,-10422.8662109375,-3788.47119140625,2560.615478515625,9339.650390625,11232.693359375,5563.10009765625,8718.9677734375,5099.7734375,-0.0,5599.65771484375,25849.341796875,29911.994140625,8089.54248046875,17844.8359375,12603.6005859375,-1741.2503662109375,-3401.4384765625,4074.573486328125,12703.736328125,10506.3125,12604.3955078125,10011.990234375,1043.4786376953125,-1823.902099609375,8105.4375,0.0,4027.6845703125,7493.49609375,6144.046875,4768.37158203125,9729.0673828125,9520.8486328125,15722.1162109375,-12237.2314453125,2657.572509765625,10766.9833984375,7079.4423828125,5470.91162109375,3939.4697265625,0.0,9333.29296875
5008.37939453125,3772.57666015625,8957.3857421875,5256.3349609375,15582.244140625,5544.02685546875,8161.06787109375,12364.3876953125,4125.4365234375,6657.44140625,4184.24609375,6806.0556640625,-5307.19775390625,0.0,11651.515625,11467.1396484375,792.3444213867188,713.666259765625,3664.49365234375,5519.39013671875,3499.190185546875,10334.6513671875,7288.4560546875,21866.1640625,-1213.550537109375,226.49765014648438,4603.86279296875,12349.2880859375,-5225.34033203125,2223.650634765625,17373.5625,-10433.9912109375,-3781.318603515625,2558.2314453125,9335.6767578125,11225.541015625,5555.94775390625,8709.4306640625,5069.57373046875,-0.0,5612.37353515625,25836.626953125,29905.638671875,8080.80029296875,17834.505859375,12589.294921875,-1722.9715576171875,-3381.570068359375,4057.88427734375,12694.9951171875,10495.185546875,12590.884765625,10019.1435546875,1040.2998046875,-1833.4388427734375,8101.46337890625,0.0,4021.32666015625,7480.7802734375,6123.3837890625,4764.39794921875,9722.7099609375,9508.1328125,15699.86328125,-12241.2041015625,2651.214599609375,10758.240234375,7039.70556640625,5473.2958984375,3898.143798828125,0.0,9295.1455078125
5008.37939453125,3779.729248046875,8953.412109375,5269.845703125,15590.1904296875,5546.4111328125,8165.0419921875,12354.8505859375,4116.69384765625,6634.39404296875,4188.2197265625,6806.8505859375,-5269.845703125,0.0,11651.515625,11458.396484375,796.3180541992188,720.81884765625,3666.0830078125,5502.70068359375,3512.700439453125,10340.2138671875,7295.6083984375,21868.546875,-1224.6767578125,230.47129821777344,4602.2734375,12342.1357421875,-5202.29345703125,2231.597900390625,17381.509765625,-10433.9912109375,-3769.397705078125,2555.052490234375,9343.6240234375,11229.5146484375,5557.537109375,8708.63671875,5060.83154296875,-0.0,5650.5205078125,25846.162109375,29912.791015625,8079.21142578125,17834.505859375,12578.169921875,-1722.9715576171875,-3407.00146484375,4056.294921875,12687.046875,10494.3916015625,12582.142578125,10023.9111328125,1041.88916015625,-1830.2598876953125,8102.2578125,0.0,4034.837158203125,7473.62744140625,6096.36328125,4770.755859375,9729.0673828125,9505.7490234375,15666.484375,-12231.66796875,2653.598876953125,10755.8564453125,6994.40625,5464.5537109375,3826.6181640625,0.0,9235.541015625
5003.611328125,3805.16064453125,8985.99609375,5287.3291015625,15603.701171875,5562.3056640625,8179.34716796875,12377.8984375,4132.5888671875,6652.67333984375,4199.34619140625,6813.2080078125,-5259.513671875,0.0,11662.642578125,11483.033203125,809.8284301757812,736.71337890625,3683.567138671875,5520.9794921875,3520.647705078125,10356.1083984375,7310.70849609375,21884.44140625,-1204.80859375,241.5974884033203,4614.98876953125,12364.3876953125,-5188.783203125,2231.597900390625,17395.814453125,-10418.8916015625,-3761.450439453125,2575.71533203125,9355.544921875,11245.41015625,5574.2265625,8726.9140625,5095.7998046875,-0.0,5609.1943359375,25860.46875,29930.2734375,8096.69482421875,17850.3984375,12600.421875,-1673.698486328125,-3395.08056640625,4099.21044921875,12698.173828125,10507.1064453125,12606.7802734375,10032.654296875,1052.220703125,-1817.5443115234375,8105.4375,0.0,4044.3740234375,7478.39599609375,6125.76806640625,4776.31884765625,9744.9619140625,9521.6435546875,15691.9150390625,-12219.7470703125,2661.5458984375,10768.5732421875,7008.71142578125,5472.50146484375,3834.5654296875,0.0,9261.767578125
4975.7958984375,3782.908203125,8980.43359375,5238.85107421875,15576.6806640625,5546.4111328125,8163.4521484375,12371.5400390625,4117.48876953125,6642.341796875,4180.2724609375,6798.1083984375,-5307.99267578125,0.0,11648.3369140625,11475.880859375,791.5496826171875,719.2293701171875,3669.261962890625,5508.26416015625,3499.190185546875,10338.6240234375,7292.4296875,21870.13671875,-1207.9874267578125,227.29237365722656,4604.65771484375,12351.671875,-5225.34033203125,2218.88232421875,17377.53515625,-10437.1708984375,-3778.139892578125,2560.615478515625,9336.4716796875,11228.720703125,5556.7421875,8712.609375,5078.31591796875,-0.0,5580.583984375,25842.984375,29910.40625,8085.568359375,17835.298828125,12589.294921875,-1689.593017578125,-3377.5966796875,4074.573486328125,12685.4580078125,10492.0068359375,12599.6279296875,9986.5595703125,1036.3260498046875,-1826.286376953125,8080.80029296875,0.0,4026.889892578125,7469.654296875,6131.3310546875,4753.271484375,9726.68359375,9506.54296875,15679.994140625,-12244.3837890625,2642.472412109375,10755.8564453125,7006.3271484375,5449.45361328125,3828.207763671875,0.0,9256.9990234375
4995.6640625,3784.49755859375,8969.306640625,5242.82470703125,15579.859375,5549.58984375,8168.220703125,12373.923828125,4122.25732421875,6653.4677734375,4195.3720703125,6799.69775390625,-5350.90771484375,0.0,11656.2841796875,11475.880859375,795.5233154296875,723.2030029296875,3674.0302734375,5514.62158203125,3502.368896484375,10339.4189453125,7294.8134765625,21874.109375,-1198.45068359375,235.2396697998047,4609.42578125,12352.466796875,-5233.28759765625,2234.77685546875,17379.919921875,-10423.66015625,-3778.139892578125,2558.2314453125,9340.4453125,11231.8994140625,5562.3056640625,8716.5830078125,5118.8466796875,-0.0,5591.71044921875,25842.984375,29912.791015625,8088.748046875,17837.68359375,12593.26953125,-1685.619384765625,-3361.701904296875,4081.72607421875,12690.2265625,10499.16015625,12602.8056640625,9992.123046875,1029.1734619140625,-1819.1337890625,8091.9267578125,0.0,4038.015869140625,7469.654296875,6134.51025390625,4761.21923828125,9732.24609375,9512.1064453125,15681.5849609375,-12241.2041015625,2645.651611328125,10762.21484375,7019.837890625,5464.5537109375,3867.1494140625,0.0,9274.482421875
5024.2744140625,3787.676513671875,8962.94921875,5249.18212890625,15574.2958984375,5549.58984375,8166.630859375,12365.181640625,4119.873046875,6651.08349609375,4199.34619140625,6797.3134765625,-5358.85498046875,0.0,11653.10546875,11467.93359375,793.933837890625,719.2293701171875,3670.8515625,5513.82666015625,3496.010986328125,10333.85546875,7290.84033203125,21870.931640625,-1201.629638671875,234.44493103027344,4611.81005859375,12350.08203125,-5230.10888671875,2229.213623046875,17375.9453125,-10417.3017578125,-3786.881591796875,2555.052490234375,9334.0869140625,11230.3095703125,5560.71630859375,8714.19921875,5087.0576171875,-0.0,5579.78955078125,25843.779296875,29904.841796875,8085.568359375,17837.68359375,12588.5009765625,-1680.8509521484375,-3376.007080078125,4074.573486328125,12692.6103515625,10497.5703125,12594.0634765625,10020.732421875,1014.07373046875,-1820.72314453125,8096.69482421875,0.0,4034.04248046875,7469.654296875,6117.02587890625,4769.16650390625,9727.478515625,9509.72265625,15682.37890625,-12238.8203125,2648.830322265625,10759.0361328125,7003.94287109375,5455.81201171875,3874.302001953125,0.0,9282.4296875
5024.2744140625,3787.676513671875,8960.564453125,5235.671875,15567.1435546875,5544.02685546875,8161.06787109375,12369.15625,4120.66796875,6658.23583984375,4188.2197265625,6786.1875,-5347.728515625,0.0,11645.953125,11471.1123046875,785.986572265625,712.0768432617188,3666.877685546875,5517.80078125,3488.8583984375,10328.29296875,7286.07177734375,21868.546875,-1219.9083251953125,224.90818786621094,4611.81005859375,12354.8505859375,-5230.10888671875,2202.193115234375,17369.587890625,-10428.4287109375,-3793.239501953125,2548.694580078125,9330.11328125,11224.7470703125,5555.94775390625,8711.814453125,5097.38916015625,-0.0,5575.81591796875,25842.189453125,29896.1015625,8084.77392578125,17834.505859375,12591.6796875,-1697.540283203125,-3395.08056640625,4046.758056640625,12693.4052734375,10489.623046875,12596.4482421875,10017.5546875,1010.894775390625,-1823.902099609375,8087.158203125,0.0,4015.763671875,7471.2431640625,6124.97314453125,4766.7822265625,9722.7099609375,9509.72265625,15695.0947265625,-12240.41015625,2639.293701171875,10751.087890625,7008.71142578125,5451.837890625,3890.196533203125,0.0,9310.2451171875
5018.7109375,3788.47119140625,8959.7705078125,5226.93017578125,15567.9384765625,5547.20556640625,8165.0419921875,12366.771484375,4127.8203125,6656.646484375,4188.2197265625,6792.54541015625,-5327.8603515625,0.0,11649.1318359375,11469.5234375,790.7549438476562,717.639892578125,3670.8515625,5519.39013671875,3496.010986328125,10336.240234375,7294.01904296875,21871.724609375,-1228.650390625,222.5240020751953,4618.16796875,12352.466796875,-5218.18798828125,2221.2666015625,17375.150390625,-10426.8388671875,-3785.29248046875,2550.2841796875,9334.0869140625,11229.5146484375,5559.12646484375,8714.19921875,5120.43603515625,-0.0,5582.96826171875,25847.75390625,29902.458984375,8084.77392578125,17837.68359375,12593.26953125,-1696.7454833984375,-3414.154052734375,4042.7841796875,12693.4052734375,10493.595703125,12595.6533203125,10018.3486328125,1012.4841918945312,-1819.928466796875,8086.36376953125,0.0,4027.6845703125,7476.806640625,6123.3837890625,4775.52392578125,9729.0673828125,9512.1064453125,15695.0947265625,-12234.0517578125,2640.88330078125,10755.8564453125,7018.248046875,5462.96435546875,3881.45458984375,0.0,9292.76171875
5010.763671875,3778.9345703125,8974.8701171875,5280.9716796875,15578.26953125,5542.43701171875,8172.98876953125,12367.56640625,4140.53564453125,6666.978515625,4192.98779296875,6802.08203125,-5335.8076171875,0.0,11659.462890625,11467.1396484375,799.4969482421875,723.2030029296875,3678.00390625,5529.7216796875,3506.342529296875,10340.2138671875,7297.99267578125,21873.31640625,-1204.80859375,218.5503692626953,4616.57861328125,12346.1083984375,-5215.8037109375,2230.80322265625,17382.302734375,-10427.6337890625,-3770.1923828125,2563.79443359375,9342.0341796875,11234.283203125,5567.07373046875,8718.1728515625,5071.1630859375,-0.0,5592.5048828125,25839.009765625,29913.583984375,8082.3896484375,17848.015625,12595.6533203125,-1689.593017578125,-3382.364990234375,4070.60009765625,12679.89453125,10503.927734375,12593.26953125,10024.70703125,1014.868408203125,-1825.4915771484375,8080.80029296875,0.0,4044.3740234375,7487.9326171875,6120.205078125,4765.9873046875,9734.630859375,9520.8486328125,15706.220703125,-12230.0791015625,2642.472412109375,10765.3935546875,7045.26904296875,5489.1904296875,3902.912109375,0.0,9300.708984375
