6106.69482421875,4126.23095703125,16985.734375,7592.04248046875,18308.958984375,7353.6240234375,10560.353515625,15684.7626953125,7916.291015625,9919.0068359375,6910.9599609375,9739.3994140625,-4836.71826171875,0.0,14670.689453125,14721.552734375,1804.82861328125,1752.3765869140625,6140.0732421875,9180.705078125,5334.21826171875,12267.4306640625,9466.01171875,24187.564453125,610.3515625,3822.64453125,8309.681640625,15424.8876953125,-4630.0888671875,2036.0947265625,19774.4375,-10289.3515625,-3085.136474609375,3619.98876953125,11511.6435546875,12834.8662109375,7972.71728515625,10815.4609375,8970.1015625,-0.0,7402.10205078125,28329.69140625,32389.95703125,10477.7021484375,21260.580078125,16295.1142578125,2220.4716796875,1819.928466796875,7785.16162109375,16663.869140625,13485.7490234375,15806.3564453125,11812.845703125,2133.84619140625,2692.54052734375,11024.474609375,0.0,6353.85498046875,10487.2392578125,10426.044921875,6718.6357421875,11418.66015625,13748.8046875,18770.6953125,-12931.82421875,3139.97265625,13345.08203125,8996.3271484375,7680.25732421875,6931.623046875,0.0,11690.45703125
6096.36328125,4075.368408203125,17021.498046875,7669.130859375,18315.314453125,7373.49169921875,10576.248046875,15695.890625,7936.16015625,9935.6962890625,6926.8544921875,9747.345703125,-4832.74462890625,0.0,14696.12109375,14732.6787109375,1821.5179443359375,1767.4764404296875,6155.1728515625,9198.9833984375,5344.5498046875,12293.65625,9477.138671875,24203.458984375,629.425048828125,3841.718017578125,8343.060546875,15437.6025390625,-4621.34716796875,2044.8367919921875,19790.330078125,-10286.966796875,-3072.4208984375,3671.64599609375,11522.76953125,12853.1455078125,7987.81689453125,10829.7666015625,9014.6064453125,-0.0,7407.6650390625,28358.30078125,32398.701171875,10492.8017578125,21278.857421875,16310.21484375,2232.392578125,1775.4237060546875,7780.39306640625,16683.736328125,13508.001953125,15816.6884765625,11821.587890625,2100.4677734375,2718.766357421875,11035.6015625,0.0,6349.8818359375,10511.875,10440.349609375,6690.025390625,11432.1708984375,13765.494140625,18788.1796875,-12917.5185546875,3145.53564453125,13368.923828125,9022.5537109375,7719.99365234375,6945.92822265625,0.0,11707.146484375
6019.2744140625,4066.6259765625,16974.607421875,7714.43017578125,18320.87890625,7390.18115234375,10581.0166015625,15698.2744140625,7937.7490234375,9940.46484375,6926.8544921875,9753.7041015625,-4849.43408203125,0.0,14692.1474609375,14735.0625,1837.4124755859375,1777.807861328125,6160.736328125,9202.95703125,5361.23876953125,12310.345703125,9482.701171875,24212.99609375,626.2461547851562,3858.4072265625,8354.9814453125,15443.166015625,-4628.49951171875,2044.8367919921875,19804.63671875,-10288.5556640625,-3046.19482421875,3693.103759765625,11533.896484375,12865.861328125,7992.5849609375,10835.330078125,9030.5009765625,-0.0,7426.73876953125,28382.142578125,32402.67578125,10501.5439453125,21283.626953125,16313.39453125,2238.75048828125,1839.001953125,7768.47216796875,16701.220703125,13507.20703125,15818.27734375,11820.79296875,2080.599609375,2713.998046875,11042.75390625,0.0,6370.54443359375,10511.875,10444.3232421875,6645.5205078125,11439.3232421875,13769.4677734375,18792.15234375,-12928.6455078125,3139.97265625,13368.1298828125,9027.322265625,7716.02001953125,6949.10693359375,0.0,11712.7099609375
6029.60595703125,4047.552490234375,17001.62890625,7629.39453125,18311.341796875,7379.05517578125,10570.685546875,15698.2744140625,7924.2392578125,9935.6962890625,6925.2646484375,9754.498046875,-4854.2021484375,0.0,14672.279296875,14735.8583984375,1822.312744140625,1766.681640625,6153.58349609375,9193.419921875,5344.5498046875,12292.0673828125,9474.75390625,24205.048828125,618.298828125,3848.87060546875,8340.6767578125,15433.62890625,-4631.67822265625,2036.8892822265625,19789.537109375,-10269.482421875,-3070.03662109375,3635.088623046875,11521.9755859375,12853.9404296875,7982.25390625,10828.177734375,8988.380859375,-0.0,7410.04931640625,28364.658203125,32393.931640625,10495.98046875,21270.1171875,16308.6259765625,2245.903076171875,1867.6121826171875,7756.55126953125,16690.095703125,13486.544921875,15818.27734375,11817.6142578125,2072.652099609375,2702.8720703125,11038.7802734375,0.0,6413.4599609375,10490.41796875,10441.939453125,6654.2626953125,11431.3759765625,13760.7255859375,18782.615234375,-12934.2080078125,3139.177978515625,13345.08203125,9023.3486328125,7675.48876953125,6945.13330078125,0.0,11707.9423828125
6055.037109375,4038.015869140625,17035.802734375,7594.4267578125,18301.009765625,7359.9814453125,10565.1220703125,15698.2744140625,7918.67529296875,9929.33984375,6917.31787109375,9760.0625,-4859.765625,0.0,14679.431640625,14735.8583984375,1811.981201171875,1754.7607421875,6147.22607421875,9187.0625,5327.8603515625,12274.5830078125,9467.6015625,24196.306640625,609.5568237304688,3829.00244140625,8335.908203125,15418.529296875,-4640.42041015625,2032.1209716796875,19776.8203125,-10271.8671875,-3087.5205078125,3624.757080078125,11511.6435546875,12839.634765625,7977.48583984375,10821.8193359375,8935.9287109375,-0.0,7387.00244140625,28333.6640625,32388.37109375,10484.8544921875,21267.732421875,16303.857421875,2251.466064453125,1902.580322265625,7751.78271484375,16667.046875,13493.697265625,15817.484375,11808.078125,2167.224853515625,2692.54052734375,11034.806640625,0.0,6428.5595703125,10484.0595703125,10441.1435546875,6684.4619140625,11423.4287109375,13755.9580078125,18772.283203125,-12936.591796875,3135.9990234375,13353.0302734375,8999.5068359375,7683.43603515625,6927.64892578125,0.0,11698.4052734375
6091.5947265625,4155.6357421875,17056.46484375,7584.8896484375,18298.625,7346.47119140625,10567.505859375,15699.068359375,7923.44384765625,9930.9287109375,6912.54931640625,9765.625,-4860.56005859375,0.0,14682.6103515625,14737.447265625,1808.80224609375,1752.3765869140625,6145.63623046875,9190.2421875,5331.83447265625,12261.8671875,9466.01171875,24191.537109375,603.9937133789062,3815.491943359375,8334.3193359375,15415.3505859375,-4645.9833984375,2029.73681640625,19776.025390625,-10278.224609375,-3069.24169921875,3621.578125,11510.8486328125,12833.27734375,7977.48583984375,10821.8193359375,8852.4814453125,-0.0,7387.00244140625,28301.875,32386.779296875,10480.0859375,21270.91015625,16306.2421875,2241.92919921875,1966.9532470703125,7747.80908203125,16654.333984375,13497.669921875,15819.8681640625,11811.2568359375,2282.46044921875,2688.56689453125,11032.421875,0.0,6442.06982421875,10495.98046875,10451.4765625,6690.8203125,11421.83984375,13758.341796875,18776.2578125,-12940.56640625,3139.97265625,13355.4140625,8999.5068359375,7704.8935546875,6926.8544921875,0.0,11714.298828125
6143.251953125,4216.03515625,17044.544921875,7610.3212890625,18299.421875,7349.64990234375,10557.1748046875,15699.86328125,7906.75439453125,9935.6962890625,6918.9072265625,9776.751953125,-4851.0234375,0.0,14634.1328125,14739.8310546875,1812.7760009765625,1755.5555419921875,6144.046875,9183.8837890625,5338.98681640625,12264.251953125,9465.2177734375,24193.12890625,600.0200805664062,3820.26025390625,8316.833984375,15416.939453125,-4637.2412109375,2032.1209716796875,19778.41015625,-10282.9931640625,-3058.910400390625,3623.96240234375,11511.6435546875,12837.2509765625,7969.53857421875,10821.8193359375,8836.5869140625,-0.0,7402.89697265625,28301.875,32379.626953125,10481.6748046875,21254.220703125,16306.2421875,2226.034912109375,1972.516357421875,7746.2197265625,16658.306640625,13450.7822265625,15823.0458984375,11821.587890625,2273.718505859375,2690.951171875,11035.6015625,0.0,6457.169921875,10463.3974609375,10458.62890625,6693.20458984375,11421.83984375,13752.7783203125,18773.078125,-12931.029296875,3150.30419921875,13304.55078125,9028.9111328125,7612.705078125,6956.25927734375,0.0,11724.630859375
6117.82080078125,4219.2138671875,16988.119140625,7596.81103515625,18292.26953125,7333.75537109375,10542.869140625,15679.994140625,7892.44921875,9914.2392578125,6911.75439453125,9760.8564453125,-4851.81787109375,0.0,14638.1064453125,14722.34765625,1794.4971923828125,1739.660888671875,6130.53662109375,9167.9892578125,5323.091796875,12248.3564453125,9449.322265625,24177.232421875,584.9202270507812,3804.365966796875,8306.5029296875,15401.0458984375,-4646.7783203125,2012.2528076171875,19760.927734375,-10302.06640625,-3087.5205078125,3600.12060546875,11498.1337890625,12821.3564453125,7956.02783203125,10803.5400390625,8985.2021484375,-0.0,7403.69189453125,28291.544921875,32366.115234375,10466.5751953125,21242.30078125,16285.578125,2213.319091796875,1922.448486328125,7735.88818359375,16643.205078125,13453.166015625,15802.3837890625,11821.587890625,2220.4716796875,2682.208984375,11018.912109375,0.0,6439.68603515625,10456.244140625,10424.455078125,6699.56201171875,11405.9453125,13736.0888671875,18753.2109375,-12937.38671875,3131.230712890625,13310.9091796875,9012.22265625,7620.65283203125,6924.47021484375,0.0,11682.5107421875
6093.18408203125,4240.671875,16944.408203125,7514.15869140625,18299.421875,7335.3447265625,10548.4326171875,15684.7626953125,7900.3974609375,9908.67578125,6913.34375,9762.4462890625,-4844.66552734375,0.0,14653.2060546875,14725.525390625,1792.90771484375,1742.83984375,6132.9208984375,9170.373046875,5329.4501953125,12248.3564453125,9453.296875,24180.412109375,577.7677001953125,3799.597412109375,8305.708984375,15407.4033203125,-4638.0361328125,2020.994873046875,19764.10546875,-10304.451171875,-3077.189208984375,3592.968017578125,11504.4912109375,12822.1513671875,7962.38623046875,10806.7197265625,9015.4013671875,-0.0,7399.7177734375,28290.748046875,32371.681640625,10469.75390625,21248.658203125,16287.1689453125,2229.213623046875,1888.275146484375,7745.4248046875,16641.6171875,13470.6494140625,15807.1513671875,11808.078125,2276.8974609375,2690.15625,11026.064453125,0.0,6434.12255859375,10468.9599609375,10423.66015625,6713.072265625,11409.123046875,13740.0625,18752.416015625,-12938.181640625,3141.562255859375,13327.5986328125,9009.837890625,7653.236328125,6903.80712890625,0.0,11669.794921875
6124.97314453125,4243.8505859375,16925.333984375,7563.43212890625,18306.57421875,7343.2919921875,10560.353515625,15690.3271484375,7917.08642578125,9921.3916015625,6909.37060546875,9762.4462890625,-4835.12890625,0.0,14677.841796875,14730.2939453125,1798.4708251953125,1751.581787109375,6144.046875,9183.8837890625,5337.39697265625,12259.4833984375,9463.6279296875,24189.154296875,603.9937133789062,3805.16064453125,8321.6025390625,15413.7607421875,-4631.67822265625,2029.73681640625,19772.84765625,-10291.7353515625,-3085.136474609375,3613.631103515625,11513.2333984375,12832.482421875,7974.30712890625,10817.05078125,8947.849609375,-0.0,7414.02294921875,28303.46484375,32382.8046875,10476.9072265625,21262.96484375,16295.91015625,2214.90869140625,1878.7384033203125,7753.3720703125,16649.564453125,13492.9013671875,15811.919921875,11804.8984375,2272.129150390625,2671.877685546875,11030.0380859375,0.0,6429.35400390625,10492.0068359375,10431.607421875,6722.60888671875,11417.0712890625,13751.189453125,18774.66796875,-12938.181640625,3143.151611328125,13352.234375,9002.685546875,7692.17822265625,6918.1123046875,0.0,11694.431640625
6148.81494140625,4143.71484375,17010.37109375,7639.72607421875,18316.904296875,7352.0341796875,10568.30078125,15689.53125,7930.59619140625,9929.33984375,6911.75439453125,9764.03515625,-4826.38671875,0.0,14695.3271484375,14730.2939453125,1806.4180908203125,1757.939697265625,6151.19921875,9194.21484375,5342.16552734375,12271.404296875,9470.7802734375,24195.513671875,609.5568237304688,3819.465576171875,8335.11328125,15415.3505859375,-4628.49951171875,2031.3262939453125,19779.205078125,-10284.5830078125,-3082.752197265625,3629.525390625,11518.001953125,12838.0458984375,7983.04833984375,10821.8193359375,8941.4912109375,-0.0,7423.5595703125,28318.5625,32393.138671875,10479.291015625,21274.08984375,16300.6787109375,2227.624267578125,1877.943603515625,7762.9091796875,16658.306640625,13509.5908203125,15809.5361328125,11824.767578125,2234.77685546875,2671.877685546875,11030.8330078125,0.0,6417.43310546875,10508.6962890625,10432.40234375,6735.32470703125,11421.83984375,13759.9306640625,18789.767578125,-12934.2080078125,3141.562255859375,13370.513671875,8974.8701171875,7719.19873046875,6924.47021484375,0.0,11709.53125
6148.0205078125,4055.5,17057.259765625,7661.18359375,18332.00390625,7375.08154296875,10576.248046875,15703.8369140625,7928.21240234375,9936.4921875,6927.64892578125,9767.21484375,-4813.6708984375,0.0,14671.4853515625,14743.0107421875,1826.286376953125,1775.4237060546875,6160.736328125,9195.8046875,5362.03369140625,12294.4521484375,9481.1123046875,24210.611328125,595.251708984375,3839.333740234375,8335.11328125,15432.8349609375,-4615.78369140625,2048.015625,19801.458984375,-10286.171875,-3041.426513671875,3663.698974609375,11535.4853515625,12857.119140625,7989.40673828125,10833.740234375,8876.3232421875,-0.0,7447.4013671875,28349.55859375,32402.67578125,10498.3642578125,21277.26953125,16311.0107421875,2249.081787109375,1843.7703857421875,7778.80322265625,16676.583984375,13486.544921875,15824.63671875,11810.4619140625,2222.06103515625,2706.05078125,11047.5224609375,0.0,6419.02294921875,10491.2119140625,10442.7333984375,6739.29833984375,11435.349609375,13766.2890625,18784.205078125,-12916.724609375,3156.662109375,13344.2880859375,8984.40625,7680.25732421875,6929.23876953125,0.0,11708.736328125
6140.0732421875,4150.07275390625,17038.98046875,7658.7998046875,18326.44140625,7376.6708984375,10572.2744140625,15710.9892578125,7909.93408203125,9932.517578125,6930.828125,9774.3671875,-4806.5185546875,0.0,14649.2314453125,14749.3681640625,1830.2598876953125,1777.807861328125,6156.7626953125,9185.4736328125,5361.23876953125,12293.65625,9481.9072265625,24209.818359375,603.9937133789062,3840.92333984375,8334.3193359375,15436.80859375,-4609.42578125,2053.57861328125,19800.662109375,-10271.8671875,-3034.27392578125,3663.698974609375,11534.6904296875,12858.7080078125,7985.4326171875,10835.330078125,8799.2353515625,-0.0,7443.42822265625,28343.99609375,32403.46875,10500.7490234375,21267.732421875,16310.21484375,2241.134765625,1898.606689453125,7761.31982421875,16682.943359375,13465.0869140625,15830.994140625,11805.693359375,2222.855712890625,2716.38232421875,11056.263671875,0.0,6440.48046875,10463.3974609375,10452.2705078125,6724.19873046875,11432.96484375,13761.5205078125,18770.6953125,-12909.5712890625,3164.609130859375,13322.0361328125,8991.55859375,7616.6787109375,6926.0595703125,0.0,11703.173828125
6097.9521484375,4227.9560546875,17038.1875,7596.01611328125,18315.314453125,7363.955078125,10567.505859375,15706.220703125,7905.16552734375,9922.9814453125,6926.0595703125,9768.0087890625,-4812.08203125,0.0,14650.8212890625,14746.189453125,1812.7760009765625,1762.7080078125,6148.81494140625,9178.3212890625,5342.16552734375,12270.609375,9473.1650390625,24201.07421875,627.0408935546875,3826.6181640625,8331.1396484375,15432.8349609375,-4622.1416015625,2040.068359375,19783.974609375,-10284.5830078125,-3061.29443359375,3617.6044921875,11524.359375,12844.4033203125,7979.0751953125,10825.79296875,8946.259765625,-0.0,7418.79150390625,28320.947265625,32399.494140625,10492.0068359375,21262.16796875,16303.0625,2244.3134765625,1926.422119140625,7767.67724609375,16673.40625,13466.67578125,15827.814453125,11822.3828125,2190.27197265625,2708.43505859375,11049.90625,0.0,6450.017578125,10458.62890625,10444.3232421875,6685.2568359375,11425.0185546875,13755.162109375,18765.130859375,-12923.0810546875,3154.27783203125,13324.419921875,8970.1015625,7615.88427734375,6905.39697265625,0.0,11692.841796875
6093.97900390625,4242.26123046875,17026.265625,7588.068359375,18316.904296875,7366.33935546875,10568.30078125,15710.1953125,7913.9072265625,9928.5439453125,6932.41748046875,9764.8310546875,-4832.74462890625,0.0,14658.7685546875,14750.1630859375,1810.3917236328125,1762.7080078125,6152.78857421875,9187.0625,5338.19189453125,12271.404296875,9472.3701171875,24204.25390625,624.6566772460938,3828.207763671875,8325.5771484375,15438.3974609375,-4624.525390625,2040.863037109375,19781.58984375,-10275.8408203125,-3081.16259765625,3613.631103515625,11522.76953125,12845.1982421875,7979.86962890625,10828.177734375,9044.0107421875,-0.0,7412.43359375,28323.33203125,32397.109375,10494.3916015625,21267.732421875,16309.419921875,2259.41357421875,1913.7064208984375,7777.2138671875,16677.37890625,13473.0341796875,15830.994140625,11834.3037109375,2161.661865234375,2702.8720703125,11046.7275390625,0.0,6454.78564453125,10468.1650390625,10451.4765625,6675.72021484375,11425.8125,13759.1357421875,18773.875,-12926.2607421875,3151.098876953125,13331.572265625,8993.943359375,7651.64697265625,6914.93359375,0.0,11700.7890625
6104.310546875,4199.34619140625,17016.728515625,7586.47900390625,18305.779296875,7363.955078125,10564.3271484375,15701.4521484375,7913.9072265625,9927.75,6920.49658203125,9757.677734375,-4844.66552734375,0.0,14663.537109375,14741.4208984375,1800.85498046875,1754.7607421875,6146.43115234375,9187.857421875,5329.4501953125,12266.6357421875,9464.4228515625,24198.689453125,614.3251953125,3825.823486328125,8332.7294921875,15433.62890625,-4626.90966796875,2035.300048828125,19774.4375,-10288.5556640625,-3089.90478515625,3602.504638671875,11514.02734375,12838.8408203125,7977.48583984375,10824.203125,9026.52734375,-0.0,7395.744140625,28320.947265625,32388.37109375,10489.623046875,21266.142578125,16304.6513671875,2251.466064453125,1891.4541015625,7765.29296875,16674.19921875,13479.3916015625,15823.0458984375,11828.740234375,2156.0986328125,2698.103759765625,11037.9853515625,0.0,6425.380859375,10476.1123046875,10441.1435546875,6673.3359375,11423.4287109375,13757.546875,18773.875,-12925.4658203125,3143.9462890625,13337.9296875,8992.3544921875,7666.74658203125,6927.64892578125,0.0,11707.146484375
6111.462890625,4161.19921875,16996.064453125,7581.7109375,18301.009765625,7360.7763671875,10563.533203125,15692.7109375,7914.70263671875,9927.75,6925.2646484375,9755.2939453125,-4855.79150390625,0.0,14661.9482421875,14734.2685546875,1799.2655029296875,1753.1712646484375,6144.046875,9187.0625,5327.8603515625,12264.251953125,9463.6279296875,24197.1015625,608.7620849609375,3822.64453125,8343.060546875,15423.2978515625,-4630.0888671875,2036.0947265625,19772.052734375,-10299.6826171875,-3084.341796875,3612.04150390625,11510.8486328125,12837.2509765625,7975.89599609375,10821.8193359375,8978.84375,-0.0,7393.3603515625,28322.5390625,32388.37109375,10484.8544921875,21266.142578125,16299.8828125,2241.92919921875,1882.7120361328125,7770.8564453125,16668.638671875,13479.3916015625,15815.8935546875,11835.0986328125,2147.356689453125,2709.229736328125,11035.6015625,0.0,6408.69140625,10479.291015625,10434.787109375,6686.84619140625,11421.0439453125,13753.5732421875,18778.642578125,-12930.234375,3141.562255859375,13336.3408203125,8978.84375,7658.0048828125,6926.0595703125,0.0,11712.7099609375
6107.4892578125,4141.33056640625,16977.787109375,7607.93701171875,18295.447265625,7350.44482421875,10554.7900390625,15684.7626953125,7905.16552734375,9917.4189453125,6920.49658203125,9737.0146484375,-4866.123046875,0.0,14651.6162109375,14726.3212890625,1796.086669921875,1748.4029541015625,6136.89404296875,9175.9365234375,5327.06591796875,12261.8671875,9457.2705078125,24185.9765625,610.3515625,3806.75,8330.3447265625,15408.1982421875,-4642.009765625,2023.3790283203125,19767.28515625,-10317.166015625,-3077.189208984375,3622.372802734375,11506.875,12830.8935546875,7967.154296875,10813.8720703125,8935.1337890625,-0.0,7394.94921875,28320.154296875,32381.21875,10473.728515625,21258.1953125,16292.73046875,2235.571533203125,1842.9755859375,7767.67724609375,16651.94921875,13467.470703125,15806.3564453125,11813.640625,2125.899169921875,2709.229736328125,11022.0908203125,0.0,6414.2548828125,10474.5224609375,10429.22265625,6684.4619140625,11413.09765625,13744.037109375,18768.310546875,-12938.181640625,3126.462158203125,13323.625,8971.69140625,7639.72607421875,6908.57568359375,0.0,11700.7890625
6074.1103515625,4126.23095703125,16974.607421875,7588.068359375,18284.3203125,7336.1396484375,10540.4853515625,15672.048828125,7894.83349609375,9900.7294921875,6906.986328125,9704.4306640625,-4870.8916015625,0.0,14644.4638671875,14711.220703125,1785.755126953125,1735.687255859375,6122.5888671875,9163.220703125,5315.939453125,12245.97265625,9446.14453125,24174.0546875,593.6622314453125,3788.47119140625,8309.681640625,15402.634765625,-4650.75146484375,2007.484375,19754.568359375,-10321.140625,-3085.136474609375,3607.273193359375,11494.16015625,12816.5888671875,7953.6435546875,10801.951171875,8904.1396484375,-0.0,7390.97607421875,28299.490234375,32368.5,10461.8076171875,21243.095703125,16276.041015625,2220.4716796875,1822.312744140625,7751.78271484375,16638.4375,13458.728515625,15792.8466796875,11790.5927734375,2133.84619140625,2690.15625,11010.96484375,0.0,6384.849609375,10472.138671875,10412.5341796875,6686.0517578125,11399.5869140625,13731.3203125,18755.59375,-12943.7451171875,3111.362548828125,13317.267578125,8955.001953125,7642.90478515625,6892.68115234375,0.0,11676.15234375
6061.39501953125,4112.720703125,16969.044921875,7630.189453125,18299.421875,7359.1865234375,10554.7900390625,15686.353515625,7911.52294921875,9918.212890625,6914.93359375,9731.4521484375,-4857.38134765625,0.0,14661.1533203125,14723.1416015625,1795.2918701171875,1747.608154296875,6136.89404296875,9181.4990234375,5329.4501953125,12265.841796875,9459.6552734375,24189.94921875,601.6095581054688,3816.286865234375,8323.9873046875,15431.2451171875,-4638.83056640625,2024.1737060546875,19767.28515625,-10298.888671875,-3078.778564453125,3621.578125,11507.669921875,12832.482421875,7969.53857421875,10817.05078125,8896.19140625,-0.0,7410.04931640625,28325.716796875,32382.01171875,10483.2646484375,21258.990234375,16292.73046875,2210.14013671875,1829.4652099609375,7758.935546875,16665.458984375,13477.802734375,15807.1513671875,11798.541015625,2121.92529296875,2695.719482421875,11025.26953125,0.0,6337.166015625,10488.828125,10430.8125,6701.9462890625,11413.8916015625,13747.21484375,18782.615234375,-12931.82421875,3129.641357421875,13333.95703125,8986.791015625,7666.74658203125,6917.31787109375,0.0,11699.994140625
6056.626953125,4108.7470703125,16954.740234375,7704.09912109375,18289.884765625,7350.44482421875,10549.2275390625,15672.048828125,7905.9599609375,9911.8544921875,6908.57568359375,9732.24609375,-4851.0234375,0.0,14657.974609375,14708.0419921875,1788.93408203125,1740.45556640625,6130.53662109375,9177.525390625,5319.91357421875,12261.8671875,9450.912109375,24182.796875,599.225341796875,3806.75,8320.80859375,15404.224609375,-4642.009765625,2017.021240234375,19760.1328125,-10313.193359375,-3093.083740234375,3633.4990234375,11498.927734375,12826.125,7962.38623046875,10806.7197265625,8943.0810546875,-0.0,7390.97607421875,28325.716796875,32376.44921875,10470.5498046875,21254.220703125,16283.193359375,2204.5771484375,1800.060302734375,7751.78271484375,16652.7421875,13473.828125,15791.2578125,11797.74609375,2153.71435546875,2691.745849609375,11013.3486328125,0.0,6336.37109375,10480.880859375,10417.3017578125,6678.8994140625,11405.150390625,13740.857421875,18786.587890625,-12934.2080078125,3124.078125,13330.77734375,8989.1748046875,7669.92578125,6925.2646484375,0.0,11707.9423828125
6047.88427734375,4065.83154296875,16969.044921875,7655.62060546875,18288.29296875,7333.75537109375,10546.0478515625,15664.896484375,7901.986328125,9908.67578125,6908.57568359375,9724.2998046875,-4842.28125,0.0,14657.1796875,14703.2734375,1783.3709716796875,1733.3031005859375,6124.17822265625,9171.962890625,5314.35009765625,12249.15234375,9444.5546875,24171.671875,595.251708984375,3798.008056640625,8321.6025390625,15379.587890625,-4645.18896484375,2009.86865234375,19751.390625,-10320.345703125,-3093.083740234375,3619.194091796875,11492.5703125,12816.5888671875,7957.61767578125,10798.771484375,8943.0810546875,-0.0,7389.38671875,28309.02734375,32372.474609375,10454.654296875,21249.453125,16277.6318359375,2208.55078125,1835.822998046875,7741.451171875,16629.6953125,13475.41796875,15786.4892578125,11792.9775390625,2163.251220703125,2683.798583984375,11006.9912109375,0.0,6403.9228515625,10474.5224609375,10411.7392578125,6653.4677734375,11397.998046875,13734.5,18772.283203125,-12939.7705078125,3116.130859375,13333.1611328125,8985.2021484375,7667.54150390625,6926.0595703125,0.0,11701.583984375
6078.87890625,4088.878662109375,17019.11328125,7549.126953125,18286.705078125,7333.75537109375,10549.2275390625,15678.40625,7903.57568359375,9913.4443359375,6912.54931640625,9740.98828125,-4843.87060546875,0.0,14666.716796875,14719.1689453125,1784.96044921875,1733.3031005859375,6128.15234375,9173.552734375,5315.14501953125,12241.2041015625,9445.349609375,24174.84765625,593.6622314453125,3798.802734375,8320.80859375,15400.25,-4645.18896484375,2020.2000732421875,19749.798828125,-10305.2451171875,-3078.778564453125,3595.35205078125,11490.9814453125,12815.79296875,7960.79638671875,10805.9248046875,8827.845703125,-0.0,7386.20751953125,28292.337890625,32373.267578125,10463.3974609375,21253.427734375,16283.9892578125,2226.82958984375,1860.459716796875,7727.94091796875,16635.259765625,13484.955078125,15800.794921875,11790.5927734375,2218.08740234375,2685.387939453125,11019.70703125,0.0,6436.5068359375,10481.6748046875,10421.2763671875,6656.646484375,11398.7919921875,13739.2685546875,18759.568359375,-12940.56640625,3128.846435546875,13342.6982421875,8977.25390625,7671.51513671875,6916.52294921875,0.0,11691.2529296875
6132.1259765625,4162.78857421875,17014.345703125,7498.26416015625,18289.884765625,7337.72900390625,10547.6376953125,15690.3271484375,7897.2177734375,9913.4443359375,6919.7021484375,9768.8037109375,-4848.63916015625,0.0,14642.875,14732.6787109375,1779.3973388671875,1733.3031005859375,6130.53662109375,9171.962890625,5313.55517578125,12234.0517578125,9448.5283203125,24178.82421875,596.0464477539062,3801.186767578125,8314.4501953125,15414.5556640625,-4638.83056640625,2036.8892822265625,19750.595703125,-10293.32421875,-3085.136474609375,3577.0732421875,11493.365234375,12815.79296875,7960.001953125,10809.8984375,8863.6083984375,-0.0,7393.3603515625,28282.0078125,32374.859375,10471.34375,21251.8359375,16289.552734375,2226.82958984375,1920.0643310546875,7740.65625,16644.796875,13462.703125,15812.7158203125,11799.3359375,2270.53955078125,2690.951171875,11033.2177734375,0.0,6450.81201171875,10460.2177734375,10433.9912109375,6690.8203125,11403.560546875,13740.857421875,18755.59375,-12932.6181640625,3143.9462890625,13318.8564453125,8974.0751953125,7634.9580078125,6915.72802734375,0.0,11682.5107421875
6137.68896484375,4225.572265625,16984.939453125,7540.384765625,18304.189453125,7345.67626953125,10553.99609375,15698.2744140625,7901.19189453125,9915.0341796875,6927.64892578125,9779.9296875,-4841.486328125,0.0,14650.02734375,14739.0361328125,1781.781494140625,1742.0450439453125,6135.3046875,9175.9365234375,5319.11865234375,12239.615234375,9456.4755859375,24184.384765625,598.4306640625,3808.33935546875,8321.6025390625,15424.8876953125,-4629.2939453125,2044.8367919921875,19756.953125,-10294.9140625,-3089.90478515625,3586.610107421875,11503.6962890625,12820.5615234375,7966.359375,10817.05078125,8972.4853515625,-0.0,7413.228515625,28283.595703125,32385.189453125,10478.49609375,21257.400390625,16295.1142578125,2230.00830078125,1953.44287109375,7763.70361328125,16652.7421875,13469.85546875,15820.6611328125,11820.79296875,2283.25537109375,2696.51416015625,11038.7802734375,0.0,6456.375,10466.5751953125,10440.349609375,6701.9462890625,11409.123046875,13745.6259765625,18761.158203125,-12922.287109375,3150.30419921875,13324.419921875,8989.1748046875,7634.9580078125,6923.67578125,0.0,11681.7158203125
6111.462890625,4216.82958984375,17000.041015625,7557.07421875,18294.65234375,7338.52392578125,10546.84375,15688.73828125,7898.8076171875,9915.0341796875,6910.9599609375,9766.4189453125,-4851.0234375,0.0,14652.4111328125,14727.115234375,1776.2183837890625,1734.0977783203125,6129.74169921875,9173.552734375,5311.1708984375,12238.025390625,9449.322265625,24177.232421875,589.6885986328125,3801.186767578125,8316.833984375,15416.939453125,-4630.0888671875,2032.915771484375,19751.390625,-10316.3720703125,-3092.2890625,3585.020751953125,11497.337890625,12815.79296875,7960.79638671875,10808.30859375,8927.9814453125,-0.0,7399.7177734375,28285.98046875,32379.626953125,10470.5498046875,21251.8359375,16291.9365234375,2216.498046875,1922.448486328125,7761.31982421875,16647.1796875,13469.85546875,15811.125,11821.587890625,2247.492431640625,2687.77197265625,11032.421875,0.0,6436.5068359375,10472.138671875,10431.607421875,6699.56201171875,11401.1767578125,13740.0625,18767.515625,-12926.2607421875,3140.767333984375,13328.392578125,8990.7646484375,7646.083984375,6927.64892578125,0.0,11692.046875
6062.189453125,4204.1142578125,17017.5234375,7543.56396484375,18293.857421875,7336.1396484375,10545.25390625,15680.7900390625,7899.60205078125,9915.8291015625,6912.54931640625,9759.2666015625,-4853.4072265625,0.0,14660.3583984375,14720.7578125,1778.6025390625,1734.0977783203125,6125.76806640625,9176.7314453125,5312.7607421875,12236.435546875,9446.9384765625,24175.64453125,596.0464477539062,3798.008056640625,8320.013671875,15408.9931640625,-4631.67822265625,2031.3262939453125,19751.390625,-10313.193359375,-3085.93115234375,3586.610107421875,11496.5439453125,12814.2041015625,7960.001953125,10805.9248046875,8961.3603515625,-0.0,7404.486328125,28285.98046875,32380.419921875,10465.78125,21252.6328125,16287.9619140625,2229.213623046875,1904.169677734375,7765.29296875,16643.205078125,13475.41796875,15803.97265625,11802.513671875,2205.371826171875,2681.414306640625,11030.8330078125,0.0,6409.486328125,10475.318359375,10425.25,6705.919921875,11399.5869140625,13738.47265625,18768.310546875,-12928.6455078125,3140.767333984375,13334.7509765625,9002.685546875,7657.2099609375,6932.41748046875,0.0,11694.431640625
6048.67919921875,4176.298828125,16952.35546875,7534.82177734375,18289.884765625,7327.39794921875,10538.8955078125,15670.4580078125,7892.44921875,9907.8818359375,6910.9599609375,9746.5517578125,-4862.9443359375,0.0,14656.384765625,14710.4267578125,1769.06591796875,1724.56103515625,6117.02587890625,9169.578125,5306.40283203125,12227.6943359375,9439.7861328125,24166.90234375,596.0464477539062,3789.265869140625,8313.65625,15396.27734375,-4641.21484375,2022.584228515625,19741.853515625,-10312.3984375,-3110.56787109375,3577.0732421875,11488.5966796875,12807.0517578125,7952.849609375,10795.59375,8928.775390625,-0.0,7410.84423828125,28280.416015625,32373.267578125,10455.44921875,21244.68359375,16280.015625,2201.398193359375,1878.7384033203125,7759.72998046875,16633.66796875,13471.4443359375,15792.0517578125,11781.056640625,2158.48291015625,2678.2353515625,11018.1171875,0.0,6396.7705078125,10465.78125,10414.123046875,6694.7939453125,11392.4345703125,13731.3203125,18764.337890625,-12935.001953125,3130.43603515625,13329.982421875,8992.3544921875,7651.64697265625,6923.67578125,0.0,11686.484375
6076.49462890625,4157.22509765625,16993.681640625,7580.12158203125,18287.5,7332.166015625,10537.306640625,15671.2529296875,7892.44921875,9906.2919921875,6915.72802734375,9740.193359375,-4859.765625,0.0,14650.8212890625,14711.220703125,1769.860595703125,1726.9453125,6116.2314453125,9166.400390625,5311.1708984375,12235.6416015625,9436.607421875,24166.107421875,603.198974609375,3791.650146484375,8308.8876953125,15398.6611328125,-4644.39404296875,2026.557861328125,19744.23828125,-10330.6767578125,-3079.573486328125,3590.583740234375,11489.3916015625,12808.640625,7949.669921875,10794.798828125,8839.7666015625,-0.0,7410.04931640625,28295.517578125,32368.5,10457.8330078125,21245.48046875,16280.015625,2207.756103515625,1831.0546875,7754.96142578125,16636.84765625,13465.0869140625,15792.0517578125,11769.9306640625,2172.787841796875,2689.361572265625,11018.912109375,0.0,6400.744140625,10468.1650390625,10414.123046875,6666.978515625,11390.845703125,13730.5263671875,18765.130859375,-12935.001953125,3127.257080078125,13325.21484375,8981.2275390625,7647.67333984375,6917.31787109375,0.0,11691.2529296875
6048.67919921875,4112.720703125,17029.443359375,7671.51513671875,18289.884765625,7348.85546875,10537.306640625,15675.2265625,7892.44921875,9903.908203125,6914.93359375,9726.68359375,-4848.63916015625,0.0,14652.4111328125,14715.9892578125,1786.5499267578125,1734.8924560546875,6120.205078125,9165.6044921875,5325.47607421875,12257.099609375,9439.7861328125,24174.0546875,605.5831909179688,3803.571044921875,8314.4501953125,15407.4033203125,-4640.42041015625,2028.1474609375,19759.3359375,-10331.4716796875,-3041.426513671875,3628.730712890625,11496.5439453125,12822.1513671875,7950.46533203125,10799.5673828125,8751.5517578125,-0.0,7406.87060546875,28330.484375,32370.08984375,10464.986328125,21244.68359375,16280.015625,2220.4716796875,1749.1976318359375,7754.96142578125,16648.76953125,13467.470703125,15799.2041015625,11767.546875,2135.435791015625,2695.719482421875,11022.8857421875,0.0,6389.6181640625,10469.75390625,10419.6865234375,6628.83154296875,11397.2021484375,13731.3203125,18756.388671875,-12934.2080078125,3123.283447265625,13326.0087890625,8989.9697265625,7656.41552734375,6901.4228515625,0.0,11683.3046875
6040.73193359375,4036.426513671875,16930.103515625,7613.5,18301.009765625,7356.0078125,10549.2275390625,15681.5849609375,7901.19189453125,9912.650390625,6917.31787109375,9733.8359375,-4843.87060546875,0.0,14669.8955078125,14723.1416015625,1794.4971923828125,1742.0450439453125,6128.15234375,9172.7568359375,5333.423828125,12262.662109375,9450.912109375,24182.796875,603.198974609375,3818.6708984375,8331.9345703125,15419.32421875,-4632.47314453125,2032.1209716796875,19766.48828125,-10305.2451171875,-3057.32080078125,3623.96240234375,11505.2861328125,12830.0986328125,7963.1806640625,10809.103515625,8863.6083984375,-0.0,7419.5859375,28333.6640625,32383.6015625,10472.93359375,21254.220703125,16289.552734375,2214.90869140625,1760.3238525390625,7754.96142578125,16656.716796875,13482.5703125,15805.5625,11782.646484375,2133.051513671875,2702.8720703125,11028.44921875,0.0,6372.1337890625,10477.7021484375,10426.044921875,6631.21533203125,11405.9453125,13740.0625,18761.953125,-12926.2607421875,3127.257080078125,13342.6982421875,9001.8916015625,7664.3623046875,6907.78125,0.0,11684.1005859375
6067.7529296875,3961.721923828125,16888.77734375,7575.35302734375,18295.447265625,7344.0869140625,10544.458984375,15671.2529296875,7896.42333984375,9905.4970703125,6906.986328125,9734.630859375,-4843.076171875,0.0,14664.33203125,14712.015625,1780.98681640625,1730.9189453125,6121.79443359375,9166.400390625,5319.91357421875,12245.97265625,9442.169921875,24173.259765625,585.7149658203125,3809.928955078125,8325.5771484375,15414.5556640625,-4638.0361328125,2028.1474609375,19750.595703125,-10319.55078125,-3101.031005859375,3601.7099609375,11495.7490234375,12814.9990234375,7956.822265625,10799.5673828125,8957.3857421875,-0.0,7422.76513671875,28307.4375,32375.65234375,10464.19140625,21249.453125,16280.8095703125,2187.887939453125,1847.7440185546875,7743.04052734375,16654.333984375,13480.1865234375,15794.435546875,11791.388671875,2139.409423828125,2694.924560546875,11014.9384765625,0.0,6347.49755859375,10472.93359375,10414.123046875,6650.2890625,11396.408203125,13733.7041015625,18760.36328125,-12933.4130859375,3126.462158203125,13337.1357421875,9000.3017578125,7664.3623046875,6914.93359375,0.0,11675.357421875
6016.095703125,3939.4697265625,16967.455078125,7644.49462890625,18285.91015625,7338.52392578125,10536.51171875,15664.896484375,7890.0654296875,9897.5498046875,6897.44970703125,9718.7353515625,-4843.076171875,0.0,14652.4111328125,14704.86328125,1780.1920166015625,1724.56103515625,6113.84716796875,9160.8359375,5313.55517578125,12245.177734375,9435.8125,24165.3125,583.330810546875,3799.597412109375,8316.833984375,15409.787109375,-4634.857421875,2028.1474609375,19746.623046875,-10325.1142578125,-3085.93115234375,3605.68359375,11489.3916015625,12810.23046875,7948.0810546875,10793.208984375,9009.837890625,-0.0,7394.94921875,28307.4375,32367.70703125,10457.8330078125,21243.095703125,16276.041015625,2191.066650390625,1906.5538330078125,7748.60400390625,16643.205078125,13467.470703125,15787.283203125,11759.5986328125,2111.593994140625,2680.619384765625,11003.8115234375,0.0,6345.90771484375,10470.5498046875,10410.9453125,6666.978515625,11391.6396484375,13727.34765625,18758.7734375,-12938.181640625,3121.69384765625,13325.21484375,8987.5859375,7654.82568359375,6905.39697265625,0.0,11675.357421875
5996.22705078125,4102.388671875,16985.734375,7600.7841796875,18286.705078125,7326.60302734375,10531.7431640625,15660.1279296875,7884.50244140625,9899.1396484375,6901.4228515625,9719.53125,-4849.43408203125,0.0,14647.6435546875,14699.2998046875,1777.01318359375,1721.382080078125,6109.0791015625,9157.6572265625,5307.19775390625,12232.462890625,9433.4287109375,24158.955078125,588.8939208984375,3789.265869140625,8305.708984375,15390.7138671875,-4632.47314453125,2021.78955078125,19741.05859375,-10313.193359375,-3090.699462890625,3592.968017578125,11486.212890625,12803.8720703125,7944.10693359375,10787.646484375,8993.943359375,-0.0,7394.94921875,28286.775390625,32363.73046875,10448.296875,21239.123046875,16271.2724609375,2207.756103515625,1937.54833984375,7757.345703125,16628.900390625,13461.11328125,15782.5146484375,11744.4990234375,2102.851806640625,2663.135498046875,11003.8115234375,0.0,6396.7705078125,10465.78125,10406.1767578125,6668.56787109375,11386.87109375,13724.16796875,18757.978515625,-12941.3603515625,3117.720458984375,13321.240234375,8982.0224609375,7650.85205078125,6908.57568359375,0.0,11675.357421875
6068.5478515625,4242.26123046875,17045.33984375,7584.8896484375,18281.140625,7328.1923828125,10531.7431640625,15659.33203125,7887.68115234375,9899.93359375,6919.7021484375,9724.2998046875,-4847.8447265625,0.0,14651.6162109375,14699.2998046875,1771.4500732421875,1719.792724609375,6108.2841796875,9160.0419921875,5292.892578125,12231.66796875,9431.8388671875,24158.955078125,580.15185546875,3790.85546875,8308.0927734375,15388.3291015625,-4634.0625,2013.0474853515625,19735.494140625,-10297.298828125,-3121.69384765625,3600.915283203125,11479.8544921875,12803.8720703125,7945.69677734375,10786.8505859375,9027.322265625,-0.0,7383.8232421875,28288.365234375,32362.14453125,10446.7080078125,21240.7109375,16272.86328125,2246.69775390625,1895.427734375,7746.2197265625,16636.052734375,13465.0869140625,15780.92578125,11787.4140625,2108.414794921875,2680.619384765625,11007.7861328125,0.0,6424.5859375,10464.986328125,10400.61328125,6681.28369140625,11382.8974609375,13725.7578125,18760.36328125,-12938.9765625,3116.130859375,13324.419921875,8980.43359375,7658.0048828125,6907.78125,0.0,11680.1259765625
6141.66259765625,4234.31396484375,17016.728515625,7562.63720703125,18288.29296875,7332.166015625,10541.2802734375,15663.3056640625,7894.0390625,9900.7294921875,6917.31787109375,9735.4248046875,-4828.77099609375,0.0,14660.3583984375,14702.4794921875,1769.06591796875,1723.766357421875,6113.84716796875,9165.6044921875,5296.0712890625,12231.66796875,9438.197265625,24160.54296875,557.8994750976562,3793.239501953125,8325.5771484375,15389.125,-4634.0625,2017.021240234375,19738.673828125,-10293.32421875,-3131.230712890625,3588.19970703125,11485.4169921875,12805.4619140625,7955.2333984375,10790.8251953125,9009.837890625,-0.0,7409.25439453125,28288.365234375,32370.08984375,10450.6806640625,21248.658203125,16273.6572265625,2251.466064453125,1867.6121826171875,7740.65625,16639.232421875,13477.0078125,15783.3095703125,11791.388671875,2151.330322265625,2708.43505859375,11014.9384765625,0.0,6431.73828125,10467.3701171875,10407.765625,6690.8203125,11387.666015625,13729.7314453125,18763.54296875,-12935.001953125,3122.48876953125,13333.1611328125,8990.7646484375,7662.77294921875,6911.75439453125,0.0,11684.1005859375
6140.0732421875,4209.67724609375,17008.78125,7542.76904296875,18286.705078125,7327.39794921875,10536.51171875,15662.51171875,7892.44921875,9900.7294921875,6906.19140625,9744.9619140625,-4822.4130859375,0.0,14650.8212890625,14702.4794921875,1765.886962890625,1722.1768798828125,6113.05224609375,9165.6044921875,5296.0712890625,12226.8994140625,9438.197265625,24158.955078125,561.078369140625,3791.650146484375,8316.833984375,15385.9453125,-4640.42041015625,2009.86865234375,19737.0859375,-10311.603515625,-3120.899169921875,3576.27880859375,11486.212890625,12803.8720703125,7950.46533203125,10790.8251953125,8969.306640625,-0.0,7392.5654296875,28278.828125,32368.5,10449.88671875,21243.890625,16272.86328125,2213.319091796875,1873.17529296875,7743.83544921875,16630.4921875,13466.67578125,15782.5146484375,11775.4931640625,2228.4189453125,2710.8193359375,11012.5537109375,0.0,6420.6123046875,10466.5751953125,10410.1494140625,6693.9990234375,11389.255859375,13728.9365234375,18762.74609375,-12938.181640625,3124.872802734375,13323.625,8989.1748046875,7658.7998046875,6913.34375,0.0,11685.689453125
6151.19921875,4221.59814453125,17008.78125,7538.00048828125,18285.115234375,7326.60302734375,10532.5380859375,15661.716796875,7891.65478515625,9898.3447265625,6910.16552734375,9742.5771484375,-4834.333984375,0.0,14648.4375,14700.8896484375,1760.3238525390625,1720.58740234375,6111.462890625,9164.015625,5296.0712890625,12226.1044921875,9437.4013671875,24158.955078125,592.8675537109375,3790.060791015625,8287.4296875,15385.1513671875,-4641.21484375,2005.1002197265625,19737.0859375,-10329.8828125,-3114.541259765625,3568.33154296875,11484.623046875,12803.8720703125,7946.4912109375,10790.0302734375,8915.2646484375,-0.0,7371.90234375,28280.416015625,32363.73046875,10447.501953125,21241.505859375,16271.2724609375,2198.21923828125,1864.433349609375,7749.39892578125,16628.107421875,13464.2919921875,15780.130859375,11796.951171875,2249.081787109375,2698.103759765625,11009.3759765625,0.0,6411.07568359375,10466.5751953125,10408.560546875,6685.2568359375,11388.4609375,13728.1416015625,18758.7734375,-12940.56640625,3124.078125,13322.830078125,8985.2021484375,7658.0048828125,6904.60205078125,0.0,11679.33203125
6141.66259765625,4220.0087890625,17013.55078125,7560.2529296875,18293.0625,7334.55029296875,10544.458984375,15667.2802734375,7898.8076171875,9906.2919921875,6922.880859375,9747.345703125,-4859.765625,0.0,14661.1533203125,14706.4521484375,1765.886962890625,1728.53466796875,6120.205078125,9172.7568359375,5304.8134765625,12233.2568359375,9443.759765625,24166.107421875,614.3251953125,3794.0341796875,8305.708984375,15391.5087890625,-4639.62548828125,2017.8157958984375,19745.826171875,-10329.8828125,-3101.82568359375,3569.126220703125,11490.9814453125,12812.6142578125,7955.2333984375,10795.59375,8896.19140625,-0.0,7379.05517578125,28287.568359375,32375.65234375,10453.064453125,21252.6328125,16278.4248046875,2244.3134765625,1874.7647705078125,7763.70361328125,16633.66796875,13475.41796875,15785.6943359375,11811.2568359375,2231.597900390625,2694.1298828125,11018.1171875,0.0,6411.07568359375,10477.7021484375,10413.3291015625,6673.3359375,11395.61328125,13736.0888671875,18765.92578125,-12937.38671875,3128.846435546875,13334.7509765625,8989.9697265625,7665.9521484375,6906.986328125,0.0,11685.689453125
6124.97314453125,4200.935546875,17008.78125,7587.27392578125,18297.037109375,7342.49755859375,10553.201171875,15675.2265625,7909.138671875,9915.0341796875,6935.5966796875,9752.9091796875,-4870.0966796875,0.0,14675.4580078125,14715.9892578125,1774.6290283203125,1734.8924560546875,6127.357421875,9181.4990234375,5310.37646484375,12244.3837890625,9452.501953125,24174.84765625,613.5304565429688,3805.955078125,8330.3447265625,15402.634765625,-4638.0361328125,2028.942138671875,19752.18359375,-10321.9345703125,-3092.2890625,3588.994384765625,11499.72265625,12822.1513671875,7965.56494140625,10805.1298828125,8898.576171875,-0.0,7379.85009765625,28298.697265625,32383.6015625,10463.3974609375,21262.16796875,16287.1689453125,2239.545166015625,1878.7384033203125,7766.087890625,16644.796875,13488.9287109375,15797.615234375,11815.23046875,2223.650634765625,2696.51416015625,11029.2431640625,0.0,6411.87060546875,10493.595703125,10423.66015625,6681.28369140625,11403.560546875,13744.037109375,18774.66796875,-12930.234375,3137.58837890625,13349.056640625,8994.73828125,7688.2041015625,6914.138671875,0.0,11694.431640625
6124.17822265625,4174.70947265625,16974.607421875,7607.14208984375,18298.625,7348.060546875,10553.99609375,15679.201171875,7905.9599609375,9915.8291015625,6935.5966796875,9752.9091796875,-4872.48095703125,0.0,14669.8955078125,14720.7578125,1779.3973388671875,1741.2503662109375,6128.94677734375,9178.3212890625,5317.529296875,12253.125,9455.6806640625,24178.02734375,607.9674072265625,3812.31298828125,8335.908203125,15410.5830078125,-4639.62548828125,2035.300048828125,19757.748046875,-10320.345703125,-3085.93115234375,3598.531005859375,11502.1064453125,12827.7138671875,7968.7431640625,10807.5146484375,8913.67578125,-0.0,7394.15478515625,28312.20703125,32385.986328125,10468.1650390625,21262.16796875,16288.7578125,2222.06103515625,1881.12255859375,7765.29296875,16651.94921875,13485.7490234375,15799.9990234375,11822.3828125,2197.424560546875,2702.0771484375,11035.6015625,0.0,6410.28076171875,10487.2392578125,10424.455078125,6699.56201171875,11407.5341796875,13744.037109375,18771.490234375,-12924.6708984375,3144.740966796875,13345.08203125,8989.9697265625,7670.720703125,6920.49658203125,0.0,11692.046875
6128.15234375,4164.3779296875,16975.40234375,7636.546875,18302.599609375,7356.0078125,10558.7646484375,15684.7626953125,7908.34423828125,9921.3916015625,6937.185546875,9751.3203125,-4849.43408203125,0.0,14670.689453125,14724.7314453125,1789.728759765625,1747.608154296875,6132.9208984375,9183.8837890625,5324.681640625,12262.662109375,9457.2705078125,24184.384765625,612.7357177734375,3817.876220703125,8327.9609375,15416.939453125,-4635.65185546875,2034.505126953125,19765.6953125,-10314.7822265625,-3077.98388671875,3619.194091796875,11507.669921875,12835.662109375,7970.3330078125,10810.6923828125,8904.93359375,-0.0,7398.92333984375,28320.154296875,32386.779296875,10475.318359375,21265.34765625,16293.525390625,2227.624267578125,1896.222412109375,7766.88232421875,16656.716796875,13487.3388671875,15805.5625,11831.919921875,2135.435791015625,2710.024658203125,11037.9853515625,0.0,6411.87060546875,10486.443359375,10427.6337890625,6696.3828125,11411.5078125,13748.009765625,18778.642578125,-12919.90234375,3141.562255859375,13345.8779296875,8993.1484375,7669.92578125,6929.23876953125,0.0,11699.19921875
6117.02587890625,4151.662109375,17025.470703125,7622.2421875,18308.162109375,7368.7236328125,10564.3271484375,15696.68359375,7913.9072265625,9930.1337890625,6941.15966796875,9752.1142578125,-4835.923828125,0.0,14674.6630859375,14735.0625,1801.649658203125,1755.5555419921875,6140.86767578125,9190.2421875,5330.24462890625,12272.1982421875,9463.6279296875,24194.716796875,619.0935668945312,3828.207763671875,8320.013671875,15428.06640625,-4629.2939453125,2036.0947265625,19773.640625,-10290.9404296875,-3072.4208984375,3628.730712890625,11514.02734375,12844.4033203125,7975.1015625,10820.2294921875,8904.1396484375,-0.0,7402.89697265625,28336.84375,32390.75390625,10485.6494140625,21270.91015625,16302.2666015625,2245.1083984375,1864.433349609375,7768.47216796875,16667.84375,13490.517578125,15815.099609375,11833.5087890625,2191.861328125,2710.8193359375,11042.75390625,0.0,6413.4599609375,10488.033203125,10439.5546875,6714.662109375,11418.66015625,13757.546875,18783.41015625,-12915.9287109375,3143.151611328125,13347.466796875,9000.3017578125,7676.283203125,6936.39111328125,0.0,11707.9423828125
6107.4892578125,4117.48876953125,17011.9609375,7605.552734375,18296.2421875,7358.39208984375,10552.40625,15681.5849609375,7899.60205078125,9916.623046875,6927.64892578125,9731.4521484375,-4843.076171875,0.0,14659.564453125,14719.962890625,1790.5235595703125,1742.0450439453125,6128.15234375,9175.9365234375,5315.939453125,12261.8671875,9454.0908203125,24182.796875,603.9937133789062,3815.491943359375,8315.24609375,15418.529296875,-4638.83056640625,2023.3790283203125,19761.720703125,-10292.5302734375,-3088.315185546875,3622.372802734375,11502.90234375,12831.6875,7964.7705078125,10807.5146484375,8932.75,-0.0,7394.15478515625,28329.69140625,32380.419921875,10473.728515625,21258.1953125,16288.7578125,2230.80322265625,1773.0394287109375,7750.193359375,16659.89453125,13474.6240234375,15803.1787109375,11817.6142578125,2200.603515625,2692.54052734375,11026.064453125,0.0,6399.94970703125,10469.75390625,10429.22265625,6717.8408203125,11406.7392578125,13744.037109375,18767.515625,-12926.2607421875,3131.230712890625,13332.3671875,8982.8173828125,7663.56787109375,6921.29150390625,0.0,11690.45703125
6101.92626953125,4123.8466796875,16992.88671875,7616.6787109375,18301.009765625,7359.9814453125,10558.7646484375,15684.7626953125,7909.138671875,9919.0068359375,6920.49658203125,9742.5771484375,-4835.923828125,0.0,14672.279296875,14723.9375,1792.90771484375,1744.42919921875,6130.53662109375,9179.91015625,5326.27099609375,12263.45703125,9458.0654296875,24185.1796875,606.3779296875,3815.491943359375,8326.37109375,15423.2978515625,-4638.0361328125,2028.942138671875,19764.900390625,-10300.4765625,-3065.268310546875,3620.783447265625,11507.669921875,12832.482421875,7971.9228515625,10811.48828125,8880.2978515625,-0.0,7411.638671875,28323.33203125,32385.986328125,10478.49609375,21265.34765625,16293.525390625,2207.756103515625,1803.2392578125,7754.1669921875,16667.84375,13488.1337890625,15806.3564453125,11803.3095703125,2195.04052734375,2679.82470703125,11030.0380859375,0.0,6410.28076171875,10486.443359375,10429.22265625,6699.56201171875,11409.9189453125,13749.599609375,18769.8984375,-12927.849609375,3135.9990234375,13347.466796875,8984.40625,7682.6416015625,6925.2646484375,0.0,11696.021484375
6062.984375,4146.09912109375,16987.32421875,7555.48486328125,18297.830078125,7356.0078125,10555.5849609375,15687.1474609375,7909.93408203125,9925.365234375,6917.31787109375,9760.0625,-4834.333984375,0.0,14662.7421875,14728.705078125,1792.90771484375,1744.42919921875,6131.3310546875,9183.8837890625,5326.27099609375,12254.71484375,9458.0654296875,24185.1796875,591.278076171875,3811.518310546875,8322.3984375,15418.529296875,-4637.2412109375,2036.0947265625,19763.310546875,-10290.1455078125,-3060.5,3597.736328125,11506.875,12831.6875,7969.53857421875,10813.0771484375,8862.8134765625,-0.0,7410.04931640625,28312.20703125,32385.189453125,10479.291015625,21264.552734375,16297.4990234375,2195.835205078125,1881.9173583984375,7751.78271484375,16667.046875,13479.3916015625,15808.740234375,11789.798828125,2191.066650390625,2679.82470703125,11035.6015625,0.0,6421.4072265625,10488.033203125,10433.197265625,6672.541015625,11409.123046875,13752.7783203125,18777.84765625,-12932.6181640625,3142.35693359375,13337.1357421875,8992.3544921875,7674.69384765625,6932.41748046875,0.0,11706.3525390625
6008.1484375,4147.6884765625,16961.892578125,7538.79541015625,18293.0625,7340.908203125,10546.0478515625,15679.994140625,7897.2177734375,9915.8291015625,6918.9072265625,9753.7041015625,-4840.69189453125,0.0,14646.0537109375,14718.373046875,1781.781494140625,1737.2767333984375,6121.0,9173.552734375,5318.32373046875,12241.2041015625,9450.1181640625,24174.84765625,592.8675537109375,3798.802734375,8309.681640625,15399.4560546875,-4641.21484375,2028.942138671875,19752.18359375,-10306.8349609375,-3075.599609375,3585.020751953125,11498.927734375,12821.3564453125,7960.001953125,10804.3359375,8935.9287109375,-0.0,7412.43359375,28296.3125,32378.037109375,10464.986328125,21254.220703125,16287.9619140625,2198.21923828125,1880.327880859375,7743.04052734375,16644.796875,13459.5234375,15800.794921875,11782.646484375,2169.609130859375,2696.51416015625,11025.26953125,0.0,6401.5390625,10469.75390625,10427.6337890625,6656.646484375,11401.1767578125,13742.447265625,18768.310546875,-12933.4130859375,3134.40966796875,13318.0615234375,8990.7646484375,7645.2890625,6922.880859375,0.0,11692.046875
6019.2744140625,4160.404296875,16978.58203125,7560.2529296875,18297.037109375,7341.703125,10550.81640625,15680.7900390625,7901.986328125,9918.212890625,6918.1123046875,9737.8095703125,-4854.9970703125,0.0,14660.3583984375,14719.962890625,1777.807861328125,1737.2767333984375,6124.17822265625,9177.525390625,5318.32373046875,12244.3837890625,9451.70703125,24177.232421875,601.6095581054688,3796.41845703125,8320.013671875,15405.814453125,-4641.21484375,2030.5316162109375,19753.775390625,-10314.7822265625,-3083.546875,3588.19970703125,11500.517578125,12823.7412109375,7963.97509765625,10807.5146484375,8929.5703125,-0.0,7417.9970703125,28302.669921875,32384.396484375,10465.78125,21258.990234375,16291.9365234375,2225.239990234375,1872.380615234375,7749.39892578125,16643.205078125,13475.41796875,15801.587890625,11789.798828125,2174.37744140625,2700.48779296875,11028.44921875,0.0,6372.1337890625,10473.728515625,10429.22265625,6683.66748046875,11404.35546875,13746.4208984375,18769.8984375,-12931.82421875,3130.43603515625,13333.1611328125,8996.3271484375,7659.59423828125,6923.67578125,0.0,11691.2529296875
6097.9521484375,4163.58349609375,17036.595703125,7607.14208984375,18297.830078125,7348.060546875,10557.96875,15687.1474609375,7911.52294921875,9931.7236328125,6926.0595703125,9734.630859375,-4852.61279296875,0.0,14668.3056640625,14727.115234375,1785.755126953125,1745.2239990234375,6132.9208984375,9188.65234375,5324.681640625,12254.71484375,9458.0654296875,24185.9765625,603.9937133789062,3801.981689453125,8327.9609375,15408.1982421875,-4637.2412109375,2040.863037109375,19763.310546875,-10305.2451171875,-3066.06298828125,3608.06787109375,11506.0810546875,12830.0986328125,7971.12744140625,10814.6669921875,8846.1240234375,-0.0,7409.25439453125,28313.001953125,32385.986328125,10471.34375,21267.732421875,16302.2666015625,2233.1875,1908.9381103515625,7750.193359375,16648.76953125,13482.5703125,15807.947265625,11795.361328125,2133.051513671875,2705.256103515625,11036.396484375,0.0,6394.38623046875,10478.49609375,10437.9658203125,6711.48291015625,11412.302734375,13755.162109375,18787.384765625,-12925.4658203125,3132.820068359375,13341.109375,9016.1962890625,7667.54150390625,6943.5439453125,0.0,11713.5048828125
6145.63623046875,4105.56787109375,17038.1875,7643.69970703125,18304.189453125,7353.6240234375,10562.7373046875,15689.53125,7913.11279296875,9934.90234375,6931.623046875,9747.345703125,-4850.22900390625,0.0,14670.689453125,14728.705078125,1792.90771484375,1750.787109375,6136.89404296875,9191.8310546875,5330.24462890625,12263.45703125,9461.2431640625,24189.154296875,603.198974609375,3807.544677734375,8335.11328125,15408.1982421875,-4632.47314453125,2044.0418701171875,19768.873046875,-10302.861328125,-3058.910400390625,3627.141357421875,11509.2587890625,12836.4560546875,7974.30712890625,10817.845703125,8834.998046875,-0.0,7417.9970703125,28326.51171875,32391.548828125,10475.318359375,21270.1171875,16303.857421875,2227.624267578125,1875.5594482421875,7748.60400390625,16653.537109375,13485.7490234375,15810.3310546875,11800.9248046875,2137.025146484375,2711.614013671875,11031.6279296875,0.0,6432.533203125,10483.2646484375,10441.939453125,6705.12548828125,11415.4814453125,13759.9306640625,18788.1796875,-12921.4921875,3139.97265625,13343.4931640625,9021.7587890625,7667.54150390625,6945.13330078125,0.0,11712.7099609375
6121.0,4075.368408203125,17025.470703125,7619.85791015625,18303.39453125,7351.23974609375,10560.353515625,15690.3271484375,7917.08642578125,9934.107421875,6928.44384765625,9741.783203125,-4844.66552734375,0.0,14680.2265625,14729.5,1789.728759765625,1746.8134765625,6133.71533203125,9193.419921875,5327.06591796875,12263.45703125,9458.859375,24187.564453125,611.1463012695312,3807.544677734375,8336.703125,15409.787109375,-4630.0888671875,2035.300048828125,19766.48828125,-10310.013671875,-3066.06298828125,3619.194091796875,11510.0546875,12833.27734375,7973.51171875,10817.05078125,8869.9658203125,-0.0,7418.79150390625,28327.306640625,32391.548828125,10474.5224609375,21270.91015625,16303.0625,2229.213623046875,1835.822998046875,7753.3720703125,16650.357421875,13496.8759765625,15810.3310546875,11798.541015625,2147.356689453125,2713.203369140625,11018.1171875,0.0,6441.27490234375,10496.775390625,10442.7333984375,6680.48876953125,11412.302734375,13759.9306640625,18790.564453125,-12920.697265625,3133.61474609375,13355.4140625,9013.8125,7696.15185546875,6943.5439453125,0.0,11712.7099609375
6055.037109375,4074.573486328125,16962.6875,7603.96337890625,18290.677734375,7332.166015625,10542.869140625,15672.841796875,7899.60205078125,9916.623046875,6914.93359375,9727.478515625,-4853.4072265625,0.0,14661.1533203125,14713.6044921875,1777.01318359375,1730.9189453125,6117.02587890625,9175.9365234375,5315.939453125,12247.5625,9442.9658203125,24170.080078125,600.8148193359375,3793.239501953125,8315.24609375,15393.8935546875,-4646.7783203125,2018.6107177734375,19751.390625,-10313.193359375,-3083.546875,3604.888916015625,11495.7490234375,12817.3828125,7956.822265625,10801.15625,8977.25390625,-0.0,7418.79150390625,28301.080078125,32376.44921875,10454.654296875,21253.427734375,16286.373046875,2209.345458984375,1862.049072265625,7735.09375,16631.28515625,13478.5966796875,15793.6416015625,11777.8779296875,2123.514892578125,2688.56689453125,11002.22265625,0.0,6402.33349609375,10479.291015625,10426.044921875,6652.67333984375,11394.0234375,13740.0625,18771.490234375,-12936.591796875,3118.51513671875,13337.9296875,8990.7646484375,7682.6416015625,6927.64892578125,0.0,11696.021484375
6004.1748046875,4094.44189453125,16939.640625,7629.39453125,18282.732421875,7324.21875,10530.9482421875,15664.896484375,7889.27099609375,9904.7021484375,6906.19140625,9726.68359375,-4867.71240234375,0.0,14653.2060546875,14703.2734375,1780.1920166015625,1726.1505126953125,6106.69482421875,9164.015625,5312.7607421875,12242.7939453125,9435.017578125,24162.134765625,587.304443359375,3784.49755859375,8304.119140625,15387.53515625,-4658.69921875,2018.6107177734375,19749.005859375,-10313.193359375,-3085.136474609375,3614.42578125,11489.3916015625,12811.0244140625,7944.9013671875,10790.0302734375,8989.9697265625,-0.0,7417.2021484375,28291.544921875,32366.912109375,10445.912109375,21243.095703125,16276.8359375,2187.887939453125,1861.25439453125,7724.76171875,16623.337890625,13467.470703125,15785.6943359375,11769.1357421875,2106.82568359375,2675.85107421875,11002.22265625,0.0,6378.49169921875,10468.9599609375,10414.123046875,6642.341796875,11385.28125,13731.3203125,18757.185546875,-12943.7451171875,3113.74658203125,13326.8037109375,8987.5859375,7677.078125,6914.138671875,0.0,11680.9208984375
6053.44775390625,4117.48876953125,16995.271484375,7638.93115234375,18282.732421875,7332.96044921875,10538.1015625,15671.2529296875,7890.8603515625,9911.060546875,6916.52294921875,9732.24609375,-4872.48095703125,0.0,14650.8212890625,14709.6318359375,1793.7025146484375,1734.0977783203125,6114.6416015625,9170.373046875,5315.939453125,12251.5361328125,9442.169921875,24171.671875,588.8939208984375,3789.265869140625,8307.2978515625,15390.7138671875,-4651.54638671875,2030.5316162109375,19759.3359375,-10291.7353515625,-3078.778564453125,3627.141357421875,11494.9541015625,12819.7666015625,7949.669921875,10797.1826171875,9036.8583984375,-0.0,7396.5390625,28301.080078125,32371.681640625,10454.654296875,21243.890625,16283.9892578125,2206.96142578125,1848.5386962890625,7739.86181640625,16624.927734375,13465.0869140625,15792.0517578125,11784.236328125,2164.8408203125,2682.208984375,11014.1435546875,0.0,6395.9755859375,10466.5751953125,10423.66015625,6664.59423828125,11394.0234375,13736.0888671875,18764.337890625,-12941.3603515625,3125.66748046875,13322.830078125,9005.0693359375,7654.03125,6924.47021484375,0.0,11690.45703125
6105.89990234375,4161.99365234375,17038.1875,7555.48486328125,18293.0625,7340.11328125,10542.869140625,15678.40625,7888.4765625,9920.5966796875,6934.00732421875,9748.935546875,-4859.765625,0.0,14638.1064453125,14718.373046875,1792.90771484375,1742.0450439453125,6121.79443359375,9174.3466796875,5324.681640625,12251.5361328125,9450.1181640625,24178.02734375,614.3251953125,3800.39208984375,8305.708984375,15395.482421875,-4634.857421875,2037.6842041015625,19761.720703125,-10275.0458984375,-3070.03662109375,3588.994384765625,11501.3125,12825.330078125,7954.43798828125,10804.3359375,9053.5478515625,-0.0,7414.81787109375,28302.669921875,32377.2421875,10463.3974609375,21245.48046875,16291.9365234375,2235.571533203125,1864.433349609375,7766.087890625,16636.052734375,13454.7548828125,15799.9990234375,11801.7197265625,2232.392578125,2705.256103515625,11023.6806640625,0.0,6421.4072265625,10457.8330078125,10433.9912109375,6669.3623046875,11402.7666015625,13742.447265625,18774.66796875,-12919.90234375,3138.383056640625,13311.7041015625,9021.7587890625,7619.85791015625,6942.7490234375,0.0,11707.146484375
6046.294921875,4193.78271484375,17015.93359375,7537.2060546875,18301.009765625,7337.72900390625,10546.84375,15679.994140625,7893.24462890625,9920.5966796875,6918.1123046875,9750.525390625,-4847.0498046875,0.0,14647.6435546875,14719.1689453125,1788.93408203125,1741.2503662109375,6121.79443359375,9177.525390625,5327.06591796875,12244.3837890625,9450.1181640625,24176.439453125,612.7357177734375,3801.981689453125,8312.861328125,15401.0458984375,-4637.2412109375,2033.71044921875,19760.1328125,-10273.45703125,-3060.5,3573.099853515625,11502.90234375,12821.3564453125,7958.412109375,10804.3359375,8962.154296875,-0.0,7435.48046875,28289.16015625,32381.21875,10464.19140625,21247.86328125,16291.1416015625,2219.677001953125,1910.527587890625,7770.8564453125,16642.412109375,13464.2919921875,15800.794921875,11780.26171875,2252.260986328125,2702.8720703125,11022.0908203125,0.0,6405.51220703125,10464.986328125,10432.40234375,6659.82568359375,11401.970703125,13746.4208984375,18777.84765625,-12924.6708984375,3136.7939453125,13322.830078125,9009.837890625,7642.1103515625,6938.775390625,0.0,11707.146484375
6006.55908203125,4143.71484375,17026.265625,7568.9951171875,18301.8046875,7342.49755859375,10547.6376953125,15681.5849609375,7895.62890625,9922.1865234375,6917.31787109375,9749.73046875,-4832.74462890625,0.0,14648.4375,14719.962890625,1796.086669921875,1744.42919921875,6124.17822265625,9179.115234375,5331.03955078125,12249.9462890625,9452.501953125,24181.20703125,600.0200805664062,3807.544677734375,8316.0400390625,15408.1982421875,-4632.47314453125,2042.4525146484375,19766.48828125,-10266.3037109375,-3051.7578125,3597.736328125,11506.875,12825.330078125,7960.001953125,10807.5146484375,8889.0390625,-0.0,7426.73876953125,28293.927734375,32382.8046875,10468.1650390625,21251.04296875,16294.3212890625,2237.160888671875,1920.0643310546875,7751.78271484375,16650.357421875,13465.0869140625,15802.3837890625,11761.1884765625,2241.92919921875,2694.1298828125,11026.859375,0.0,6386.43896484375,10468.9599609375,10431.607421875,6681.28369140625,11404.35546875,13746.4208984375,18775.462890625,-12925.4658203125,3140.767333984375,13322.830078125,9008.248046875,7645.2890625,6936.39111328125,0.0,11703.9677734375
6084.4423828125,4154.04638671875,17049.3125,7578.53173828125,18289.08984375,7345.67626953125,10540.4853515625,15678.40625,7893.24462890625,9919.0068359375,6934.00732421875,9739.3994140625,-4830.3603515625,0.0,14652.4111328125,14717.5791015625,1786.5499267578125,1738.8662109375,6121.79443359375,9176.7314453125,5318.32373046875,12250.7412109375,9446.14453125,24178.82421875,598.4306640625,3805.16064453125,8298.556640625,15407.4033203125,-4635.65185546875,2033.71044921875,19761.720703125,-10289.3515625,-3068.447021484375,3605.68359375,11497.337890625,12822.9453125,7954.43798828125,10805.1298828125,8910.4970703125,-0.0,7395.744140625,28305.0546875,32373.267578125,10465.78125,21249.453125,16288.7578125,2247.492431640625,1827.875732421875,7727.94091796875,16644.001953125,13467.470703125,15799.9990234375,11782.646484375,2221.2666015625,2687.77197265625,11020.5009765625,0.0,6392.796875,10466.5751953125,10427.6337890625,6696.3828125,11397.2021484375,13741.65234375,18778.642578125,-12931.82421875,3129.641357421875,13326.0087890625,9001.8916015625,7657.2099609375,6930.033203125,0.0,11705.5576171875
6144.046875,4143.71484375,17036.595703125,7627.80517578125,18278.7578125,7345.67626953125,10540.4853515625,15677.6103515625,7886.09228515625,9908.67578125,6940.36474609375,9733.8359375,-4834.333984375,0.0,14655.58984375,14716.7841796875,1777.01318359375,1733.3031005859375,6117.82080078125,9168.7841796875,5304.0185546875,12250.7412109375,9441.3759765625,24177.232421875,607.9674072265625,3802.7763671875,8306.5029296875,15404.224609375,-4637.2412109375,2028.942138671875,19753.775390625,-10315.5771484375,-3087.5205078125,3599.325927734375,11489.3916015625,12823.7412109375,7955.2333984375,10803.5400390625,8947.849609375,-0.0,7375.8759765625,28314.58984375,32369.296875,10464.986328125,21248.658203125,16283.9892578125,2241.134765625,1812.7760009765625,7729.5302734375,16640.822265625,13469.0595703125,15798.41015625,11808.078125,2196.6298828125,2695.719482421875,11014.1435546875,0.0,6412.6650390625,10451.4765625,10426.8388671875,6696.3828125,11397.2021484375,13740.0625,18767.515625,-12935.7978515625,3123.283447265625,13328.392578125,8985.99609375,7649.2626953125,6905.39697265625,0.0,11693.63671875
6167.888671875,4107.9521484375,17027.85546875,7665.9521484375,18289.884765625,7356.0078125,10551.6123046875,15691.9150390625,7895.62890625,9914.2392578125,6941.15966796875,9744.1669921875,-4843.87060546875,0.0,14661.9482421875,14731.8837890625,1784.96044921875,1742.0450439453125,6127.357421875,9176.7314453125,5312.7607421875,12262.662109375,9450.912109375,24187.564453125,611.1463012695312,3809.928955078125,8320.80859375,15419.32421875,-4636.4462890625,2037.6842041015625,19762.515625,-10317.9619140625,-3088.315185546875,3632.70458984375,11499.72265625,12832.482421875,7964.7705078125,10815.4609375,8934.3388671875,-0.0,7388.591796875,28323.33203125,32378.833984375,10476.9072265625,21258.1953125,16295.1142578125,2249.876708984375,1860.459716796875,7745.4248046875,16654.333984375,13475.41796875,15813.5087890625,11825.5615234375,2171.198486328125,2685.387939453125,11024.474609375,0.0,6441.27490234375,10472.138671875,10443.5283203125,6697.177734375,11408.3291015625,13748.009765625,18769.8984375,-12927.849609375,3131.230712890625,13335.5458984375,8997.9169921875,7652.44140625,6911.75439453125,0.0,11696.021484375
6136.89404296875,4185.83544921875,17012.75390625,7561.0478515625,18296.2421875,7353.6240234375,10551.6123046875,15695.0947265625,7905.16552734375,9922.9814453125,6934.8017578125,9748.935546875,-4860.56005859375,0.0,14661.9482421875,14735.0625,1779.3973388671875,1742.83984375,6130.53662109375,9187.857421875,5313.55517578125,12249.15234375,9453.296875,24187.564453125,592.0728149414062,3809.13427734375,8316.833984375,15420.9140625,-4640.42041015625,2043.2471923828125,19759.3359375,-10299.6826171875,-3099.44140625,3591.37841796875,11501.3125,12830.8935546875,7965.56494140625,10817.05078125,8955.001953125,-0.0,7398.92333984375,28308.232421875,32380.419921875,10479.291015625,21259.78515625,16300.6787109375,2243.518798828125,1866.8175048828125,7755.75634765625,16656.716796875,13476.212890625,15815.099609375,11831.1240234375,2210.14013671875,2694.924560546875,11032.421875,0.0,6450.017578125,10489.623046875,10443.5283203125,6717.8408203125,11410.712890625,13752.7783203125,18782.615234375,-12923.876953125,3137.58837890625,13335.5458984375,9000.3017578125,7679.46240234375,6926.8544921875,0.0,11703.9677734375
6124.97314453125,4216.03515625,17017.5234375,7566.61083984375,18294.65234375,7354.41845703125,10551.6123046875,15689.53125,7901.19189453125,9919.802734375,6935.5966796875,9742.5771484375,-4853.4072265625,0.0,14654.7958984375,14727.115234375,1780.98681640625,1744.42919921875,6132.1259765625,9183.8837890625,5316.734375,12253.125,9455.6806640625,24187.564453125,596.0464477539062,3809.928955078125,8319.21875,15418.529296875,-4638.83056640625,2041.65771484375,19760.927734375,-10296.50390625,-3090.699462890625,3582.636474609375,11502.1064453125,12832.482421875,7966.359375,10814.6669921875,8935.9287109375,-0.0,7403.69189453125,28310.6171875,32382.01171875,10478.49609375,21257.400390625,16294.3212890625,2241.134765625,1866.022705078125,7754.1669921875,16658.306640625,13469.85546875,15807.947265625,11834.3037109375,2206.16650390625,2726.7138671875,11029.2431640625,0.0,6407.896484375,10479.291015625,10428.4287109375,6713.8671875,11411.5078125,13750.3935546875,18778.642578125,-12924.6708984375,3134.40966796875,13329.1884765625,8989.1748046875,7661.97802734375,6923.67578125,0.0,11703.9677734375
6155.9677734375,4192.193359375,17036.595703125,7605.552734375,18309.751953125,7363.16064453125,10564.3271484375,15693.505859375,7906.75439453125,9926.16015625,6952.28564453125,9754.498046875,-4839.89697265625,0.0,14661.9482421875,14731.08984375,1794.4971923828125,1757.1448974609375,6142.45751953125,9189.4462890625,5330.24462890625,12267.4306640625,9467.6015625,24197.896484375,621.477783203125,3816.286865234375,8326.37109375,15426.4765625,-4627.70458984375,2046.426025390625,19774.4375,-10291.7353515625,-3069.24169921875,3612.836181640625,11514.02734375,12843.6083984375,7977.48583984375,10824.998046875,8928.775390625,-0.0,7406.87060546875,28320.947265625,32394.7265625,10486.443359375,21266.9375,16302.2666015625,2257.029296875,1920.0643310546875,7775.62451171875,16665.458984375,13477.0078125,15815.099609375,11809.6669921875,2108.414794921875,2737.04541015625,11040.3701171875,0.0,6382.46533203125,10484.8544921875,10433.9912109375,6714.662109375,11424.2236328125,13760.7255859375,18784.205078125,-12915.134765625,3138.383056640625,13336.3408203125,8997.9169921875,7662.77294921875,6931.623046875,0.0,11708.736328125
6148.0205078125,4165.96728515625,17018.318359375,7614.29443359375,18312.134765625,7358.39208984375,10563.533203125,15688.73828125,7907.5498046875,9922.1865234375,6947.517578125,9755.2939453125,-4847.0498046875,0.0,14666.716796875,14727.115234375,1790.5235595703125,1754.7607421875,6140.86767578125,9187.0625,5327.8603515625,12265.0458984375,9465.2177734375,24196.306640625,619.0935668945312,3806.75,8326.37109375,15421.7080078125,-4632.47314453125,2039.2735595703125,19770.46484375,-10290.1455078125,-3074.804931640625,3612.836181640625,11513.2333984375,12840.4306640625,7977.48583984375,10822.61328125,8970.1015625,-0.0,7413.228515625,28317.76953125,32393.931640625,10482.470703125,21268.525390625,16301.4736328125,2245.903076171875,1912.116943359375,7776.4189453125,16659.89453125,13482.5703125,15810.3310546875,11807.2822265625,2127.48828125,2721.150634765625,11037.1904296875,0.0,6403.1279296875,10488.828125,10432.40234375,6710.68798828125,11421.83984375,13761.5205078125,18782.615234375,-12919.90234375,3131.230712890625,13340.3134765625,9006.6591796875,7672.31005859375,6929.23876953125,0.0,11704.7626953125
6110.66796875,4159.609375,16986.529296875,7614.29443359375,18299.421875,7346.47119140625,10557.1748046875,15674.4326171875,7912.318359375,9915.0341796875,6930.828125,9730.65625,-4858.17578125,0.0,14692.1474609375,14713.6044921875,1776.2183837890625,1742.0450439453125,6130.53662109375,9186.267578125,5315.939453125,12251.5361328125,9455.6806640625,24183.591796875,606.3779296875,3790.85546875,8327.1669921875,15409.787109375,-4645.9833984375,2015.431640625,19755.36328125,-10310.8095703125,-3085.93115234375,3591.37841796875,11501.3125,12826.919921875,7971.12744140625,10812.2822265625,8957.3857421875,-0.0,7404.486328125,28306.642578125,32385.189453125,10470.5498046875,21270.1171875,16290.345703125,2222.855712890625,1823.902099609375,7759.72998046875,16647.1796875,13506.412109375,15796.0263671875,11819.203125,2173.582763671875,2701.282470703125,11010.96484375,0.0,6394.38623046875,10500.7490234375,10414.91796875,6690.025390625,11407.5341796875,13754.3681640625,18785.0,-12932.6181640625,3112.1572265625,13365.7451171875,9005.0693359375,7720.78857421875,6933.21240234375,0.0,11700.7890625
6092.3896484375,4173.1201171875,16947.587890625,7588.068359375,18293.857421875,7348.060546875,10550.81640625,15670.4580078125,7895.62890625,9908.67578125,6919.7021484375,9726.68359375,-4858.17578125,0.0,14650.02734375,14711.220703125,1777.807861328125,1738.0714111328125,6124.97314453125,9174.3466796875,5319.11865234375,12250.7412109375,9450.912109375,24179.6171875,596.0464477539062,3793.239501953125,8315.24609375,15407.4033203125,-4646.7783203125,2009.86865234375,19756.158203125,-10320.345703125,-3089.110107421875,3595.35205078125,11500.517578125,12827.7138671875,7961.5908203125,10806.7197265625,8881.091796875,-0.0,7409.25439453125,28306.642578125,32378.037109375,10467.3701171875,21257.400390625,16283.193359375,2192.65625,1833.4388427734375,7744.63037109375,16651.94921875,13465.880859375,15791.2578125,11805.693359375,2173.582763671875,2699.69287109375,11006.9912109375,0.0,6382.46533203125,10475.318359375,10412.5341796875,6681.28369140625,11403.560546875,13745.6259765625,18771.490234375,-12935.7978515625,3114.541259765625,13322.0361328125,9004.275390625,7665.1572265625,6924.47021484375,0.0,11692.841796875
6028.0166015625,4144.509765625,16969.044921875,7607.93701171875,18301.009765625,7356.0078125,10550.0224609375,15676.8173828125,7884.50244140625,9907.8818359375,6906.19140625,9735.4248046875,-4838.3076171875,0.0,14623.80078125,14715.9892578125,1791.3182373046875,1748.4029541015625,6128.15234375,9170.373046875,5337.39697265625,12261.8671875,9457.2705078125,24186.76953125,575.3834838867188,3805.955078125,8307.2978515625,15408.9931640625,-4638.83056640625,2021.78955078125,19768.873046875,-10323.5244140625,-3044.605224609375,3623.167724609375,11510.8486328125,12836.4560546875,7962.38623046875,10809.8984375,8740.4248046875,-0.0,7441.8388671875,28318.5625,32381.21875,10474.5224609375,21251.04296875,16286.373046875,2176.76171875,1864.433349609375,7740.65625,16662.279296875,13442.0390625,15797.615234375,11777.0830078125,2156.8935546875,2696.51416015625,11017.322265625,0.0,6403.1279296875,10459.4228515625,10418.8916015625,6688.43603515625,11409.123046875,13744.8310546875,18760.36328125,-12938.9765625,3126.462158203125,13296.6044921875,9001.8916015625,7617.4736328125,6922.08642578125,0.0,11692.046875
5977.15380859375,4097.62060546875,17004.013671875,7607.14208984375,18303.39453125,7359.1865234375,10557.1748046875,15681.5849609375,7896.42333984375,9915.8291015625,6914.138671875,9735.4248046875,-4828.77099609375,0.0,14646.0537109375,14721.552734375,1793.7025146484375,1751.581787109375,6134.51025390625,9177.525390625,5338.98681640625,12265.841796875,9463.6279296875,24192.333984375,588.0991821289062,3809.928955078125,8315.24609375,15411.376953125,-4634.857421875,2018.6107177734375,19771.2578125,-10298.0927734375,-3035.068603515625,3624.757080078125,11514.02734375,12838.0458984375,7971.12744140625,10817.845703125,8802.4140625,-0.0,7438.65966796875,28324.126953125,32387.57421875,10480.0859375,21261.373046875,16291.9365234375,2195.835205078125,1830.2598876953125,7761.31982421875,16658.306640625,13462.703125,15803.1787109375,11757.21484375,2137.025146484375,2677.440673828125,11021.296875,0.0,6428.5595703125,10470.5498046875,10422.8662109375,6701.1513671875,11415.4814453125,13753.5732421875,18765.92578125,-12932.6181640625,3126.462158203125,13318.0615234375,9005.8642578125,7640.5205078125,6930.828125,0.0,11693.63671875
6035.96337890625,4091.2626953125,17027.85546875,7562.63720703125,18310.546875,7357.59716796875,10565.1220703125,15686.353515625,7905.16552734375,9920.5966796875,6923.67578125,9739.3994140625,-4829.5654296875,0.0,14660.3583984375,14725.525390625,1801.649658203125,1753.9659423828125,6139.2783203125,9183.0888671875,5336.6025390625,12261.8671875,9466.8076171875,24192.333984375,603.198974609375,3808.33935546875,8318.423828125,15409.787109375,-4633.26806640625,2023.3790283203125,19771.2578125,-10286.171875,-3055.7314453125,3600.915283203125,11516.412109375,12836.4560546875,7976.69140625,10818.640625,8937.5185546875,-0.0,7439.45458984375,28315.38671875,32394.7265625,10479.291015625,21269.322265625,16294.3212890625,2218.08740234375,1827.875732421875,7770.0615234375,16653.537109375,13475.41796875,15808.740234375,11772.3154296875,2156.0986328125,2690.15625,11027.6533203125,0.0,6455.580078125,10482.470703125,10423.66015625,6708.3037109375,11417.8662109375,13759.1357421875,18769.8984375,-12923.0810546875,3131.230712890625,13331.572265625,9005.0693359375,7651.64697265625,6933.21240234375,0.0,11693.63671875
6087.62109375,4145.30419921875,16940.435546875,7562.63720703125,18320.083984375,7362.36572265625,10573.0693359375,15695.0947265625,7913.11279296875,9926.16015625,6915.72802734375,9746.5517578125,-4824.79736328125,0.0,14669.1005859375,14733.4736328125,1809.5970458984375,1760.3238525390625,6146.43115234375,9190.2421875,5346.93408203125,12265.0458984375,9473.9599609375,24201.07421875,611.1463012695312,3811.518310546875,8323.9873046875,15416.1455078125,-4629.2939453125,2029.73681640625,19777.6171875,-10270.2783203125,-3050.168212890625,3603.29931640625,11525.154296875,12843.6083984375,7983.84375,10826.587890625,9018.580078125,-0.0,7454.55419921875,28311.41015625,32400.291015625,10484.8544921875,21275.677734375,16303.857421875,2200.603515625,1919.26953125,7761.31982421875,16663.07421875,13481.7763671875,15815.099609375,11801.7197265625,2201.398193359375,2703.666748046875,11031.6279296875,0.0,6452.40185546875,10488.033203125,10430.8125,6700.35693359375,11425.0185546875,13765.494140625,18775.462890625,-12919.90234375,3135.204345703125,13337.9296875,9007.4541015625,7657.2099609375,6932.41748046875,0.0,11696.8154296875
6091.5947265625,4150.86767578125,16953.150390625,7571.37939453125,18304.189453125,7352.0341796875,10567.505859375,15684.7626953125,7909.138671875,9919.802734375,6920.49658203125,9744.1669921875,-4830.3603515625,0.0,14662.7421875,14725.525390625,1798.4708251953125,1750.787109375,6138.4833984375,9187.0625,5338.98681640625,12256.3046875,9466.01171875,24191.537109375,615.1199340820312,3800.39208984375,8331.9345703125,15407.4033203125,-4637.2412109375,2020.994873046875,19769.66796875,-10283.7880859375,-3047.7841796875,3602.504638671875,11514.8232421875,12834.8662109375,7977.48583984375,10820.2294921875,8928.775390625,-0.0,7421.97021484375,28298.697265625,32395.5234375,10476.1123046875,21272.501953125,16297.4990234375,2199.808837890625,1927.2169189453125,7756.55126953125,16654.333984375,13477.802734375,15806.3564453125,11804.103515625,2191.066650390625,2706.845458984375,11025.26953125,0.0,6420.6123046875,10489.623046875,10426.8388671875,6652.67333984375,11415.4814453125,13758.341796875,18773.875,-12928.6455078125,3127.257080078125,13335.5458984375,8988.380859375,7661.18359375,6921.29150390625,0.0,11693.63671875
6085.23681640625,4158.02001953125,17071.56640625,7596.81103515625,18278.7578125,7349.64990234375,10558.7646484375,15683.173828125,7903.57568359375,9917.4189453125,6933.21240234375,9740.193359375,-4841.486328125,0.0,14661.1533203125,14723.1416015625,1788.93408203125,1738.8662109375,6130.53662109375,9183.0888671875,5309.58154296875,12250.7412109375,9453.296875,24185.1796875,607.1726684570312,3795.623779296875,8327.1669921875,15405.814453125,-4638.0361328125,2020.2000732421875,19756.158203125,-10279.01953125,-3088.315185546875,3606.478515625,11495.7490234375,12827.7138671875,7968.7431640625,10813.8720703125,9024.9375,-0.0,7384.6181640625,28302.669921875,32382.8046875,10471.34375,21266.9375,16292.73046875,2255.439697265625,1890.6593017578125,7752.5771484375,16651.154296875,13476.212890625,15805.5625,11791.388671875,2146.561767578125,2723.534912109375,11020.5009765625,0.0,6419.02294921875,10484.0595703125,10426.044921875,6634.39404296875,11406.7392578125,13754.3681640625,18775.462890625,-12926.2607421875,3118.51513671875,13334.7509765625,8966.9228515625,7663.56787109375,6906.986328125,0.0,11693.63671875
6112.25732421875,4146.09912109375,17060.4375,7607.14208984375,18275.580078125,7346.47119140625,10556.3798828125,15687.1474609375,7905.16552734375,9915.8291015625,6936.39111328125,9740.193359375,-4849.43408203125,0.0,14668.3056640625,14727.115234375,1778.6025390625,1734.0977783203125,6129.74169921875,9182.2939453125,5301.63427734375,12247.5625,9450.1181640625,24182.796875,605.5831909179688,3792.44482421875,8311.271484375,15410.5830078125,-4637.2412109375,2020.994873046875,19750.595703125,-10282.9931640625,-3113.74658203125,3599.325927734375,11490.185546875,12826.125,7968.7431640625,10813.0771484375,9053.5478515625,-0.0,7396.5390625,28298.697265625,32377.2421875,10473.728515625,21266.9375,16295.1142578125,2263.386962890625,1888.275146484375,7754.96142578125,16646.384765625,13484.955078125,15809.5361328125,11798.541015625,2144.97265625,2723.534912109375,11022.8857421875,0.0,6415.84375,10488.033203125,10432.40234375,6662.2099609375,11405.150390625,13753.5732421875,18772.283203125,-12920.697265625,3120.899169921875,13341.9033203125,8961.3603515625,7672.31005859375,6901.4228515625,0.0,11688.8681640625
6131.3310546875,4114.3095703125,16976.9921875,7615.08935546875,18280.34765625,7334.55029296875,10550.81640625,15675.2265625,7896.42333984375,9906.2919921875,6917.31787109375,9722.7099609375,-4851.81787109375,0.0,14659.564453125,14716.7841796875,1767.4764404296875,1728.53466796875,6118.61572265625,9171.962890625,5307.99267578125,12238.8203125,9447.7333984375,24174.84765625,596.8411865234375,3779.729248046875,8320.013671875,15397.8662109375,-4645.18896484375,2007.484375,19745.826171875,-10318.755859375,-3104.2099609375,3584.225830078125,11491.775390625,12818.97265625,7962.38623046875,10805.1298828125,8936.72265625,-0.0,7432.3017578125,28292.337890625,32379.626953125,10461.0126953125,21258.990234375,16285.578125,2189.477294921875,1839.001953125,7752.5771484375,16632.080078125,13476.212890625,15798.41015625,11798.541015625,2160.072265625,2705.256103515625,11006.1962890625,0.0,6388.02880859375,10480.880859375,10422.8662109375,6667.77294921875,11398.7919921875,13744.037109375,18762.74609375,-12936.591796875,3108.978271484375,13331.572265625,8969.306640625,7662.77294921875,6904.60205078125,0.0,11682.5107421875
6112.25732421875,4096.826171875,17020.703125,7585.68408203125,18281.9375,7340.908203125,10552.40625,15676.8173828125,7898.01318359375,9912.650390625,6925.2646484375,9727.478515625,-4847.0498046875,0.0,14657.974609375,14717.5791015625,1777.807861328125,1734.0977783203125,6124.17822265625,9175.1416015625,5315.14501953125,12242.7939453125,9451.70703125,24178.82421875,600.0200805664062,3793.239501953125,8323.9873046875,15401.0458984375,-4640.42041015625,2013.0474853515625,19751.390625,-10317.166015625,-3078.778564453125,3583.43115234375,11494.16015625,12823.7412109375,7966.359375,10808.30859375,8898.576171875,-0.0,7402.10205078125,28300.28515625,32384.396484375,10464.986328125,21260.580078125,16288.7578125,2216.498046875,1832.6441650390625,7757.345703125,16640.02734375,13473.828125,15799.9990234375,11765.95703125,2159.277587890625,2705.256103515625,11013.3486328125,0.0,6391.20703125,10484.0595703125,10424.455078125,6683.66748046875,11402.7666015625,13749.599609375,18772.283203125,-12932.6181640625,3113.74658203125,13329.982421875,8990.7646484375,7658.0048828125,6926.0595703125,0.0,11695.2255859375
6103.515625,4108.7470703125,17064.412109375,7589.658203125,18289.08984375,7349.64990234375,10560.353515625,15683.9697265625,7909.138671875,9922.1865234375,6934.8017578125,9740.193359375,-4851.81787109375,0.0,14672.279296875,14723.9375,1788.139404296875,1742.0450439453125,6129.74169921875,9187.857421875,5316.734375,12253.125,9456.4755859375,24187.564453125,598.4306640625,3805.16064453125,8333.5234375,15408.1982421875,-4636.4462890625,2023.3790283203125,19756.953125,-10298.888671875,-3076.394287109375,3599.325927734375,11500.517578125,12830.0986328125,7973.51171875,10815.4609375,8984.40625,-0.0,7395.744140625,28310.6171875,32393.138671875,10472.138671875,21270.1171875,16298.2939453125,2230.00830078125,1880.327880859375,7764.498046875,16649.564453125,13488.1337890625,15805.5625,11780.26171875,2179.9404296875,2713.998046875,11021.296875,0.0,6407.896484375,10498.3642578125,10433.197265625,6716.25146484375,11409.123046875,13756.751953125,18783.41015625,-12923.876953125,3121.69384765625,13346.671875,9010.6328125,7673.8994140625,6943.5439453125,0.0,11709.53125
6101.13134765625,4147.6884765625,17023.0859375,7576.1474609375,18281.9375,7341.703125,10550.81640625,15674.4326171875,7902.78125,9915.8291015625,6926.8544921875,9735.4248046875,-4853.4072265625,0.0,14671.4853515625,14714.400390625,1777.01318359375,1733.3031005859375,6119.41015625,9179.91015625,5307.99267578125,12243.5888671875,9448.5283203125,24178.02734375,593.6622314453125,3794.8291015625,8325.5771484375,15399.4560546875,-4640.42041015625,2016.2265625,19747.416015625,-10304.451171875,-3097.057373046875,3600.915283203125,11491.775390625,12821.3564453125,7963.1806640625,10805.9248046875,8978.048828125,-0.0,7392.5654296875,28300.28515625,32382.01171875,10464.986328125,21262.16796875,16289.552734375,2218.88232421875,1893.04345703125,7747.80908203125,16640.822265625,13484.955078125,15796.0263671875,11795.361328125,2180.7353515625,2702.8720703125,11014.1435546875,0.0,6391.20703125,10492.0068359375,10424.455078125,6713.072265625,11399.5869140625,13749.599609375,18777.052734375,-12929.439453125,3115.336181640625,13344.2880859375,9002.685546875,7670.720703125,6936.39111328125,0.0,11702.3779296875
6071.7265625,4150.86767578125,16973.01953125,7565.021484375,18262.068359375,7327.39794921875,10535.716796875,15662.51171875,7888.4765625,9903.908203125,6910.16552734375,9719.53125,-4852.61279296875,0.0,14655.58984375,14703.2734375,1756.3502197265625,1715.8189697265625,6106.69482421875,9167.1943359375,5291.30322265625,12227.6943359375,9431.8388671875,24162.927734375,581.7413330078125,3780.52392578125,8308.8876953125,15387.53515625,-4645.9833984375,2009.86865234375,19732.31640625,-10321.140625,-3116.130859375,3578.662841796875,11475.880859375,12807.845703125,7947.28564453125,10794.00390625,8934.3388671875,-0.0,7381.439453125,28289.16015625,32362.9375,10450.6806640625,21247.86328125,16278.4248046875,2203.7822265625,1862.8438720703125,7700.125,16623.337890625,13470.6494140625,15784.10546875,11792.9775390625,2180.7353515625,2679.82470703125,11002.22265625,0.0,6376.10791015625,10476.9072265625,10412.5341796875,6677.3095703125,11385.28125,13734.5,18763.54296875,-12940.56640625,3108.18359375,13329.982421875,8990.7646484375,7659.59423828125,6919.7021484375,0.0,11688.8681640625
6054.24267578125,4119.873046875,16924.5390625,7615.08935546875,18260.478515625,7328.1923828125,10533.3330078125,15658.537109375,7879.73388671875,9899.1396484375,6894.2705078125,9713.1728515625,-4859.765625,0.0,14657.1796875,14697.7109375,1755.5555419921875,1718.2032470703125,6104.310546875,9158.4521484375,5300.83984375,12231.66796875,9430.2490234375,24160.54296875,578.5624389648438,3778.9345703125,8304.9130859375,15387.53515625,-4652.34130859375,2007.484375,19733.90625,-10335.4453125,-3097.057373046875,3581.841796875,11479.060546875,12807.845703125,7942.51708984375,10789.2353515625,8857.25,-0.0,7406.076171875,28297.10546875,32362.14453125,10449.091796875,21242.30078125,16272.068359375,2160.866943359375,1838.207275390625,7719.99365234375,16626.515625,13471.4443359375,15780.130859375,11758.8046875,2168.01953125,2677.440673828125,11001.427734375,0.0,6366.57080078125,10472.138671875,10408.560546875,6632.8046875,11382.1025390625,13728.1416015625,18756.388671875,-12950.8974609375,3104.2099609375,13329.1884765625,8980.43359375,7661.97802734375,6906.19140625,0.0,11678.5361328125
6070.93212890625,4115.1044921875,16961.892578125,7700.919921875,18270.810546875,7344.88134765625,10540.4853515625,15666.484375,7885.296875,9902.318359375,6899.03857421875,9714.7626953125,-4874.07080078125,0.0,14663.537109375,14705.658203125,1771.4500732421875,1727.739990234375,6110.66796875,9163.220703125,5312.7607421875,12250.7412109375,9438.9912109375,24170.080078125,588.0991821289062,3797.21337890625,8312.06640625,15400.25,-4652.34130859375,2018.6107177734375,19745.826171875,-10327.498046875,-3080.3681640625,3620.783447265625,11487.0068359375,12821.3564453125,7950.46533203125,10796.3876953125,8821.4873046875,-0.0,7399.7177734375,28314.58984375,32370.08984375,10461.0126953125,21247.86328125,16278.4248046875,2192.65625,1844.5650634765625,7743.83544921875,16646.384765625,13477.802734375,15788.078125,11756.419921875,2137.025146484375,2683.003662109375,11016.5283203125,0.0,6378.49169921875,10480.0859375,10413.3291015625,6629.6259765625,11390.845703125,13733.7041015625,18757.185546875,-12944.5390625,3113.74658203125,13333.95703125,8993.1484375,7666.74658203125,6913.34375,0.0,11678.5361328125
6078.08447265625,4125.4365234375,17056.46484375,7616.6787109375,18283.525390625,7357.59716796875,10552.40625,15682.37890625,7897.2177734375,9915.8291015625,6922.880859375,9730.65625,-4864.53369140625,0.0,14664.33203125,14719.962890625,1782.576171875,1736.4820556640625,6123.3837890625,9175.1416015625,5318.32373046875,12254.71484375,9450.912109375,24182.796875,605.5831909179688,3813.107666015625,8321.6025390625,15417.7353515625,-4638.83056640625,2039.2735595703125,19754.568359375,-10316.3720703125,-3074.01025390625,3601.7099609375,11496.5439453125,12830.8935546875,7963.97509765625,10809.8984375,8916.060546875,-0.0,7401.3076171875,28320.947265625,32381.21875,10474.5224609375,21256.60546875,16294.3212890625,2222.06103515625,1842.9755859375,7758.935546875,16663.07421875,13478.5966796875,15803.97265625,11781.8515625,2141.79345703125,2700.48779296875,11038.7802734375,0.0,6395.9755859375,10486.443359375,10426.8388671875,6659.03076171875,11403.560546875,13747.21484375,18770.6953125,-12927.0556640625,3134.40966796875,13335.5458984375,9016.1962890625,7668.33642578125,6934.8017578125,0.0,11691.2529296875
6079.673828125,4090.468017578125,17043.748046875,7568.9951171875,18280.34765625,7349.64990234375,10551.6123046875,15679.994140625,7900.3974609375,9919.0068359375,6926.0595703125,9726.68359375,-4837.51318359375,0.0,14670.689453125,14719.962890625,1778.6025390625,1733.3031005859375,6121.79443359375,9179.115234375,5311.1708984375,12245.177734375,9447.7333984375,24178.02734375,609.5568237304688,3809.13427734375,8326.37109375,15412.1708984375,-4637.2412109375,2030.5316162109375,19749.005859375,-10310.8095703125,-3082.752197265625,3577.0732421875,11490.185546875,12823.7412109375,7963.97509765625,10809.103515625,8862.0185546875,-0.0,7389.38671875,28312.20703125,32381.21875,10468.1650390625,21258.990234375,16293.525390625,2214.90869140625,1828.6705322265625,7755.75634765625,16655.126953125,13484.16015625,15801.587890625,11789.00390625,2109.209716796875,2685.387939453125,11027.6533203125,0.0,6384.849609375,10487.2392578125,10428.4287109375,6675.72021484375,11401.1767578125,13747.21484375,18777.84765625,-12925.4658203125,3128.0517578125,13342.6982421875,9014.6064453125,7671.51513671875,6937.185546875,0.0,11699.994140625
6065.36865234375,4029.27392578125,17018.318359375,7559.45849609375,18277.16796875,7344.0869140625,10542.0751953125,15673.6376953125,7895.62890625,9915.0341796875,6920.49658203125,9729.8623046875,-4837.51318359375,0.0,14662.7421875,14714.400390625,1773.834228515625,1729.3294677734375,6116.2314453125,9176.7314453125,5310.37646484375,12242.0,9441.3759765625,24172.46484375,603.198974609375,3801.981689453125,8313.65625,15397.8662109375,-4640.42041015625,2030.5316162109375,19746.623046875,-10321.140625,-3073.215576171875,3587.405029296875,11484.623046875,12817.3828125,7954.43798828125,10802.74609375,8860.4287109375,-0.0,7387.00244140625,28309.822265625,32372.474609375,10461.0126953125,21251.8359375,16287.9619140625,2214.90869140625,1851.7176513671875,7747.80908203125,16647.1796875,13475.41796875,15795.23046875,11790.5927734375,2107.6201171875,2681.414306640625,11018.912109375,0.0,6404.7177734375,10488.033203125,10426.8388671875,6691.61474609375,11394.0234375,13742.447265625,18776.2578125,-12928.6455078125,3122.48876953125,13336.3408203125,9012.22265625,7676.283203125,6932.41748046875,0.0,11700.7890625
6041.52685546875,4041.98974609375,16991.296875,7592.04248046875,18277.16796875,7348.060546875,10540.4853515625,15676.8173828125,7893.24462890625,9913.4443359375,6920.49658203125,9734.630859375,-4846.2548828125,0.0,14657.974609375,14716.7841796875,1776.2183837890625,1729.3294677734375,6114.6416015625,9175.1416015625,5308.787109375,12245.97265625,9440.5810546875,24174.84765625,584.9202270507812,3800.39208984375,8307.2978515625,15404.224609375,-4642.8046875,2032.1209716796875,19747.416015625,-10327.498046875,-3085.136474609375,3613.631103515625,11483.828125,12818.97265625,7952.849609375,10805.1298828125,8956.591796875,-0.0,7389.38671875,28310.6171875,32370.08984375,10464.986328125,21248.658203125,16287.9619140625,2219.677001953125,1873.969970703125,7746.2197265625,16648.76953125,13472.2392578125,15799.2041015625,11797.74609375,2155.303955078125,2712.40869140625,11020.5009765625,0.0,6399.15478515625,10481.6748046875,10429.22265625,6697.97265625,11392.4345703125,13743.2412109375,18775.462890625,-12926.2607421875,3124.872802734375,13329.982421875,9002.685546875,7669.130859375,6928.44384765625,0.0,11700.7890625
6050.2685546875,4114.3095703125,16957.91796875,7611.91015625,18266.8359375,7340.908203125,10534.9228515625,15673.6376953125,7890.8603515625,9909.470703125,6917.31787109375,9722.7099609375,-4854.9970703125,0.0,14661.9482421875,14711.220703125,1770.6552734375,1722.1768798828125,6109.87353515625,9172.7568359375,5297.66064453125,12240.41015625,9434.2236328125,24166.90234375,569.0256958007812,3793.239501953125,8304.9130859375,15398.6611328125,-4648.3671875,2027.3525390625,19740.263671875,-10314.7822265625,-3112.951904296875,3607.273193359375,11475.880859375,12812.6142578125,7948.87548828125,10800.361328125,8962.154296875,-0.0,7381.439453125,28297.900390625,32361.34765625,10461.0126953125,21246.275390625,16285.578125,2208.55078125,1877.943603515625,7735.88818359375,16644.001953125,13475.41796875,15796.0263671875,11795.361328125,2155.303955078125,2717.17724609375,11020.5009765625,0.0,6407.896484375,10480.880859375,10427.6337890625,6690.8203125,11387.666015625,13740.0625,18775.462890625,-12932.6181640625,3121.69384765625,13335.5458984375,8991.55859375,7673.10498046875,6916.52294921875,0.0,11699.19921875
6058.21630859375,4165.96728515625,16973.01953125,7544.35888671875,18262.068359375,7330.57666015625,10532.5380859375,15667.2802734375,7887.68115234375,9906.2919921875,6917.31787109375,9729.8623046875,-4867.71240234375,0.0,14660.3583984375,14704.86328125,1760.3238525390625,1714.2296142578125,6106.69482421875,9168.7841796875,5292.892578125,12223.720703125,9427.0703125,24158.955078125,581.7413330078125,3782.11328125,8306.5029296875,15388.3291015625,-4651.54638671875,2017.8157958984375,19731.521484375,-10317.166015625,-3105.79931640625,3561.9736328125,11469.5234375,12803.8720703125,7945.69677734375,10794.00390625,8924.0078125,-0.0,7383.8232421875,28283.595703125,32356.578125,10453.064453125,21243.095703125,16281.6044921875,2199.808837890625,1860.459716796875,7726.35107421875,16632.875,13474.6240234375,15788.078125,11782.646484375,2164.8408203125,2711.614013671875,11006.1962890625,0.0,6415.04931640625,10476.1123046875,10424.455078125,6662.2099609375,11382.1025390625,13734.5,18769.8984375,-12934.2080078125,3112.1572265625,13333.1611328125,8974.0751953125,7669.92578125,6910.16552734375,0.0,11692.046875
6084.4423828125,4162.78857421875,16992.091796875,7564.2265625,18270.810546875,7336.9345703125,10534.9228515625,15668.869140625,7889.27099609375,9909.470703125,6922.08642578125,9737.0146484375,-4859.765625,0.0,14655.58984375,14706.4521484375,1769.06591796875,1720.58740234375,6110.66796875,9170.373046875,5299.25,12234.0517578125,9431.8388671875,24164.517578125,590.4833374023438,3785.29248046875,8313.65625,15393.8935546875,-4645.18896484375,2013.0474853515625,19738.673828125,-10305.2451171875,-3106.593994140625,3581.047119140625,11476.67578125,12810.23046875,7950.46533203125,10797.1826171875,8929.5703125,-0.0,7402.89697265625,28293.1328125,32361.34765625,10457.0390625,21246.275390625,16282.400390625,2206.16650390625,1801.649658203125,7731.11962890625,16636.84765625,13472.2392578125,15789.6669921875,11774.69921875,2164.8408203125,2712.40869140625,11002.22265625,0.0,6401.5390625,10476.1123046875,10418.09765625,6653.4677734375,11386.0771484375,13738.47265625,18769.8984375,-12929.439453125,3112.951904296875,13328.392578125,8965.3330078125,7662.77294921875,6917.31787109375,0.0,11692.046875
6101.92626953125,4150.07275390625,17023.8828125,7591.24755859375,18282.732421875,7356.80224609375,10546.84375,15677.6103515625,7895.62890625,9917.4189453125,6933.21240234375,9740.193359375,-4840.69189453125,0.0,14661.1533203125,14716.7841796875,1786.5499267578125,1734.8924560546875,6123.3837890625,9178.3212890625,5314.35009765625,12255.509765625,9445.349609375,24177.232421875,601.6095581054688,3808.33935546875,8320.80859375,15411.376953125,-4631.67822265625,2020.2000732421875,19755.36328125,-10298.888671875,-3085.93115234375,3604.09423828125,11490.9814453125,12829.3037109375,7960.001953125,10809.8984375,8939.90234375,-0.0,7403.69189453125,28320.154296875,32374.064453125,10472.93359375,21255.8125,16293.525390625,2224.4453125,1778.6025390625,7741.451171875,16655.126953125,13476.212890625,15799.2041015625,11792.9775390625,2199.013916015625,2717.9716796875,11015.732421875,0.0,6395.18115234375,10481.6748046875,10422.0703125,6679.69384765625,11401.1767578125,13749.599609375,18776.2578125,-12915.9287109375,3124.078125,13331.572265625,8994.73828125,7661.97802734375,6936.39111328125,0.0,11700.7890625
6080.46875,4139.7412109375,17017.5234375,7555.48486328125,18276.373046875,7343.2919921875,10538.8955078125,15666.484375,7886.88671875,9907.0859375,6916.52294921875,9737.0146484375,-4858.970703125,0.0,14656.384765625,14705.658203125,1773.0394287109375,1725.355712890625,6115.4365234375,9170.373046875,5300.83984375,12238.8203125,9435.8125,24168.4921875,595.251708984375,3794.8291015625,8308.8876953125,15397.072265625,-4641.21484375,2013.84228515625,19744.23828125,-10310.8095703125,-3095.4677734375,3577.8681640625,11482.23828125,12818.1767578125,7952.05419921875,10799.5673828125,8961.3603515625,-0.0,7384.6181640625,28295.517578125,32366.115234375,10463.3974609375,21246.275390625,16282.400390625,2213.319091796875,1893.8382568359375,7737.4775390625,16646.384765625,13470.6494140625,15788.078125,11791.388671875,2215.703369140625,2705.256103515625,11013.3486328125,0.0,6388.02880859375,10468.9599609375,10412.5341796875,6697.177734375,11391.6396484375,13740.0625,18767.515625,-12925.4658203125,3120.899169921875,13327.5986328125,8989.1748046875,7660.38916015625,6925.2646484375,0.0,11691.2529296875
6078.87890625,4173.1201171875,16992.091796875,7538.00048828125,18269.220703125,7327.39794921875,10528.564453125,15654.5634765625,7872.58154296875,9892.78125,6902.2177734375,9736.220703125,-4867.71240234375,0.0,14645.2587890625,14696.12109375,1759.529052734375,1715.0242919921875,6102.720703125,9156.0673828125,5289.71337890625,12223.720703125,9424.6865234375,24155.775390625,584.12548828125,3774.960693359375,8295.376953125,15381.97265625,-4657.10986328125,2000.3319091796875,19730.7265625,-10312.3984375,-3112.951904296875,3561.9736328125,11471.1123046875,12802.283203125,7940.92822265625,10786.8505859375,8939.90234375,-0.0,7379.05517578125,28270.87890625,32356.578125,10449.091796875,21234.353515625,16271.2724609375,2206.16650390625,1928.0115966796875,7728.7353515625,16629.6953125,13460.318359375,15776.1572265625,11771.51953125,2190.27197265625,2690.951171875,11006.9912109375,0.0,6389.6181640625,10455.44921875,10400.61328125,6698.76708984375,11379.71875,13727.34765625,18752.416015625,-12939.7705078125,3112.1572265625,13317.267578125,8969.306640625,7644.49462890625,6906.19140625,0.0,11676.15234375
6078.08447265625,4180.2724609375,17009.576171875,7554.68994140625,18270.810546875,7320.2451171875,10525.3857421875,15653.7685546875,7873.3759765625,9889.6025390625,6909.37060546875,9729.8623046875,-4858.970703125,0.0,14644.4638671875,14695.3271484375,1760.3238525390625,1715.0242919921875,6101.13134765625,9152.8896484375,5292.09765625,12220.5419921875,9425.48046875,24154.185546875,579.357177734375,3769.397705078125,8290.6083984375,15377.2041015625,-4657.904296875,2001.92138671875,19729.13671875,-10325.1142578125,-3108.978271484375,3559.58935546875,11472.7021484375,12799.103515625,7938.54443359375,10785.26171875,8931.16015625,-0.0,7394.94921875,28266.90625,32354.9921875,10445.1181640625,21232.763671875,16269.68359375,2221.2666015625,1893.04345703125,7729.5302734375,16615.390625,13458.728515625,15776.953125,11763.572265625,2159.277587890625,2686.1826171875,11003.8115234375,0.0,6396.7705078125,10463.3974609375,10398.228515625,6691.61474609375,11378.12890625,13724.962890625,18750.826171875,-12944.5390625,3108.18359375,13316.4716796875,8959.7705078125,7644.49462890625,6901.4228515625,0.0,11672.9736328125
6064.57373046875,4153.25146484375,17022.291015625,7581.7109375,18280.34765625,7336.1396484375,10536.51171875,15669.6640625,7882.91259765625,9902.318359375,6920.49658203125,9734.630859375,-4852.61279296875,0.0,14649.2314453125,14709.6318359375,1779.3973388671875,1727.739990234375,6113.84716796875,9165.6044921875,5308.787109375,12237.2314453125,9438.197265625,24166.90234375,588.8939208984375,3784.49755859375,8300.1455078125,15395.482421875,-4650.75146484375,2016.2265625,19744.23828125,-10311.603515625,-3075.599609375,3585.020751953125,11488.5966796875,12814.2041015625,7948.0810546875,10798.771484375,8901.7548828125,-0.0,7393.3603515625,28283.595703125,32364.529296875,10458.62890625,21242.30078125,16280.8095703125,2213.319091796875,1890.6593017578125,7745.4248046875,16628.107421875,13464.2919921875,15790.462890625,11773.904296875,2164.046142578125,2693.335205078125,11014.9384765625,0.0,6410.28076171875,10472.93359375,10410.1494140625,6683.66748046875,11390.0498046875,13738.47265625,18759.568359375,-12936.591796875,3116.925537109375,13323.625,8969.306640625,7657.2099609375,6905.39697265625,0.0,11679.33203125
6079.673828125,4113.51513671875,17006.396484375,7605.552734375,18290.677734375,7347.265625,10545.25390625,15676.8173828125,7887.68115234375,9907.0859375,6921.29150390625,9737.0146484375,-4846.2548828125,0.0,14657.1796875,14717.5791015625,1789.728759765625,1738.8662109375,6121.79443359375,9171.16796875,5321.5029296875,12249.15234375,9446.9384765625,24175.64453125,587.304443359375,3792.44482421875,8310.4775390625,15404.224609375,-4643.59912109375,2020.994873046875,19753.775390625,-10299.6826171875,-3059.705078125,3599.325927734375,11498.927734375,12822.9453125,7956.822265625,10805.1298828125,8892.21875,-0.0,7402.10205078125,28297.900390625,32371.681640625,10469.75390625,21249.453125,16286.373046875,2190.27197265625,1886.6856689453125,7754.1669921875,16644.001953125,13472.2392578125,15798.41015625,11766.7509765625,2174.37744140625,2706.05078125,11018.1171875,0.0,6421.4072265625,10475.318359375,10415.712890625,6674.92529296875,11397.998046875,13745.6259765625,18759.568359375,-12929.439453125,3120.1044921875,13330.77734375,8977.25390625,7662.77294921875,6906.986328125,0.0,11676.15234375
6080.46875,4094.44189453125,16986.529296875,7648.4677734375,18299.421875,7352.0341796875,10550.0224609375,15676.021484375,7891.65478515625,9909.470703125,6919.7021484375,9730.65625,-4842.28125,0.0,14663.537109375,14715.9892578125,1792.90771484375,1743.634521484375,6125.76806640625,9175.9365234375,5329.4501953125,12257.099609375,9451.70703125,24178.82421875,576.9729614257812,3798.008056640625,8317.6298828125,15404.224609375,-4639.62548828125,2017.021240234375,19760.927734375,-10294.1201171875,-3066.857666015625,3616.809814453125,11505.2861328125,12829.3037109375,7963.1806640625,10806.7197265625,8910.4970703125,-0.0,7434.68603515625,28306.642578125,32374.859375,10471.34375,21254.220703125,16287.9619140625,2169.609130859375,1856.4859619140625,7755.75634765625,16644.796875,13479.3916015625,15795.23046875,11778.671875,2148.946044921875,2698.8984375,11015.732421875,0.0,6414.2548828125,10475.318359375,10416.5078125,6678.1044921875,11402.7666015625,13747.21484375,18762.74609375,-12923.876953125,3115.336181640625,13337.1357421875,8986.791015625,7665.9521484375,6914.93359375,0.0,11682.5107421875
6013.71142578125,4119.078125,16949.177734375,7645.2890625,18292.26953125,7344.0869140625,10539.69140625,15664.1005859375,7883.7080078125,9902.318359375,6907.78125,9716.3515625,-4854.9970703125,0.0,14655.58984375,14702.4794921875,1785.755126953125,1735.687255859375,6117.02587890625,9170.373046875,5326.27099609375,12251.5361328125,9444.5546875,24170.080078125,575.3834838867188,3786.881591796875,8311.271484375,15391.5087890625,-4646.7783203125,2009.073974609375,19756.158203125,-10309.2197265625,-3066.857666015625,3612.836181640625,11496.5439453125,12821.3564453125,7953.6435546875,10797.9775390625,8838.970703125,-0.0,7433.89111328125,28305.0546875,32366.115234375,10461.8076171875,21243.890625,16279.220703125,2157.688232421875,1811.1864013671875,7735.09375,16636.052734375,13472.2392578125,15784.10546875,11752.4462890625,2109.209716796875,2673.467041015625,11006.9912109375,0.0,6376.10791015625,10473.728515625,10408.560546875,6679.69384765625,11396.408203125,13736.8837890625,18764.337890625,-12932.6181640625,3105.004638671875,13330.77734375,8986.791015625,7661.18359375,6911.75439453125,0.0,11682.5107421875
5998.611328125,4134.97314453125,17014.345703125,7576.9423828125,18294.65234375,7353.6240234375,10546.84375,15670.4580078125,7892.44921875,9911.060546875,6916.52294921875,9725.09375,-4851.0234375,0.0,14665.126953125,14708.0419921875,1794.4971923828125,1741.2503662109375,6124.97314453125,9178.3212890625,5331.03955078125,12256.3046875,9450.912109375,24178.02734375,578.5624389648438,3796.41845703125,8320.80859375,15394.6875,-4636.4462890625,2024.9683837890625,19760.927734375,-10291.7353515625,-3049.37353515625,3600.12060546875,11501.3125,12828.509765625,7960.79638671875,10805.1298828125,8842.150390625,-0.0,7422.76513671875,28320.947265625,32374.064453125,10468.1650390625,21252.6328125,16287.9619140625,2192.65625,1800.060302734375,7739.06689453125,16644.001953125,13480.1865234375,15792.0517578125,11753.2412109375,2127.48828125,2686.977294921875,11021.296875,0.0,6389.6181640625,10480.0859375,10417.3017578125,6681.28369140625,11403.560546875,13745.6259765625,18773.078125,-12927.0556640625,3117.720458984375,13339.51953125,9001.095703125,7672.31005859375,6926.0595703125,0.0,11693.63671875
6031.1953125,4100.0048828125,17014.345703125,7557.07421875,18295.447265625,7355.21337890625,10553.99609375,15682.37890625,7899.60205078125,9919.0068359375,6929.23876953125,9736.220703125,-4848.63916015625,0.0,14661.9482421875,14719.962890625,1802.4444580078125,1746.018798828125,6132.1259765625,9186.267578125,5327.8603515625,12256.3046875,9455.6806640625,24184.384765625,598.4306640625,3801.981689453125,8323.9873046875,15403.4296875,-4628.49951171875,2028.1474609375,19764.10546875,-10264.7138671875,-3066.06298828125,3588.19970703125,11505.2861328125,12831.6875,7966.359375,10813.0771484375,8949.439453125,-0.0,7415.61279296875,28313.001953125,32382.01171875,10476.1123046875,21261.373046875,16295.91015625,2226.82958984375,1861.25439453125,7762.9091796875,16647.974609375,13477.802734375,15803.97265625,11772.3154296875,2156.8935546875,2717.17724609375,11024.474609375,0.0,6422.20166015625,10488.033203125,10429.22265625,6707.50927734375,11410.712890625,13753.5732421875,18777.052734375,-12923.0810546875,3126.462158203125,13333.95703125,9006.6591796875,7667.54150390625,6935.5966796875,0.0,11701.583984375
6063.779296875,4078.547119140625,17040.5703125,7589.658203125,18300.21484375,7354.41845703125,10553.201171875,15686.353515625,7898.8076171875,9918.212890625,6926.8544921875,9738.6044921875,-4851.81787109375,0.0,14655.58984375,14724.7314453125,1800.060302734375,1746.8134765625,6131.3310546875,9186.267578125,5330.24462890625,12256.3046875,9456.4755859375,24185.9765625,620.6830444335938,3804.365966796875,8316.0400390625,15405.814453125,-4633.26806640625,2026.557861328125,19764.900390625,-10275.8408203125,-3064.473388671875,3604.888916015625,11508.46484375,12830.0986328125,7964.7705078125,10813.8720703125,8940.6962890625,-0.0,7421.97021484375,28305.849609375,32381.21875,10476.9072265625,21259.78515625,16296.705078125,2243.518798828125,1894.6329345703125,7770.0615234375,16649.564453125,13474.6240234375,15804.767578125,11787.4140625,2129.87255859375,2716.38232421875,11023.6806640625,0.0,6422.20166015625,10484.8544921875,10430.8125,6678.8994140625,11409.9189453125,13753.5732421875,18776.2578125,-12923.0810546875,3124.872802734375,13329.1884765625,9001.8916015625,7662.77294921875,6934.00732421875,0.0,11698.4052734375
6062.984375,4068.2158203125,17022.291015625,7615.08935546875,18289.08984375,7348.060546875,10539.69140625,15672.048828125,7889.27099609375,9907.8818359375,6912.54931640625,9720.3251953125,-4847.0498046875,0.0,14646.84765625,14711.220703125,1783.3709716796875,1734.0977783203125,6120.205078125,9172.7568359375,5313.55517578125,12250.7412109375,9442.9658203125,24174.0546875,603.198974609375,3799.597412109375,8305.708984375,15393.8935546875,-4639.62548828125,2015.431640625,19752.978515625,-10301.2724609375,-3091.494384765625,3616.809814453125,11492.5703125,12822.9453125,7952.849609375,10802.74609375,9038.4482421875,-0.0,7394.94921875,28314.58984375,32369.296875,10467.3701171875,21247.86328125,16283.9892578125,2218.88232421875,1835.822998046875,7753.3720703125,16642.412109375,13463.4970703125,15791.2578125,11786.6201171875,2063.91015625,2698.8984375,11008.580078125,0.0,6397.5654296875,10475.318359375,10417.3017578125,6653.4677734375,11397.998046875,13741.65234375,18765.92578125,-12926.2607421875,3110.56787109375,13321.240234375,8988.380859375,7658.7998046875,6910.16552734375,0.0,11684.1005859375
6049.47412109375,4105.56787109375,16958.712890625,7604.7578125,18288.29296875,7344.88134765625,10537.306640625,15669.6640625,7884.50244140625,9900.7294921875,6897.44970703125,9716.3515625,-4838.3076171875,0.0,14646.0537109375,14708.8369140625,1773.0394287109375,1728.53466796875,6115.4365234375,9165.6044921875,5314.35009765625,12242.0,9439.7861328125,24168.4921875,591.278076171875,3792.44482421875,8307.2978515625,15397.072265625,-4640.42041015625,2013.0474853515625,19745.03125,-10314.7822265625,-3091.494384765625,3592.968017578125,11489.3916015625,12817.3828125,7951.259765625,10798.771484375,9045.6005859375,-0.0,7402.10205078125,28307.4375,32366.912109375,10464.19140625,21244.68359375,16280.8095703125,2179.9404296875,1833.4388427734375,7748.60400390625,16641.6171875,13460.318359375,15790.462890625,11781.056640625,2109.209716796875,2686.1826171875,11004.607421875,0.0,6382.46533203125,10465.78125,10418.09765625,6659.03076171875,11392.4345703125,13737.6787109375,18758.7734375,-12934.2080078125,3109.77294921875,13320.4462890625,8975.6650390625,7654.82568359375,6887.11767578125,0.0,11677.7421875
6085.23681640625,4140.53564453125,17026.265625,7592.04248046875,18274.783203125,7341.703125,10534.9228515625,15669.6640625,7883.7080078125,9903.908203125,6905.39697265625,9729.0673828125,-4842.28125,0.0,14640.490234375,14708.8369140625,1768.2711181640625,1723.766357421875,6114.6416015625,9167.9892578125,5303.22412109375,12232.462890625,9435.017578125,24166.90234375,592.8675537109375,3787.676513671875,8290.6083984375,15397.8662109375,-4646.7783203125,2020.994873046875,19737.87890625,-10317.9619140625,-3102.620361328125,3572.304931640625,11481.4443359375,12810.23046875,7948.0810546875,10797.9775390625,8965.3330078125,-0.0,7395.744140625,28288.365234375,32359.759765625,10462.6015625,21241.505859375,16281.6044921875,2198.21923828125,1892.248779296875,7718.404296875,16642.412109375,13456.3447265625,15790.462890625,11775.4931640625,2165.63525390625,2694.1298828125,11010.96484375,0.0,6399.94970703125,10466.5751953125,10418.09765625,6655.85205078125,11390.0498046875,13736.8837890625,18761.953125,-12935.7978515625,3118.51513671875,13316.4716796875,8985.99609375,7638.93115234375,6917.31787109375,0.0,11681.7158203125
6124.17822265625,4164.3779296875,17011.166015625,7611.91015625,18280.34765625,7348.85546875,10546.0478515625,15679.201171875,7898.8076171875,9919.802734375,6927.64892578125,9744.9619140625,-4841.486328125,0.0,14656.384765625,14720.7578125,1773.834228515625,1730.1241455078125,6125.76806640625,9186.267578125,5307.19775390625,12242.0,9446.9384765625,24177.232421875,598.4306640625,3798.008056640625,8298.556640625,15408.1982421875,-4645.9833984375,2032.1209716796875,19745.826171875,-10305.2451171875,-3102.620361328125,3596.146728515625,11488.5966796875,12820.5615234375,7956.822265625,10809.103515625,8913.67578125,-0.0,7392.5654296875,28294.720703125,32371.681640625,10472.93359375,21255.8125,16293.525390625,2211.729736328125,1926.422119140625,7744.63037109375,16650.357421875,13473.0341796875,15801.587890625,11787.4140625,2207.756103515625,2709.229736328125,11023.6806640625,0.0,6437.3017578125,10482.470703125,10425.25,6678.1044921875,11401.1767578125,13749.599609375,18779.435546875,-12926.2607421875,3129.641357421875,13329.982421875,9001.8916015625,7664.3623046875,6943.5439453125,0.0,11700.7890625
6151.19921875,4143.71484375,16946.79296875,7596.01611328125,18289.08984375,7353.6240234375,10553.201171875,15687.1474609375,7904.3701171875,9924.5712890625,6929.23876953125,9747.345703125,-4851.81787109375,0.0,14661.9482421875,14727.91015625,1765.886962890625,1729.3294677734375,6131.3310546875,9189.4462890625,5310.37646484375,12242.7939453125,9450.912109375,24181.20703125,603.198974609375,3805.16064453125,8312.06640625,15419.32421875,-4646.7783203125,2031.3262939453125,19743.443359375,-10312.3984375,-3112.1572265625,3593.7626953125,11494.16015625,12822.9453125,7966.359375,10813.8720703125,8947.0546875,-0.0,7398.12841796875,28299.490234375,32380.419921875,10476.9072265625,21262.96484375,16299.8828125,2221.2666015625,1913.7064208984375,7766.88232421875,16656.716796875,13478.5966796875,15809.5361328125,11807.2822265625,2227.624267578125,2709.229736328125,11028.44921875,0.0,6434.91748046875,10491.2119140625,10433.9912109375,6711.48291015625,11404.35546875,13755.162109375,18781.8203125,-12926.2607421875,3129.641357421875,13336.3408203125,8995.533203125,7669.130859375,6939.56982421875,0.0,11703.173828125
6155.1728515625,4163.58349609375,17022.291015625,7557.07421875,18293.857421875,7358.39208984375,10556.3798828125,15691.1220703125,7907.5498046875,9924.5712890625,6934.00732421875,9744.9619140625,-4873.27587890625,0.0,14667.5107421875,14729.5,1766.681640625,1731.713623046875,6132.9208984375,9192.6259765625,5311.1708984375,12241.2041015625,9454.88671875,24182.796875,609.5568237304688,3812.31298828125,8322.3984375,15428.8603515625,-4645.18896484375,2037.6842041015625,19743.443359375,-10318.755859375,-3095.4677734375,3577.0732421875,11494.16015625,12824.53515625,7968.7431640625,10817.05078125,8928.775390625,-0.0,7389.38671875,28301.080078125,32384.396484375,10483.2646484375,21263.7578125,16303.0625,2250.67138671875,1870.7911376953125,7776.4189453125,16663.869140625,13484.16015625,15814.3046875,11812.05078125,2188.6826171875,2711.614013671875,11035.6015625,0.0,6392.796875,10495.185546875,10434.787109375,6724.9931640625,11405.9453125,13757.546875,18782.615234375,-12919.1083984375,3133.61474609375,13341.109375,8995.533203125,7677.873046875,6936.39111328125,0.0,11703.173828125
6134.51025390625,4163.58349609375,17038.98046875,7570.5849609375,18305.779296875,7370.31298828125,10565.1220703125,15699.068359375,7915.4970703125,9934.107421875,6934.8017578125,9744.9619140625,-4864.53369140625,0.0,14677.0478515625,14738.2421875,1780.1920166015625,1742.0450439453125,6141.66259765625,9199.7783203125,5326.27099609375,12255.509765625,9466.01171875,24190.744140625,617.504150390625,3831.386474609375,8345.4443359375,15430.4501953125,-4638.83056640625,2048.810302734375,19757.748046875,-10308.4248046875,-3077.189208984375,3591.37841796875,11506.875,12835.662109375,7978.2802734375,10825.79296875,8858.83984375,-0.0,7410.84423828125,28325.716796875,32395.5234375,10492.8017578125,21273.294921875,16311.8037109375,2240.340087890625,1802.4444580078125,7783.57177734375,16672.611328125,13492.107421875,15821.45703125,11786.6201171875,2110.00439453125,2710.024658203125,11041.958984375,0.0,6391.20703125,10505.5166015625,10447.501953125,6728.17236328125,11414.6875,13767.0830078125,18792.15234375,-12910.3662109375,3142.35693359375,13352.234375,9020.1689453125,7693.767578125,6947.517578125,0.0,11715.0947265625
6081.26318359375,4170.73583984375,17022.291015625,7593.6318359375,18291.47265625,7360.7763671875,10553.201171875,15687.9423828125,7905.16552734375,9930.1337890625,6913.34375,9734.630859375,-4845.46044921875,0.0,14663.537109375,14727.91015625,1779.3973388671875,1734.8924560546875,6131.3310546875,9193.419921875,5323.091796875,12253.9208984375,9454.0908203125,24183.591796875,601.6095581054688,3828.207763671875,8300.9404296875,15407.4033203125,-4641.21484375,2041.65771484375,19756.158203125,-10320.345703125,-3069.24169921875,3599.325927734375,11498.927734375,12828.509765625,7963.97509765625,10816.2568359375,8831.818359375,-0.0,7411.638671875,28327.306640625,32378.037109375,10478.49609375,21260.580078125,16303.0625,2198.21923828125,1819.928466796875,7758.935546875,16651.94921875,13480.1865234375,15810.3310546875,11772.3154296875,2134.640869140625,2685.387939453125,11031.6279296875,0.0,6444.4541015625,10493.595703125,10443.5283203125,6717.04638671875,11406.7392578125,13758.341796875,18787.384765625,-12923.876953125,3135.204345703125,13337.9296875,9024.9375,7678.66748046875,6949.9013671875,0.0,11712.7099609375
6057.42138671875,4162.78857421875,16954.740234375,7603.16845703125,18291.47265625,7359.9814453125,10553.201171875,15693.505859375,7904.3701171875,9931.7236328125,6918.1123046875,9752.1142578125,-4835.923828125,0.0,14659.564453125,14733.4736328125,1788.139404296875,1739.660888671875,6132.9208984375,9193.419921875,5339.78125,12257.8935546875,9454.0908203125,24185.1796875,592.0728149414062,3821.849853515625,8302.529296875,15419.32421875,-4636.4462890625,2044.8367919921875,19762.515625,-10312.3984375,-3029.50537109375,3605.68359375,11504.4912109375,12830.8935546875,7963.97509765625,10817.845703125,8818.30859375,-0.0,7425.94384765625,28314.58984375,32373.267578125,10482.470703125,21260.580078125,16306.2421875,2176.76171875,1912.9117431640625,7742.24609375,16657.51171875,13475.41796875,15814.3046875,11785.8251953125,2206.96142578125,2707.640380859375,11040.3701171875,0.0,6466.70654296875,10489.623046875,10445.1181640625,6707.50927734375,11408.3291015625,13761.5205078125,18786.587890625,-12926.2607421875,3143.9462890625,13332.3671875,9030.5009765625,7668.33642578125,6954.669921875,0.0,11712.7099609375
6103.515625,4149.2783203125,17043.748046875,7596.81103515625,18292.26953125,7360.7763671875,10555.5849609375,15694.2998046875,7904.3701171875,9930.1337890625,6933.21240234375,9760.8564453125,-4852.61279296875,0.0,14661.1533203125,14732.6787109375,1788.93408203125,1738.8662109375,6132.9208984375,9193.419921875,5328.6552734375,12254.71484375,9454.88671875,24185.9765625,588.8939208984375,3812.31298828125,8321.6025390625,15419.32421875,-4635.65185546875,2049.605224609375,19756.953125,-10291.7353515625,-3054.936767578125,3612.04150390625,11502.90234375,12830.0986328125,7969.53857421875,10818.640625,8926.3916015625,-0.0,7413.228515625,28306.642578125,32378.833984375,10481.6748046875,21262.96484375,16306.2421875,2225.239990234375,1936.753662109375,7757.345703125,16659.89453125,13477.802734375,15814.3046875,11802.513671875,2226.82958984375,2735.455810546875,11045.138671875,0.0,6452.40185546875,10489.623046875,10445.1181640625,6700.35693359375,11409.123046875,13762.314453125,18785.0,-12917.5185546875,3147.919921875,13333.95703125,9028.9111328125,7668.33642578125,6948.3125,0.0,11710.326171875
