6240.208984375,4115.8994140625,15790.462890625,8406.638671875,19337.3359375,7623.8310546875,11309.783203125,16279.220703125,8458.296875,10629.4951171875,9828.408203125,9362.697265625,-3618.3994140625,0.0,14007.8857421875,15145.9375,2967.5166015625,3210.70361328125,6708.3037109375,8944.6708984375,5249.18212890625,13061.3642578125,10465.78125,25374.888671875,-775.6550903320312,1313.6864013671875,8099.0791015625,16015.37109375,-5476.474609375,3585.8154296875,20771.822265625,-8505.98046875,-3942.6484375,4475.91162109375,12526.51171875,13764.69921875,8737.24609375,11347.134765625,7770.8564453125,-0.0,6131.3310546875,29602.845703125,33636.09375,10840.892578125,22122.859375,17300.447265625,-819.3651733398438,-3225.0087890625,5762.5771484375,16699.6328125,12862.6826171875,16237.1005859375,13020.0390625,2456.506103515625,2772.80810546875,11902.6494140625,0.0,5085.46826171875,10205.9052734375,9973.84375,7811.3876953125,12923.876953125,13098.716796875,19071.8984375,-12522.5380859375,4277.2294921875,12625.853515625,6814.7978515625,6759.16650390625,4862.14990234375,0.0,12348.4921875
6233.85107421875,4025.300537109375,15793.6416015625,8432.865234375,19335.74609375,7623.03662109375,11305.0146484375,16276.8359375,8455.912109375,10627.1103515625,9824.435546875,9367.4658203125,-3617.6044921875,0.0,14003.1171875,15141.169921875,2964.337646484375,3209.114013671875,6705.12548828125,8942.2861328125,5246.00341796875,13062.1591796875,10462.6015625,25373.30078125,-778.039306640625,1313.6864013671875,8091.9267578125,16012.9873046875,-5475.6796875,3585.020751953125,20771.02734375,-8507.5693359375,-3953.77490234375,4480.68017578125,12525.7177734375,13763.1103515625,8733.2724609375,11343.9560546875,7759.72998046875,-0.0,6140.0732421875,29597.283203125,33633.70703125,10839.302734375,22118.88671875,17299.65234375,-834.4650268554688,-3154.27783203125,5754.62939453125,16701.220703125,12858.7080078125,16233.9208984375,13020.0390625,2443.79052734375,2769.629150390625,11901.85546875,0.0,5075.13671875,10203.5205078125,9968.28125,7820.12939453125,12920.697265625,13096.3330078125,19070.306640625,-12523.333984375,4277.2294921875,12620.2900390625,6812.41357421875,6756.78271484375,4868.50732421875,0.0,12347.6982421875
6218.75146484375,4062.652587890625,15842.9150390625,8440.017578125,19334.158203125,7628.599609375,11302.630859375,16280.8095703125,8445.580078125,10627.1103515625,9826.0244140625,9383.361328125,-3620.783447265625,0.0,13975.302734375,15145.9375,2979.4375,3213.087890625,6705.12548828125,8935.9287109375,5248.3876953125,13067.72265625,10463.3974609375,25376.478515625,-775.6550903320312,1320.8388671875,8085.568359375,16017.755859375,-5471.70654296875,3594.5576171875,20776.58984375,-8498.0322265625,-3949.801025390625,4491.80615234375,12526.51171875,13768.6728515625,8728.50390625,11344.75,7783.57177734375,-0.0,6135.3046875,29597.283203125,33629.734375,10844.0712890625,22110.939453125,17297.267578125,-820.159912109375,-3060.5,5752.24560546875,16708.375,12834.072265625,16237.89453125,13013.6806640625,2440.611572265625,2769.629150390625,11910.59765625,0.0,5091.03173828125,10182.857421875,9968.28125,7814.56640625,12923.876953125,13093.9482421875,19063.94921875,-12520.94921875,4288.35546875,12591.6796875,6815.59228515625,6704.33056640625,4870.8916015625,0.0,12349.2880859375
6208.419921875,4187.42529296875,15832.58203125,8439.2236328125,19330.978515625,7623.03662109375,11302.630859375,16280.015625,8447.96484375,10629.4951171875,9821.255859375,9382.5654296875,-3623.167724609375,0.0,13991.9921875,15144.34765625,2975.4638671875,3210.70361328125,6705.919921875,8939.90234375,5243.61962890625,13061.3642578125,10461.8076171875,25374.888671875,-777.2445678710938,1312.096923828125,8091.9267578125,16011.396484375,-5474.0908203125,3588.19970703125,20771.822265625,-8498.0322265625,-3953.77490234375,4484.6533203125,12524.9228515625,13764.69921875,8730.09375,11343.1611328125,7816.1552734375,-0.0,6125.76806640625,29592.513671875,33629.734375,10838.5087890625,22114.912109375,17298.0625,-806.6495361328125,-3063.6787109375,5749.861328125,16697.248046875,12846.787109375,16237.1005859375,13008.912109375,2442.200927734375,2768.039794921875,11905.0341796875,0.0,5107.720703125,10190.8046875,9971.458984375,7812.97705078125,12923.0810546875,13093.9482421875,19073.486328125,-12520.94921875,4283.5869140625,12606.7802734375,6828.30810546875,6723.40380859375,4874.07080078125,0.0,12355.6455078125
6233.056640625,4210.47216796875,15814.3046875,8425.712890625,19327.798828125,7613.5,11301.041015625,16276.8359375,8450.3486328125,10627.90625,9822.845703125,9379.38671875,-3630.3203125,0.0,13995.96484375,15140.3740234375,2966.7216796875,3205.140380859375,6702.7412109375,8937.5185546875,5238.05615234375,13055.8017578125,10459.4228515625,25370.12109375,-780.4234619140625,1300.176025390625,8092.72119140625,16003.4501953125,-5477.26953125,3590.583740234375,20766.2578125,-8505.98046875,-3964.90087890625,4477.5009765625,12520.94921875,13759.1357421875,8727.7099609375,11341.572265625,7806.619140625,-0.0,6123.3837890625,29584.56640625,33627.3515625,10831.3564453125,22114.912109375,17296.47265625,-809.03369140625,-3088.315185546875,5749.861328125,16682.943359375,12851.5556640625,16233.1259765625,13009.70703125,2421.5380859375,2764.06591796875,11903.4453125,0.0,5112.4892578125,10194.7783203125,9970.6650390625,7820.923828125,12919.1083984375,13092.3583984375,19075.87109375,-12524.1279296875,4281.99755859375,12613.1376953125,6830.6923828125,6738.50390625,4878.0439453125,0.0,12358.029296875
6248.951171875,4199.34619140625,15828.609375,8428.8916015625,19320.646484375,7608.73193359375,11291.50390625,16268.888671875,8440.8125,10622.341796875,9822.05078125,9376.2080078125,-3629.525390625,0.0,13982.455078125,15134.0166015625,2961.15869140625,3200.3720703125,6694.7939453125,8931.16015625,5234.08251953125,13051.8271484375,10451.4765625,25363.763671875,-785.986572265625,1300.176025390625,8081.59521484375,15994.70703125,-5478.06396484375,3589.7890625,20759.10546875,-8509.1591796875,-3970.464111328125,4483.8583984375,12514.5908203125,13755.9580078125,8720.5576171875,11334.4189453125,7800.26123046875,-0.0,6118.61572265625,29579.796875,33620.99609375,10826.587890625,22104.58203125,17290.115234375,-811.4179077148438,-3105.004638671875,5745.8876953125,16678.96875,12836.4560546875,16225.97265625,13008.912109375,2399.28564453125,2761.681884765625,11899.4716796875,0.0,5105.33642578125,10183.65234375,9965.1025390625,7832.05029296875,12911.16015625,13084.412109375,19071.1015625,-12523.333984375,4280.408203125,12596.4482421875,6825.12890625,6721.01953125,4876.45458984375,0.0,12354.8505859375
6245.77197265625,4158.81494140625,15828.609375,8404.2548828125,19315.083984375,7602.37353515625,11285.1455078125,16262.53125,8437.6337890625,10615.9853515625,9820.4609375,9368.2607421875,-3625.552001953125,0.0,13984.83984375,15126.8642578125,2953.21142578125,3194.014404296875,6688.43603515625,8927.185546875,5226.93017578125,13047.05859375,10444.3232421875,25358.19921875,-789.16552734375,1293.0234375,8073.6474609375,15988.349609375,-5479.65380859375,3582.636474609375,20753.541015625,-8512.337890625,-3972.848388671875,4470.34814453125,12507.4384765625,13748.8046875,8716.5830078125,11327.2666015625,7801.0556640625,-0.0,6113.05224609375,29578.208984375,33613.84375,10821.0244140625,22099.017578125,17282.962890625,-815.3915405273438,-3135.9990234375,5737.9404296875,16671.021484375,12838.8408203125,16219.6162109375,13007.3232421875,2408.822265625,2754.529296875,11893.908203125,0.0,5083.87890625,10180.4736328125,9961.9228515625,7832.05029296875,12904.8037109375,13078.8486328125,19063.94921875,-12525.7177734375,4274.84521484375,12601.216796875,6814.0029296875,6727.37744140625,4868.50732421875,0.0,12345.314453125
6241.79833984375,4123.8466796875,15821.45703125,8389.1552734375,19316.673828125,7605.552734375,11287.5302734375,16266.50390625,8438.427734375,10618.369140625,9823.6396484375,9371.439453125,-3624.757080078125,0.0,13988.8125,15131.6328125,2953.21142578125,3194.014404296875,6690.025390625,8929.5703125,5226.13525390625,13047.8544921875,10445.1181640625,25358.19921875,-787.5760498046875,1295.4075927734375,8078.416015625,15994.70703125,-5480.4482421875,3581.047119140625,20755.1328125,-8509.953125,-3972.848388671875,4467.96435546875,12505.8486328125,13751.189453125,8718.1728515625,11327.2666015625,7801.0556640625,-0.0,6109.87353515625,29580.59375,33615.4296875,10823.4091796875,22102.990234375,17286.935546875,-815.3915405273438,-3129.641357421875,5739.5302734375,16678.17578125,12842.814453125,16222.0,13008.912109375,2429.4853515625,2752.14501953125,11900.265625,0.0,5067.98388671875,10177.294921875,9969.8701171875,7830.46044921875,12904.8037109375,13079.6435546875,19063.154296875,-12524.9228515625,4276.4345703125,12602.01171875,6819.56640625,6730.556640625,4870.8916015625,0.0,12347.6982421875
6243.3876953125,4158.81494140625,15819.072265625,8399.486328125,19321.44140625,7611.91015625,11292.2978515625,16270.4794921875,8439.2236328125,10623.931640625,9827.6142578125,9375.4130859375,-3622.372802734375,0.0,13984.83984375,15135.60546875,2957.18505859375,3197.98779296875,6693.9990234375,8935.1337890625,5232.4931640625,13048.6484375,10449.88671875,25361.37890625,-782.8076782226562,1301.765380859375,8083.9794921875,16003.4501953125,-5472.50146484375,3590.583740234375,20758.310546875,-8505.98046875,-3969.66943359375,4469.5537109375,12510.6171875,13754.3681640625,8722.146484375,11332.8291015625,7793.1083984375,-0.0,6116.2314453125,29578.208984375,33618.609375,10828.9716796875,22106.966796875,17287.73046875,-811.4179077148438,-3112.951904296875,5744.29833984375,16686.12109375,12838.8408203125,16227.5634765625,13012.8857421875,2438.227294921875,2759.297607421875,11907.41796875,0.0,5079.11083984375,10178.8837890625,9973.048828125,7828.87158203125,12909.5712890625,13082.822265625,19065.5390625,-12520.154296875,4282.79248046875,12598.0380859375,6831.4873046875,6713.072265625,4879.63330078125,0.0,12354.8505859375
6246.56689453125,4181.06689453125,15818.27734375,8447.169921875,19327.005859375,7621.447265625,11295.4775390625,16278.4248046875,8446.3759765625,10631.083984375,9830.7919921875,9380.9765625,-3620.783447265625,0.0,13985.6337890625,15141.9638671875,2965.132568359375,3208.3193359375,6700.35693359375,8942.2861328125,5239.6455078125,13056.595703125,10456.244140625,25372.505859375,-776.4498291015625,1310.5074462890625,8085.568359375,16015.37109375,-5468.52734375,3601.7099609375,20767.84765625,-8503.5966796875,-3957.74853515625,4485.4482421875,12516.1806640625,13762.314453125,8726.1201171875,11341.572265625,7785.9560546875,-0.0,6124.97314453125,29585.361328125,33623.37890625,10836.9189453125,22110.939453125,17295.6796875,-812.212646484375,-3114.541259765625,5749.06689453125,16699.6328125,12840.4306640625,16237.1005859375,13014.4755859375,2438.227294921875,2762.4765625,11915.3662109375,0.0,5087.0576171875,10190.8046875,9977.0234375,7825.6923828125,12915.134765625,13090.76953125,19073.486328125,-12517.76953125,4287.56103515625,12602.8056640625,6837.8447265625,6731.3515625,4887.5810546875,0.0,12363.5927734375
6241.79833984375,4187.42529296875,15825.4296875,8432.865234375,19330.978515625,7621.447265625,11301.8349609375,16280.8095703125,8452.7333984375,10634.2626953125,9833.9716796875,9381.771484375,-3614.42578125,0.0,13996.7607421875,15143.5537109375,2968.311279296875,3210.70361328125,6702.7412109375,8945.46484375,5241.2353515625,13061.3642578125,10458.62890625,25371.708984375,-772.4761962890625,1309.7127685546875,8091.9267578125,16009.8076171875,-5466.14306640625,3600.915283203125,20770.23046875,-8502.80078125,-3956.95361328125,4487.83251953125,12519.359375,13764.69921875,8730.09375,11343.9560546875,7793.9033203125,-0.0,6131.3310546875,29590.12890625,33629.734375,10837.7138671875,22117.296875,17298.0625,-812.212646484375,-3124.078125,5757.013671875,16698.041015625,12851.5556640625,16237.1005859375,13013.6806640625,2439.816650390625,2766.4501953125,11914.5712890625,0.0,5094.2099609375,10197.1630859375,9980.99609375,7827.28173828125,12916.724609375,13094.7431640625,19076.666015625,-12515.3857421875,4286.76611328125,12612.3427734375,6844.20263671875,6740.09326171875,4891.55419921875,0.0,12366.771484375
6233.85107421875,4174.70947265625,15830.1982421875,8398.6923828125,19333.36328125,7611.11572265625,11299.451171875,16272.86328125,8448.759765625,10629.4951171875,9831.587890625,9378.5927734375,-3616.809814453125,0.0,13994.3759765625,15137.990234375,2961.15869140625,3203.551025390625,6699.56201171875,8942.2861328125,5238.85107421875,13051.8271484375,10453.8603515625,25363.763671875,-774.8603515625,1300.970703125,8088.748046875,15997.88671875,-5468.52734375,3592.968017578125,20763.078125,-8509.953125,-3960.132568359375,4475.11669921875,12515.3857421875,13755.9580078125,8726.9140625,11336.8037109375,7791.51904296875,-0.0,6130.53662109375,29584.56640625,33628.1484375,10827.3818359375,22114.912109375,17294.087890625,-809.03369140625,-3145.53564453125,5753.04052734375,16682.1484375,12848.376953125,16232.33203125,13004.939453125,2422.332763671875,2765.655517578125,11907.41796875,0.0,5093.41552734375,10195.5732421875,9977.0234375,7824.89794921875,12910.3662109375,13090.76953125,19071.8984375,-12517.76953125,4282.79248046875,12609.958984375,6839.43408203125,6743.2724609375,4884.40185546875,0.0,12362.7978515625
6228.2880859375,4156.4306640625,15819.8681640625,8391.5400390625,19329.388671875,7602.37353515625,11293.8876953125,16264.1201171875,8447.96484375,10620.7529296875,9821.255859375,9363.4921875,-3619.98876953125,0.0,14002.3232421875,15127.6591796875,2948.443115234375,3193.219482421875,6693.20458984375,8935.9287109375,5230.90380859375,13041.49609375,10448.296875,25355.81640625,-784.3970947265625,1289.844482421875,8086.36376953125,15991.529296875,-5475.6796875,3577.0732421875,20751.953125,-8522.669921875,-3963.311767578125,4458.42724609375,12509.8232421875,13744.8310546875,8722.94140625,11327.2666015625,7773.24072265625,-0.0,6129.74169921875,29575.82421875,33621.7890625,10817.845703125,22111.734375,17283.7578125,-815.3915405273438,-3172.556640625,5743.50341796875,16672.611328125,12854.7353515625,16220.4111328125,12988.25,2402.464599609375,2760.092529296875,11894.703125,0.0,5071.9580078125,10198.751953125,9966.69140625,7820.12939453125,12901.6240234375,13084.412109375,19068.71875,-12526.51171875,4272.4609375,12617.111328125,6817.9765625,6761.55078125,4871.6865234375,0.0,12350.876953125
6215.572265625,4142.919921875,15794.435546875,8404.2548828125,19325.4140625,7597.60546875,11288.3251953125,16256.9677734375,8438.427734375,10614.3955078125,9814.8984375,9354.7509765625,-3620.783447265625,0.0,13988.017578125,15121.30078125,2943.6748046875,3189.245849609375,6687.64111328125,8927.9814453125,5226.93017578125,13036.7275390625,10443.5283203125,25350.251953125,-788.3707885742188,1285.076171875,8081.59521484375,15985.169921875,-5480.4482421875,3572.304931640625,20750.365234375,-8528.232421875,-3968.87451171875,4463.99072265625,12507.4384765625,13740.857421875,8718.9677734375,11321.7041015625,7754.96142578125,-0.0,6123.3837890625,29568.671875,33617.8125,10813.0771484375,22103.787109375,17276.60546875,-828.9019165039062,-3174.94091796875,5740.32470703125,16665.458984375,12842.01953125,16213.2587890625,12981.09765625,2390.543701171875,2756.11865234375,11886.755859375,0.0,5063.2158203125,10186.0361328125,9957.154296875,7813.771484375,12896.85546875,13077.2587890625,19059.181640625,-12534.458984375,4264.513671875,12602.01171875,6810.029296875,6738.50390625,4866.91796875,0.0,12342.1357421875
6242.59326171875,4158.02001953125,15761.056640625,8426.5068359375,19348.462890625,7615.08935546875,11301.8349609375,16273.6572265625,8444.7861328125,10627.90625,9826.8193359375,9373.82421875,-3608.06787109375,0.0,13976.8916015625,15137.990234375,2965.132568359375,3210.70361328125,6703.53564453125,8939.107421875,5253.15625,13058.185546875,10464.19140625,25370.12109375,-772.4761962890625,1304.149658203125,8098.28466796875,15998.681640625,-5462.96435546875,3591.37841796875,20773.41015625,-8507.5693359375,-3949.801025390625,4485.4482421875,12529.6904296875,13762.314453125,8734.0673828125,11339.1875,7753.3720703125,-0.0,6160.736328125,29586.951171875,33636.09375,10829.7666015625,22114.912109375,17293.294921875,-826.5177612304688,-3138.383056640625,5764.96142578125,16682.943359375,12830.8935546875,16229.9482421875,13003.349609375,2412.00146484375,2771.218505859375,11901.85546875,0.0,5100.568359375,10183.65234375,9974.638671875,7833.64013671875,12916.724609375,13092.3583984375,19064.744140625,-12516.1806640625,4284.3818359375,12590.884765625,6830.6923828125,6705.919921875,4884.40185546875,0.0,12356.4404296875
6233.85107421875,4131.7939453125,15799.9990234375,8450.3486328125,19355.615234375,7619.85791015625,11306.603515625,16280.015625,8449.5546875,10634.2626953125,9822.845703125,9375.4130859375,-3595.35205078125,0.0,13986.4287109375,15143.5537109375,2970.695556640625,3213.88232421875,6708.3037109375,8946.259765625,5258.71875,13062.9541015625,10468.1650390625,25374.888671875,-771.6814575195312,1311.30224609375,8098.28466796875,16003.4501953125,-5462.16943359375,3592.968017578125,20777.384765625,-8513.1328125,-3933.111572265625,4488.626953125,12533.6650390625,13765.494140625,8738.8349609375,11342.3662109375,7723.96728515625,-0.0,6173.45166015625,29594.8984375,33641.65625,10834.5341796875,22121.271484375,17298.857421875,-833.6702880859375,-3142.35693359375,5774.498046875,16686.12109375,12840.4306640625,16235.509765625,12995.40234375,2408.822265625,2764.86083984375,11903.4453125,0.0,5103.7470703125,10187.6259765625,9981.791015625,7822.513671875,12920.697265625,13095.5380859375,19074.28125,-12518.5654296875,4286.76611328125,12601.216796875,6842.61328125,6718.6357421875,4892.34912109375,0.0,12364.3876953125
6182.98876953125,4082.52099609375,15823.0458984375,8471.01171875,19337.3359375,7611.11572265625,11293.8876953125,16265.7109375,8435.2490234375,10621.5478515625,9811.71875,9357.134765625,-3587.405029296875,0.0,13971.3291015625,15130.837890625,2959.5693359375,3200.3720703125,6694.7939453125,8931.16015625,5243.61962890625,13055.0068359375,10453.064453125,25362.96875,-790.7549438476562,1304.149658203125,8076.03173828125,15993.9140625,-5472.50146484375,3582.636474609375,20763.875,-8529.822265625,-3941.05908203125,4494.98486328125,12518.5654296875,13754.3681640625,8720.5576171875,11328.8564453125,7702.50927734375,-0.0,6150.404296875,29592.513671875,33625.76171875,10824.998046875,22106.966796875,17285.34765625,-840.0281372070312,-3176.530029296875,5742.70849609375,16674.99609375,12826.125,16222.0,12972.3544921875,2370.67529296875,2750.5556640625,11890.728515625,0.0,5079.9052734375,10170.142578125,9966.69140625,7801.0556640625,12907.1875,13082.822265625,19062.361328125,-12529.6904296875,4268.4873046875,12586.1171875,6823.53955078125,6705.12548828125,4872.48095703125,0.0,12350.08203125
6158.35205078125,4066.6259765625,15840.5302734375,8413.7919921875,19327.798828125,7605.552734375,11289.1201171875,16260.9423828125,8434.455078125,10616.779296875,9808.5400390625,9353.1611328125,-3589.7890625,0.0,13980.0712890625,15126.0693359375,2952.416748046875,3193.219482421875,6690.8203125,8928.775390625,5230.10888671875,13043.880859375,10446.7080078125,25356.611328125,-798.7022705078125,1296.9970703125,8068.87890625,15989.9384765625,-5480.4482421875,3585.8154296875,20751.158203125,-8519.490234375,-3961.721923828125,4471.9375,12508.2333984375,13746.4208984375,8716.5830078125,11325.6767578125,7719.19873046875,-0.0,6117.82080078125,29585.361328125,33619.40234375,10820.2294921875,22104.58203125,17281.373046875,-838.4386596679688,-3189.245849609375,5740.32470703125,16672.611328125,12834.8662109375,16218.8203125,12965.9970703125,2353.986083984375,2742.6083984375,11885.166015625,0.0,5072.75244140625,10176.4990234375,9961.9228515625,7791.51904296875,12900.8291015625,13079.6435546875,19056.001953125,-12538.4326171875,4266.10302734375,12594.859375,6810.029296875,6721.01953125,4854.9970703125,0.0,12342.1357421875
6180.6044921875,4094.44189453125,15822.251953125,8394.7177734375,19329.388671875,7603.96337890625,11293.8876953125,16266.50390625,8445.580078125,10619.1630859375,9809.3349609375,9354.7509765625,-3599.325927734375,0.0,13998.349609375,15130.04296875,2953.21142578125,3190.835205078125,6694.7939453125,8934.3388671875,5224.5458984375,13040.7021484375,10447.501953125,25355.81640625,-793.933837890625,1292.228759765625,8072.85302734375,15993.9140625,-5481.2431640625,3587.405029296875,20747.98046875,-8517.9013671875,-3972.848388671875,4462.40087890625,12505.8486328125,13744.8310546875,8723.7353515625,11328.8564453125,7793.1083984375,-0.0,6116.2314453125,29575.029296875,33621.7890625,10821.8193359375,22112.52734375,17282.962890625,-824.133544921875,-3169.377685546875,5760.98779296875,16673.40625,12853.1455078125,16222.7958984375,12965.9970703125,2367.49658203125,2747.376708984375,11882.7822265625,0.0,5074.34228515625,10195.5732421875,9965.1025390625,7783.57177734375,12902.4189453125,13083.6171875,19059.9765625,-12541.611328125,4268.4873046875,12613.9326171875,6802.08203125,6758.3720703125,4855.79150390625,0.0,12338.9560546875
6217.16162109375,4128.61474609375,15821.45703125,8436.8388671875,19347.66796875,7619.85791015625,11311.3720703125,16277.6318359375,8459.0908203125,10632.673828125,9807.74609375,9373.0283203125,-3612.836181640625,0.0,14011.0654296875,15141.169921875,2965.132568359375,3205.140380859375,6708.3037109375,8947.0546875,5242.82470703125,13055.0068359375,10463.3974609375,25371.708984375,-780.4234619140625,1309.7127685546875,8100.6689453125,16010.6025390625,-5468.52734375,3593.7626953125,20764.669921875,-8502.0068359375,-3956.95361328125,4482.26953125,12522.5380859375,13761.5205078125,8738.8349609375,11341.572265625,7742.24609375,-0.0,6139.2783203125,29589.333984375,33640.06640625,10837.7138671875,22128.423828125,17296.47265625,-809.03369140625,-3135.9990234375,5775.29296875,16689.30078125,12865.06640625,16233.9208984375,12985.865234375,2402.464599609375,2756.913330078125,11901.85546875,0.0,5079.11083984375,10210.6728515625,9972.2548828125,7805.82421875,12915.9287109375,13097.126953125,19071.8984375,-12528.896484375,4281.99755859375,12626.6484375,6810.029296875,6774.2666015625,4870.8916015625,0.0,12350.876953125
6229.08251953125,4130.20458984375,15830.994140625,8430.48046875,19361.177734375,7630.189453125,11320.908203125,16285.578125,8465.44921875,10639.03125,9820.4609375,9388.12890625,-3623.96240234375,0.0,14012.654296875,15149.9111328125,2973.07958984375,3217.061279296875,6717.8408203125,8954.20703125,5255.54052734375,13062.1591796875,10475.318359375,25382.041015625,-766.1183471679688,1320.044189453125,8118.947265625,16020.1396484375,-5463.7587890625,3601.7099609375,20770.23046875,-8499.6220703125,-3940.26416015625,4487.03759765625,12532.8701171875,13772.646484375,8748.3720703125,11353.4931640625,7747.80908203125,-0.0,6151.994140625,29597.283203125,33651.19140625,10849.634765625,22135.576171875,17303.625,-801.08642578125,-3120.1044921875,5788.80322265625,16700.42578125,12867.451171875,16243.4580078125,13004.1435546875,2429.4853515625,2769.629150390625,11911.392578125,0.0,5091.03173828125,10214.646484375,9980.2021484375,7823.30810546875,12927.0556640625,13106.6640625,19076.666015625,-12522.5380859375,4289.150390625,12627.4423828125,6825.12890625,6756.78271484375,4878.8388671875,0.0,12359.619140625
6208.419921875,4170.73583984375,15869.935546875,8477.3701171875,19360.384765625,7643.69970703125,11324.087890625,16295.91015625,8463.859375,10640.62109375,9843.5087890625,9388.12890625,-3625.552001953125,0.0,14007.091796875,15160.2431640625,2981.02685546875,3222.62451171875,6725.7880859375,8957.3857421875,5253.95068359375,13074.875,10477.7021484375,25389.1953125,-744.6607055664062,1327.991455078125,8120.53662109375,16030.4697265625,-5463.7587890625,3611.246826171875,20775.794921875,-8495.6484375,-3937.880126953125,4509.2900390625,12535.2548828125,13779.7998046875,8752.345703125,11360.6455078125,7891.65478515625,-0.0,6144.046875,29613.97265625,33651.19140625,10859.171875,22136.369140625,17311.572265625,-793.13916015625,-3124.078125,5788.80322265625,16711.552734375,12862.6826171875,16252.994140625,13008.1171875,2416.769775390625,2783.139404296875,11917.75,0.0,5116.462890625,10204.3154296875,9994.5068359375,7832.8447265625,12933.4130859375,13109.0478515625,19075.07421875,-12516.9755859375,4295.5078125,12623.4697265625,6840.22900390625,6732.14599609375,4884.40185546875,0.0,12365.181640625
6186.16748046875,4143.71484375,15843.7099609375,8454.3232421875,19352.435546875,7637.341796875,11317.7294921875,16292.73046875,8458.296875,10635.8525390625,9837.9453125,9373.0283203125,-3619.98876953125,0.0,13999.939453125,15157.8583984375,2973.874267578125,3213.88232421875,6719.4306640625,8951.8232421875,5246.00341796875,13068.5166015625,10470.5498046875,25382.837890625,-753.4027099609375,1322.4283447265625,8109.41015625,16020.93359375,-5469.322265625,3602.504638671875,20770.23046875,-8499.6220703125,-3946.622314453125,4493.3955078125,12527.306640625,13772.646484375,8745.193359375,11355.876953125,7846.35546875,-0.0,6137.68896484375,29612.3828125,33644.0390625,10853.6083984375,22130.01171875,17309.189453125,-808.239013671875,-3147.919921875,5768.14013671875,16705.990234375,12857.119140625,16249.8154296875,13004.939453125,2362.72802734375,2780.75537109375,11911.392578125,0.0,5130.767578125,10200.3408203125,9995.30078125,7820.923828125,12927.849609375,13104.279296875,19069.513671875,-12522.5380859375,4284.3818359375,12617.111328125,6837.0498046875,6723.40380859375,4872.48095703125,0.0,12354.8505859375
6244.9775390625,4073.778564453125,15827.0205078125,8485.3173828125,19346.873046875,7632.57373046875,11316.140625,16297.4990234375,8462.26953125,10644.5947265625,9834.7666015625,9377.0029296875,-3614.42578125,0.0,13993.5810546875,15161.83203125,2973.874267578125,3211.498291015625,6718.6357421875,8956.591796875,5249.18212890625,13067.72265625,10468.1650390625,25384.42578125,-760.5552978515625,1323.22314453125,8103.84765625,16022.5234375,-5469.322265625,3608.06787109375,20770.23046875,-8499.6220703125,-3937.085693359375,4493.3955078125,12525.7177734375,13771.8515625,8742.8095703125,11355.876953125,7770.8564453125,-0.0,6138.4833984375,29605.23046875,33639.26953125,10852.8134765625,22130.01171875,17314.751953125,-812.212646484375,-3125.66748046875,5768.14013671875,16701.220703125,12852.3515625,16255.37890625,13013.6806640625,2370.67529296875,2783.139404296875,11916.955078125,0.0,5131.5625,10205.9052734375,9995.30078125,7819.3349609375,12927.0556640625,13107.458984375,19075.87109375,-12518.5654296875,4287.56103515625,12611.548828125,6848.970703125,6734.52978515625,4893.14404296875,0.0,12364.3876953125
6271.20361328125,4057.88427734375,15834.1728515625,8474.1904296875,19345.283203125,7629.39453125,11317.7294921875,16294.3212890625,8468.6279296875,10649.36328125,9828.408203125,9377.0029296875,-3617.6044921875,0.0,14007.8857421875,15160.2431640625,2974.669189453125,3210.70361328125,6718.6357421875,8963.744140625,5246.00341796875,13062.9541015625,10466.5751953125,25381.24609375,-756.5816040039062,1322.4283447265625,8107.8212890625,16020.93359375,-5470.91162109375,3601.7099609375,20768.642578125,-8498.828125,-3944.23828125,4512.46875,12523.333984375,13769.4677734375,8744.3994140625,11355.876953125,7802.64501953125,-0.0,6135.3046875,29596.486328125,33640.86328125,10850.4296875,22134.78125,17314.751953125,-803.4705810546875,-3090.699462890625,5780.85546875,16698.041015625,12864.2724609375,16252.19921875,13012.8857421875,2354.781005859375,2776.78173828125,11918.544921875,0.0,5120.43603515625,10215.44140625,9992.9169921875,7818.53955078125,12924.6708984375,13109.8427734375,19083.0234375,-12519.359375,4285.1767578125,12625.05859375,6850.560546875,6749.6298828125,4901.09130859375,0.0,12373.923828125
6257.69287109375,4101.59423828125,15827.814453125,8419.3544921875,19334.951171875,7616.6787109375,11315.345703125,16282.400390625,8479.7548828125,10643.7998046875,9822.05078125,9369.8505859375,-3617.6044921875,0.0,14048.4169921875,15147.5263671875,2954.006103515625,3197.193115234375,6712.27783203125,8966.9228515625,5226.93017578125,13046.2646484375,10458.62890625,25368.53125,-764.5289306640625,1304.9443359375,8110.20556640625,16005.0390625,-5479.65380859375,3583.43115234375,20753.541015625,-8521.8740234375,-3975.232666015625,4504.52197265625,12511.4130859375,13755.9580078125,8742.0146484375,11346.33984375,7851.1240234375,-0.0,6119.41015625,29581.388671875,33636.09375,10838.5087890625,22140.34375,17307.599609375,-802.6759033203125,-3092.2890625,5775.29296875,16685.328125,12902.4189453125,16239.484375,13009.70703125,2392.133056640625,2744.19775390625,11904.2392578125,0.0,5114.07861328125,10242.4619140625,9986.5595703125,7809.7978515625,12915.134765625,13107.458984375,19090.17578125,-12533.6650390625,4271.666015625,12666.384765625,6843.408203125,6824.33447265625,4887.5810546875,0.0,12366.771484375
6272.79296875,4189.80908203125,15833.3779296875,8406.638671875,19340.515625,7618.2685546875,11316.140625,16286.373046875,8478.1650390625,10645.3896484375,9835.560546875,9374.6181640625,-3604.09423828125,0.0,14030.93359375,15148.322265625,2951.6220703125,3199.577392578125,6714.662109375,8967.716796875,5232.4931640625,13047.8544921875,10461.8076171875,25372.505859375,-758.1710815429688,1305.739013671875,8107.8212890625,16013.7802734375,-5468.52734375,3591.37841796875,20755.1328125,-8510.7490234375,-3968.87451171875,4483.8583984375,12516.1806640625,13757.546875,8745.193359375,11347.9296875,7825.6923828125,-0.0,6128.94677734375,29575.029296875,33638.4765625,10841.6875,22141.93359375,17309.189453125,-795.5233154296875,-3112.1572265625,5777.67724609375,16690.888671875,12886.5244140625,16241.869140625,13027.9853515625,2450.94287109375,2752.14501953125,11903.4453125,0.0,5102.95263671875,10237.693359375,9986.5595703125,7832.8447265625,12918.3134765625,13109.0478515625,19083.818359375,-12522.5380859375,4276.4345703125,12646.515625,6848.17626953125,6810.029296875,4889.17041015625,0.0,12362.0029296875
6280.740234375,4200.935546875,15831.7890625,8371.6708984375,19334.951171875,7618.2685546875,11303.4248046875,16284.7841796875,8452.7333984375,10635.8525390625,9835.560546875,9374.6181640625,-3612.04150390625,0.0,13978.4814453125,15147.5263671875,2950.827392578125,3194.80908203125,6705.919921875,8951.0283203125,5230.10888671875,13038.3173828125,10455.44921875,25368.53125,-766.9130859375,1304.9443359375,8090.3369140625,16012.9873046875,-5470.1171875,3601.7099609375,20749.568359375,-8503.5966796875,-3966.490234375,4445.71142578125,12513.0009765625,13753.5732421875,8734.0673828125,11343.9560546875,7809.00341796875,-0.0,6127.357421875,29568.671875,33628.94140625,10840.0986328125,22123.65625,17302.83203125,-795.5233154296875,-3116.130859375,5771.31884765625,16690.888671875,12834.8662109375,16239.484375,13020.0390625,2479.55322265625,2779.166015625,11906.6240234375,0.0,5096.59423828125,10196.3681640625,9984.17578125,7831.255859375,12912.75,13097.126953125,19063.94921875,-12517.76953125,4281.99755859375,12592.474609375,6844.20263671875,6709.8935546875,4887.5810546875,0.0,12354.056640625
6283.9189453125,4177.88818359375,15822.251953125,8393.923828125,19337.3359375,7626.21533203125,11305.0146484375,16288.7578125,8449.5546875,10640.62109375,9844.302734375,9384.94921875,-3614.42578125,0.0,13972.9189453125,15153.0908203125,2957.18505859375,3201.96142578125,6708.3037109375,8951.8232421875,5234.08251953125,13046.2646484375,10458.62890625,25372.505859375,-765.3236083984375,1312.8916015625,8092.72119140625,16015.37109375,-5469.322265625,3610.451904296875,20755.92578125,-8501.2119140625,-3965.69580078125,4467.16943359375,12516.9755859375,13760.7255859375,8733.2724609375,11348.724609375,7831.255859375,-0.0,6130.53662109375,29582.181640625,33631.32421875,10844.8671875,22121.271484375,17308.392578125,-793.13916015625,-3106.593994140625,5772.11376953125,16696.453125,12826.919921875,16245.841796875,13023.216796875,2475.57958984375,2795.060302734375,11916.16015625,0.0,5116.462890625,10186.8310546875,9990.533203125,7837.61328125,12916.724609375,13101.1005859375,19067.921875,-12511.4130859375,4293.12353515625,12586.9111328125,6836.25537109375,6673.3359375,4894.7333984375,0.0,12359.619140625
6268.0244140625,4164.3779296875,15788.078125,8392.333984375,19336.54296875,7616.6787109375,11303.4248046875,16285.578125,8450.3486328125,10641.416015625,9833.9716796875,9376.2080078125,-3617.6044921875,0.0,13979.275390625,15149.9111328125,2947.648193359375,3194.014404296875,6705.12548828125,8951.0283203125,5227.724609375,13039.1123046875,10453.8603515625,25364.556640625,-771.6814575195312,1302.5601806640625,8095.10498046875,16007.423828125,-5475.6796875,3594.5576171875,20749.568359375,-8510.7490234375,-3974.437744140625,4462.40087890625,12511.4130859375,13751.9833984375,8731.6826171875,11343.1611328125,7799.466796875,-0.0,6136.89404296875,29573.44140625,33628.94140625,10837.7138671875,22121.271484375,17304.419921875,-809.8284301757812,-3118.51513671875,5764.16650390625,16686.916015625,12833.27734375,16243.4580078125,13019.244140625,2448.558837890625,2783.934326171875,11903.4453125,0.0,5127.5888671875,10191.599609375,9986.5595703125,7838.40869140625,12910.3662109375,13099.5107421875,19067.921875,-12520.154296875,4281.99755859375,12593.26953125,6837.0498046875,6693.20458984375,4889.96484375,0.0,12358.8251953125
6249.74560546875,4150.86767578125,15772.9775390625,8397.1025390625,19336.54296875,7611.11572265625,11301.8349609375,16279.220703125,8451.14453125,10638.2373046875,9827.6142578125,9364.287109375,-3612.04150390625,0.0,13986.4287109375,15145.9375,2943.6748046875,3188.451171875,6703.53564453125,8948.6435546875,5226.93017578125,13037.5224609375,10451.4765625,25361.37890625,-777.2445678710938,1300.970703125,8096.69482421875,16004.244140625,-5478.85888671875,3592.17333984375,20745.595703125,-8518.6962890625,-3972.848388671875,4466.375,12509.8232421875,13748.009765625,8730.09375,11339.1875,7762.1142578125,-0.0,6142.45751953125,29570.26171875,33627.3515625,10832.9462890625,22120.4765625,17302.037109375,-826.5177612304688,-3133.61474609375,5759.39794921875,16683.736328125,12841.224609375,16238.689453125,13010.501953125,2426.306396484375,2772.013427734375,11897.0869140625,0.0,5117.2578125,10194.7783203125,9984.17578125,7821.71923828125,12907.1875,13097.126953125,19064.744140625,-12520.94921875,4277.2294921875,12599.6279296875,6837.8447265625,6713.072265625,4885.99169921875,0.0,12354.056640625
6221.93017578125,4141.33056640625,15771.388671875,8387.5654296875,19328.59375,7603.96337890625,11290.7099609375,16272.068359375,8441.607421875,10627.90625,9818.0771484375,9355.544921875,-3607.273193359375,0.0,13978.4814453125,15137.990234375,2935.727294921875,3180.50390625,6693.20458984375,8939.90234375,5222.16162109375,13030.3701171875,10443.5283203125,25351.84375,-787.5760498046875,1293.818115234375,8076.8271484375,15997.88671875,-5478.06396484375,3585.8154296875,20739.236328125,-8529.822265625,-3971.258544921875,4455.24853515625,12501.8759765625,13740.0625,8720.5576171875,11332.03515625,7743.83544921875,-0.0,6136.09912109375,29563.904296875,33619.40234375,10824.203125,22110.14453125,17294.8828125,-840.8228759765625,-3163.814453125,5759.39794921875,16674.99609375,12834.072265625,16229.15234375,12988.25,2414.385498046875,2768.83447265625,11887.55078125,0.0,5097.38916015625,10187.6259765625,9979.4072265625,7802.64501953125,12897.650390625,13087.58984375,19057.591796875,-12526.51171875,4269.28173828125,12593.26953125,6827.51318359375,6708.3037109375,4874.07080078125,0.0,12346.9033203125
6193.31982421875,4102.388671875,15816.6884765625,8415.3818359375,19324.62109375,7607.14208984375,11289.9140625,16276.041015625,8442.40234375,10629.4951171875,9815.693359375,9361.107421875,-3610.451904296875,0.0,13980.0712890625,15141.169921875,2938.111572265625,3181.298583984375,6693.20458984375,8943.0810546875,5221.36669921875,13035.93359375,10441.939453125,25352.63671875,-796.3180541992188,1297.7918701171875,8073.6474609375,16001.06640625,-5474.0908203125,3587.405029296875,20740.828125,-8529.02734375,-3969.66943359375,4471.9375,12500.2861328125,13743.2412109375,8719.76171875,11334.4189453125,7769.2666015625,-0.0,6125.76806640625,29571.8515625,33615.4296875,10826.587890625,22109.349609375,17296.47265625,-829.6966552734375,-3162.22509765625,5745.0927734375,16678.96875,12833.27734375,16232.33203125,12977.91796875,2384.98046875,2774.397705078125,11891.5244140625,0.0,5102.15771484375,10189.2158203125,9984.9697265625,7800.26123046875,12898.4453125,13087.58984375,19057.591796875,-12529.6904296875,4267.6923828125,12595.6533203125,6839.43408203125,6713.8671875,4879.63330078125,0.0,12348.4921875
6194.90966796875,4064.241943359375,15821.45703125,8448.759765625,19330.18359375,7623.03662109375,11302.630859375,16291.9365234375,8455.912109375,10644.5947265625,9829.203125,9364.287109375,-3607.273193359375,0.0,13994.3759765625,15154.6796875,2953.21142578125,3194.80908203125,6705.12548828125,8956.591796875,5232.4931640625,13049.443359375,10453.064453125,25366.1484375,-774.8603515625,1311.30224609375,8089.54248046875,16016.9599609375,-5473.2958984375,3600.12060546875,20754.337890625,-8529.822265625,-3959.337646484375,4491.80615234375,12511.4130859375,13756.751953125,8732.478515625,11345.5458984375,7805.029296875,-0.0,6132.1259765625,29589.333984375,33625.76171875,10840.892578125,22121.271484375,17308.392578125,-814.5968017578125,-3165.404052734375,5754.62939453125,16694.068359375,12847.5830078125,16247.4306640625,12994.607421875,2347.62841796875,2778.37109375,11905.8291015625,0.0,5115.66796875,10202.7255859375,9999.275390625,7805.029296875,12909.5712890625,13101.1005859375,19072.69140625,-12520.154296875,4276.4345703125,12610.7529296875,6858.5078125,6728.96728515625,4900.296875,0.0,12371.5400390625
6182.98876953125,4060.268310546875,15827.814453125,8428.0966796875,19330.978515625,7624.6259765625,11305.0146484375,16292.73046875,8459.0908203125,10643.7998046875,9832.3818359375,9360.3134765625,-3603.29931640625,0.0,13999.939453125,15156.26953125,2956.390380859375,3197.193115234375,6705.919921875,8954.20703125,5238.05615234375,13048.6484375,10456.244140625,25370.916015625,-767.7078247070312,1316.070556640625,8096.69482421875,16016.1650390625,-5470.1171875,3600.915283203125,20756.720703125,-8532.2060546875,-3950.595947265625,4483.8583984375,12513.796875,13756.751953125,8734.0673828125,11347.9296875,7782.77734375,-0.0,6133.71533203125,29587.74609375,33628.94140625,10842.482421875,22123.65625,17308.392578125,-809.8284301757812,-3151.8935546875,5764.16650390625,16694.068359375,12853.9404296875,16248.2265625,12996.1962890625,2374.64892578125,2773.602783203125,11905.8291015625,0.0,5092.62109375,10206.69921875,9996.0966796875,7794.6982421875,12912.75,13102.6904296875,19071.8984375,-12520.94921875,4277.2294921875,12614.7265625,6852.94482421875,6736.11962890625,4898.70703125,0.0,12371.5400390625
6200.47216796875,4019.7373046875,15825.4296875,8426.5068359375,19341.310546875,7627.80517578125,11309.783203125,16290.345703125,8460.6806640625,10640.62109375,9834.7666015625,9369.0556640625,-3601.7099609375,0.0,14008.681640625,15153.884765625,2958.774658203125,3200.3720703125,6710.68798828125,8955.001953125,5247.5927734375,13053.4169921875,10462.6015625,25374.888671875,-758.1710815429688,1321.6336669921875,8108.61572265625,16015.37109375,-5463.7587890625,3609.6572265625,20762.28515625,-8525.0537109375,-3940.26416015625,4479.88525390625,12520.154296875,13761.5205078125,8738.041015625,11348.724609375,7737.4775390625,-0.0,6148.81494140625,29592.513671875,33636.09375,10844.0712890625,22126.83203125,17309.189453125,-807.4442749023438,-3162.22509765625,5776.08740234375,16695.658203125,12860.2978515625,16249.021484375,12996.1962890625,2410.411865234375,2775.98681640625,11913.7763671875,0.0,5093.41552734375,10210.6728515625,9994.5068359375,7801.8505859375,12916.724609375,13105.869140625,19068.71875,-12517.76953125,4286.76611328125,12621.8798828125,6858.5078125,6745.65625,4892.34912109375,0.0,12355.6455078125
6239.4140625,4045.96337890625,15850.8623046875,8442.40234375,19338.92578125,7625.4208984375,11304.2197265625,16283.193359375,8453.5283203125,10635.8525390625,9834.7666015625,9365.08203125,-3602.504638671875,0.0,14008.681640625,15148.322265625,2955.595703125,3196.3984375,6705.919921875,8953.412109375,5243.61962890625,13052.623046875,10459.4228515625,25370.12109375,-760.5552978515625,1316.070556640625,8103.84765625,16012.19140625,-5462.96435546875,3604.09423828125,20759.10546875,-8535.384765625,-3934.701416015625,4481.474609375,12518.5654296875,13757.546875,8734.0673828125,11343.9560546875,7691.38330078125,-0.0,6148.81494140625,29593.30859375,33633.70703125,10841.6875,22122.064453125,17304.419921875,-800.2916870117188,-3189.245849609375,5776.88232421875,16693.2734375,12860.2978515625,16242.662109375,12997.7861328125,2415.974853515625,2777.576416015625,11909.802734375,0.0,5106.92578125,10209.083984375,9990.533203125,7810.5927734375,12911.16015625,13102.6904296875,19072.69140625,-12515.3857421875,4281.20263671875,12621.0849609375,6867.25,6745.65625,4895.5283203125,0.0,12358.029296875
6243.3876953125,4131.7939453125,15811.125,8435.2490234375,19336.54296875,7623.03662109375,11301.8349609375,16277.6318359375,8451.9384765625,10631.87890625,9827.6142578125,9365.8759765625,-3603.29931640625,0.0,14009.4755859375,15144.34765625,2952.416748046875,3194.014404296875,6701.1513671875,8950.2333984375,5239.6455078125,13048.6484375,10455.44921875,25365.353515625,-766.1183471679688,1312.8916015625,8097.4892578125,16010.6025390625,-5466.14306640625,3603.29931640625,20754.337890625,-8523.4638671875,-3949.006591796875,4480.68017578125,12513.796875,13752.7783203125,8731.6826171875,11340.77734375,7731.11962890625,-0.0,6151.994140625,29585.361328125,33628.94140625,10837.7138671875,22118.091796875,17299.65234375,-815.3915405273438,-3152.688232421875,5768.9345703125,16691.685546875,12863.4765625,16236.3056640625,12999.375,2429.4853515625,2774.397705078125,11905.8291015625,0.0,5110.8994140625,10208.2890625,9983.3798828125,7823.30810546875,12907.9814453125,13097.126953125,19073.486328125,-12519.359375,4277.2294921875,12624.263671875,6839.43408203125,6754.3984375,4885.19677734375,0.0,12354.056640625
6213.98291015625,4184.24609375,15787.283203125,8397.896484375,19334.158203125,7615.88427734375,11300.24609375,16275.248046875,8451.14453125,10629.4951171875,9828.408203125,9368.2607421875,-3599.325927734375,0.0,14005.501953125,15141.169921875,2952.416748046875,3193.219482421875,6698.76708984375,8947.0546875,5238.05615234375,13040.7021484375,10453.8603515625,25359.7890625,-760.5552978515625,1302.5601806640625,8098.28466796875,16005.8349609375,-5462.96435546875,3593.7626953125,20751.953125,-8505.98046875,-3953.77490234375,4467.16943359375,12512.20703125,13749.599609375,8728.50390625,11337.59765625,7806.619140625,-0.0,6143.251953125,29572.64453125,33624.96484375,10833.740234375,22115.70703125,17294.087890625,-811.4179077148438,-3114.541259765625,5763.3720703125,16687.7109375,12861.8876953125,16232.33203125,12998.5810546875,2435.84326171875,2774.397705078125,11903.4453125,0.0,5102.15771484375,10203.5205078125,9977.0234375,7830.46044921875,12907.1875,13093.9482421875,19072.69140625,-12518.5654296875,4273.255859375,12621.0849609375,6814.7978515625,6757.57763671875,4873.27587890625,0.0,12352.466796875
6205.24072265625,4192.98779296875,15815.8935546875,8382.0029296875,19334.158203125,7616.6787109375,11301.041015625,16283.193359375,8451.14453125,10636.6474609375,9833.1767578125,9368.2607421875,-3602.504638671875,0.0,14000.7333984375,15149.1162109375,2950.827392578125,3194.014404296875,6702.7412109375,8951.8232421875,5234.876953125,13040.7021484375,10455.44921875,25363.763671875,-762.1447143554688,1299.3812255859375,8103.05322265625,16007.423828125,-5462.16943359375,3587.405029296875,20751.158203125,-8505.185546875,-3957.74853515625,4463.99072265625,12512.20703125,13751.9833984375,8729.298828125,11339.982421875,7839.9970703125,-0.0,6141.66259765625,29568.671875,33627.3515625,10838.5087890625,22118.091796875,17299.65234375,-791.5496826171875,-3101.82568359375,5764.16650390625,16689.30078125,12859.50390625,16241.0732421875,12996.9912109375,2427.10107421875,2767.2451171875,11903.4453125,0.0,5111.6943359375,10199.546875,9987.3544921875,7832.8447265625,12908.7763671875,13098.716796875,19079.05078125,-12518.5654296875,4271.666015625,12617.111328125,6840.22900390625,6743.2724609375,4889.17041015625,0.0,12365.9775390625
6244.1826171875,4183.451171875,15832.58203125,8396.3076171875,19338.130859375,7623.8310546875,11308.9873046875,16290.345703125,8463.0654296875,10643.005859375,9842.712890625,9376.2080078125,-3598.531005859375,0.0,14017.4228515625,15154.6796875,2957.18505859375,3200.3720703125,6709.0986328125,8958.9755859375,5237.26123046875,13047.8544921875,10464.19140625,25371.708984375,-762.1447143554688,1306.5338134765625,8114.1787109375,16012.19140625,-5457.4013671875,3597.736328125,20756.720703125,-8502.80078125,-3965.69580078125,4475.11669921875,12520.154296875,13759.1357421875,8738.8349609375,11347.9296875,7839.9970703125,-0.0,6148.81494140625,29579.796875,33634.50390625,10844.0712890625,22128.423828125,17306.8046875,-775.6550903320312,-3100.236083984375,5768.9345703125,16694.865234375,12873.013671875,16248.2265625,13004.939453125,2421.5380859375,2775.98681640625,11914.5712890625,0.0,5122.02587890625,10217.0302734375,9994.5068359375,7838.40869140625,12915.134765625,13107.458984375,19084.611328125,-12509.0283203125,4281.99755859375,12633.005859375,6860.09716796875,6755.98779296875,4902.6806640625,0.0,12369.9501953125
6250.5400390625,4166.76171875,15830.1982421875,8397.896484375,19325.4140625,7613.5,11292.2978515625,16275.248046875,8444.7861328125,10628.7001953125,9831.587890625,9365.08203125,-3603.29931640625,0.0,13990.40234375,15140.3740234375,2945.26416015625,3186.86181640625,6694.7939453125,8943.875,5222.9560546875,13038.3173828125,10447.501953125,25358.99609375,-771.6814575195312,1297.7918701171875,8092.72119140625,16001.06640625,-5466.14306640625,3589.7890625,20744.80078125,-8514.7216796875,-3976.82177734375,4466.375,12505.0546875,13748.009765625,8722.94140625,11332.03515625,7839.203125,-0.0,6125.76806640625,29571.056640625,33617.8125,10831.3564453125,22110.14453125,17293.294921875,-789.16552734375,-3118.51513671875,5759.39794921875,16683.736328125,12848.376953125,16233.9208984375,12994.607421875,2407.23291015625,2786.318603515625,11904.2392578125,0.0,5106.130859375,10190.009765625,9980.2021484375,7820.923828125,12903.2138671875,13091.564453125,19068.71875,-12516.9755859375,4273.255859375,12609.1640625,6856.91845703125,6732.9404296875,4897.91259765625,0.0,12354.8505859375
6244.1826171875,4161.99365234375,15831.7890625,8401.87109375,19311.904296875,7603.96337890625,11277.9931640625,16263.326171875,8428.8916015625,10615.189453125,9814.8984375,9353.955078125,-3592.968017578125,0.0,13972.123046875,15126.0693359375,2933.34326171875,3174.94091796875,6682.87255859375,8928.775390625,5212.625,13028.78125,10432.40234375,25343.89453125,-785.986572265625,1288.255126953125,8073.6474609375,15990.734375,-5471.70654296875,3577.0732421875,20732.083984375,-8528.232421875,-3978.4111328125,4457.63232421875,12490.7490234375,13734.5,8705.45703125,11319.3193359375,7789.9296875,-0.0,6111.462890625,29560.724609375,33601.125,10818.640625,22093.455078125,17280.578125,-816.9810180664062,-3139.97265625,5738.7353515625,16674.19921875,12828.509765625,16219.6162109375,12990.6337890625,2405.6435546875,2772.80810546875,11890.728515625,0.0,5091.03173828125,10174.91015625,9966.69140625,7805.029296875,12889.703125,13077.2587890625,19054.412109375,-12525.7177734375,4261.3349609375,12589.294921875,6844.99755859375,6707.50927734375,4883.607421875,0.0,12340.5458984375
6228.2880859375,4144.509765625,15778.5419921875,8392.333984375,19305.546875,7599.9892578125,11269.251953125,16255.37890625,8421.73828125,10607.2421875,9804.56640625,9339.650390625,-3589.7890625,0.0,13959.408203125,15119.7119140625,2930.164306640625,3170.17236328125,6674.130859375,8922.41796875,5211.830078125,13024.806640625,10426.044921875,25339.126953125,-791.5496826171875,1281.1025390625,8063.31640625,15984.376953125,-5478.06396484375,3565.15234375,20730.49609375,-8544.1279296875,-3979.2060546875,4456.837890625,12488.365234375,13732.1162109375,8695.919921875,11312.9619140625,7679.46240234375,-0.0,6117.82080078125,29564.69921875,33595.5625,10813.0771484375,22083.91796875,17273.42578125,-839.2333984375,-3190.835205078125,5726.814453125,16668.638671875,12815.79296875,16212.462890625,12985.0703125,2386.570068359375,2752.14501953125,11878.013671875,0.0,5079.11083984375,10172.5263671875,9961.9228515625,7791.51904296875,12882.5498046875,13071.6962890625,19049.64453125,-12536.84375,4247.02978515625,12575.78515625,6833.07666015625,6712.27783203125,4870.0966796875,0.0,12336.5712890625
6222.72509765625,4126.23095703125,15807.947265625,8398.6923828125,19329.388671875,7616.6787109375,11289.1201171875,16275.248046875,8442.40234375,10628.7001953125,9825.2294921875,9346.0078125,-3598.531005859375,0.0,13990.40234375,15137.990234375,2948.443115234375,3188.451171875,6692.40966796875,8946.259765625,5231.69873046875,13043.880859375,10446.7080078125,25358.19921875,-767.7078247070312,1295.4075927734375,8080.005859375,15997.88671875,-5469.322265625,3578.662841796875,20748.7734375,-8526.642578125,-3964.106201171875,4472.732421875,12509.0283203125,13750.3935546875,8717.3779296875,11332.03515625,7774.830078125,-0.0,6142.45751953125,29586.951171875,33617.8125,10829.7666015625,22105.375,17294.087890625,-814.5968017578125,-3205.140380859375,5761.7822265625,16683.736328125,12845.9931640625,16231.537109375,12996.1962890625,2388.9541015625,2756.11865234375,11889.1396484375,0.0,5102.95263671875,10194.7783203125,9982.5859375,7805.029296875,12900.8291015625,13092.3583984375,19072.69140625,-12524.9228515625,4260.5400390625,12605.984375,6841.818359375,6733.7353515625,4888.3759765625,0.0,12359.619140625
6229.08251953125,4111.13134765625,15858.80859375,8422.5341796875,19334.158203125,7619.85791015625,11297.8623046875,16283.193359375,8452.7333984375,10637.4423828125,9840.3291015625,9353.955078125,-3599.325927734375,0.0,14002.3232421875,15146.732421875,2961.15869140625,3198.78271484375,6702.7412109375,8954.20703125,5238.05615234375,13051.033203125,10453.8603515625,25366.1484375,-753.4027099609375,1306.5338134765625,8088.748046875,16004.244140625,-5461.375,3590.583740234375,20757.517578125,-8511.54296875,-3941.85400390625,4475.11669921875,12513.796875,13756.751953125,8726.9140625,11341.572265625,7848.73974609375,-0.0,6140.0732421875,29582.181640625,33620.99609375,10836.1240234375,22115.70703125,17302.83203125,-785.1918334960938,-3135.9990234375,5771.31884765625,16687.7109375,12857.9140625,16239.484375,13005.7333984375,2408.822265625,2766.4501953125,11891.5244140625,0.0,5107.720703125,10205.109375,9988.9443359375,7808.20849609375,12909.5712890625,13100.306640625,19080.638671875,-12512.20703125,4275.64013671875,12617.111328125,6845.79248046875,6744.06689453125,4894.7333984375,0.0,12365.9775390625
6246.56689453125,4106.36279296875,15846.8876953125,8405.8447265625,19334.951171875,7623.03662109375,11301.8349609375,16280.8095703125,8458.296875,10637.4423828125,9842.712890625,9355.544921875,-3604.888916015625,0.0,14008.681640625,15145.142578125,2963.54296875,3201.166748046875,6706.71484375,8955.001953125,5242.02978515625,13053.4169921875,10455.44921875,25366.1484375,-751.0185546875,1314.4810791015625,8103.84765625,16008.21875,-5457.4013671875,3589.7890625,20759.900390625,-8503.5966796875,-3939.4697265625,4479.09033203125,12516.9755859375,13757.546875,8730.888671875,11342.3662109375,7824.103515625,-0.0,6140.0732421875,29586.15625,33624.171875,10837.7138671875,22120.4765625,17302.83203125,-782.012939453125,-3123.283447265625,5765.75634765625,16685.328125,12865.06640625,16236.3056640625,13014.4755859375,2398.490966796875,2772.013427734375,11889.1396484375,0.0,5073.54736328125,10210.6728515625,9984.9697265625,7820.923828125,12911.16015625,13104.279296875,19079.84375,-12510.6171875,4274.05029296875,12625.05859375,6810.029296875,6753.603515625,4886.7861328125,0.0,12362.7978515625
6245.77197265625,4041.19482421875,15863.5771484375,8442.40234375,19339.720703125,7629.39453125,11305.80859375,16282.400390625,8464.654296875,10640.62109375,9845.09765625,9357.9296875,-3608.06787109375,0.0,14018.2177734375,15147.5263671875,2967.5166015625,3204.345703125,6711.48291015625,8961.3603515625,5243.61962890625,13060.5693359375,10458.62890625,25373.30078125,-753.4027099609375,1319.24951171875,8107.8212890625,16010.6025390625,-5456.6064453125,3588.19970703125,20763.875,-8502.0068359375,-3941.85400390625,4503.72705078125,12519.359375,13763.1103515625,8735.65625,11344.75,7803.43994140625,-0.0,6142.45751953125,29594.103515625,33629.734375,10841.6875,22126.83203125,17306.8046875,-783.6024169921875,-3139.177978515625,5772.11376953125,16691.685546875,12872.21875,16239.484375,13019.244140625,2361.138671875,2777.576416015625,11886.755859375,0.0,5058.447265625,10218.6201171875,9989.73828125,7828.076171875,12915.134765625,13109.0478515625,19085.408203125,-12508.2333984375,4266.10302734375,12635.390625,6815.59228515625,6767.1142578125,4888.3759765625,0.0,12365.181640625
6233.056640625,4023.710693359375,15833.3779296875,8475.7802734375,19334.951171875,7616.6787109375,11296.2724609375,16272.86328125,8455.912109375,10631.87890625,9830.7919921875,9349.1865234375,-3623.167724609375,0.0,14007.091796875,15137.1953125,2957.18505859375,3194.014404296875,6701.1513671875,8953.412109375,5234.876953125,13050.23828125,10449.88671875,25360.583984375,-767.7078247070312,1300.970703125,8094.310546875,15994.70703125,-5472.50146484375,3582.636474609375,20751.158203125,-8513.927734375,-3952.18505859375,4501.3427734375,12508.2333984375,13752.7783203125,8727.7099609375,11335.2138671875,7747.0146484375,-0.0,6139.2783203125,29579.00390625,33619.40234375,10829.7666015625,22117.296875,17298.0625,-809.8284301757812,-3144.740966796875,5766.55078125,16680.55859375,12861.8876953125,16231.537109375,13012.091796875,2352.396728515625,2768.83447265625,11879.603515625,0.0,5075.13671875,10209.083984375,9983.3798828125,7811.3876953125,12904.0078125,13099.5107421875,19077.458984375,-12523.333984375,4255.771484375,12625.05859375,6823.53955078125,6763.93505859375,4874.865234375,0.0,12360.4130859375
6230.67236328125,4120.66796875,15811.125,8443.1962890625,19331.7734375,7606.34765625,11289.1201171875,16267.2998046875,8442.40234375,10620.7529296875,9811.71875,9346.0078125,-3620.783447265625,0.0,13988.8125,15132.4267578125,2952.416748046875,3189.245849609375,6693.9990234375,8941.4912109375,5233.28759765625,13044.6748046875,10444.3232421875,25352.63671875,-774.065673828125,1290.6392822265625,8085.568359375,15986.7607421875,-5478.06396484375,3578.662841796875,20748.7734375,-8530.6171875,-3960.132568359375,4491.01123046875,12506.64453125,13746.4208984375,8718.9677734375,11328.0615234375,7742.24609375,-0.0,6145.63623046875,29570.26171875,33613.84375,10821.0244140625,22108.5546875,17289.3203125,-836.0545043945312,-3146.33056640625,5757.80859375,16668.638671875,12842.814453125,16224.384765625,13008.1171875,2391.33837890625,2766.4501953125,11877.21875,0.0,5085.46826171875,10194.7783203125,9977.8173828125,7802.64501953125,12898.4453125,13089.974609375,19061.564453125,-12530.486328125,4252.5927734375,12604.3955078125,6811.61865234375,6735.32470703125,4862.9443359375,0.0,12346.1083984375
6214.77734375,4149.2783203125,15795.23046875,8382.0029296875,19315.876953125,7600.7841796875,11276.404296875,16259.3515625,8425.712890625,10610.4208984375,9814.103515625,9344.4189453125,-3612.836181640625,0.0,13967.3544921875,15124.48046875,2940.495849609375,3180.50390625,6683.66748046875,8926.3916015625,5221.36669921875,13033.548828125,10433.9912109375,25343.099609375,-778.8340454101562,1286.66552734375,8074.44287109375,15985.9658203125,-5474.0908203125,3571.51025390625,20738.443359375,-8529.822265625,-3972.053466796875,4463.99072265625,12497.107421875,13736.0888671875,8705.45703125,11318.5244140625,7815.36083984375,-0.0,6139.2783203125,29563.109375,33601.125,10814.6669921875,22093.455078125,17278.990234375,-840.8228759765625,-3156.662109375,5759.39794921875,16667.046875,12822.9453125,16214.84765625,13005.7333984375,2411.20654296875,2761.681884765625,11871.6552734375,0.0,5070.3681640625,10176.4990234375,9972.2548828125,7803.43994140625,12888.1142578125,13078.8486328125,19044.876953125,-12532.8701171875,4245.43994140625,12582.9384765625,6806.8505859375,6699.56201171875,4858.970703125,0.0,12330.21484375
6215.572265625,4141.33056640625,15811.125,8346.240234375,19314.2890625,7600.7841796875,11276.404296875,16256.9677734375,8429.6865234375,10614.3955078125,9822.845703125,9344.4189453125,-3618.3994140625,0.0,13974.5078125,15122.890625,2939.701171875,3178.914306640625,6682.87255859375,8927.9814453125,5218.18798828125,13032.75390625,10433.197265625,25341.51171875,-773.2709350585938,1285.076171875,8072.05859375,15986.7607421875,-5472.50146484375,3574.689208984375,20736.853515625,-8523.4638671875,-3975.232666015625,4456.04345703125,12494.7236328125,13734.5,8705.45703125,11316.935546875,7790.72412109375,-0.0,6126.5625,29565.4921875,33600.33203125,10813.8720703125,22095.837890625,17277.3984375,-813.8020629882812,-3160.6357421875,5763.3720703125,16669.431640625,12830.0986328125,16213.2587890625,13003.349609375,2408.822265625,2764.06591796875,11874.8349609375,0.0,5054.4736328125,10179.6787109375,9967.486328125,7809.7978515625,12887.318359375,13079.6435546875,19052.82421875,-12530.486328125,4248.619140625,12591.6796875,6813.2080078125,6713.072265625,4866.91796875,0.0,12335.77734375
6228.2880859375,4139.7412109375,15817.484375,8387.5654296875,19324.62109375,7607.93701171875,11287.5302734375,16263.326171875,8440.8125,10623.931640625,9831.587890625,9358.7236328125,-3614.42578125,0.0,13991.1962890625,15129.2490234375,2950.827392578125,3186.86181640625,6690.025390625,8939.90234375,5230.10888671875,13040.7021484375,10441.939453125,25350.251953125,-767.7078247070312,1295.4075927734375,8087.95263671875,15990.734375,-5469.322265625,3588.994384765625,20747.185546875,-8520.28515625,-3957.74853515625,4473.52734375,12502.669921875,13743.2412109375,8714.9931640625,11324.8828125,7754.96142578125,-0.0,6134.51025390625,29566.287109375,33611.45703125,10822.61328125,22107.759765625,17285.34765625,-798.7022705078125,-3137.58837890625,5767.34521484375,16678.17578125,12844.4033203125,16222.7958984375,13000.1708984375,2431.074951171875,2779.166015625,11890.728515625,0.0,5088.6474609375,10190.8046875,9969.8701171875,7812.18212890625,12896.85546875,13088.3857421875,19063.154296875,-12522.5380859375,4263.71923828125,12609.1640625,6817.18212890625,6733.7353515625,4870.8916015625,0.0,12345.314453125
6226.6982421875,4140.53564453125,15838.94140625,8424.123046875,19339.720703125,7625.4208984375,11301.8349609375,16285.578125,8451.14453125,10635.8525390625,9845.09765625,9374.6181640625,-3592.17333984375,0.0,14000.7333984375,15149.9111328125,2969.90087890625,3202.756103515625,6706.71484375,8950.2333984375,5249.18212890625,13055.8017578125,10457.8330078125,25367.736328125,-754.1974487304688,1310.5074462890625,8103.84765625,16009.8076171875,-5455.81201171875,3599.325927734375,20766.2578125,-8509.1591796875,-3925.164794921875,4487.03759765625,12518.5654296875,13759.1357421875,8729.298828125,11340.77734375,7771.65087890625,-0.0,6153.58349609375,29581.388671875,33626.5546875,10840.892578125,22119.6796875,17299.65234375,-796.3180541992188,-3120.899169921875,5774.498046875,16694.068359375,12854.7353515625,16240.2783203125,13008.1171875,2442.995849609375,2794.265625,11912.982421875,0.0,5129.97314453125,10201.13671875,9988.1484375,7818.53955078125,12911.9560546875,13101.1005859375,19069.513671875,-12510.6171875,4278.0244140625,12617.9052734375,6821.9501953125,6738.50390625,4874.865234375,0.0,12350.876953125
6216.3671875,4111.13134765625,15801.587890625,8456.70703125,19342.103515625,7625.4208984375,11303.4248046875,16287.1689453125,8452.7333984375,10635.8525390625,9840.3291015625,9366.671875,-3592.17333984375,0.0,14003.9130859375,15151.5009765625,2966.7216796875,3200.3720703125,6707.50927734375,8952.6171875,5246.7978515625,13056.595703125,10458.62890625,25366.94140625,-751.813232421875,1310.5074462890625,8102.2578125,16010.6025390625,-5456.6064453125,3592.17333984375,20763.078125,-8510.7490234375,-3933.906494140625,4485.4482421875,12520.154296875,13758.341796875,8729.298828125,11339.1875,7807.41357421875,-0.0,6158.35205078125,29585.361328125,33627.3515625,10839.302734375,22118.091796875,17298.857421875,-813.8020629882812,-3136.7939453125,5772.90869140625,16693.2734375,12859.50390625,16241.0732421875,13005.7333984375,2429.4853515625,2792.67626953125,11909.0078125,0.0,5133.94677734375,10204.3154296875,9988.9443359375,7810.5927734375,12911.9560546875,13102.6904296875,19071.1015625,-12509.0283203125,4270.87158203125,12622.673828125,6832.28173828125,6744.06689453125,4885.19677734375,0.0,12354.056640625
6210.00927734375,4096.826171875,15807.1513671875,8437.6337890625,19331.7734375,7615.08935546875,11293.09375,16268.888671875,8445.580078125,10623.1376953125,9826.0244140625,9348.392578125,-3612.836181640625,0.0,14003.9130859375,15134.8115234375,2956.390380859375,3190.835205078125,6695.58837890625,8943.0810546875,5231.69873046875,13047.8544921875,10445.912109375,25354.2265625,-770.092041015625,1303.3548583984375,8094.310546875,15998.681640625,-5471.70654296875,3579.45751953125,20751.158203125,-8517.9013671875,-3953.77490234375,4482.26953125,12507.4384765625,13749.599609375,8720.5576171875,11328.8564453125,7777.2138671875,-0.0,6144.046875,29579.796875,33617.8125,10826.587890625,22110.939453125,17286.142578125,-814.5968017578125,-3167.788330078125,5763.3720703125,16680.55859375,12857.119140625,16225.97265625,12991.4287109375,2353.986083984375,2775.98681640625,11896.29296875,0.0,5091.826171875,10201.13671875,9969.8701171875,7800.26123046875,12898.4453125,13092.3583984375,19064.744140625,-12521.744140625,4257.36083984375,12618.701171875,6829.8974609375,6750.4248046875,4881.22314453125,0.0,12347.6982421875
6234.64599609375,4121.46240234375,15842.119140625,8412.9970703125,19329.388671875,7623.03662109375,11293.8876953125,16271.2724609375,8444.7861328125,10627.1103515625,9833.1767578125,9357.9296875,-3610.451904296875,0.0,13997.5546875,15137.990234375,2965.132568359375,3196.3984375,6697.177734375,8945.46484375,5234.876953125,13054.2119140625,10450.6806640625,25360.583984375,-764.5289306640625,1312.8916015625,8091.9267578125,16005.8349609375,-5469.322265625,3592.17333984375,20756.720703125,-8503.5966796875,-3953.77490234375,4491.01123046875,12510.6171875,13755.9580078125,8722.94140625,11333.625,7779.59814453125,-0.0,6136.89404296875,29590.92578125,33617.01953125,10835.330078125,22114.912109375,17289.3203125,-783.6024169921875,-3166.993408203125,5768.14013671875,16688.505859375,12849.966796875,16229.15234375,13004.939453125,2342.065185546875,2769.629150390625,11908.2138671875,0.0,5087.0576171875,10198.751953125,9975.43359375,7816.1552734375,12904.0078125,13095.5380859375,19067.921875,-12516.9755859375,4269.28173828125,12610.7529296875,6832.28173828125,6740.88818359375,4881.22314453125,0.0,12353.2607421875
6248.951171875,4132.5888671875,15845.298828125,8403.4609375,19329.388671875,7620.65283203125,11290.7099609375,16270.4794921875,8440.017578125,10624.7265625,9833.1767578125,9362.697265625,-3604.888916015625,0.0,13991.9921875,15137.1953125,2963.54296875,3195.603515625,6695.58837890625,8943.0810546875,5238.85107421875,13051.033203125,10449.88671875,25358.19921875,-754.9921875,1310.5074462890625,8090.3369140625,15999.4755859375,-5463.7587890625,3591.37841796875,20755.1328125,-8508.3642578125,-3944.23828125,4487.03759765625,12511.4130859375,13752.7783203125,8720.5576171875,11329.650390625,7807.41357421875,-0.0,6140.0732421875,29584.56640625,33616.2265625,10832.9462890625,22110.14453125,17290.115234375,-778.039306640625,-3139.177978515625,5768.9345703125,16686.12109375,12844.4033203125,16227.5634765625,13010.501953125,2412.7958984375,2758.5029296875,11901.0615234375,0.0,5100.568359375,10194.7783203125,9975.43359375,7823.30810546875,12904.0078125,13092.3583984375,19063.94921875,-12512.20703125,4269.28173828125,12606.7802734375,6826.71875,6729.76171875,4872.48095703125,0.0,12349.2880859375
6244.9775390625,4111.13134765625,15823.8408203125,8404.2548828125,19335.74609375,7613.5,11291.50390625,16271.2724609375,8440.8125,10623.931640625,9825.2294921875,9364.287109375,-3599.325927734375,0.0,13991.1962890625,15137.990234375,2958.774658203125,3192.4248046875,6693.20458984375,8942.2861328125,5239.6455078125,13046.2646484375,10448.296875,25353.431640625,-770.88671875,1302.5601806640625,8092.72119140625,15997.0908203125,-5466.14306640625,3585.020751953125,20752.748046875,-8511.54296875,-3941.85400390625,4488.626953125,12511.4130859375,13748.8046875,8719.76171875,11327.2666015625,7805.029296875,-0.0,6152.78857421875,29574.236328125,33619.40234375,10828.9716796875,22109.349609375,17288.52734375,-801.8811645507812,-3112.1572265625,5772.11376953125,16682.1484375,12846.787109375,16229.9482421875,13000.1708984375,2434.253662109375,2779.166015625,11896.29296875,0.0,5127.5888671875,10193.984375,9973.84375,7827.28173828125,12900.8291015625,13090.76953125,19065.5390625,-12516.1806640625,4266.10302734375,12609.1640625,6815.59228515625,6734.52978515625,4872.48095703125,0.0,12350.08203125
6230.67236328125,4087.289306640625,15773.7734375,8416.970703125,19332.56640625,7608.73193359375,11288.3251953125,16268.888671875,8441.607421875,10619.1630859375,9824.435546875,9361.9033203125,-3588.19970703125,0.0,13995.1708984375,15135.60546875,2954.80078125,3190.04052734375,6690.8203125,8939.90234375,5238.05615234375,13043.0859375,10445.912109375,25351.046875,-781.2182006835938,1295.4075927734375,8088.748046875,15993.9140625,-5466.14306640625,3577.0732421875,20750.365234375,-8518.6962890625,-3945.03271484375,4483.06396484375,12509.0283203125,13744.8310546875,8717.3779296875,11325.6767578125,7760.52490234375,-0.0,6153.58349609375,29566.287109375,33616.2265625,10825.79296875,22106.966796875,17283.7578125,-813.00732421875,-3111.362548828125,5759.39794921875,16675.791015625,12849.966796875,16229.15234375,12989.0439453125,2421.5380859375,2791.0869140625,11890.728515625,0.0,5134.7412109375,10194.7783203125,9967.486328125,7823.30810546875,12896.060546875,13089.974609375,19062.361328125,-12521.744140625,4260.5400390625,12610.7529296875,6798.1083984375,6742.4775390625,4865.328125,0.0,12345.314453125
6204.4462890625,4111.13134765625,15774.568359375,8443.9912109375,19330.978515625,7608.73193359375,11290.7099609375,16268.888671875,8443.1962890625,10616.779296875,9824.435546875,9357.9296875,-3585.020751953125,0.0,13999.939453125,15134.8115234375,2953.21142578125,3190.04052734375,6691.61474609375,8938.3125,5239.6455078125,13044.6748046875,10447.501953125,25353.431640625,-765.3236083984375,1293.0234375,8087.158203125,15992.3232421875,-5465.3486328125,3577.0732421875,20752.748046875,-8525.0537109375,-3940.26416015625,4484.6533203125,12510.6171875,13746.4208984375,8719.76171875,11325.6767578125,7719.19873046875,-0.0,6154.37841796875,29567.876953125,33617.8125,10825.79296875,22109.349609375,17282.962890625,-817.7757568359375,-3128.0517578125,5765.75634765625,16671.021484375,12854.7353515625,16228.357421875,12985.0703125,2402.464599609375,2789.497314453125,11888.3447265625,0.0,5114.07861328125,10193.1884765625,9969.8701171875,7810.5927734375,12896.060546875,13090.76953125,19059.181640625,-12523.333984375,4261.3349609375,12613.9326171875,6803.67138671875,6748.8349609375,4860.56005859375,0.0,12341.33984375
6213.18798828125,4150.07275390625,15803.97265625,8446.3759765625,19334.951171875,7611.11572265625,11291.50390625,16267.2998046875,8439.2236328125,10613.6005859375,9829.203125,9357.9296875,-3599.325927734375,0.0,13993.5810546875,15132.4267578125,2957.97998046875,3192.4248046875,6690.025390625,8934.3388671875,5242.82470703125,13050.23828125,10449.88671875,25353.431640625,-754.9921875,1296.9970703125,8091.9267578125,15992.3232421875,-5470.1171875,3583.43115234375,20755.1328125,-8514.7216796875,-3937.085693359375,4506.111328125,12513.796875,13749.599609375,8719.76171875,11324.8828125,7719.99365234375,-0.0,6158.35205078125,29579.00390625,33620.99609375,10826.587890625,22108.5546875,17282.16796875,-819.3651733398438,-3146.33056640625,5780.06103515625,16672.611328125,12849.171875,16224.384765625,12986.66015625,2408.822265625,2786.318603515625,11894.703125,0.0,5091.03173828125,10188.419921875,9971.458984375,7810.5927734375,12896.85546875,13090.76953125,19053.6171875,-12524.9228515625,4264.513671875,12609.1640625,6805.26123046875,6736.9140625,4851.81787109375,0.0,12334.1875
6225.90380859375,4159.609375,15847.6826171875,8435.2490234375,19332.56640625,7606.34765625,11291.50390625,16262.53125,8440.017578125,10614.3955078125,9834.7666015625,9353.1611328125,-3623.96240234375,0.0,13997.5546875,15128.453125,2956.390380859375,3187.656494140625,6688.43603515625,8935.1337890625,5232.4931640625,13045.470703125,10449.091796875,25350.251953125,-754.9921875,1293.818115234375,8102.2578125,15987.5546875,-5471.70654296875,3585.020751953125,20749.568359375,-8517.9013671875,-3949.006591796875,4496.57421875,12509.0283203125,13745.6259765625,8719.76171875,11322.498046875,7805.029296875,-0.0,6142.45751953125,29574.236328125,33620.19921875,10824.203125,22107.759765625,17279.783203125,-799.4969482421875,-3156.662109375,5782.4453125,16669.431640625,12850.76171875,16218.8203125,12992.22265625,2408.822265625,2780.75537109375,11892.318359375,0.0,5087.0576171875,10197.1630859375,9966.69140625,7805.82421875,12893.6767578125,13089.974609375,19055.208984375,-12523.333984375,4262.12939453125,12613.9326171875,6803.67138671875,6736.9140625,4855.79150390625,0.0,12334.982421875
6211.5986328125,4115.8994140625,15831.7890625,8420.9443359375,19325.4140625,7599.9892578125,11281.966796875,16256.9677734375,8435.2490234375,10608.037109375,9829.998046875,9345.2138671875,-3630.3203125,0.0,13992.7861328125,15122.095703125,2950.032470703125,3181.298583984375,6683.66748046875,8929.5703125,5222.16162109375,13038.3173828125,10440.349609375,25343.099609375,-761.3499755859375,1288.255126953125,8092.72119140625,15985.169921875,-5475.6796875,3581.047119140625,20740.828125,-8513.1328125,-3963.311767578125,4475.11669921875,12502.669921875,13736.8837890625,8713.404296875,11318.5244140625,7843.97119140625,-0.0,6130.53662109375,29565.4921875,33612.25,10819.435546875,22102.197265625,17275.810546875,-791.5496826171875,-3154.27783203125,5774.498046875,16663.869140625,12845.9931640625,16215.642578125,12993.0185546875,2406.438232421875,2772.80810546875,11884.3720703125,0.0,5065.60009765625,10193.984375,9956.359375,7790.72412109375,12886.5244140625,13083.6171875,19051.232421875,-12527.306640625,4252.5927734375,12607.57421875,6806.0556640625,6728.96728515625,4854.9970703125,0.0,12328.625
6194.11474609375,4079.341796875,15824.63671875,8414.5859375,19327.005859375,7605.552734375,11284.3515625,16258.55859375,8437.6337890625,10610.4208984375,9831.587890625,9348.392578125,-3618.3994140625,0.0,13990.40234375,15124.48046875,2954.006103515625,3185.272216796875,6686.84619140625,8931.9541015625,5228.51953125,13040.7021484375,10443.5283203125,25346.279296875,-758.1710815429688,1290.6392822265625,8092.72119140625,15989.1455078125,-5469.322265625,3579.45751953125,20746.388671875,-8513.1328125,-3949.801025390625,4473.52734375,12506.64453125,13741.65234375,8715.7890625,11320.908203125,7810.5927734375,-0.0,6140.86767578125,29571.056640625,33616.2265625,10823.4091796875,22104.58203125,17278.990234375,-789.16552734375,-3155.867431640625,5773.703125,16667.84375,12846.787109375,16216.4365234375,12992.22265625,2410.411865234375,2776.78173828125,11887.55078125,0.0,5060.037109375,10193.984375,9959.5380859375,7797.08251953125,12892.0869140625,13086.0009765625,19052.029296875,-12524.1279296875,4254.18212890625,12607.57421875,6822.74462890625,6727.37744140625,4861.35498046875,0.0,12332.5986328125
6178.22021484375,4088.083740234375,15865.16796875,8402.6650390625,19331.7734375,7615.88427734375,11293.09375,16264.1201171875,8442.40234375,10617.57421875,9837.150390625,9351.5712890625,-3604.888916015625,0.0,13993.5810546875,15130.04296875,2963.54296875,3193.219482421875,6693.20458984375,8938.3125,5238.05615234375,13049.443359375,10451.4765625,25355.021484375,-756.5816040039062,1300.176025390625,8099.87353515625,15990.734375,-5465.3486328125,3577.8681640625,20756.720703125,-8509.953125,-3931.5224609375,4479.88525390625,12512.20703125,13751.189453125,8722.146484375,11329.650390625,7799.466796875,-0.0,6146.43115234375,29584.56640625,33621.7890625,10830.5615234375,22108.5546875,17284.55078125,-774.8603515625,-3184.4775390625,5772.90869140625,16674.99609375,12849.966796875,16219.6162109375,12999.375,2412.00146484375,2780.75537109375,11891.5244140625,0.0,5087.0576171875,10198.751953125,9965.896484375,7803.43994140625,12900.03515625,13092.3583984375,19056.001953125,-12516.9755859375,4260.5400390625,12609.958984375,6840.22900390625,6727.37744140625,4874.07080078125,0.0,12338.1611328125
6190.14111328125,4105.56787109375,15861.1923828125,8405.0498046875,19334.158203125,7622.2421875,11296.2724609375,16268.888671875,8447.96484375,10623.931640625,9836.3564453125,9349.1865234375,-3595.35205078125,0.0,14001.5283203125,15135.60546875,2962.748291015625,3194.80908203125,6698.76708984375,8945.46484375,5236.466796875,13054.2119140625,10453.8603515625,25361.37890625,-751.0185546875,1308.123291015625,8103.05322265625,15999.4755859375,-5462.96435546875,3574.689208984375,20757.517578125,-8505.185546875,-3941.05908203125,4487.83251953125,12513.796875,13755.162109375,8725.3251953125,11335.2138671875,7821.71923828125,-0.0,6147.22607421875,29595.693359375,33625.76171875,10836.1240234375,22116.501953125,17291.705078125,-766.1183471679688,-3205.140380859375,5772.90869140625,16682.943359375,12855.529296875,16225.97265625,13006.5283203125,2412.7958984375,2771.218505859375,11887.55078125,0.0,5100.568359375,10205.109375,9973.84375,7802.64501953125,12901.6240234375,13098.716796875,19064.744140625,-12514.5908203125,4255.771484375,12618.701171875,6852.14990234375,6744.86181640625,4878.8388671875,0.0,12348.4921875
6223.52001953125,4091.2626953125,15823.0458984375,8423.328125,19333.36328125,7616.6787109375,11295.4775390625,16269.68359375,8451.9384765625,10625.521484375,9829.203125,9349.982421875,-3582.636474609375,0.0,14011.0654296875,15136.4013671875,2952.416748046875,3190.04052734375,6697.177734375,8947.0546875,5233.28759765625,13047.8544921875,10450.6806640625,25357.404296875,-765.3236083984375,1305.739013671875,8099.87353515625,16002.6552734375,-5464.5537109375,3573.099853515625,20751.953125,-8512.337890625,-3952.18505859375,4486.24267578125,12509.8232421875,13748.8046875,8724.5302734375,11333.625,7783.57177734375,-0.0,6146.43115234375,29582.181640625,33623.37890625,10834.5341796875,22120.4765625,17293.294921875,-788.3707885742188,-3149.509521484375,5767.34521484375,16683.736328125,12864.2724609375,16228.357421875,12995.40234375,2388.159423828125,2765.655517578125,11878.8076171875,0.0,5086.26318359375,10212.26171875,9978.6123046875,7797.08251953125,12899.2392578125,13099.5107421875,19063.94921875,-12517.76953125,4251.79833984375,12627.4423828125,6847.3818359375,6764.72998046875,4878.8388671875,0.0,12344.51953125
6224.314453125,4088.878662109375,15814.3046875,8412.9970703125,19329.388671875,7615.08935546875,11296.2724609375,16272.86328125,8448.759765625,10627.1103515625,9827.6142578125,9352.3662109375,-3581.841796875,0.0,14008.681640625,15137.990234375,2948.443115234375,3184.4775390625,6695.58837890625,8947.0546875,5226.93017578125,13043.0859375,10449.091796875,25353.431640625,-772.4761962890625,1304.9443359375,8101.46337890625,16001.06640625,-5468.52734375,3580.25244140625,20747.185546875,-8518.6962890625,-3959.337646484375,4483.8583984375,12507.4384765625,13744.8310546875,8721.3515625,11332.03515625,7765.29296875,-0.0,6152.78857421875,29571.8515625,33622.58203125,10832.9462890625,22118.88671875,17292.5,-806.6495361328125,-3129.641357421875,5757.80859375,16680.55859375,12862.6826171875,16228.357421875,12983.4814453125,2358.75439453125,2778.37109375,11878.013671875,0.0,5071.1630859375,10206.69921875,9977.8173828125,7793.1083984375,12896.85546875,13097.921875,19059.181640625,-12525.7177734375,4252.5927734375,12624.263671875,6837.0498046875,6755.98779296875,4878.8388671875,0.0,12345.314453125
6221.93017578125,4099.21044921875,15835.76171875,8427.302734375,19330.978515625,7617.4736328125,11296.2724609375,16281.6044921875,8449.5546875,10631.083984375,9834.7666015625,9346.802734375,-3594.5576171875,0.0,13999.14453125,15146.732421875,2956.390380859375,3189.245849609375,6700.35693359375,8948.6435546875,5230.10888671875,13047.8544921875,10450.6806640625,25358.19921875,-753.4027099609375,1309.7127685546875,8100.6689453125,16002.6552734375,-5469.322265625,3588.994384765625,20751.158203125,-8522.669921875,-3951.390625,4496.57421875,12510.6171875,13751.9833984375,8725.3251953125,11336.0087890625,7732.70947265625,-0.0,6148.81494140625,29579.796875,33622.58203125,10836.1240234375,22119.6796875,17297.267578125,-808.239013671875,-3150.30419921875,5778.4716796875,16674.19921875,12853.9404296875,16237.89453125,12993.8125,2344.44921875,2783.139404296875,11880.3974609375,0.0,5076.7265625,10205.9052734375,9989.73828125,7798.671875,12900.8291015625,13102.6904296875,19061.564453125,-12520.94921875,4255.771484375,12616.31640625,6836.25537109375,6732.9404296875,4876.45458984375,0.0,12350.876953125
6227.4931640625,4062.652587890625,15835.76171875,8430.48046875,19326.2109375,7615.88427734375,11293.8876953125,16276.8359375,8449.5546875,10630.2900390625,9834.7666015625,9339.650390625,-3608.06787109375,0.0,14000.7333984375,15143.5537109375,2954.006103515625,3188.451171875,6697.97265625,8949.439453125,5229.314453125,13045.470703125,10448.296875,25356.611328125,-754.9921875,1307.32861328125,8095.900390625,15997.88671875,-5470.91162109375,3592.17333984375,20749.568359375,-8522.669921875,-3945.827392578125,4483.06396484375,12505.0546875,13750.3935546875,8722.146484375,11334.4189453125,7703.30419921875,-0.0,6136.09912109375,29579.796875,33617.8125,10832.150390625,22117.296875,17295.6796875,-802.6759033203125,-3138.383056640625,5765.75634765625,16671.021484375,12857.119140625,16235.509765625,13000.1708984375,2342.85986328125,2782.3447265625,11871.6552734375,0.0,5102.15771484375,10209.8779296875,9991.328125,7808.20849609375,12896.060546875,13101.8955078125,19062.361328125,-12516.9755859375,4254.18212890625,12617.111328125,6840.22900390625,6752.01416015625,4885.19677734375,0.0,12348.4921875
6233.85107421875,4041.19482421875,15823.8408203125,8413.7919921875,19325.4140625,7611.11572265625,11293.09375,16270.4794921875,8447.96484375,10627.1103515625,9829.998046875,9343.6240234375,-3612.836181640625,0.0,14003.9130859375,15135.60546875,2951.6220703125,3185.272216796875,6696.3828125,8947.0546875,5226.13525390625,13043.0859375,10446.7080078125,25352.63671875,-756.5816040039062,1298.5865478515625,8098.28466796875,15994.70703125,-5470.1171875,3583.43115234375,20747.98046875,-8519.490234375,-3955.3642578125,4479.09033203125,12502.669921875,13746.4208984375,8722.94140625,11330.4453125,7814.56640625,-0.0,6137.68896484375,29571.056640625,33617.01953125,10827.3818359375,22117.296875,17289.3203125,-789.16552734375,-3153.483154296875,5762.5771484375,16670.2265625,12858.7080078125,16227.5634765625,13005.7333984375,2391.33837890625,2779.166015625,11870.06640625,0.0,5106.92578125,10208.2890625,9982.5859375,7815.36083984375,12892.8828125,13099.5107421875,19056.796875,-12515.3857421875,4249.4140625,12618.701171875,6839.43408203125,6748.04052734375,4893.14404296875,0.0,12347.6982421875
6235.44091796875,4098.41552734375,15825.4296875,8382.0029296875,19324.62109375,7596.81103515625,11289.1201171875,16260.9423828125,8440.8125,10620.7529296875,9827.6142578125,9347.59765625,-3610.451904296875,0.0,13995.96484375,15126.8642578125,2946.05908203125,3181.298583984375,6692.40966796875,8938.3125,5222.16162109375,13031.1650390625,10442.7333984375,25345.484375,-755.786865234375,1286.66552734375,8097.4892578125,15978.017578125,-5469.322265625,3580.25244140625,20739.236328125,-8521.080078125,-3960.927490234375,4474.32177734375,12498.6962890625,13736.0888671875,8717.3779296875,11323.29296875,7828.87158203125,-0.0,6136.89404296875,29551.1875,33613.84375,10818.640625,22110.14453125,17282.962890625,-786.7813110351562,-3148.71484375,5765.75634765625,16656.716796875,12848.376953125,16219.6162109375,13006.5283203125,2429.4853515625,2775.1923828125,11867.6826171875,0.0,5118.05224609375,10198.751953125,9972.2548828125,7816.1552734375,12888.908203125,13091.564453125,19050.439453125,-12518.5654296875,4248.619140625,12611.548828125,6837.8447265625,6730.556640625,4889.17041015625,0.0,12342.1357421875
6228.2880859375,4131.7939453125,15819.8681640625,8363.7236328125,19320.646484375,7594.4267578125,11285.94140625,16257.7626953125,8436.0439453125,10615.189453125,9833.1767578125,9350.7763671875,-3612.836181640625,0.0,13993.5810546875,15123.6845703125,2941.29052734375,3178.11962890625,6689.23046875,8934.3388671875,5217.3935546875,13024.806640625,10437.9658203125,25343.099609375,-758.1710815429688,1282.69189453125,8096.69482421875,15975.6337890625,-5474.0908203125,3577.0732421875,20734.46875,-8522.669921875,-3965.69580078125,4470.34814453125,12496.3125,13732.91015625,8714.19921875,11321.7041015625,7811.3876953125,-0.0,6133.71533203125,29544.830078125,33610.66015625,10815.4609375,22105.375,17279.783203125,-789.16552734375,-3120.899169921875,5765.75634765625,16654.333984375,12845.9931640625,16215.642578125,13001.759765625,2438.227294921875,2771.218505859375,11872.451171875,0.0,5108.51513671875,10193.984375,9969.0751953125,7809.7978515625,12885.7294921875,13085.2060546875,19051.232421875,-12519.359375,4248.619140625,12607.57421875,6832.28173828125,6723.40380859375,4884.40185546875,0.0,12336.5712890625
6224.314453125,4135.767578125,15813.5087890625,8379.6181640625,19326.2109375,7596.81103515625,11286.7353515625,16259.3515625,8436.8388671875,10615.9853515625,9833.9716796875,9353.955078125,-3607.273193359375,0.0,13996.7607421875,15123.6845703125,2942.8798828125,3178.11962890625,6689.23046875,8935.9287109375,5222.9560546875,13028.78125,10441.939453125,25344.689453125,-754.1974487304688,1281.1025390625,8095.900390625,15981.197265625,-5467.73291015625,3577.0732421875,20737.6484375,-8524.2587890625,-3957.74853515625,4470.34814453125,12500.2861328125,13735.2939453125,8714.19921875,11321.7041015625,7793.9033203125,-0.0,6140.0732421875,29550.39453125,33611.45703125,10818.640625,22107.759765625,17279.783203125,-791.5496826171875,-3124.872802734375,5773.703125,16657.51171875,12849.966796875,16215.642578125,12999.375,2439.816650390625,2775.1923828125,11880.3974609375,0.0,5102.15771484375,10195.5732421875,9966.69140625,7805.82421875,12885.7294921875,13088.3857421875,19055.208984375,-12513.796875,4250.20849609375,12613.1376953125,6825.923828125,6733.7353515625,4882.017578125,0.0,12335.77734375
6205.24072265625,4114.3095703125,15801.587890625,8407.43359375,19330.18359375,7601.5791015625,11283.556640625,16256.173828125,8431.275390625,10608.037109375,9819.6669921875,9346.802734375,-3596.941650390625,0.0,13987.2236328125,15121.30078125,2946.05908203125,3180.50390625,6686.0517578125,8929.5703125,5226.13525390625,13035.93359375,10441.939453125,25344.689453125,-762.939453125,1287.4603271484375,8094.310546875,15981.9931640625,-5464.5537109375,3572.304931640625,20740.828125,-8523.4638671875,-3949.801025390625,4481.474609375,12502.669921875,13739.2685546875,8711.0205078125,11318.5244140625,7701.71484375,-0.0,6148.81494140625,29562.314453125,33613.84375,10818.640625,22103.787109375,17274.220703125,-802.6759033203125,-3169.377685546875,5766.55078125,16663.07421875,12842.01953125,16213.2587890625,12989.8388671875,2419.15380859375,2760.88720703125,11886.755859375,0.0,5099.7734375,10186.8310546875,9961.1279296875,7798.671875,12884.9345703125,13084.412109375,19045.671875,-12518.5654296875,4251.79833984375,12603.6005859375,6820.36083984375,6721.814453125,4873.27587890625,0.0,12327.830078125
6178.22021484375,4075.368408203125,15784.8984375,8389.1552734375,19327.005859375,7598.39990234375,11278.7880859375,16251.4052734375,8425.712890625,10601.6796875,9810.9248046875,9326.9345703125,-3592.968017578125,0.0,13982.455078125,15117.328125,2946.05908203125,3178.914306640625,6681.28369140625,8925.59765625,5230.10888671875,13032.75390625,10437.9658203125,25339.921875,-772.4761962890625,1283.4866943359375,8091.9267578125,15975.6337890625,-5467.73291015625,3562.768310546875,20740.03125,-8540.1533203125,-3937.880126953125,4479.88525390625,12501.8759765625,13735.2939453125,8706.251953125,11312.9619140625,7609.5263671875,-0.0,6152.78857421875,29563.904296875,33610.66015625,10813.0771484375,22097.4296875,17267.86328125,-823.3388061523438,-3225.0087890625,5764.16650390625,16657.51171875,12837.2509765625,16207.6953125,12972.3544921875,2395.31201171875,2749.760986328125,11877.21875,0.0,5092.62109375,10182.0634765625,9954.7705078125,7772.44580078125,12880.9609375,13079.6435546875,19042.4921875,-12528.1015625,4240.671875,12598.0380859375,6819.56640625,6721.814453125,4866.91796875,0.0,12323.0615234375
6189.34619140625,4079.341796875,15842.119140625,8400.28125,19335.74609375,7601.5791015625,11285.1455078125,16259.3515625,8436.8388671875,10610.4208984375,9822.845703125,9331.703125,-3585.020751953125,0.0,14004.70703125,15126.0693359375,2954.006103515625,3182.887939453125,6686.84619140625,8936.72265625,5234.876953125,13038.3173828125,10444.3232421875,25345.484375,-770.092041015625,1285.076171875,8086.36376953125,15981.9931640625,-5462.16943359375,3565.15234375,20746.388671875,-8529.822265625,-3929.93310546875,4487.03759765625,12505.8486328125,13739.2685546875,8714.19921875,11319.3193359375,7747.0146484375,-0.0,6152.78857421875,29563.109375,33615.4296875,10820.2294921875,22107.759765625,17275.810546875,-814.5968017578125,-3190.04052734375,5763.3720703125,16659.89453125,12859.50390625,16214.0517578125,12972.3544921875,2396.9013671875,2767.2451171875,11878.013671875,0.0,5094.2099609375,10197.1630859375,9965.896484375,7781.1875,12884.9345703125,13087.58984375,19055.208984375,-12523.333984375,4240.671875,12620.2900390625,6830.6923828125,6755.193359375,4878.8388671875,0.0,12334.982421875
6208.419921875,4088.878662109375,15845.298828125,8406.638671875,19329.388671875,7601.5791015625,11289.9140625,16260.9423828125,8442.40234375,10615.9853515625,9829.203125,9337.265625,-3584.225830078125,0.0,14020.6025390625,15129.2490234375,2950.827392578125,3182.09326171875,6690.025390625,8940.6962890625,5224.5458984375,13031.9599609375,10443.5283203125,25345.484375,-765.3236083984375,1284.2813720703125,8097.4892578125,15984.376953125,-5457.4013671875,3565.947265625,20740.828125,-8511.54296875,-3956.95361328125,4482.26953125,12501.8759765625,13735.2939453125,8718.1728515625,11320.908203125,7850.32958984375,-0.0,6148.0205078125,29552.77734375,33615.4296875,10821.0244140625,22113.322265625,17278.1953125,-815.3915405273438,-3149.509521484375,5772.90869140625,16660.689453125,12876.193359375,16218.02734375,12989.0439453125,2388.9541015625,2785.523681640625,11879.603515625,0.0,5095.0048828125,10206.69921875,9969.0751953125,7798.671875,12884.1396484375,13090.76953125,19062.361328125,-12514.5908203125,4247.02978515625,12638.5693359375,6839.43408203125,6776.65087890625,4882.017578125,0.0,12339.7509765625
6195.7041015625,4078.547119140625,15803.1787109375,8448.759765625,19336.54296875,7612.705078125,11294.6826171875,16266.50390625,8445.580078125,10619.9580078125,9829.998046875,9342.830078125,-3592.17333984375,0.0,14017.4228515625,15131.6328125,2954.80078125,3190.04052734375,6693.9990234375,8943.875,5232.4931640625,13044.6748046875,10448.296875,25351.046875,-754.9921875,1297.7918701171875,8107.02587890625,15993.9140625,-5460.58056640625,3574.689208984375,20746.388671875,-8514.7216796875,-3952.18505859375,4497.369140625,12508.2333984375,13746.4208984375,8722.146484375,11327.2666015625,7802.64501953125,-0.0,6161.53076171875,29571.056640625,33620.99609375,10828.177734375,22116.501953125,17282.962890625,-829.6966552734375,-3155.072509765625,5788.80322265625,16671.021484375,12871.4248046875,16224.384765625,12999.375,2370.67529296875,2787.11328125,11889.1396484375,0.0,5079.9052734375,10209.083984375,9970.6650390625,7797.08251953125,12890.498046875,13095.5380859375,19063.94921875,-12516.9755859375,4253.3876953125,12633.005859375,6843.408203125,6769.49853515625,4882.8125,0.0,12345.314453125
6192.525390625,4071.39453125,15827.0205078125,8459.8857421875,19341.310546875,7620.65283203125,11294.6826171875,16271.2724609375,8444.7861328125,10620.7529296875,9834.7666015625,9352.3662109375,-3604.09423828125,0.0,14008.681640625,15136.4013671875,2968.311279296875,3194.80908203125,6699.56201171875,8944.6708984375,5239.6455078125,13056.595703125,10452.2705078125,25357.404296875,-750.2238159179688,1308.91796875,8104.64208984375,16002.6552734375,-5462.96435546875,3588.994384765625,20756.720703125,-8510.7490234375,-3945.827392578125,4517.2373046875,12512.20703125,13755.162109375,8724.5302734375,11332.03515625,7816.1552734375,-0.0,6163.1201171875,29583.7734375,33624.171875,10834.5341796875,22118.091796875,17286.935546875,-801.8811645507812,-3137.58837890625,5792.7763671875,16678.96875,12861.8876953125,16229.15234375,13004.1435546875,2353.19140625,2783.139404296875,11899.4716796875,0.0,5079.11083984375,10204.3154296875,9975.43359375,7802.64501953125,12894.470703125,13097.921875,19059.181640625,-12515.3857421875,4261.3349609375,12621.8798828125,6842.61328125,6749.6298828125,4882.8125,0.0,12348.4921875
6219.5458984375,4090.468017578125,15864.3720703125,8432.0703125,19346.873046875,7634.9580078125,11298.65625,16280.015625,8443.9912109375,10627.90625,9849.8662109375,9370.64453125,-3603.29931640625,0.0,13998.349609375,15148.322265625,2981.02685546875,3206.72998046875,6707.50927734375,8947.0546875,5249.97705078125,13067.72265625,10460.2177734375,25369.326171875,-737.5081176757812,1319.24951171875,8110.20556640625,16012.9873046875,-5451.04345703125,3604.888916015625,20768.642578125,-8499.6220703125,-3931.5224609375,4522.80029296875,12519.359375,13766.2890625,8729.298828125,11339.982421875,7839.203125,-0.0,6159.94140625,29594.8984375,33626.5546875,10844.0712890625,22118.88671875,17294.8828125,-759.7605590820312,-3108.18359375,5796.75048828125,16692.48046875,12853.9404296875,16238.689453125,13020.0390625,2381.0068359375,2794.265625,11913.7763671875,0.0,5108.51513671875,10198.751953125,9983.3798828125,7818.53955078125,12902.4189453125,13102.6904296875,19059.9765625,-12498.6962890625,4273.255859375,12611.548828125,6844.99755859375,6721.01953125,4889.17041015625,0.0,12346.9033203125
6269.61376953125,4134.97314453125,15853.2470703125,8412.9970703125,19349.255859375,7638.93115234375,11304.2197265625,16289.552734375,8449.5546875,10633.46875,9856.2236328125,9381.771484375,-3590.583740234375,0.0,14005.501953125,15154.6796875,2981.82177734375,3210.70361328125,6711.48291015625,8955.001953125,5254.74560546875,13066.927734375,10463.3974609375,25374.888671875,-734.3292236328125,1321.6336669921875,8113.38427734375,16020.93359375,-5447.06982421875,3615.22021484375,20771.822265625,-8483.7275390625,-3921.190673828125,4503.72705078125,12524.1279296875,13769.4677734375,8733.2724609375,11347.134765625,7820.12939453125,-0.0,6161.53076171875,29590.12890625,33630.53125,10851.2236328125,22124.44921875,17298.857421875,-749.4290771484375,-3077.98388671875,5801.51904296875,16701.220703125,12859.50390625,16245.046875,13027.19140625,2439.02197265625,2801.418212890625,11923.3134765625,0.0,5133.94677734375,10204.3154296875,9990.533203125,7840.79248046875,12907.9814453125,13110.6376953125,19064.744140625,-12492.3388671875,4283.5869140625,12620.2900390625,6851.35498046875,6728.17236328125,4897.11767578125,0.0,12351.671875
6264.05078125,4135.767578125,15845.298828125,8420.9443359375,19344.48828125,7634.9580078125,11299.451171875,16284.7841796875,8447.96484375,10629.4951171875,9849.0712890625,9370.64453125,-3585.8154296875,0.0,14007.091796875,15149.9111328125,2977.053466796875,3205.140380859375,6706.71484375,8955.7958984375,5250.77197265625,13062.1591796875,10457.8330078125,25368.53125,-746.2501220703125,1321.6336669921875,8107.8212890625,16017.755859375,-5455.01708984375,3605.68359375,20766.2578125,-8484.5224609375,-3927.548828125,4502.93212890625,12520.94921875,13767.87890625,8727.7099609375,11341.572265625,7779.59814453125,-0.0,6160.736328125,29586.951171875,33624.96484375,10848.044921875,22122.859375,17294.087890625,-760.5552978515625,-3091.494384765625,5792.7763671875,16700.42578125,12859.50390625,16241.0732421875,13011.2958984375,2444.585205078125,2793.47119140625,11916.16015625,0.0,5120.43603515625,10205.109375,9985.7646484375,7843.1767578125,12902.4189453125,13106.6640625,19067.921875,-12501.080078125,4271.666015625,12621.8798828125,6841.02392578125,6744.86181640625,4889.96484375,0.0,12354.056640625
6222.72509765625,4109.54150390625,15844.5029296875,8451.9384765625,19336.54296875,7623.8310546875,11289.9140625,16271.2724609375,8436.0439453125,10615.189453125,9837.150390625,9353.955078125,-3591.37841796875,0.0,13997.5546875,15135.60546875,2967.5166015625,3197.193115234375,6693.9990234375,8942.2861328125,5244.4140625,13058.185546875,10448.296875,25359.7890625,-755.786865234375,1315.2757568359375,8095.900390625,16003.4501953125,-5468.52734375,3592.17333984375,20759.900390625,-8502.0068359375,-3928.34326171875,4516.44287109375,12513.796875,13758.341796875,8715.7890625,11329.650390625,7729.5302734375,-0.0,6160.736328125,29587.74609375,33615.4296875,10836.9189453125,22110.939453125,17281.373046875,-783.6024169921875,-3109.77294921875,5780.06103515625,16686.916015625,12851.5556640625,16227.5634765625,12993.0185546875,2398.490966796875,2783.139404296875,11903.4453125,0.0,5086.26318359375,10193.1884765625,9969.8701171875,7820.923828125,12892.0869140625,13093.154296875,19057.591796875,-12513.796875,4258.95068359375,12614.7265625,6817.9765625,6739.29833984375,4871.6865234375,0.0,12340.5458984375
6214.77734375,4078.547119140625,15832.58203125,8440.8125,19334.951171875,7617.4736328125,11285.94140625,16264.1201171875,8432.865234375,10612.0107421875,9836.3564453125,9350.7763671875,-3596.146728515625,0.0,13995.96484375,15126.8642578125,2962.748291015625,3193.219482421875,6690.025390625,8935.9287109375,5239.6455078125,13050.23828125,10446.7080078125,25354.2265625,-751.0185546875,1304.149658203125,8092.72119140625,15993.1181640625,-5466.14306640625,3586.610107421875,20755.1328125,-8506.775390625,-3937.880126953125,4499.75341796875,12509.8232421875,13752.7783203125,8714.19921875,11324.8828125,7781.982421875,-0.0,6155.9677734375,29579.00390625,33613.84375,10828.9716796875,22107.759765625,17276.60546875,-783.6024169921875,-3132.820068359375,5783.23974609375,16676.583984375,12849.966796875,16219.6162109375,12992.22265625,2389.748779296875,2782.3447265625,11895.4970703125,0.0,5071.1630859375,10187.6259765625,9960.333984375,7815.36083984375,12887.318359375,13090.76953125,19055.208984375,-12513.796875,4258.15576171875,12612.3427734375,6817.18212890625,6733.7353515625,4871.6865234375,0.0,12338.9560546875
6221.1357421875,4111.13134765625,15808.740234375,8436.8388671875,19335.74609375,7620.65283203125,11283.556640625,16265.7109375,8430.48046875,10614.3955078125,9833.9716796875,9349.1865234375,-3601.7099609375,0.0,13993.5810546875,15129.2490234375,2962.748291015625,3194.014404296875,6691.61474609375,8936.72265625,5237.26123046875,13052.623046875,10445.912109375,25355.81640625,-751.0185546875,1305.739013671875,8095.900390625,15995.5029296875,-5464.5537109375,3581.841796875,20755.1328125,-8504.390625,-3947.416748046875,4501.3427734375,12509.8232421875,13753.5732421875,8713.404296875,11324.087890625,7839.9970703125,-0.0,6151.994140625,29582.9765625,33614.63671875,10830.5615234375,22105.375,17278.1953125,-785.986572265625,-3156.662109375,5785.6240234375,16682.1484375,12847.5830078125,16222.0,13000.1708984375,2396.9013671875,2782.3447265625,11894.703125,0.0,5083.87890625,10188.419921875,9964.306640625,7822.513671875,12888.1142578125,13089.974609375,19056.001953125,-12511.4130859375,4258.95068359375,12609.958984375,6830.6923828125,6726.5830078125,4882.017578125,0.0,12342.1357421875
6214.77734375,4144.509765625,15815.8935546875,8409.0234375,19335.74609375,7622.2421875,11284.3515625,16264.1201171875,8431.275390625,10614.3955078125,9837.150390625,9344.4189453125,-3599.325927734375,0.0,13995.96484375,15129.2490234375,2961.15869140625,3192.4248046875,6692.40966796875,8939.90234375,5237.26123046875,13052.623046875,10443.5283203125,25354.2265625,-751.0185546875,1308.91796875,8098.28466796875,15997.0908203125,-5465.3486328125,3581.047119140625,20753.541015625,-8512.337890625,-3949.006591796875,4500.5478515625,12509.8232421875,13753.5732421875,8712.609375,11323.29296875,7876.5556640625,-0.0,6153.58349609375,29582.9765625,33611.45703125,10831.3564453125,22103.787109375,17275.810546875,-787.5760498046875,-3194.014404296875,5780.85546875,16680.55859375,12850.76171875,16222.7958984375,13008.912109375,2421.5380859375,2778.37109375,11889.9345703125,0.0,5109.31005859375,10197.1630859375,9965.1025390625,7819.3349609375,12887.318359375,13089.974609375,19057.591796875,-12507.4384765625,4253.3876953125,12611.548828125,6829.8974609375,6736.9140625,4882.8125,0.0,12342.9296875
6199.677734375,4139.7412109375,15810.3310546875,8378.8232421875,19323.826171875,7613.5,11274.814453125,16256.173828125,8424.91796875,10605.65234375,9826.8193359375,9333.29296875,-3595.35205078125,0.0,13992.7861328125,15122.890625,2953.21142578125,3185.272216796875,6684.4619140625,8934.3388671875,5230.90380859375,13040.7021484375,10437.1708984375,25345.484375,-756.5816040039062,1296.9970703125,8087.158203125,15989.1455078125,-5467.73291015625,3574.689208984375,20744.80078125,-8515.517578125,-3952.18505859375,4480.68017578125,12501.8759765625,13744.8310546875,8705.45703125,11317.7294921875,7850.32958984375,-0.0,6148.81494140625,29572.64453125,33601.921875,10822.61328125,22095.837890625,17268.658203125,-796.3180541992188,-3221.82958984375,5764.16650390625,16669.431640625,12845.9931640625,16214.0517578125,13001.759765625,2438.227294921875,2752.14501953125,11879.603515625,0.0,5111.6943359375,10190.8046875,9955.5654296875,7801.8505859375,12879.3720703125,13082.02734375,19051.232421875,-12513.796875,4244.6455078125,12607.57421875,6825.12890625,6737.708984375,4875.66015625,0.0,12332.5986328125
6219.5458984375,4126.23095703125,15788.078125,8396.3076171875,19323.826171875,7613.5,11274.0205078125,16256.9677734375,8424.91796875,10604.8583984375,9821.255859375,9343.6240234375,-3588.994384765625,0.0,13991.9921875,15122.890625,2953.21142578125,3183.6826171875,6684.4619140625,8934.3388671875,5230.10888671875,13039.90625,10436.3759765625,25347.8671875,-764.5289306640625,1294.6129150390625,8087.158203125,15990.734375,-5464.5537109375,3571.51025390625,20742.416015625,-8513.927734375,-3956.95361328125,4480.68017578125,12501.080078125,13741.65234375,8704.662109375,11316.935546875,7814.56640625,-0.0,6153.58349609375,29567.083984375,33603.5078125,10821.8193359375,22095.837890625,17271.041015625,-801.08642578125,-3174.94091796875,5763.3720703125,16671.021484375,12845.1982421875,16214.84765625,12984.275390625,2431.074951171875,2753.734619140625,11878.013671875,0.0,5099.7734375,10187.6259765625,9956.359375,7797.08251953125,12879.3720703125,13082.822265625,19050.439453125,-12522.5380859375,4248.619140625,12606.7802734375,6829.8974609375,6734.52978515625,4874.07080078125,0.0,12331.0087890625
6228.2880859375,4070.60009765625,15830.1982421875,8420.9443359375,19323.826171875,7613.5,11274.814453125,16256.9677734375,8424.123046875,10604.064453125,9823.6396484375,9346.802734375,-3596.941650390625,0.0,13994.3759765625,15122.890625,2948.443115234375,3182.09326171875,6683.66748046875,8931.9541015625,5227.724609375,13041.49609375,10432.40234375,25345.484375,-774.8603515625,1304.9443359375,8083.18408203125,15991.529296875,-5470.91162109375,3573.099853515625,20740.03125,-8528.232421875,-3961.721923828125,4497.369140625,12498.6962890625,13740.857421875,8703.072265625,11314.5517578125,7749.39892578125,-0.0,6146.43115234375,29568.671875,33601.125,10822.61328125,22095.837890625,17271.041015625,-809.8284301757812,-3136.7939453125,5763.3720703125,16671.81640625,12845.9931640625,16214.84765625,12966.7919921875,2394.51708984375,2769.629150390625,11878.8076171875,0.0,5095.7998046875,10186.0361328125,9960.333984375,7792.31396484375,12876.9873046875,13084.412109375,19049.64453125,-12533.6650390625,4246.23486328125,12608.369140625,6824.33447265625,6732.9404296875,4866.91796875,0.0,12332.5986328125
6221.93017578125,4041.19482421875,15846.8876953125,8383.591796875,19315.083984375,7609.5263671875,11271.6357421875,16256.173828125,8420.9443359375,10602.474609375,9826.0244140625,9345.2138671875,-3597.736328125,0.0,13988.8125,15123.6845703125,2944.469482421875,3178.914306640625,6680.48876953125,8928.775390625,5223.7509765625,13033.548828125,10427.6337890625,25340.71484375,-778.039306640625,1300.176025390625,8076.8271484375,15981.9931640625,-5470.91162109375,3573.89453125,20736.05859375,-8525.8486328125,-3956.95361328125,4476.7060546875,12494.7236328125,13737.6787109375,8699.8935546875,11312.9619140625,7706.4833984375,-0.0,6142.45751953125,29561.51953125,33595.5625,10817.845703125,22091.865234375,17270.24609375,-816.186279296875,-3132.025390625,5749.861328125,16663.869140625,12838.0458984375,16214.0517578125,12966.7919921875,2373.0595703125,2775.1923828125,11872.451171875,0.0,5106.92578125,10180.4736328125,9965.1025390625,7801.0556640625,12873.013671875,13082.02734375,19045.671875,-12535.2548828125,4244.6455078125,12601.216796875,6830.6923828125,6728.17236328125,4866.123046875,0.0,12331.0087890625
6200.47216796875,4065.036865234375,15811.919921875,8379.6181640625,19323.826171875,7610.3212890625,11279.5830078125,16258.55859375,8426.5068359375,10609.626953125,9826.0244140625,9342.830078125,-3595.35205078125,0.0,13997.5546875,15123.6845703125,2950.032470703125,3183.6826171875,6685.2568359375,8936.72265625,5233.28759765625,13037.5224609375,10433.197265625,25344.689453125,-767.7078247070312,1299.3812255859375,8090.3369140625,15983.58203125,-5465.3486328125,3579.45751953125,20742.416015625,-8529.822265625,-3940.26416015625,4476.7060546875,12500.2861328125,13743.2412109375,8707.8408203125,11318.5244140625,7650.05712890625,-0.0,6147.22607421875,29567.876953125,33604.3046875,10819.435546875,22099.017578125,17275.015625,-810.6231689453125,-3165.404052734375,5765.75634765625,16661.486328125,12849.171875,16215.642578125,12971.560546875,2398.490966796875,2779.960693359375,11874.8349609375,0.0,5117.2578125,10182.0634765625,9963.5126953125,7801.8505859375,12878.5771484375,13086.7958984375,19052.029296875,-12532.0751953125,4245.43994140625,12610.7529296875,6847.3818359375,6736.11962890625,4877.2490234375,0.0,12334.1875
6187.7568359375,4119.873046875,15794.435546875,8395.5126953125,19327.798828125,7611.11572265625,11277.9931640625,16258.55859375,8428.0966796875,10610.4208984375,9823.6396484375,9347.59765625,-3591.37841796875,0.0,13995.96484375,15122.890625,2954.006103515625,3185.272216796875,6685.2568359375,8937.5185546875,5238.05615234375,13039.90625,10433.9912109375,25344.689453125,-762.1447143554688,1300.970703125,8085.568359375,15982.7861328125,-5463.7587890625,3574.689208984375,20745.595703125,-8524.2587890625,-3928.34326171875,4484.6533203125,12502.669921875,13744.037109375,8705.45703125,11317.7294921875,7746.2197265625,-0.0,6153.58349609375,29563.904296875,33605.09765625,10819.435546875,22099.017578125,17273.42578125,-807.4442749023438,-3146.33056640625,5770.5244140625,16662.279296875,12849.171875,16214.84765625,12978.712890625,2425.51171875,2775.98681640625,11875.6298828125,0.0,5114.07861328125,10190.009765625,9958.744140625,7798.671875,12879.3720703125,13087.58984375,19055.208984375,-12529.6904296875,4245.43994140625,12613.1376953125,6840.22900390625,6742.4775390625,4874.865234375,0.0,12338.1611328125
6204.4462890625,4126.23095703125,15849.271484375,8424.91796875,19315.876953125,7610.3212890625,11272.4306640625,16256.173828125,8424.123046875,10608.83203125,9826.8193359375,9351.5712890625,-3594.5576171875,0.0,13987.2236328125,15120.505859375,2951.6220703125,3182.09326171875,6680.48876953125,8934.3388671875,5226.13525390625,13036.7275390625,10429.22265625,25342.306640625,-763.7341918945312,1300.970703125,8076.8271484375,15981.9931640625,-5464.5537109375,3570.715576171875,20739.236328125,-8507.5693359375,-3951.390625,4494.1904296875,12493.927734375,13741.65234375,8699.8935546875,11314.5517578125,7822.513671875,-0.0,6132.9208984375,29557.546875,33597.9453125,10819.435546875,22095.837890625,17270.24609375,-799.4969482421875,-3114.541259765625,5755.42431640625,16663.869140625,12840.4306640625,16213.2587890625,12991.4287109375,2420.7431640625,2774.397705078125,11881.9873046875,0.0,5099.7734375,10184.447265625,9959.5380859375,7799.466796875,12875.3974609375,13083.6171875,19054.412109375,-12528.1015625,4251.79833984375,12605.1904296875,6819.56640625,6733.7353515625,4865.328125,0.0,12339.7509765625
6213.18798828125,4109.54150390625,15861.98828125,8410.61328125,19310.31640625,7608.73193359375,11271.6357421875,16256.173828125,8424.91796875,10609.626953125,9825.2294921875,9350.7763671875,-3601.7099609375,0.0,13985.6337890625,15122.095703125,2947.648193359375,3177.324951171875,6679.69384765625,8934.3388671875,5220.57177734375,13035.93359375,10426.044921875,25342.306640625,-766.9130859375,1296.2022705078125,8077.62158203125,15985.169921875,-5466.14306640625,3569.9208984375,20736.05859375,-8514.7216796875,-3959.337646484375,4483.06396484375,12489.955078125,13738.47265625,8699.099609375,11314.5517578125,7818.53955078125,-0.0,6121.79443359375,29559.134765625,33593.1796875,10819.435546875,22094.25,17271.041015625,-790.7549438476562,-3124.078125,5760.98779296875,16665.458984375,12839.634765625,16215.642578125,12993.8125,2414.385498046875,2771.218505859375,11884.3720703125,0.0,5092.62109375,10182.857421875,9961.9228515625,7793.9033203125,12873.80859375,13083.6171875,19056.001953125,-12524.1279296875,4254.9765625,12602.01171875,6822.74462890625,6728.17236328125,4874.07080078125,0.0,12342.1357421875
6219.5458984375,4107.9521484375,15837.3505859375,8428.8916015625,19312.701171875,7611.11572265625,11274.814453125,16257.7626953125,8427.302734375,10608.83203125,9823.6396484375,9350.7763671875,-3611.246826171875,0.0,13992.7861328125,15122.890625,2951.6220703125,3179.709228515625,6682.87255859375,8935.1337890625,5223.7509765625,13042.291015625,10429.22265625,25343.89453125,-766.1183471679688,1296.9970703125,8085.568359375,15989.9384765625,-5470.91162109375,3569.9208984375,20740.03125,-8515.517578125,-3953.77490234375,4494.98486328125,12491.5439453125,13742.447265625,8702.2783203125,11314.5517578125,7794.6982421875,-0.0,6128.15234375,29564.69921875,33597.15234375,10819.435546875,22096.634765625,17272.630859375,-783.6024169921875,-3128.846435546875,5764.96142578125,16671.021484375,12845.1982421875,16215.642578125,12989.8388671875,2416.769775390625,2764.06591796875,11885.9609375,0.0,5085.46826171875,10185.2421875,9961.1279296875,7803.43994140625,12873.80859375,13085.2060546875,19058.38671875,-12524.9228515625,4254.9765625,12606.7802734375,6835.46044921875,6738.50390625,4880.42822265625,0.0,12342.9296875
6243.3876953125,4127.025390625,15838.146484375,8432.0703125,19319.853515625,7615.88427734375,11278.7880859375,16257.7626953125,8428.8916015625,10606.4482421875,9826.8193359375,9349.982421875,-3616.01513671875,0.0,13995.96484375,15124.48046875,2954.80078125,3183.6826171875,6686.0517578125,8934.3388671875,5226.13525390625,13046.2646484375,10432.40234375,25344.689453125,-758.9658203125,1301.765380859375,8090.3369140625,15989.9384765625,-5470.91162109375,3577.0732421875,20743.2109375,-8513.927734375,-3951.390625,4505.31640625,12493.927734375,13747.21484375,8703.8681640625,11315.345703125,7792.31396484375,-0.0,6132.1259765625,29571.8515625,33601.921875,10824.203125,22099.8125,17272.630859375,-777.2445678710938,-3136.7939453125,5764.16650390625,16674.99609375,12849.171875,16216.4365234375,12997.7861328125,2412.7958984375,2772.013427734375,11890.728515625,0.0,5083.083984375,10190.009765625,9963.5126953125,7813.771484375,12875.3974609375,13086.7958984375,19056.001953125,-12521.744140625,4256.56640625,12610.7529296875,6839.43408203125,6742.4775390625,4878.8388671875,0.0,12332.5986328125
6237.82470703125,4125.4365234375,15836.5576171875,8433.6591796875,19319.056640625,7615.88427734375,11276.404296875,16253.7900390625,8427.302734375,10604.8583984375,9828.408203125,9347.59765625,-3609.6572265625,0.0,13992.7861328125,15120.505859375,2953.21142578125,3182.09326171875,6682.87255859375,8932.75,5227.724609375,13045.470703125,10431.607421875,25344.689453125,-758.1710815429688,1305.739013671875,8087.158203125,15985.169921875,-5470.1171875,3579.45751953125,20743.2109375,-8513.927734375,-3953.77490234375,4501.3427734375,12494.7236328125,13745.6259765625,8702.2783203125,11315.345703125,7793.9033203125,-0.0,6138.4833984375,29571.056640625,33601.125,10823.4091796875,22099.8125,17269.453125,-777.2445678710938,-3135.204345703125,5760.19287109375,16676.583984375,12845.9931640625,16211.66796875,12997.7861328125,2410.411865234375,2774.397705078125,11893.11328125,0.0,5091.826171875,10188.419921875,9961.9228515625,7805.029296875,12876.193359375,13084.412109375,19054.412109375,-12518.5654296875,4258.15576171875,12609.1640625,6840.22900390625,6738.50390625,4885.19677734375,0.0,12332.5986328125
6225.90380859375,4116.69384765625,15820.6611328125,8411.4072265625,19318.26171875,7613.5,11277.9931640625,16254.5830078125,8432.0703125,10608.037109375,9828.408203125,9346.802734375,-3608.862548828125,0.0,13998.349609375,15121.30078125,2947.648193359375,3180.50390625,6682.87255859375,8935.1337890625,5229.314453125,13039.90625,10431.607421875,25345.484375,-759.7605590820312,1305.739013671875,8091.9267578125,15981.9931640625,-5470.1171875,3577.8681640625,20741.62109375,-8515.517578125,-3956.1591796875,4490.216796875,12496.3125,13744.037109375,8705.45703125,11316.140625,7806.619140625,-0.0,6144.046875,29565.4921875,33601.921875,10822.61328125,22104.58203125,17271.041015625,-779.6287841796875,-3125.66748046875,5759.39794921875,16672.611328125,12852.3515625,16213.2587890625,12989.0439453125,2398.490966796875,2775.1923828125,11889.9345703125,0.0,5107.720703125,10191.599609375,9961.9228515625,7797.08251953125,12876.193359375,13087.58984375,19058.38671875,-12516.1806640625,4255.771484375,12615.521484375,6845.79248046875,6745.65625,4889.17041015625,0.0,12337.3671875
6218.75146484375,4111.13134765625,15819.8681640625,8384.38671875,19314.2890625,7610.3212890625,11276.404296875,16256.173828125,8429.6865234375,10608.037109375,9826.0244140625,9349.1865234375,-3614.42578125,0.0,13999.14453125,15122.890625,2946.05908203125,3178.11962890625,6682.87255859375,8933.5439453125,5225.34033203125,13034.34375,10430.0185546875,25343.89453125,-760.5552978515625,1301.765380859375,8089.54248046875,15980.40234375,-5472.50146484375,3576.27880859375,20739.236328125,-8518.6962890625,-3956.95361328125,4483.8583984375,12493.927734375,13740.857421875,8704.662109375,11313.755859375,7805.82421875,-0.0,6135.3046875,29559.134765625,33599.53515625,10819.435546875,22101.40234375,17271.041015625,-783.6024169921875,-3124.872802734375,5755.42431640625,16668.638671875,12853.1455078125,16214.0517578125,12982.6865234375,2390.543701171875,2764.86083984375,11885.166015625,0.0,5107.720703125,10193.1884765625,9961.9228515625,7797.876953125,12873.80859375,13087.58984375,19055.208984375,-12518.5654296875,4254.9765625,12616.31640625,6841.02392578125,6745.65625,4882.8125,0.0,12335.77734375
6204.4462890625,4102.388671875,15807.1513671875,8376.439453125,19312.701171875,7607.93701171875,11273.224609375,16254.5830078125,8427.302734375,10604.8583984375,9814.103515625,9346.0078125,-3617.6044921875,0.0,14000.7333984375,15121.30078125,2940.495849609375,3175.7353515625,6678.8994140625,8933.5439453125,5222.9560546875,13033.548828125,10426.044921875,25340.71484375,-768.5025634765625,1296.9970703125,8082.3896484375,15978.017578125,-5478.85888671875,3574.689208984375,20736.05859375,-8526.642578125,-3957.74853515625,4476.7060546875,12490.7490234375,13739.2685546875,8701.4833984375,11312.9619140625,7755.75634765625,-0.0,6132.9208984375,29559.134765625,33598.73828125,10817.05078125,22099.8125,17268.658203125,-799.4969482421875,-3137.58837890625,5755.42431640625,16667.046875,12854.7353515625,16211.66796875,12977.123046875,2402.464599609375,2757.708251953125,11879.603515625,0.0,5101.36279296875,10193.984375,9959.5380859375,7801.8505859375,12873.013671875,13085.2060546875,19052.82421875,-12526.51171875,4253.3876953125,12615.521484375,6833.07666015625,6750.4248046875,4878.8388671875,0.0,12331.8037109375
6204.4462890625,4092.0576171875,15788.8740234375,8374.0546875,19315.083984375,7603.16845703125,11273.224609375,16249.8154296875,8429.6865234375,10604.8583984375,9800.59375,9338.85546875,-3611.246826171875,0.0,14004.70703125,15116.5322265625,2934.137939453125,3173.351318359375,6678.1044921875,8933.5439453125,5224.5458984375,13030.3701171875,10425.25,25336.7421875,-778.8340454101562,1289.844482421875,8081.59521484375,15975.6337890625,-5476.474609375,3573.099853515625,20731.291015625,-8540.1533203125,-3956.1591796875,4471.9375,12490.7490234375,13735.2939453125,8699.8935546875,11308.9873046875,7678.66748046875,-0.0,6136.89404296875,29559.134765625,33598.73828125,10814.6669921875,22099.8125,17267.86328125,-810.6231689453125,-3149.509521484375,5751.451171875,16662.279296875,12857.9140625,16207.6953125,12972.3544921875,2404.053955078125,2741.01904296875,11875.6298828125,0.0,5095.7998046875,10196.3681640625,9957.94921875,7805.82421875,12869.8349609375,13082.02734375,19054.412109375,-12530.486328125,4247.82421875,12619.4951171875,6830.6923828125,6762.345703125,4880.42822265625,0.0,12334.1875
6211.5986328125,4070.60009765625,15802.3837890625,8382.0029296875,19316.673828125,7598.39990234375,11266.8671875,16245.841796875,8421.73828125,10598.5,9805.361328125,9336.4716796875,-3606.478515625,0.0,13991.9921875,15111.763671875,2932.548583984375,3167.788330078125,6673.3359375,8926.3916015625,5222.16162109375,13025.6015625,10422.0703125,25331.177734375,-788.3707885742188,1281.1025390625,8076.03173828125,15972.4560546875,-5474.88525390625,3569.126220703125,20728.111328125,-8546.51171875,-3958.543212890625,4471.9375,12489.1591796875,13728.9365234375,8693.5361328125,11301.041015625,7705.6884765625,-0.0,6144.046875,29551.982421875,33593.1796875,10809.103515625,22094.25,17263.09375,-810.6231689453125,-3146.33056640625,5745.0927734375,16658.306640625,12844.4033203125,16202.9267578125,12966.7919921875,2387.36474609375,2734.6611328125,11874.8349609375,0.0,5089.44189453125,10186.8310546875,9953.181640625,7797.08251953125,12863.4765625,13076.46484375,19046.46484375,-12532.0751953125,4244.6455078125,12605.984375,6829.10302734375,6743.2724609375,4874.865234375,0.0,12327.830078125
6178.22021484375,4067.4208984375,15808.740234375,8399.486328125,19319.853515625,7592.8369140625,11262.099609375,16241.0732421875,8415.3818359375,10592.142578125,9802.9775390625,9329.3193359375,-3600.12060546875,0.0,13985.6337890625,15106.9951171875,2931.75390625,3163.814453125,6669.3623046875,8919.2392578125,5218.18798828125,13020.8330078125,10419.6865234375,25327.205078125,-786.7813110351562,1277.1287841796875,8072.05859375,15970.072265625,-5476.474609375,3564.357666015625,20724.931640625,-8549.6904296875,-3955.3642578125,4475.91162109375,12485.9814453125,13723.373046875,8690.357421875,11297.8623046875,7735.88818359375,-0.0,6152.78857421875,29547.21484375,33590.79296875,10803.5400390625,22088.685546875,17259.12109375,-828.9019165039062,-3151.8935546875,5733.171875,16651.94921875,12837.2509765625,16198.9541015625,12946.9228515625,2373.8544921875,2746.58203125,11871.6552734375,0.0,5070.3681640625,10179.6787109375,9946.8232421875,7770.0615234375,12859.50390625,13070.1064453125,19037.72265625,-12538.4326171875,4242.26123046875,12598.83203125,6824.33447265625,6732.9404296875,4866.123046875,0.0,12321.47265625
6175.041015625,4076.957763671875,15777.74609375,8385.9755859375,19318.26171875,7598.39990234375,11266.8671875,16245.841796875,8422.5341796875,10598.5,9795.8251953125,9328.5244140625,-3584.225830078125,0.0,13992.7861328125,15110.1748046875,2938.111572265625,3168.5830078125,6675.72021484375,8925.59765625,5218.98291015625,13026.396484375,10423.66015625,25332.76953125,-774.065673828125,1282.69189453125,8077.62158203125,15975.6337890625,-5468.52734375,3570.715576171875,20727.31640625,-8522.669921875,-3965.69580078125,4471.9375,12486.775390625,13728.9365234375,8696.7158203125,11302.630859375,7718.404296875,-0.0,6144.841796875,29551.982421875,33597.9453125,10809.103515625,22092.66015625,17263.888671875,-840.0281372070312,-3159.046142578125,5753.8349609375,16657.51171875,12844.4033203125,16202.130859375,12949.3076171875,2389.748779296875,2761.681884765625,11878.013671875,0.0,5070.3681640625,10185.2421875,9950.796875,7782.77734375,12864.2724609375,13077.2587890625,19042.4921875,-12532.8701171875,4243.8505859375,12605.984375,6825.923828125,6740.88818359375,4866.91796875,0.0,12324.650390625
6170.27294921875,4091.2626953125,15801.587890625,8385.181640625,19320.646484375,7601.5791015625,11267.662109375,16245.046875,8423.328125,10598.5,9791.8505859375,9319.7822265625,-3573.89453125,0.0,13991.1962890625,15109.3798828125,2934.9326171875,3170.967041015625,6676.51513671875,8928.775390625,5220.57177734375,13024.806640625,10426.044921875,25332.76953125,-785.1918334960938,1284.2813720703125,8080.005859375,15974.044921875,-5463.7587890625,3565.947265625,20727.31640625,-8528.232421875,-3958.543212890625,4471.14306640625,12489.955078125,13729.7314453125,8698.3037109375,11303.4248046875,7729.5302734375,-0.0,6141.66259765625,29554.3671875,33601.125,10809.8984375,22095.837890625,17263.888671875,-824.9282836914062,-3166.993408203125,5772.90869140625,16659.1015625,12844.4033203125,16202.9267578125,12962.818359375,2388.9541015625,2760.88720703125,11874.8349609375,0.0,5079.9052734375,10186.8310546875,9950.001953125,7783.57177734375,12865.06640625,13078.0537109375,19042.4921875,-12528.896484375,4239.08251953125,12605.984375,6825.12890625,6744.06689453125,4865.328125,0.0,12323.0615234375
6144.046875,4050.731689453125,15815.8935546875,8381.20703125,19322.236328125,7596.81103515625,11266.8671875,16245.841796875,8424.123046875,10598.5,9784.6982421875,9311.0400390625,-3567.53662109375,0.0,13990.40234375,15111.763671875,2930.164306640625,3169.377685546875,6675.72021484375,8929.5703125,5221.36669921875,13017.654296875,10425.25,25330.384765625,-810.6231689453125,1280.3077392578125,8073.6474609375,15973.2490234375,-5466.93798828125,3560.384033203125,20724.138671875,-8548.1005859375,-3954.5693359375,4468.75927734375,12488.365234375,13724.962890625,8697.509765625,11302.630859375,7809.7978515625,-0.0,6162.3251953125,29545.625,33597.9453125,10807.5146484375,22096.634765625,17261.505859375,-835.259765625,-3203.551025390625,5760.19287109375,16655.126953125,12845.1982421875,16202.130859375,12956.4599609375,2376.238525390625,2758.5029296875,11867.6826171875,0.0,5072.75244140625,10189.2158203125,9952.3857421875,7774.03515625,12861.8876953125,13078.8486328125,19044.080078125,-12533.6650390625,4231.9296875,12605.984375,6832.28173828125,6754.3984375,4869.30224609375,0.0,12326.240234375
