4955.92724609375,2823.670654296875,13820.3310546875,6726.5830078125,16945.203125,6074.1103515625,8660.9521484375,13453.9599609375,5133.15185546875,7883.7080078125,8708.63671875,7626.21533203125,-4722.27734375,0.0,11633.2373046875,12346.9033203125,1642.7039794921875,2077.42041015625,3912.448974609375,5745.8876953125,4170.73583984375,11204.0830078125,8838.970703125,23116.26953125,-1738.8662109375,-198.68214416503906,5209.44580078125,13634.3642578125,-6724.19873046875,2981.82177734375,18800.099609375,-10974.4072265625,-5352.4970703125,3354.54931640625,10879.0400390625,11749.267578125,6087.62109375,8807.1826171875,4862.9443359375,-0.0,5471.70654296875,27432.44140625,31232.833984375,8805.5927734375,18800.89453125,14260.609375,-2898.375244140625,-5943.775390625,4548.2314453125,14624.595703125,10453.8603515625,13317.267578125,10766.9833984375,1381.23828125,337.7596435546875,10433.197265625,0.0,3557.999755859375,7737.4775390625,7061.95849609375,6266.43505859375,11850.1982421875,9206.1357421875,16334.056640625,-13574.759765625,2731.482177734375,10323.5244140625,5478.85888671875,4617.373046875,2793.47119140625,0.0,9773.572265625
4912.2177734375,2821.286376953125,13799.6669921875,6716.25146484375,16932.48828125,6061.39501953125,8647.44140625,13435.681640625,5115.66796875,7867.0185546875,8686.3828125,7610.3212890625,-4730.224609375,0.0,11620.521484375,12330.21484375,1634.7567138671875,2064.704833984375,3897.34912109375,5728.40380859375,4160.404296875,11191.3681640625,8823.8720703125,23101.171875,-1761.1185302734375,-210.6030731201172,5196.72998046875,13620.05859375,-6738.50390625,2970.695556640625,18788.1796875,-10987.1220703125,-5354.08642578125,3348.986328125,10866.32421875,11735.7568359375,6071.7265625,8792.0830078125,4816.05517578125,-0.0,5462.96435546875,27423.701171875,31220.912109375,8790.4931640625,18785.794921875,14242.3310546875,-2909.501220703125,-5958.875,4536.310546875,14609.49609375,10441.1435546875,13299.783203125,10753.47265625,1370.112060546875,317.8914489746094,10420.4814453125,0.0,3546.873779296875,7718.404296875,7038.9111328125,6240.208984375,11833.5087890625,9188.65234375,16314.9833984375,-13592.2431640625,2714.79296875,10311.603515625,5463.7587890625,4600.68359375,2775.98681640625,0.0,9752.1142578125
4883.607421875,2783.934326171875,13848.9404296875,6697.97265625,16930.103515625,6052.65283203125,8643.4677734375,13428.5283203125,5108.51513671875,7863.83935546875,8680.0263671875,7594.4267578125,-4709.56201171875,0.0,11615.7529296875,12322.2666015625,1630.7830810546875,2059.9365234375,3890.9912109375,5722.0458984375,4161.19921875,11184.2158203125,8822.2822265625,23095.607421875,-1761.1185302734375,-221.72927856445312,5190.37255859375,13612.90625,-6745.65625,2958.774658203125,18785.0,-10982.3544921875,-5344.5498046875,3331.502197265625,10861.5556640625,11730.98828125,6067.7529296875,8787.314453125,4754.06640625,-0.0,5470.1171875,27415.751953125,31216.939453125,8784.9306640625,18780.232421875,14238.357421875,-2907.912109375,-5989.07470703125,4548.2314453125,14601.5478515625,10436.3759765625,13291.8359375,10698.6357421875,1368.522705078125,326.6334533691406,10410.9453125,0.0,3530.979248046875,7713.6357421875,7032.55322265625,6225.10888671875,11828.740234375,9184.677734375,16307.8310546875,-13595.421875,2704.46142578125,10306.041015625,5458.99072265625,4587.96826171875,2778.37109375,0.0,9750.525390625
4854.9970703125,2768.039794921875,13848.1455078125,6693.20458984375,16934.87109375,6062.189453125,8645.8525390625,13434.0927734375,5113.28369140625,7868.607421875,8684.7939453125,7598.39990234375,-4694.4619140625,0.0,11618.1376953125,12326.240234375,1639.5250244140625,2063.91015625,3894.96484375,5727.609375,4163.58349609375,11192.162109375,8825.4609375,23101.171875,-1752.3765869140625,-209.0136260986328,5190.37255859375,13623.2373046875,-6735.32470703125,2962.748291015625,18788.97265625,-10957.7177734375,-5347.728515625,3340.244384765625,10864.734375,11735.7568359375,6072.52099609375,8791.287109375,4790.6240234375,-0.0,5473.2958984375,27430.056640625,31221.708984375,8790.4931640625,18785.0,14242.3310546875,-2907.1171875,-5990.6640625,4546.64208984375,14610.291015625,10441.1435546875,13298.98828125,10659.6943359375,1389.9803466796875,336.1701965332031,10415.712890625,0.0,3512.700439453125,7721.5830078125,7038.9111328125,6233.056640625,11835.0986328125,9187.0625,16314.1884765625,-13591.44921875,2710.8193359375,10310.8095703125,5462.16943359375,4599.09423828125,2779.166015625,0.0,9756.087890625
4858.970703125,2768.83447265625,13816.3564453125,6708.3037109375,16929.30859375,6066.16357421875,8641.87890625,13435.681640625,5111.6943359375,7864.63427734375,8685.5888671875,7600.7841796875,-4699.22998046875,0.0,11623.7001953125,12327.03515625,1637.9356689453125,2061.526123046875,3893.37548828125,5726.814453125,4158.81494140625,11195.341796875,8820.693359375,23101.96484375,-1759.529052734375,-203.4505157470703,5185.60400390625,13627.2119140625,-6732.14599609375,2969.10595703125,18786.587890625,-10961.69140625,-5360.4443359375,3348.19140625,10863.14453125,11736.5517578125,6066.9580078125,8792.0830078125,4834.333984375,-0.0,5458.99072265625,27438.005859375,31215.349609375,8792.876953125,18782.615234375,14239.947265625,-2895.990966796875,-5983.51123046875,4533.92626953125,14616.6484375,10445.1181640625,13298.98828125,10728.8359375,1375.6751708984375,318.6861572265625,10416.5078125,0.0,3502.368896484375,7717.609375,7042.08984375,6245.77197265625,11834.3037109375,9186.267578125,16311.8037109375,-13596.216796875,2712.40869140625,10312.3984375,5450.24853515625,4606.2470703125,2770.423828125,0.0,9752.1142578125
4915.39599609375,2770.423828125,13848.1455078125,6740.88818359375,16926.130859375,6074.9052734375,8653.0048828125,13446.8076171875,5123.615234375,7877.349609375,8698.3037109375,7607.93701171875,-4693.6669921875,0.0,11633.2373046875,12340.5458984375,1641.9093017578125,2067.8837890625,3904.501708984375,5738.7353515625,4156.4306640625,11204.87890625,8829.4345703125,23110.708984375,-1749.1976318359375,-194.70851135253906,5196.72998046875,13634.3642578125,-6727.37744140625,2980.232177734375,18793.7421875,-10955.333984375,-5373.15966796875,3363.29150390625,10864.734375,11745.2939453125,6078.08447265625,8803.2080078125,4816.05517578125,-0.0,5451.04345703125,27443.56640625,31220.912109375,8800.82421875,18793.7421875,14251.8681640625,-2843.5390625,-5955.6962890625,4526.77392578125,14623.80078125,10457.0390625,13310.9091796875,10728.8359375,1369.3173828125,332.1965637207031,10422.0703125,0.0,3519.05810546875,7724.76171875,7056.39501953125,6272.79296875,11843.044921875,9196.5986328125,16326.904296875,-13585.884765625,2721.945556640625,10322.73046875,5473.2958984375,4612.6044921875,2792.67626953125,0.0,9768.0087890625
4940.033203125,2756.11865234375,13862.4501953125,6738.50390625,16920.56640625,6065.36865234375,8652.2099609375,13440.4501953125,5121.23095703125,7873.3759765625,8696.7158203125,7607.14208984375,-4696.05126953125,0.0,11630.8525390625,12334.1875,1641.1146240234375,2065.49951171875,3900.52783203125,5733.966796875,4149.2783203125,11200.9052734375,8826.255859375,23105.939453125,-1743.634521484375,-205.03997802734375,5198.31982421875,13620.853515625,-6728.17236328125,2968.311279296875,18789.767578125,-10949.7705078125,-5385.0810546875,3364.880859375,10859.9658203125,11742.9091796875,6075.7001953125,8798.4404296875,4865.328125,-0.0,5448.6591796875,27432.44140625,31220.912109375,8793.671875,18792.947265625,14247.099609375,-2847.512451171875,-5950.1328125,4513.263671875,14608.701171875,10453.8603515625,13305.3466796875,10739.1669921875,1362.164794921875,333.7860107421875,10414.123046875,0.0,3530.979248046875,7723.1728515625,7045.26904296875,6283.9189453125,11839.8662109375,9194.21484375,16319.751953125,-13579.5283203125,2715.587646484375,10320.345703125,5466.93798828125,4606.2470703125,2784.72900390625,0.0,9760.8564453125
4955.1328125,2761.681884765625,13851.3251953125,6732.14599609375,16921.361328125,6058.21630859375,8652.2099609375,13438.0654296875,5122.8203125,7869.40283203125,8699.099609375,7607.14208984375,-4709.56201171875,0.0,11638.80078125,12333.3935546875,1638.7303466796875,2063.91015625,3899.7333984375,5734.76171875,4146.89404296875,11199.3154296875,8827.0498046875,23105.14453125,-1745.2239990234375,-212.19253540039062,5205.47265625,13617.6748046875,-6732.9404296875,2962.748291015625,18788.1796875,-10950.5654296875,-5385.0810546875,3358.523193359375,10859.9658203125,11741.3203125,6078.08447265625,8796.0556640625,4886.7861328125,-0.0,5441.5068359375,27429.26171875,31223.296875,8790.4931640625,18792.947265625,14246.3046875,-2852.28076171875,-5955.6962890625,4529.953125,14600.75390625,10460.2177734375,13303.7568359375,10751.8837890625,1364.549072265625,325.8387145996094,10413.3291015625,0.0,3534.157958984375,7727.94091796875,7043.6796875,6269.61376953125,11839.8662109375,9196.5986328125,16318.9560546875,-13579.5283203125,2714.79296875,10329.0869140625,5462.96435546875,4611.81005859375,2776.78173828125,0.0,9756.8828125
4967.84814453125,2773.602783203125,13842.5830078125,6746.45068359375,16934.076171875,6070.93212890625,8663.3369140625,13453.9599609375,5133.94677734375,7889.27099609375,8700.6884765625,7613.5,-4708.76708984375,0.0,11645.953125,12346.9033203125,1641.9093017578125,2072.652099609375,3911.654052734375,5751.451171875,4158.81494140625,11206.4677734375,8837.3818359375,23116.26953125,-1745.2239990234375,-203.4505157470703,5215.8037109375,13633.568359375,-6730.556640625,2968.311279296875,18797.716796875,-10960.1025390625,-5368.3916015625,3363.29150390625,10871.0927734375,11750.0615234375,6089.21044921875,8807.1826171875,4857.38134765625,-0.0,5450.24853515625,27438.798828125,31233.62890625,8802.4140625,18803.27734375,14262.19921875,-2847.512451171875,-5958.875,4550.61572265625,14614.2646484375,10469.75390625,13319.6513671875,10745.525390625,1377.2646484375,359.2173156738281,10423.66015625,0.0,3536.542236328125,7737.4775390625,7067.521484375,6234.64599609375,11848.609375,9209.3154296875,16338.8251953125,-13574.759765625,2718.766357421875,10337.830078125,5492.369140625,4624.525390625,2813.33935546875,0.0,9789.466796875
4943.2119140625,2758.5029296875,13817.1513671875,6723.40380859375,16923.74609375,6058.21630859375,8647.44140625,13436.4765625,5114.07861328125,7870.99169921875,8680.0263671875,7603.16845703125,-4724.6611328125,0.0,11626.083984375,12328.625,1627.6041259765625,2059.9365234375,3895.759521484375,5730.78759765625,4150.86767578125,11194.546875,8823.0771484375,23101.96484375,-1762.7080078125,-216.1661834716797,5201.49853515625,13616.0849609375,-6744.06689453125,2957.18505859375,18785.0,-10983.1494140625,-5366.00732421875,3344.218017578125,10859.171875,11736.5517578125,6074.1103515625,8792.876953125,4747.708984375,-0.0,5449.45361328125,27425.2890625,31221.708984375,8787.314453125,18786.587890625,14243.919921875,-2883.275390625,-5973.974609375,4537.900390625,14601.5478515625,10447.501953125,13300.578125,10739.1669921875,1368.522705078125,356.8331298828125,10410.1494140625,0.0,3516.674072265625,7717.609375,7048.4482421875,6203.6513671875,11835.0986328125,9191.8310546875,16310.21484375,-13588.26953125,2705.256103515625,10316.3720703125,5474.0908203125,4599.88916015625,2790.2919921875,0.0,9760.8564453125
4959.9013671875,2779.166015625,13813.177734375,6730.556640625,16927.71875,6060.60009765625,8647.44140625,13438.0654296875,5116.462890625,7871.787109375,8687.1787109375,7606.34765625,-4724.6611328125,0.0,11626.8798828125,12331.8037109375,1633.9620361328125,2062.32080078125,3896.55419921875,5730.78759765625,4154.8408203125,11196.9306640625,8824.666015625,23104.349609375,-1753.9659423828125,-211.39781188964844,5191.9619140625,13620.05859375,-6744.86181640625,2961.15869140625,18788.1796875,-10988.7119140625,-5366.80224609375,3352.9599609375,10863.14453125,11739.73046875,6072.52099609375,8793.671875,4703.20361328125,-0.0,5464.5537109375,27427.673828125,31222.501953125,8791.287109375,18788.1796875,14244.7158203125,-2901.55419921875,-5955.6962890625,4538.69482421875,14604.7275390625,10447.501953125,13302.9619140625,10750.2939453125,1377.2646484375,344.11749267578125,10413.3291015625,0.0,3512.700439453125,7725.556640625,7050.83203125,6225.90380859375,11837.482421875,9193.419921875,16311.0107421875,-13589.064453125,2706.05078125,10315.5771484375,5466.14306640625,4599.09423828125,2782.3447265625,0.0,9757.677734375
4944.80126953125,2781.550048828125,13813.177734375,6754.3984375,16925.333984375,6059.80517578125,8645.0576171875,13434.88671875,5114.87353515625,7867.81298828125,8674.4619140625,7604.7578125,-4727.04541015625,0.0,11628.46875,12328.625,1627.6041259765625,2059.9365234375,3893.37548828125,5729.1982421875,4152.45654296875,11193.751953125,8823.8720703125,23099.580078125,-1761.913330078125,-214.57672119140625,5191.9619140625,13616.8798828125,-6750.4248046875,2964.337646484375,18785.794921875,-10993.48046875,-5367.59716796875,3352.9599609375,10860.7607421875,11737.3466796875,6070.93212890625,8791.287109375,4710.3564453125,-0.0,5466.93798828125,27427.673828125,31221.708984375,8787.314453125,18785.0,14241.5361328125,-2910.296142578125,-5956.4912109375,4533.1318359375,14603.1376953125,10449.091796875,13299.783203125,10735.1943359375,1358.98583984375,338.55438232421875,10414.91796875,0.0,3507.931884765625,7721.5830078125,7045.26904296875,6250.5400390625,11835.0986328125,9190.2421875,16314.1884765625,-13593.8330078125,2705.256103515625,10317.9619140625,5451.837890625,4609.42578125,2767.2451171875,0.0,9752.1142578125
4905.06494140625,2760.88720703125,13790.9248046875,6736.11962890625,16907.056640625,6046.294921875,8634.7265625,13417.4033203125,5097.38916015625,7842.38134765625,8664.130859375,7586.47900390625,-4735.7880859375,0.0,11621.31640625,12308.7568359375,1616.47802734375,2047.220947265625,3879.864990234375,5706.94580078125,4138.15185546875,11182.6259765625,8811.951171875,23085.275390625,-1765.886962890625,-228.8818359375,5194.34619140625,13603.3701171875,-6757.57763671875,2949.23779296875,18774.66796875,-11003.017578125,-5383.49169921875,3351.37060546875,10845.6611328125,11723.0419921875,6061.39501953125,8775.3935546875,4751.68212890625,-0.0,5451.837890625,27413.369140625,31208.9921875,8772.2138671875,18774.66796875,14221.66796875,-2915.064453125,-5993.84326171875,4518.8271484375,14592.01171875,10445.912109375,13280.708984375,10714.53125,1310.5074462890625,320.275634765625,10402.2021484375,0.0,3495.21630859375,7705.6884765625,7013.4794921875,6244.9775390625,11821.587890625,9173.552734375,16288.7578125,-13601.7802734375,2692.54052734375,10310.8095703125,5421.638671875,4593.53125,2726.7138671875,0.0,9714.7626953125
4932.08544921875,2686.1826171875,13774.2353515625,6746.45068359375,16910.234375,6048.67919921875,8633.931640625,13419.787109375,5099.7734375,7844.765625,8669.6943359375,7582.505859375,-4723.072265625,0.0,11615.7529296875,12311.140625,1620.4515380859375,2050.39990234375,3880.659912109375,5710.919921875,4136.5625,11185.8056640625,8811.15625,23086.8671875,-1759.529052734375,-224.90818786621094,5187.98828125,13602.57421875,-6748.8349609375,2950.032470703125,18774.66796875,-10995.865234375,-5402.56494140625,3355.343994140625,10847.2509765625,11725.42578125,6059.0107421875,8778.572265625,4793.802734375,-0.0,5464.5537109375,27421.31640625,31208.9921875,8772.2138671875,18773.078125,14224.8466796875,-2930.958984375,-6015.30078125,4520.416015625,14593.6015625,10439.5546875,13282.298828125,10722.4775390625,1306.5338134765625,310.7388916015625,10399.818359375,0.0,3490.447998046875,7712.8408203125,7018.248046875,6244.9775390625,11823.9716796875,9175.1416015625,16291.1416015625,-13603.3701171875,2694.924560546875,10307.6298828125,5430.38037109375,4593.53125,2729.09814453125,0.0,9721.9150390625
4947.98046875,2627.372802734375,13851.3251953125,6723.40380859375,16904.671875,6047.08984375,8627.57421875,13418.9921875,5092.62109375,7845.56103515625,8678.4365234375,7577.7373046875,-4714.330078125,0.0,11595.8857421875,12308.7568359375,1616.47802734375,2043.2471923828125,3878.275634765625,5709.330078125,4127.8203125,11181.8310546875,8804.7978515625,23083.6875,-1768.2711181640625,-227.29237365722656,5172.09375,13602.57421875,-6746.45068359375,2946.05908203125,18769.8984375,-10997.455078125,-5393.8232421875,3345.0126953125,10840.0986328125,11722.2470703125,6051.0634765625,8776.1875,4799.3662109375,-0.0,5412.896484375,27417.341796875,31201.83984375,8773.009765625,18765.130859375,14224.8466796875,-2890.427734375,-6003.3798828125,4517.2373046875,14590.4228515625,10418.09765625,13282.298828125,10733.6044921875,1309.7127685546875,307.5599670410156,10394.255859375,0.0,3480.9111328125,7700.919921875,7024.6064453125,6229.08251953125,11819.203125,9171.962890625,16291.1416015625,-13608.1376953125,2689.361572265625,10285.3779296875,5443.89111328125,4581.6103515625,2744.19775390625,0.0,9731.4521484375
4964.669921875,2704.46142578125,13871.193359375,6759.16650390625,16939.640625,6076.49462890625,8658.568359375,13447.6025390625,5120.43603515625,7873.3759765625,8707.046875,7607.14208984375,-4698.435546875,0.0,11622.111328125,12339.7509765625,1645.088134765625,2074.24169921875,3908.475341796875,5736.35107421875,4159.609375,11212.826171875,8835.79296875,23114.681640625,-1752.3765869140625,-197.88742065429688,5198.31982421875,13635.953125,-6725.7880859375,2978.642822265625,18800.89453125,-10966.4599609375,-5365.212890625,3379.980712890625,10872.681640625,11752.4462890625,6081.26318359375,8804.7978515625,4879.63330078125,-0.0,5455.01708984375,27446.74609375,31229.654296875,8804.00390625,18792.947265625,14251.8681640625,-2873.738525390625,-5954.10693359375,4546.64208984375,14621.4169921875,10444.3232421875,13310.9091796875,10756.65234375,1347.8597412109375,332.1965637207031,10425.25,0.0,3519.05810546875,7727.14599609375,7049.24267578125,6246.56689453125,11850.1982421875,9202.1630859375,16318.1630859375,-13579.5283203125,2714.79296875,10311.603515625,5461.375,4607.0419921875,2769.629150390625,0.0,9760.8564453125
4934.4697265625,2723.534912109375,13815.5625,6752.80908203125,16934.076171875,6077.28955078125,8656.1845703125,13446.8076171875,5114.87353515625,7871.787109375,8691.1513671875,7601.5791015625,-4703.99853515625,0.0,11622.111328125,12341.33984375,1641.9093017578125,2073.447021484375,3906.8857421875,5733.171875,4158.02001953125,11212.03125,8833.408203125,23113.88671875,-1757.939697265625,-196.29795837402344,5200.7041015625,13635.158203125,-6728.96728515625,2970.695556640625,18796.125,-10966.4599609375,-5375.5439453125,3376.8017578125,10868.708984375,11750.857421875,6078.87890625,8804.00390625,4905.859375,-0.0,5456.6064453125,27452.310546875,31223.296875,8804.00390625,18790.564453125,14251.0732421875,-2893.60693359375,-5992.25390625,4536.310546875,14622.2119140625,10445.1181640625,13311.7041015625,10751.087890625,1331.965087890625,325.8387145996094,10420.4814453125,0.0,3532.568603515625,7716.814453125,7055.6005859375,6231.466796875,11844.634765625,9200.5732421875,16314.1884765625,-13579.5283203125,2704.46142578125,10313.193359375,5458.1962890625,4604.65771484375,2768.83447265625,0.0,9759.2666015625
4888.3759765625,2743.403076171875,13748.009765625,6740.09326171875,16915.001953125,6049.47412109375,8633.931640625,13421.3759765625,5089.44189453125,7841.5869140625,8649.826171875,7572.96875,-4729.4296875,0.0,11608.6005859375,12315.1142578125,1619.6568603515625,2048.810302734375,3883.838623046875,5702.97265625,4140.53564453125,11182.6259765625,8811.15625,23089.25,-1782.576171875,-223.31874084472656,5186.39892578125,13605.75390625,-6754.3984375,2938.906494140625,18773.875,-10991.890625,-5397.796875,3341.833740234375,10847.2509765625,11725.42578125,6057.42138671875,8779.3662109375,4839.10205078125,-0.0,5439.9169921875,27415.751953125,31204.22265625,8776.1875,18767.515625,14224.052734375,-2915.064453125,-6028.0166015625,4518.8271484375,14593.6015625,10430.0185546875,13285.4775390625,10724.0673828125,1310.5074462890625,308.3547058105469,10390.28125,0.0,3513.4951171875,7697.7412109375,7023.0166015625,6213.98291015625,11820.79296875,9175.9365234375,16280.015625,-13604.958984375,2679.82470703125,10298.0927734375,5417.6650390625,4579.22607421875,2724.32958984375,0.0,9713.1728515625
4903.47509765625,2809.365478515625,13841.7880859375,6742.4775390625,16937.255859375,6070.13720703125,8654.5947265625,13444.423828125,5116.462890625,7871.787109375,8686.3828125,7600.7841796875,-4713.53515625,0.0,11631.6484375,12338.1611328125,1641.1146240234375,2072.652099609375,3907.680419921875,5732.37744140625,4169.94091796875,11204.0830078125,8834.203125,23111.501953125,-1750.787109375,-201.86106872558594,5191.9619140625,13625.6220703125,-6740.09326171875,2966.7216796875,18797.716796875,-10970.43359375,-5354.08642578125,3355.343994140625,10873.4765625,11746.8837890625,6078.87890625,8803.2080078125,4785.06103515625,-0.0,5470.91162109375,27434.826171875,31226.4765625,8798.4404296875,18790.564453125,14247.89453125,-2887.2490234375,-5970.7958984375,4545.05322265625,14612.6748046875,10451.4765625,13306.935546875,10739.962890625,1347.06494140625,344.9122009277344,10416.5078125,0.0,3534.952880859375,7714.43017578125,7046.06396484375,6248.15625,11847.01953125,9199.7783203125,16314.9833984375,-13591.44921875,2708.43505859375,10321.140625,5455.81201171875,4611.81005859375,2769.629150390625,0.0,9751.3203125
4937.64892578125,2831.6181640625,13909.33984375,6693.9990234375,16942.0234375,6070.13720703125,8661.7470703125,13444.423828125,5120.43603515625,7875.76025390625,8719.76171875,7614.29443359375,-4711.94580078125,0.0,11638.0048828125,12337.3671875,1648.26708984375,2077.42041015625,3912.448974609375,5738.7353515625,4169.14599609375,11204.87890625,8840.560546875,23114.681640625,-1719.792724609375,-201.0663299560547,5211.03515625,13623.2373046875,-6733.7353515625,2972.284912109375,18800.099609375,-10953.744140625,-5350.11279296875,3347.39697265625,10876.6552734375,11750.0615234375,6086.826171875,8806.3876953125,4824.79736328125,-0.0,5460.58056640625,27430.853515625,31235.21875,8800.029296875,18799.3046875,14253.45703125,-2855.4599609375,-5930.26513671875,4555.38427734375,14613.46875,10457.0390625,13308.525390625,10740.7568359375,1378.8541259765625,361.60150146484375,10421.2763671875,0.0,3535.74755859375,7733.50390625,7048.4482421875,6265.64013671875,11853.376953125,9204.546875,16317.3671875,-13579.5283203125,2717.17724609375,10327.498046875,5474.0908203125,4609.42578125,2774.397705078125,0.0,9750.525390625
4909.03857421875,2824.465576171875,13871.193359375,6696.3828125,16936.4609375,6062.984375,8653.0048828125,13438.0654296875,5115.66796875,7874.17138671875,8702.2783203125,7607.14208984375,-4719.89306640625,0.0,11627.673828125,12330.21484375,1643.498779296875,2068.6787109375,3904.501708984375,5733.966796875,4164.3779296875,11196.9306640625,8833.408203125,23104.349609375,-1734.0977783203125,-211.39781188964844,5207.8564453125,13622.443359375,-6736.9140625,2964.337646484375,18793.7421875,-10963.2802734375,-5347.728515625,3349.781005859375,10869.5029296875,11741.3203125,6077.28955078125,8799.2353515625,4828.77099609375,-0.0,5457.4013671875,27418.931640625,31226.4765625,8793.671875,18788.97265625,14247.099609375,-2855.4599609375,-5939.0068359375,4548.2314453125,14604.7275390625,10448.296875,13302.1669921875,10724.0673828125,1392.364501953125,336.9649353027344,10415.712890625,0.0,3510.316162109375,7731.91455078125,7045.26904296875,6244.9775390625,11844.634765625,9197.39453125,16314.1884765625,-13591.44921875,2709.229736328125,10316.3720703125,5476.474609375,4601.478515625,2779.166015625,0.0,9755.2939453125
4867.71240234375,2842.744140625,13841.7880859375,6729.76171875,16947.587890625,6073.31591796875,8658.568359375,13444.423828125,5124.41015625,7882.91259765625,8707.8408203125,7615.88427734375,-4701.6142578125,0.0,11629.263671875,12337.3671875,1656.21435546875,2079.010009765625,3912.448974609375,5742.70849609375,4181.06689453125,11210.44140625,8839.7666015625,23111.501953125,-1732.50830078125,-199.4768829345703,5202.29345703125,13630.390625,-6721.814453125,2973.874267578125,18809.63671875,-10959.3076171875,-5323.091796875,3372.828125,10881.423828125,11752.4462890625,6082.85302734375,8806.3876953125,4820.02880859375,-0.0,5478.85888671875,27434.826171875,31232.0390625,8801.619140625,18794.537109375,14255.8408203125,-2849.896728515625,-5940.59619140625,4556.17919921875,14617.443359375,10451.4765625,13310.115234375,10716.12109375,1401.9012451171875,340.1438293457031,10429.22265625,0.0,3529.3896484375,7732.70947265625,7054.8056640625,6242.59326171875,11850.9931640625,9204.546875,16325.3154296875,-13580.322265625,2720.35595703125,10319.55078125,5482.83251953125,4618.16796875,2795.060302734375,0.0,9770.3935546875
4912.2177734375,2833.207275390625,13825.8935546875,6732.9404296875,16952.35546875,6075.7001953125,8660.1572265625,13447.6025390625,5125.20458984375,7884.50244140625,8714.19921875,7618.2685546875,-4696.84619140625,0.0,11634.0322265625,12340.5458984375,1657.0091552734375,2079.8046875,3912.448974609375,5743.50341796875,4178.6826171875,11210.44140625,8840.560546875,23112.296875,-1728.53466796875,-195.50323486328125,5199.1142578125,13633.568359375,-6719.4306640625,2973.874267578125,18809.63671875,-10953.744140625,-5341.37109375,3376.8017578125,10882.21875,11752.4462890625,6085.23681640625,8804.7978515625,4870.8916015625,-0.0,5481.2431640625,27438.005859375,31232.0390625,8804.00390625,18796.125,14255.8408203125,-2848.307373046875,-5945.3642578125,4549.0263671875,14625.3896484375,10455.44921875,13311.7041015625,10747.115234375,1400.311767578125,340.9385681152344,10432.40234375,0.0,3534.157958984375,7727.14599609375,7057.98486328125,6252.1298828125,11851.787109375,9204.546875,16325.3154296875,-13570.78515625,2719.561279296875,10323.5244140625,5488.3955078125,4614.98876953125,2800.62353515625,0.0,9775.9560546875
4931.291015625,2826.849609375,13838.6083984375,6731.3515625,16955.533203125,6086.03125,8672.873046875,13465.880859375,5137.92041015625,7912.318359375,8722.146484375,7619.85791015625,-4697.64111328125,0.0,11646.748046875,12360.4130859375,1660.1881103515625,2085.367919921875,3926.75390625,5767.34521484375,4182.65673828125,11216.7998046875,8847.7138671875,23123.421875,-1729.3294677734375,-189.14540100097656,5221.36669921875,13646.28515625,-6718.6357421875,2984.2060546875,18814.40625,-10945.796875,-5345.3447265625,3369.649169921875,10887.7822265625,11759.5986328125,6097.15771484375,8817.513671875,4837.51318359375,-0.0,5494.75341796875,27446.74609375,31238.3984375,8814.3349609375,18813.609375,14275.7099609375,-2852.28076171875,-5956.4912109375,4538.69482421875,14637.310546875,10468.1650390625,13330.77734375,10765.3935546875,1402.696044921875,352.8594970703125,10436.3759765625,0.0,3546.873779296875,7736.68310546875,7089.7734375,6262.46142578125,11860.5302734375,9220.4404296875,16361.078125,-13562.8388671875,2724.32958984375,10335.4453125,5527.33740234375,4625.3203125,2861.817626953125,0.0,9833.1767578125
4944.80126953125,2785.523681640625,13864.0400390625,6726.5830078125,16952.35546875,6081.26318359375,8667.3095703125,13456.3447265625,5130.767578125,7898.01318359375,8714.9931640625,7607.93701171875,-4720.68798828125,0.0,11642.7734375,12349.2880859375,1661.7774658203125,2082.983642578125,3919.6015625,5755.42431640625,4181.86181640625,11216.00390625,8845.3291015625,23117.861328125,-1728.53466796875,-193.11904907226562,5220.57177734375,13639.9267578125,-6730.556640625,2981.82177734375,18812.814453125,-10952.1552734375,-5330.24462890625,3367.264892578125,10883.013671875,11755.6259765625,6090.7998046875,8811.951171875,4782.6767578125,-0.0,5478.06396484375,27446.74609375,31236.806640625,8808.7724609375,18808.046875,14265.3779296875,-2867.380859375,-5981.12744140625,4566.5107421875,14625.3896484375,10465.78125,13318.8564453125,10763.0087890625,1383.62255859375,372.72772216796875,10429.22265625,0.0,3537.337158203125,7735.09375,7073.08447265625,6264.84521484375,11856.5556640625,9213.2880859375,16342.0048828125,-13562.04296875,2719.561279296875,10331.4716796875,5506.67431640625,4625.3203125,2830.8232421875,0.0,9795.8251953125
4927.3173828125,2723.534912109375,13769.4677734375,6721.01953125,16953.9453125,6068.5478515625,8653.0048828125,13439.6552734375,5117.2578125,7874.9658203125,8690.357421875,7588.86328125,-4730.224609375,0.0,11631.6484375,12333.3935546875,1651.446044921875,2072.652099609375,3904.501708984375,5734.76171875,4177.88818359375,11205.6728515625,8837.3818359375,23102.759765625,-1745.2239990234375,-204.24525451660156,5206.26708984375,13628.80078125,-6740.88818359375,2968.311279296875,18802.484375,-10968.048828125,-5348.5234375,3357.728271484375,10876.6552734375,11743.705078125,6077.28955078125,8796.0556640625,4785.85595703125,-0.0,5489.1904296875,27441.18359375,31228.861328125,8795.26171875,18790.564453125,14245.509765625,-2918.243408203125,-6008.94287109375,4568.10009765625,14615.05859375,10452.2705078125,13302.1669921875,10763.0087890625,1343.09130859375,344.9122009277344,10414.123046875,0.0,3510.316162109375,7724.76171875,7048.4482421875,6246.56689453125,11846.224609375,9198.9833984375,16321.3408203125,-13580.322265625,2702.8720703125,10321.140625,5460.58056640625,4610.22021484375,2783.139404296875,0.0,9762.4462890625
4928.90673828125,2704.46142578125,13794.8994140625,6743.2724609375,16947.587890625,6066.16357421875,8641.083984375,13423.7607421875,5098.18408203125,7849.5341796875,8688.767578125,7580.12158203125,-4723.072265625,0.0,11615.7529296875,12318.2939453125,1647.472412109375,2066.29443359375,3894.170166015625,5714.0986328125,4171.5302734375,11204.87890625,8828.6396484375,23094.01953125,-1752.3765869140625,-202.65579223632812,5186.39892578125,13616.8798828125,-6743.2724609375,2969.10595703125,18798.509765625,-10969.638671875,-5357.265625,3361.701904296875,10869.5029296875,11739.73046875,6065.36865234375,8785.724609375,4771.55078125,-0.0,5497.1376953125,27445.158203125,31220.1171875,8784.134765625,18774.66796875,14227.2314453125,-2944.469482421875,-6032.78515625,4565.7158203125,14614.2646484375,10434.787109375,13287.0673828125,10741.5517578125,1314.4810791015625,336.1701965332031,10408.560546875,0.0,3479.32177734375,7712.8408203125,7022.22216796875,6237.0302734375,11836.6884765625,9182.2939453125,16286.373046875,-13584.2958984375,2697.308837890625,10305.2451171875,5406.53857421875,4591.14697265625,2726.7138671875,0.0,9721.1201171875
4962.28564453125,2690.951171875,13888.6767578125,6754.3984375,16927.71875,6051.0634765625,8629.9580078125,13407.8662109375,5086.26318359375,7825.6923828125,8692.7412109375,7573.76318359375,-4726.2509765625,0.0,11610.984375,12301.6044921875,1637.140869140625,2052.783935546875,3881.45458984375,5694.23046875,4151.662109375,11194.546875,8814.3349609375,23081.302734375,-1747.608154296875,-218.5503692626953,5187.193359375,13598.6015625,-6744.86181640625,2963.54296875,18785.0,-10972.0234375,-5372.365234375,3359.31787109375,10853.6083984375,11729.3994140625,6054.24267578125,8770.625,4777.908203125,-0.0,5461.375,27431.646484375,31205.8125,8769.03515625,18765.130859375,14210.5419921875,-2895.990966796875,-6027.2216796875,4545.05322265625,14596.7802734375,10432.40234375,13271.1728515625,10715.3251953125,1302.5601806640625,331.4018249511719,10402.2021484375,0.0,3470.579833984375,7704.8935546875,6995.99609375,6250.5400390625,11823.177734375,9166.400390625,16256.173828125,-13581.912109375,2691.745849609375,10299.6826171875,5367.59716796875,4580.02099609375,2662.3408203125,0.0,9672.6416015625
4975.7958984375,2681.414306640625,13869.603515625,6728.96728515625,16921.361328125,6042.32177734375,8626.7783203125,13414.2236328125,5088.6474609375,7834.4345703125,8687.1787109375,7582.505859375,-4724.6611328125,0.0,11610.1904296875,12309.55078125,1629.193603515625,2047.220947265625,3879.0703125,5700.58837890625,4144.509765625,11187.39453125,8810.361328125,23078.91796875,-1741.2503662109375,-217.75563049316406,5180.041015625,13596.216796875,-6748.04052734375,2952.416748046875,18777.84765625,-10978.380859375,-5376.3388671875,3354.54931640625,10847.2509765625,11722.2470703125,6051.0634765625,8769.03515625,4796.18701171875,-0.0,5450.24853515625,27416.546875,31198.66015625,8767.4453125,18765.130859375,14214.515625,-2863.4072265625,-5988.27978515625,4532.33740234375,14590.4228515625,10433.197265625,13279.1201171875,10695.45703125,1317.6600341796875,302.7915954589844,10396.6396484375,0.0,3515.87939453125,7703.30419921875,7014.2744140625,6246.56689453125,11819.9990234375,9169.578125,16270.4794921875,-13588.26953125,2690.15625,10301.2724609375,5390.64404296875,4584.7890625,2686.1826171875,0.0,9691.71484375
4982.9482421875,2709.229736328125,13848.1455078125,6733.7353515625,16926.923828125,6045.50048828125,8634.7265625,13421.3759765625,5102.15771484375,7847.14990234375,8690.357421875,7599.19482421875,-4710.3564453125,0.0,11625.2900390625,12315.1142578125,1632.37255859375,2051.1943359375,3883.838623046875,5712.50927734375,4145.30419921875,11189.7783203125,8815.12890625,23082.890625,-1752.3765869140625,-211.39781188964844,5180.041015625,13602.57421875,-6744.86181640625,2960.364013671875,18782.615234375,-10967.2548828125,-5389.84912109375,3356.138916015625,10851.2236328125,11727.015625,6058.21630859375,8776.1875,4843.87060546875,-0.0,5443.89111328125,27413.369140625,31204.22265625,8771.419921875,18775.462890625,14223.2578125,-2862.612548828125,-5946.9541015625,4533.92626953125,14593.6015625,10448.296875,13285.4775390625,10746.3193359375,1335.9388427734375,305.97052001953125,10398.228515625,0.0,3546.078857421875,7716.814453125,7025.40087890625,6236.2353515625,11825.5615234375,9177.525390625,16285.578125,-13588.26953125,2695.719482421875,10317.9619140625,5423.22802734375,4597.5048828125,2725.9189453125,0.0,9710.7890625
4943.2119140625,2731.482177734375,13859.2724609375,6749.6298828125,16936.4609375,6050.2685546875,8639.4951171875,13424.5556640625,5105.33642578125,7857.48193359375,8697.509765625,7598.39990234375,-4707.177734375,0.0,11625.2900390625,12316.7041015625,1638.7303466796875,2057.55224609375,3890.196533203125,5721.2509765625,4157.22509765625,11194.546875,8823.8720703125,23086.8671875,-1734.8924560546875,-213.78199768066406,5190.37255859375,13609.7265625,-6738.50390625,2964.337646484375,18788.1796875,-10973.6123046875,-5370.77587890625,3366.47021484375,10858.376953125,11731.7841796875,6063.779296875,8779.3662109375,4833.53955078125,-0.0,5460.58056640625,27416.546875,31212.171875,8775.3935546875,18780.232421875,14229.615234375,-2845.12841796875,-5945.3642578125,4531.54248046875,14596.7802734375,10445.912109375,13288.6572265625,10776.51953125,1346.270263671875,332.99127197265625,10402.9970703125,0.0,3544.489501953125,7719.19873046875,7030.1689453125,6224.314453125,11831.919921875,9185.4736328125,16297.4990234375,-13580.322265625,2700.48779296875,10314.7822265625,5444.685546875,4601.478515625,2756.11865234375,0.0,9733.8359375
4891.55419921875,2742.6083984375,13856.09375,6713.072265625,16934.87109375,6044.7060546875,8636.3154296875,13430.9130859375,5108.51513671875,7873.3759765625,8698.3037109375,7588.86328125,-4703.20361328125,0.0,11615.7529296875,12323.8564453125,1632.37255859375,2054.37353515625,3889.401611328125,5728.40380859375,4154.8408203125,11185.009765625,8822.2822265625,23086.0703125,-1729.3294677734375,-224.11346435546875,5190.37255859375,13609.7265625,-6736.11962890625,2956.390380859375,18785.0,-10979.9697265625,-5362.03369140625,3350.57568359375,10856.7880859375,11727.015625,6062.984375,8782.5458984375,4827.97607421875,-0.0,5469.322265625,27406.21484375,31212.96484375,8775.3935546875,18780.232421875,14239.15234375,-2835.591552734375,-5982.716796875,4540.28466796875,14592.806640625,10437.1708984375,13295.8095703125,10737.578125,1369.3173828125,350.4753112792969,10399.0244140625,0.0,3535.74755859375,7714.43017578125,7048.4482421875,6216.3671875,11831.1240234375,9188.65234375,16315.7783203125,-13581.1162109375,2695.719482421875,10303.65625,5466.93798828125,4598.29931640625,2799.828857421875,0.0,9776.751953125
4902.6806640625,2757.708251953125,13830.662109375,6678.1044921875,16939.640625,6052.65283203125,8640.2890625,13434.0927734375,5109.31005859375,7874.9658203125,8701.4833984375,7595.22119140625,-4688.10400390625,0.0,11616.5478515625,12330.21484375,1630.7830810546875,2056.757568359375,3891.785888671875,5729.1982421875,4158.02001953125,11188.984375,8824.666015625,23088.455078125,-1740.45556640625,-217.75563049316406,5179.24658203125,13618.46875,-6731.3515625,2959.5693359375,18785.794921875,-10979.9697265625,-5362.03369140625,3337.860107421875,10861.5556640625,11730.98828125,6064.57373046875,8785.724609375,4795.392578125,-0.0,5482.83251953125,27412.572265625,31215.349609375,8780.9560546875,18781.8203125,14241.5361328125,-2861.817626953125,-5986.6904296875,4544.25830078125,14601.5478515625,10437.9658203125,13298.1943359375,10707.3779296875,1378.059326171875,350.4753112792969,10406.1767578125,0.0,3528.594970703125,7714.43017578125,7050.03759765625,6231.466796875,11831.919921875,9188.65234375,16316.572265625,-13577.1435546875,2700.48779296875,10306.8349609375,5466.93798828125,4602.2734375,2795.855224609375,0.0,9771.1875
4917.7802734375,2791.881591796875,13825.0986328125,6697.97265625,16929.30859375,6059.80517578125,8642.673828125,13430.9130859375,5113.28369140625,7868.607421875,8699.099609375,7605.552734375,-4686.51416015625,0.0,11629.263671875,12325.4462890625,1629.98828125,2057.55224609375,3893.37548828125,5727.609375,4157.22509765625,11192.9580078125,8824.666015625,23090.83984375,-1742.0450439453125,-208.21888732910156,5180.8359375,13624.0322265625,-6728.96728515625,2973.07958984375,18786.587890625,-10975.9970703125,-5358.85498046875,3338.65478515625,10857.58203125,11734.962890625,6067.7529296875,8788.1083984375,4790.6240234375,-0.0,5443.09619140625,27422.109375,31212.171875,8785.724609375,18786.587890625,14238.357421875,-2882.480712890625,-5979.5380859375,4533.1318359375,14615.05859375,10449.091796875,13295.8095703125,10741.5517578125,1375.6751708984375,349.6805725097656,10423.66015625,0.0,3523.031982421875,7723.96728515625,7036.52734375,6253.71923828125,11833.5087890625,9189.4462890625,16309.419921875,-13577.1435546875,2713.998046875,10317.9619140625,5457.4013671875,4615.78369140625,2770.423828125,0.0,9745.7568359375
4909.03857421875,2781.550048828125,13840.1982421875,6717.04638671875,16926.923828125,6045.50048828125,8637.1103515625,13417.4033203125,5112.4892578125,7858.2763671875,8695.1259765625,7592.8369140625,-4711.1513671875,0.0,11634.0322265625,12312.7294921875,1623.6304931640625,2048.015625,3887.017578125,5722.8408203125,4149.2783203125,11183.4208984375,8819.103515625,23081.302734375,-1750.787109375,-223.31874084472656,5195.140625,13602.57421875,-6736.9140625,2961.15869140625,18777.84765625,-10984.73828125,-5370.77587890625,3345.807373046875,10851.2236328125,11723.8359375,6062.984375,8779.3662109375,4840.69189453125,-0.0,5442.30126953125,27410.189453125,31210.580078125,8771.419921875,18785.794921875,14230.41015625,-2879.3017578125,-5981.12744140625,4524.3896484375,14599.958984375,10455.44921875,13283.888671875,10722.4775390625,1344.6807861328125,333.7860107421875,10412.5341796875,0.0,3488.063720703125,7725.556640625,7027.78466796875,6248.951171875,11826.35546875,9184.677734375,16306.2421875,-13589.859375,2702.8720703125,10325.1142578125,5447.06982421875,4621.34716796875,2747.376708984375,0.0,9737.8095703125
4896.32275390625,2767.2451171875,13852.9140625,6696.3828125,16924.5390625,6031.990234375,8629.1630859375,13408.6611328125,5098.18408203125,7837.61328125,8694.3310546875,7583.30029296875,-4711.94580078125,0.0,11622.111328125,12301.6044921875,1622.0411376953125,2041.65771484375,3877.480712890625,5706.1513671875,4147.6884765625,11174.6787109375,8811.15625,23071.765625,-1768.2711181640625,-232.0607452392578,5183.2197265625,13587.474609375,-6739.29833984375,2950.032470703125,18771.490234375,-10987.1220703125,-5362.03369140625,3333.091796875,10847.2509765625,11713.5048828125,6054.24267578125,8769.03515625,4812.87646484375,-0.0,5455.01708984375,27399.859375,31204.22265625,8759.4990234375,18774.66796875,14214.515625,-2889.63330078125,-5985.10107421875,4518.0322265625,14580.8857421875,10443.5283203125,13272.7626953125,10738.373046875,1346.270263671875,325.04400634765625,10404.5869140625,0.0,3490.447998046875,7709.662109375,7013.4794921875,6243.3876953125,11817.6142578125,9171.962890625,16280.8095703125,-13589.859375,2695.719482421875,10313.9873046875,5416.8701171875,4605.4521484375,2702.8720703125,0.0,9695.689453125
4916.19091796875,2737.04541015625,13813.97265625,6707.50927734375,16929.30859375,6045.50048828125,8640.2890625,13426.9404296875,5106.130859375,7853.5078125,8702.2783203125,7587.27392578125,-4703.20361328125,0.0,11627.673828125,12319.8828125,1632.37255859375,2050.39990234375,3885.42822265625,5718.86669921875,4158.02001953125,11186.599609375,8820.693359375,23083.6875,-1753.9659423828125,-223.31874084472656,5195.140625,13606.5478515625,-6732.9404296875,2957.18505859375,18781.02734375,-10983.9443359375,-5357.265625,3333.886474609375,10854.4033203125,11721.4521484375,6065.36865234375,8779.3662109375,4802.544921875,-0.0,5466.14306640625,27414.95703125,31212.171875,8773.009765625,18783.41015625,14230.41015625,-2882.480712890625,-6004.1748046875,4532.33740234375,14593.6015625,10447.501953125,13289.451171875,10751.8837890625,1355.0123291015625,346.5016784667969,10414.123046875,0.0,3516.674072265625,7712.8408203125,7032.55322265625,6227.4931640625,11827.9453125,9184.677734375,16292.73046875,-13575.5537109375,2704.46142578125,10316.3720703125,5424.8173828125,4610.22021484375,2725.124267578125,0.0,9713.1728515625
4933.67529296875,2702.8720703125,13826.6875,6708.3037109375,16949.97265625,6072.52099609375,8664.92578125,13449.1923828125,5125.20458984375,7879.73388671875,8714.19921875,7604.7578125,-4696.05126953125,0.0,11647.5419921875,12344.51953125,1650.6513671875,2071.062744140625,3910.064697265625,5742.70849609375,4175.50439453125,11208.8515625,8840.560546875,23105.14453125,-1729.3294677734375,-196.29795837402344,5228.51953125,13633.568359375,-6713.072265625,2986.590087890625,18803.27734375,-10965.6650390625,-5342.96044921875,3360.9072265625,10872.681640625,11744.4990234375,6088.41552734375,8804.00390625,4797.77685546875,-0.0,5485.216796875,27446.74609375,31229.654296875,8796.8515625,18805.662109375,14252.6630859375,-2878.5068359375,-6012.91650390625,4562.53662109375,14621.4169921875,10468.9599609375,13313.29296875,10755.0625,1349.44921875,367.9593505859375,10431.607421875,0.0,3537.337158203125,7725.556640625,7059.57421875,6235.44091796875,11848.609375,9206.9306640625,16318.9560546875,-13562.8388671875,2721.150634765625,10334.6513671875,5462.96435546875,4631.67822265625,2772.80810546875,0.0,9748.935546875
4930.49609375,2715.587646484375,13860.861328125,6735.32470703125,16966.662109375,6078.08447265625,8673.66796875,13451.576171875,5137.12548828125,7887.68115234375,8714.9931640625,7612.705078125,-4683.3359375,0.0,11657.8740234375,12346.9033203125,1663.366943359375,2082.18896484375,3921.985595703125,5752.24560546875,4192.193359375,11219.18359375,8854.0712890625,23113.88671875,-1719.792724609375,-189.14540100097656,5243.61962890625,13635.953125,-6697.97265625,2993.74267578125,18817.583984375,-10972.8173828125,-5318.32373046875,3379.980712890625,10888.576171875,11754.830078125,6099.5419921875,8814.3349609375,4755.65576171875,-0.0,5516.2109375,27451.515625,31244.75390625,8804.7978515625,18816.7890625,14259.8154296875,-2885.659423828125,-5976.35888671875,4562.53662109375,14625.3896484375,10480.880859375,13318.0615234375,10759.830078125,1337.5281982421875,368.7540588378906,10433.9912109375,0.0,3547.66845703125,7743.83544921875,7057.98486328125,6247.36181640625,11858.9404296875,9217.2626953125,16329.2880859375,-13553.3017578125,2728.30322265625,10348.1611328125,5481.2431640625,4637.2412109375,2794.265625,0.0,9764.8310546875
4891.55419921875,2730.6875,13851.3251953125,6732.14599609375,16938.05078125,6051.0634765625,8645.0576171875,13428.5283203125,5119.6416015625,7872.58154296875,8695.919921875,7591.24755859375,-4682.541015625,0.0,11626.8798828125,12323.0615234375,1637.9356689453125,2054.37353515625,3896.55419921875,5735.55615234375,4165.17236328125,11191.3681640625,8826.255859375,23087.66015625,-1746.018798828125,-217.75563049316406,5199.9091796875,13610.5224609375,-6718.6357421875,2968.311279296875,18790.564453125,-10986.328125,-5342.96044921875,3359.31787109375,10859.9658203125,11730.1943359375,6070.13720703125,8790.4931640625,4741.3505859375,-0.0,5472.50146484375,27418.13671875,31215.349609375,8780.162109375,18790.564453125,14239.15234375,-2885.659423828125,-5950.1328125,4541.0791015625,14601.5478515625,10448.296875,13295.0146484375,10746.3193359375,1317.6600341796875,348.09112548828125,10409.35546875,0.0,3539.72119140625,7727.94091796875,7041.29541015625,6228.2880859375,11833.5087890625,9195.8046875,16318.1630859375,-13572.375,2703.666748046875,10317.166015625,5469.322265625,4617.373046875,2785.523681640625,0.0,9760.8564453125
4905.06494140625,2752.93994140625,13835.4296875,6716.25146484375,16924.5390625,6041.52685546875,8635.5205078125,13426.14453125,5110.8994140625,7866.22314453125,8704.662109375,7587.27392578125,-4692.87255859375,0.0,11617.3427734375,12320.677734375,1626.0146484375,2044.8367919921875,3890.196533203125,5727.609375,4146.09912109375,11184.2158203125,8816.71875,23080.5078125,-1742.0450439453125,-224.90818786621094,5182.4248046875,13604.958984375,-6731.3515625,2959.5693359375,18777.052734375,-10976.791015625,-5376.3388671875,3346.602294921875,10845.6611328125,11721.4521484375,6062.189453125,8784.134765625,4829.5654296875,-0.0,5439.9169921875,27406.21484375,31201.83984375,8773.8037109375,18782.615234375,14235.1787109375,-2862.612548828125,-5959.66943359375,4525.1845703125,14593.6015625,10439.5546875,13291.8359375,10749.4990234375,1335.14404296875,345.7069396972656,10402.9970703125,0.0,3521.4423828125,7715.22509765625,7042.884765625,6231.466796875,11825.5615234375,9188.65234375,16308.6259765625,-13573.169921875,2698.103759765625,10306.8349609375,5466.93798828125,4614.98876953125,2772.80810546875,0.0,9750.525390625
4913.80712890625,2779.960693359375,13860.06640625,6724.19873046875,16940.435546875,6054.24267578125,8649.826171875,13434.0927734375,5117.2578125,7870.197265625,8722.94140625,7592.8369140625,-4703.20361328125,0.0,11632.4423828125,12327.03515625,1638.7303466796875,2059.141845703125,3901.322509765625,5733.966796875,4158.02001953125,11196.13671875,8830.2294921875,23092.427734375,-1730.1241455078125,-209.0136260986328,5205.47265625,13616.8798828125,-6726.5830078125,2968.311279296875,18787.384765625,-10969.638671875,-5362.82861328125,3350.57568359375,10858.376953125,11734.16796875,6075.7001953125,8792.876953125,4869.30224609375,-0.0,5458.99072265625,27420.521484375,31217.732421875,8784.9306640625,18796.125,14241.5361328125,-2841.15478515625,-5974.76953125,4547.43701171875,14603.9326171875,10454.654296875,13298.1943359375,10747.9091796875,1365.34375,354.4489440917969,10415.712890625,0.0,3507.931884765625,7725.556640625,7041.29541015625,6235.44091796875,11835.892578125,9198.1884765625,16307.8310546875,-13564.427734375,2709.229736328125,10321.9345703125,5467.73291015625,4612.6044921875,2774.397705078125,0.0,9747.345703125
4927.3173828125,2768.039794921875,13855.2978515625,6727.37744140625,16938.84375,6051.8583984375,8649.03125,13429.32421875,5117.2578125,7867.81298828125,8718.1728515625,7585.68408203125,-4717.5087890625,0.0,11629.263671875,12322.2666015625,1632.37255859375,2055.962890625,3899.7333984375,5733.171875,4153.25146484375,11190.5732421875,8828.6396484375,23089.25,-1734.8924560546875,-212.19253540039062,5209.44580078125,13611.31640625,-6732.9404296875,2968.311279296875,18783.41015625,-10978.380859375,-5366.80224609375,3344.218017578125,10855.1982421875,11730.1943359375,6074.1103515625,8788.9033203125,4854.9970703125,-0.0,5458.99072265625,27419.724609375,31216.939453125,8780.9560546875,18793.7421875,14238.357421875,-2847.512451171875,-5983.51123046875,4552.20556640625,14599.958984375,10451.4765625,13292.6298828125,10745.525390625,1366.138427734375,345.7069396972656,10411.7392578125,0.0,3496.010986328125,7724.76171875,7034.9375,6233.85107421875,11834.3037109375,9194.21484375,16309.419921875,-13570.78515625,2706.05078125,10317.9619140625,5462.96435546875,4616.57861328125,2777.576416015625,0.0,9750.525390625
4921.75439453125,2714.79296875,13836.224609375,6728.17236328125,16939.640625,6047.08984375,8645.8525390625,13428.5283203125,5114.07861328125,7870.197265625,8703.8681640625,7572.173828125,-4725.4560546875,0.0,11627.673828125,12320.677734375,1625.219970703125,2051.9892578125,3896.55419921875,5731.58251953125,4150.86767578125,11187.39453125,8826.255859375,23085.275390625,-1735.687255859375,-221.72927856445312,5210.24072265625,13605.75390625,-6733.7353515625,2954.80078125,18781.02734375,-10994.275390625,-5369.9814453125,3346.602294921875,10854.4033203125,11725.42578125,6070.93212890625,8786.51953125,4812.87646484375,-0.0,5462.96435546875,27418.13671875,31216.939453125,8775.3935546875,18792.15234375,14239.947265625,-2868.97021484375,-5997.02197265625,4549.8212890625,14591.216796875,10452.2705078125,13292.6298828125,10747.115234375,1334.3492431640625,336.1701965332031,10394.255859375,0.0,3502.368896484375,7716.814453125,7042.08984375,6229.08251953125,11831.1240234375,9193.419921875,16308.6259765625,-13574.759765625,2690.15625,10318.755859375,5473.2958984375,4614.98876953125,2790.2919921875,0.0,9757.677734375
4900.296875,2719.561279296875,13848.1455078125,6710.68798828125,16938.84375,6044.7060546875,8646.6474609375,13426.14453125,5114.07861328125,7864.63427734375,8700.6884765625,7568.20068359375,-4734.1982421875,0.0,11636.416015625,12318.2939453125,1623.6304931640625,2051.9892578125,3896.55419921875,5729.1982421875,4149.2783203125,11185.009765625,8825.4609375,23086.0703125,-1736.4820556640625,-224.11346435546875,5207.8564453125,13603.3701171875,-6734.52978515625,2946.853515625,18778.642578125,-10995.0703125,-5369.9814453125,3337.0654296875,10852.8134765625,11724.630859375,6069.34228515625,8785.724609375,4824.0029296875,-0.0,5458.99072265625,27414.1640625,31216.14453125,8773.8037109375,18791.357421875,14237.5634765625,-2892.017333984375,-6006.55908203125,4552.20556640625,14590.4228515625,10457.8330078125,13290.24609375,10755.0625,1305.739013671875,325.8387145996094,10391.87109375,0.0,3513.4951171875,7725.556640625,7042.884765625,6237.82470703125,11830.330078125,9193.419921875,16306.2421875,-13576.3486328125,2685.387939453125,10326.703125,5462.96435546875,4614.1943359375,2778.37109375,0.0,9752.9091796875
4900.296875,2701.282470703125,13811.587890625,6700.35693359375,16935.66796875,6035.96337890625,8633.931640625,13411.044921875,5099.7734375,7843.1767578125,8687.1787109375,7567.40576171875,-4729.4296875,0.0,11621.31640625,12305.5771484375,1616.47802734375,2044.8367919921875,3886.222900390625,5710.919921875,4146.09912109375,11173.884765625,8817.513671875,23074.9453125,-1754.7607421875,-236.03439331054688,5192.7568359375,13594.626953125,-6738.50390625,2943.6748046875,18771.490234375,-11002.22265625,-5377.1337890625,3331.502197265625,10847.2509765625,11715.0947265625,6059.0107421875,8774.59765625,4783.4716796875,-0.0,5469.322265625,27399.0625,31208.197265625,8763.47265625,18777.84765625,14219.2841796875,-2921.42236328125,-6004.1748046875,4550.61572265625,14583.2705078125,10444.3232421875,13276.736328125,10730.42578125,1289.844482421875,328.222900390625,10380.7451171875,0.0,3502.368896484375,7717.609375,7019.04296875,6224.314453125,11821.587890625,9179.91015625,16284.7841796875,-13584.2958984375,2679.82470703125,10310.8095703125,5431.97021484375,4600.68359375,2733.866455078125,0.0,9717.94140625
4915.39599609375,2690.15625,13826.6875,6677.3095703125,16933.283203125,6028.0166015625,8630.7529296875,13404.6865234375,5091.826171875,7843.1767578125,8681.615234375,7564.2265625,-4715.91943359375,0.0,11614.1630859375,12300.0146484375,1615.6832275390625,2039.2735595703125,3881.45458984375,5706.94580078125,4144.509765625,11169.91015625,8815.12890625,23070.177734375,-1761.1185302734375,-241.5974884033203,5191.16748046875,13586.6806640625,-6734.52978515625,2938.111572265625,18770.6953125,-10999.0439453125,-5373.15966796875,3325.939208984375,10846.4560546875,11711.12109375,6055.037109375,8769.830078125,4759.6298828125,-0.0,5465.3486328125,27392.705078125,31205.8125,8757.9091796875,18771.490234375,14214.515625,-2895.1962890625,-6000.99560546875,4549.8212890625,14576.1171875,10437.1708984375,13269.583984375,10710.556640625,1297.7918701171875,346.5016784667969,10368.029296875,0.0,3491.24267578125,7698.5361328125,7011.890625,6214.77734375,11818.4091796875,9174.3466796875,16280.8095703125,-13581.912109375,2670.2880859375,10305.2451171875,5438.32763671875,4590.3525390625,2744.19775390625,0.0,9720.3251953125
4951.9541015625,2714.79296875,13851.3251953125,6668.56787109375,16935.66796875,6034.3740234375,8638.69921875,13409.455078125,5101.36279296875,7852.71337890625,8694.3310546875,7575.35302734375,-4703.99853515625,0.0,11625.2900390625,12303.98828125,1623.6304931640625,2048.810302734375,3888.60693359375,5716.482421875,4150.07275390625,11173.884765625,8820.693359375,23074.150390625,-1750.787109375,-236.82911682128906,5196.72998046875,13591.44921875,-6731.3515625,2949.23779296875,18777.052734375,-10987.91796875,-5362.03369140625,3324.349609375,10853.6083984375,11715.0947265625,6065.36865234375,8776.1875,4763.60302734375,-0.0,5461.375,27396.6796875,31209.787109375,8762.6767578125,18781.8203125,14223.2578125,-2882.480712890625,-5988.27978515625,4550.61572265625,14581.6806640625,10448.296875,13274.3525390625,10729.630859375,1320.8388671875,348.09112548828125,10384.71875,0.0,3496.010986328125,7707.27783203125,7021.42724609375,6222.72509765625,11824.767578125,9182.2939453125,16293.525390625,-13572.375,2682.208984375,10317.166015625,5448.6591796875,4599.09423828125,2761.681884765625,0.0,9733.8359375
4924.93310546875,2730.6875,13825.8935546875,6698.76708984375,16940.435546875,6037.55322265625,8640.2890625,13409.455078125,5106.130859375,7846.35546875,8684.7939453125,7573.76318359375,-4695.2568359375,0.0,11626.8798828125,12302.3984375,1629.193603515625,2050.39990234375,3890.9912109375,5716.482421875,4157.22509765625,11179.447265625,8823.0771484375,23075.73828125,-1739.660888671875,-234.44493103027344,5200.7041015625,13593.8330078125,-6728.96728515625,2958.774658203125,18781.02734375,-10986.328125,-5362.03369140625,3338.65478515625,10858.376953125,11719.0673828125,6066.9580078125,8777.77734375,4781.08740234375,-0.0,5477.26953125,27403.03515625,31212.171875,8762.6767578125,18783.41015625,14220.8740234375,-2888.043701171875,-6010.5322265625,4540.28466796875,14583.2705078125,10450.6806640625,13272.7626953125,10738.373046875,1338.322998046875,346.5016784667969,10393.4599609375,0.0,3489.6533203125,7724.76171875,7015.86376953125,6222.72509765625,11827.1513671875,9183.8837890625,16291.1416015625,-13571.580078125,2688.56689453125,10317.166015625,5431.97021484375,4608.63134765625,2738.634765625,0.0,9721.9150390625
4882.8125,2724.32958984375,13821.919921875,6716.25146484375,16932.48828125,6036.75830078125,8633.931640625,13407.0712890625,5099.7734375,7836.81884765625,8677.6416015625,7565.021484375,-4686.51416015625,0.0,11622.9052734375,12300.0146484375,1626.8094482421875,2044.8367919921875,3886.222900390625,5706.94580078125,4151.662109375,11179.447265625,8814.3349609375,23069.380859375,-1752.3765869140625,-231.26602172851562,5191.16748046875,13590.6533203125,-6724.9931640625,2951.6220703125,18776.2578125,-10993.48046875,-5363.623046875,3347.39697265625,10850.4296875,11716.68359375,6060.60009765625,8771.419921875,4737.376953125,-0.0,5466.14306640625,27407.01171875,31206.607421875,8760.29296875,18774.66796875,14212.92578125,-2883.275390625,-6047.88427734375,4518.8271484375,14579.2958984375,10447.501953125,13270.3779296875,10728.0419921875,1326.402099609375,336.9649353027344,10387.8974609375,0.0,3485.6796875,7716.02001953125,7013.4794921875,6217.95654296875,11819.9990234375,9175.9365234375,16275.248046875,-13581.912109375,2681.414306640625,10314.7822265625,5419.25439453125,4614.1943359375,2725.9189453125,0.0,9706.814453125
4876.45458984375,2706.845458984375,13854.50390625,6717.04638671875,16938.05078125,6048.67919921875,8645.0576171875,13419.787109375,5114.07861328125,7855.89208984375,8703.8681640625,7580.12158203125,-4689.693359375,0.0,11636.416015625,12314.3193359375,1636.34619140625,2055.168212890625,3897.34912109375,5721.2509765625,4161.19921875,11188.984375,8824.666015625,23081.302734375,-1754.7607421875,-223.31874084472656,5199.9091796875,13607.3427734375,-6718.6357421875,2959.5693359375,18784.205078125,-10978.380859375,-5349.31787109375,3343.423095703125,10859.9658203125,11725.42578125,6071.7265625,8781.7509765625,4734.1982421875,-0.0,5473.2958984375,27418.931640625,31213.759765625,8773.8037109375,18788.97265625,14226.4365234375,-2909.501220703125,-6012.91650390625,4545.05322265625,14594.3955078125,10459.4228515625,13284.68359375,10734.3984375,1320.044189453125,332.99127197265625,10398.228515625,0.0,3492.03759765625,7726.35107421875,7027.78466796875,6229.87744140625,11829.53515625,9188.65234375,16289.552734375,-13579.5283203125,2690.951171875,10327.498046875,5447.86474609375,4621.34716796875,2761.681884765625,0.0,9731.4521484375
4834.333984375,2648.830322265625,13814.7666015625,6691.61474609375,16922.15625,6024.83740234375,8618.037109375,13389.587890625,5084.67333984375,7827.28173828125,8688.767578125,7564.2265625,-4711.1513671875,0.0,11603.0380859375,12282.53125,1614.09375,2031.3262939453125,3871.917724609375,5694.23046875,4138.15185546875,11165.1416015625,8803.2080078125,23057.4609375,-1757.939697265625,-244.77639770507812,5176.8623046875,13578.732421875,-6741.6826171875,2942.8798828125,18761.953125,-10998.2490234375,-5376.3388671875,3317.991943359375,10837.7138671875,11699.994140625,6044.7060546875,8756.3203125,4793.00830078125,-0.0,5466.14306640625,27391.115234375,31189.123046875,8748.3720703125,18764.337890625,14201.0048828125,-2940.495849609375,-5999.40625,4528.36376953125,14573.7333984375,10426.044921875,13252.89453125,10716.12109375,1307.32861328125,297.2284851074219,10379.1552734375,0.0,3467.40087890625,7709.662109375,6997.58544921875,6212.39306640625,11804.8984375,9163.220703125,16265.7109375,-13600.1904296875,2674.26171875,10294.1201171875,5424.8173828125,4596.7099609375,2723.534912109375,0.0,9702.046875
4874.865234375,2671.082763671875,13758.341796875,6681.28369140625,16929.30859375,6029.60595703125,8620.421875,13395.150390625,5079.11083984375,7828.076171875,8684.7939453125,7572.96875,-4703.99853515625,0.0,11603.0380859375,12286.50390625,1620.4515380859375,2034.505126953125,3873.50732421875,5693.435546875,4145.30419921875,11169.91015625,8805.5927734375,23060.640625,-1738.8662109375,-240.00804138183594,5179.24658203125,13580.322265625,-6736.9140625,2946.853515625,18767.515625,-10985.5341796875,-5388.259765625,3323.554931640625,10843.27734375,11705.5576171875,6047.08984375,8761.087890625,4834.333984375,-0.0,5497.9326171875,27391.91015625,31193.09765625,8753.140625,18760.36328125,14204.1845703125,-2892.017333984375,-5993.84326171875,4527.56884765625,14579.2958984375,10426.044921875,13258.45703125,10717.7099609375,1335.9388427734375,282.128662109375,10388.6923828125,0.0,3494.421630859375,7697.7412109375,7002.353515625,6224.314453125,11810.4619140625,9165.6044921875,16262.53125,-13590.6533203125,2683.798583984375,10292.5302734375,5432.7646484375,4576.841796875,2726.7138671875,0.0,9703.6357421875
4928.90673828125,2717.17724609375,13824.3037109375,6712.27783203125,16936.4609375,6040.73193359375,8633.13671875,13411.83984375,5093.41552734375,7847.9453125,8697.509765625,7578.53173828125,-4699.22998046875,0.0,11613.369140625,12304.783203125,1632.37255859375,2045.63134765625,3887.017578125,5710.125,4154.04638671875,11185.009765625,8815.9248046875,23072.560546875,-1722.9715576171875,-225.7029266357422,5193.5517578125,13594.626953125,-6728.17236328125,2946.05908203125,18779.435546875,-10981.5595703125,-5356.470703125,3344.218017578125,10850.4296875,11717.478515625,6059.0107421875,8773.8037109375,4793.00830078125,-0.0,5462.16943359375,27409.39453125,31205.8125,8765.8564453125,18773.078125,14220.078125,-2865.791259765625,-6011.3271484375,4540.28466796875,14589.626953125,10436.3759765625,13276.736328125,10728.0419921875,1348.6544189453125,297.2284851074219,10395.8447265625,0.0,3522.237060546875,7705.6884765625,7023.8115234375,6217.16162109375,11822.3828125,9179.91015625,16286.373046875,-13573.9638671875,2691.745849609375,10303.65625,5452.6328125,4582.4052734375,2764.06591796875,0.0,9736.220703125
4918.5751953125,2673.467041015625,13875.1669921875,6692.40966796875,16931.69140625,6035.96337890625,8629.1630859375,13412.634765625,5090.23681640625,7847.9453125,8700.6884765625,7564.2265625,-4707.177734375,0.0,11611.779296875,12305.5771484375,1625.219970703125,2040.863037109375,3883.838623046875,5709.330078125,4147.6884765625,11178.65234375,8811.951171875,23070.970703125,-1730.1241455078125,-228.8818359375,5184.0146484375,13593.8330078125,-6736.9140625,2938.906494140625,18773.875,-10992.6865234375,-5354.08642578125,3333.886474609375,10844.0712890625,11712.7099609375,6055.037109375,8770.625,4774.7294921875,-0.0,5443.89111328125,27407.8046875,31204.22265625,8763.47265625,18769.8984375,14219.2841796875,-2857.843994140625,-6039.9375,4547.43701171875,14582.474609375,10433.197265625,13276.736328125,10726.4521484375,1318.4547119140625,337.7596435546875,10389.4873046875,0.0,3512.700439453125,7698.5361328125,7021.42724609375,6202.06201171875,11816.8193359375,9175.1416015625,16291.1416015625,-13581.912109375,2683.798583984375,10301.2724609375,5434.3544921875,4583.99462890625,2759.297607421875,0.0,9738.6044921875
4911.4228515625,2683.798583984375,13865.6298828125,6683.66748046875,16933.283203125,6047.88427734375,8633.13671875,13428.5283203125,5102.95263671875,7861.455078125,8700.6884765625,7567.40576171875,-4713.53515625,0.0,11626.8798828125,12323.8564453125,1628.39892578125,2046.426025390625,3890.196533203125,5722.0458984375,4151.662109375,11183.4208984375,8817.513671875,23078.123046875,-1744.42919921875,-220.93455505371094,5169.70947265625,13608.9326171875,-6739.29833984375,2954.80078125,18778.642578125,-10990.3017578125,-5354.88134765625,3337.0654296875,10849.634765625,11717.478515625,6059.0107421875,8780.162109375,4791.41845703125,-0.0,5452.6328125,27415.751953125,31205.8125,8774.59765625,18778.642578125,14231.205078125,-2857.04931640625,-6027.2216796875,4545.05322265625,14592.01171875,10447.501953125,13292.6298828125,10725.6572265625,1332.7598876953125,360.8067932128906,10402.2021484375,0.0,3519.05810546875,7716.02001953125,7041.29541015625,6205.24072265625,11822.3828125,9185.4736328125,16307.8310546875,-13581.912109375,2692.54052734375,10317.166015625,5435.943359375,4601.478515625,2764.06591796875,0.0,9754.498046875
4924.93310546875,2762.4765625,13776.6201171875,6701.1513671875,16945.203125,6062.189453125,8650.6201171875,13452.37109375,5122.8203125,7884.50244140625,8711.0205078125,7586.47900390625,-4698.435546875,0.0,11638.0048828125,12348.4921875,1639.5250244140625,2062.32080078125,3907.680419921875,5744.29833984375,4166.76171875,11192.9580078125,8834.203125,23094.8125,-1747.608154296875,-207.42416381835938,5195.140625,13627.2119140625,-6721.814453125,2974.669189453125,18792.15234375,-10974.4072265625,-5358.060546875,3351.37060546875,10864.734375,11731.7841796875,6077.28955078125,8799.2353515625,4722.27734375,-0.0,5482.83251953125,27423.701171875,31216.14453125,8792.876953125,18796.919921875,14254.251953125,-2864.99658203125,-5979.5380859375,4545.05322265625,14609.49609375,10461.0126953125,13318.8564453125,10743.935546875,1361.3701171875,368.7540588378906,10418.09765625,0.0,3573.099853515625,7732.70947265625,7072.2900390625,6236.2353515625,11839.072265625,9203.751953125,16332.4677734375,-13567.6064453125,2712.40869140625,10330.6767578125,5457.4013671875,4622.93603515625,2784.72900390625,0.0,9781.51953125
4915.39599609375,2780.75537109375,13854.50390625,6730.556640625,16957.125,6068.5478515625,8664.92578125,13453.9599609375,5125.20458984375,7882.91259765625,8730.09375,7604.7578125,-4683.3359375,0.0,11647.5419921875,12345.314453125,1654.625,2075.8310546875,3918.806640625,5742.70849609375,4181.86181640625,11204.0830078125,8846.1240234375,23105.14453125,-1728.53466796875,-196.29795837402344,5218.98291015625,13633.568359375,-6701.1513671875,2988.179443359375,18805.662109375,-10966.4599609375,-5338.19189453125,3365.67578125,10879.0400390625,11743.705078125,6089.21044921875,8807.1826171875,4751.68212890625,-0.0,5502.70068359375,27425.2890625,31230.44921875,8801.619140625,18806.45703125,14255.8408203125,-2870.5595703125,-5943.775390625,4565.7158203125,14618.2373046875,10470.5498046875,13316.4716796875,10745.525390625,1366.9332275390625,381.4697265625,10429.22265625,0.0,3569.9208984375,7734.298828125,7060.369140625,6254.51416015625,11849.4033203125,9210.109375,16324.5205078125,-13547.73828125,2725.9189453125,10339.4189453125,5466.93798828125,4627.70458984375,2772.80810546875,0.0,9756.087890625
4890.759765625,2784.72900390625,13915.6982421875,6716.25146484375,16960.302734375,6072.52099609375,8670.4892578125,13454.7548828125,5134.7412109375,7891.65478515625,8734.0673828125,7607.14208984375,-4677.7724609375,0.0,11653.900390625,12346.9033203125,1658.5985107421875,2079.010009765625,3925.164794921875,5751.451171875,4183.451171875,11206.4677734375,8850.09765625,23109.912109375,-1715.0242919921875,-192.32432556152344,5229.314453125,13639.1328125,-6693.20458984375,2989.76904296875,18808.841796875,-10956.923828125,-5319.91357421875,3358.523193359375,10883.013671875,11748.4736328125,6096.36328125,8812.7451171875,4861.35498046875,-0.0,5502.70068359375,27429.26171875,31237.6015625,8804.7978515625,18812.814453125,14262.994140625,-2868.175537109375,-5958.875,4560.15234375,14620.6220703125,10477.7021484375,13317.267578125,10737.578125,1370.112060546875,383.0591735839844,10429.22265625,0.0,3540.515869140625,7745.4248046875,7063.5478515625,6237.0302734375,11854.9658203125,9217.2626953125,16335.6455078125,-13545.353515625,2722.740234375,10344.1875,5492.369140625,4631.67822265625,2806.9814453125,0.0,9775.9560546875
4881.22314453125,2787.11328125,13913.3134765625,6736.11962890625,16950.765625,6068.5478515625,8663.3369140625,13442.833984375,5129.97314453125,7883.7080078125,8723.7353515625,7596.81103515625,-4688.8984375,0.0,11642.7734375,12337.3671875,1653.0355224609375,2071.857421875,3918.01220703125,5745.0927734375,4173.1201171875,11204.87890625,8843.7392578125,23103.556640625,-1719.792724609375,-201.86106872558594,5220.57177734375,13628.80078125,-6704.33056640625,2978.642822265625,18800.89453125,-10956.1279296875,-5337.39697265625,3362.49658203125,10873.4765625,11742.115234375,6089.21044921875,8806.3876953125,4922.548828125,-0.0,5487.6005859375,27429.26171875,31230.44921875,8796.0556640625,18803.27734375,14255.046875,-2847.512451171875,-5989.07470703125,4556.17919921875,14615.05859375,10466.5751953125,13307.73046875,10730.42578125,1362.164794921875,371.13824462890625,10419.6865234375,0.0,3512.700439453125,7737.4775390625,7054.8056640625,6235.44091796875,11850.1982421875,9210.904296875,16326.904296875,-13549.328125,2713.998046875,10334.6513671875,5482.83251953125,4626.115234375,2795.060302734375,0.0,9767.21484375
4865.328125,2748.171630859375,13864.8349609375,6761.55078125,16946.79296875,6052.65283203125,8652.2099609375,13425.3505859375,5116.462890625,7864.63427734375,8707.046875,7581.7109375,-4692.87255859375,0.0,11634.826171875,12319.8828125,1642.7039794921875,2061.526123046875,3904.501708984375,5728.40380859375,4165.96728515625,11199.3154296875,8834.998046875,23089.25,-1737.2767333984375,-220.93455505371094,5207.8564453125,13607.3427734375,-6713.072265625,2965.92724609375,18795.33203125,-10972.8173828125,-5347.728515625,3367.264892578125,10863.9404296875,11731.7841796875,6077.28955078125,8792.0830078125,4860.56005859375,-0.0,5477.26953125,27420.521484375,31221.708984375,8780.9560546875,18792.947265625,14237.5634765625,-2853.07568359375,-5995.4326171875,4558.5634765625,14595.9853515625,10459.4228515625,13289.451171875,10721.68359375,1318.4547119140625,370.3435363769531,10406.1767578125,0.0,3525.416015625,7723.96728515625,7034.9375,6221.93017578125,11837.482421875,9198.9833984375,16306.2421875,-13554.0966796875,2699.69287109375,10326.703125,5468.52734375,4614.98876953125,2767.2451171875,0.0,9740.193359375
4873.27587890625,2680.619384765625,13820.3310546875,6743.2724609375,16938.05078125,6039.9375,8641.083984375,13417.4033203125,5107.720703125,7853.5078125,8691.1513671875,7565.021484375,-4709.56201171875,0.0,11629.263671875,12312.7294921875,1628.39892578125,2052.783935546875,3893.37548828125,5718.86669921875,4158.81494140625,11186.599609375,8824.666015625,23077.330078125,-1759.529052734375,-232.0607452392578,5199.1142578125,13598.6015625,-6738.50390625,2948.443115234375,18783.41015625,-10990.3017578125,-5354.88134765625,3356.93359375,10855.9921875,11720.6572265625,6066.16357421875,8780.9560546875,4775.52392578125,-0.0,5482.83251953125,27412.572265625,31211.376953125,8770.625,18781.02734375,14226.4365234375,-2888.838623046875,-6009.7373046875,4548.2314453125,14579.2958984375,10451.4765625,13281.5048828125,10727.24609375,1295.4075927734375,355.2436828613281,10392.666015625,0.0,3522.237060546875,7715.22509765625,7026.1953125,6191.73046875,11826.35546875,9186.267578125,16294.3212890625,-13574.759765625,2684.59326171875,10317.9619140625,5456.6064453125,4609.42578125,2758.5029296875,0.0,9729.8623046875
4932.08544921875,2645.651611328125,13860.861328125,6662.2099609375,16929.30859375,6035.96337890625,8639.4951171875,13416.607421875,5106.92578125,7855.89208984375,8700.6884765625,7562.63720703125,-4716.71435546875,0.0,11627.673828125,12311.140625,1617.272705078125,2045.63134765625,3891.785888671875,5718.072265625,4145.30419921875,11174.6787109375,8819.8974609375,23076.53515625,-1751.581787109375,-236.82911682128906,5196.72998046875,13599.3955078125,-6738.50390625,2947.648193359375,18773.875,-10985.5341796875,-5376.3388671875,3326.73388671875,10848.044921875,11714.298828125,6064.57373046875,8778.572265625,4802.544921875,-0.0,5458.1962890625,27401.447265625,31208.9921875,8766.6513671875,18782.615234375,14224.8466796875,-2873.738525390625,-6020.86376953125,4546.64208984375,14577.7060546875,10450.6806640625,13282.298828125,10734.3984375,1308.91796875,345.7069396972656,10386.3076171875,0.0,3511.90576171875,7717.609375,7029.37451171875,6199.677734375,11825.5615234375,9186.267578125,16293.525390625,-13577.1435546875,2682.208984375,10317.166015625,5460.58056640625,4618.962890625,2767.2451171875,0.0,9735.4248046875
4959.9013671875,2683.798583984375,13857.6826171875,6652.67333984375,16929.30859375,6041.52685546875,8641.083984375,13421.3759765625,5110.10498046875,7860.66064453125,8702.2783203125,7566.61083984375,-4717.5087890625,0.0,11630.05859375,12315.9091796875,1618.0673828125,2045.63134765625,3894.170166015625,5719.66162109375,4142.919921875,11177.0625,8822.2822265625,23081.302734375,-1734.8924560546875,-229.6765594482422,5204.677734375,13605.75390625,-6735.32470703125,2956.390380859375,18776.2578125,-10995.0703125,-5381.107421875,3321.965576171875,10849.634765625,11717.478515625,6067.7529296875,8784.134765625,4794.59765625,-0.0,5451.04345703125,27405.419921875,31210.580078125,8772.2138671875,18785.794921875,14230.41015625,-2869.76513671875,-5994.63818359375,4543.46337890625,14586.4482421875,10453.064453125,13286.2734375,10724.8623046875,1300.970703125,344.11749267578125,10384.71875,0.0,3504.753173828125,7719.19873046875,7035.732421875,6225.10888671875,11826.35546875,9189.4462890625,16295.1142578125,-13574.759765625,2686.977294921875,10321.140625,5469.322265625,4611.81005859375,2783.139404296875,0.0,9748.935546875
4948.77490234375,2736.250732421875,13848.1455078125,6709.8935546875,16931.69140625,6047.08984375,8640.2890625,13425.3505859375,5105.33642578125,7863.83935546875,8711.0205078125,7574.55810546875,-4715.12451171875,0.0,11622.111328125,12319.8828125,1621.246337890625,2050.39990234375,3895.759521484375,5721.2509765625,4148.4833984375,11183.4208984375,8824.666015625,23084.482421875,-1736.4820556640625,-225.7029266357422,5199.9091796875,13612.90625,-6733.7353515625,2961.15869140625,18780.232421875,-10995.865234375,-5375.5439453125,3333.886474609375,10852.8134765625,11721.4521484375,6066.9580078125,8784.9306640625,4807.3134765625,-0.0,5459.78564453125,27407.8046875,31212.171875,8777.77734375,18783.41015625,14231.9990234375,-2868.175537109375,-5964.43798828125,4534.72119140625,14595.19140625,10444.3232421875,13289.451171875,10758.240234375,1306.5338134765625,336.9649353027344,10391.87109375,0.0,3502.368896484375,7710.45703125,7039.70556640625,6230.67236328125,11827.9453125,9188.65234375,16302.2666015625,-13577.9384765625,2688.56689453125,10314.7822265625,5462.16943359375,4592.73681640625,2787.11328125,0.0,9756.8828125
4940.82763671875,2733.866455078125,13840.1982421875,6719.4306640625,16945.203125,6052.65283203125,8646.6474609375,13434.0927734375,5108.51513671875,7873.3759765625,8699.8935546875,7577.7373046875,-4694.4619140625,0.0,11620.521484375,12327.03515625,1624.42529296875,2056.757568359375,3902.117431640625,5731.58251953125,4158.81494140625,11188.189453125,8831.0244140625,23088.455078125,-1732.50830078125,-220.93455505371094,5205.47265625,13617.6748046875,-6724.19873046875,2961.15869140625,18785.794921875,-10996.6591796875,-5366.80224609375,3335.475830078125,10859.9658203125,11726.2197265625,6071.7265625,8790.4931640625,4798.5712890625,-0.0,5484.42236328125,27409.39453125,31222.501953125,8784.134765625,18788.1796875,14239.947265625,-2872.94384765625,-5980.3330078125,4544.25830078125,14603.9326171875,10443.5283203125,13297.3984375,10759.830078125,1324.8125,325.04400634765625,10395.0498046875,0.0,3513.4951171875,7700.919921875,7047.6533203125,6231.466796875,11834.3037109375,9194.21484375,16322.1357421875,-13577.1435546875,2689.361572265625,10311.603515625,5476.474609375,4595.12109375,2803.0078125,0.0,9778.3408203125
4939.23828125,2726.7138671875,13805.23046875,6698.76708984375,16953.150390625,6059.80517578125,8658.568359375,13444.423828125,5118.8466796875,7886.09228515625,8698.3037109375,7583.30029296875,-4673.00390625,0.0,11630.8525390625,12337.3671875,1631.577880859375,2063.91015625,3910.859619140625,5743.50341796875,4165.96728515625,11194.546875,8839.7666015625,23097.197265625,-1725.355712890625,-216.96090698242188,5214.21435546875,13620.853515625,-6712.27783203125,2969.10595703125,18795.33203125,-10990.3017578125,-5362.82861328125,3340.244384765625,10867.9130859375,11734.16796875,6083.6474609375,8800.029296875,4781.08740234375,-0.0,5492.369140625,27418.13671875,31231.244140625,8791.287109375,18800.89453125,14251.8681640625,-2911.0908203125,-5988.27978515625,4554.58984375,14606.31640625,10454.654296875,13308.525390625,10747.115234375,1333.5545654296875,317.0967102050781,10410.9453125,0.0,3533.36328125,7708.07275390625,7061.16357421875,6225.10888671875,11843.044921875,9206.9306640625,16335.6455078125,-13569.1953125,2696.51416015625,10321.9345703125,5482.0380859375,4605.4521484375,2818.90234375,0.0,9802.9775390625
4964.669921875,2740.22412109375,13821.919921875,6724.9931640625,16963.482421875,6082.85302734375,8675.2578125,13464.2919921875,5144.27783203125,7897.2177734375,8726.1201171875,7607.93701171875,-4643.59912109375,0.0,11651.515625,12357.2353515625,1657.0091552734375,2085.367919921875,3929.93310546875,5759.39794921875,4189.0146484375,11219.978515625,8855.66015625,23118.654296875,-1699.1297607421875,-194.70851135253906,5214.21435546875,13643.10546875,-6689.23046875,2998.510986328125,18820.76171875,-10968.8447265625,-5332.62890625,3368.8544921875,10886.1923828125,11758.009765625,6100.33642578125,8821.4873046875,4774.7294921875,-0.0,5511.44287109375,27444.36328125,31240.78125,8813.5400390625,18820.76171875,14266.9677734375,-2881.68603515625,-5966.02783203125,4566.5107421875,14625.3896484375,10474.5224609375,13329.1884765625,10757.4462890625,1370.9068603515625,366.369873046875,10443.5283203125,0.0,3577.0732421875,7742.24609375,7073.87939453125,6257.69287109375,11862.9140625,9226.798828125,16334.8525390625,-13537.4072265625,2722.740234375,10341.8037109375,5473.2958984375,4633.26806640625,2787.907958984375,0.0,9792.6455078125
4959.1064453125,2764.86083984375,13863.24609375,6725.7880859375,16968.25,6097.15771484375,8688.767578125,13479.3916015625,5161.76220703125,7913.9072265625,8749.9619140625,7621.447265625,-4652.34130859375,0.0,11661.8466796875,12374.71875,1670.51953125,2097.288818359375,3944.23828125,5774.498046875,4199.34619140625,11231.1044921875,8867.5810546875,23132.166015625,-1691.1824951171875,-179.60865783691406,5244.4140625,13660.58984375,-6682.078125,3000.895263671875,18830.298828125,-10951.359375,-5311.1708984375,3377.5966796875,10895.7294921875,11769.9306640625,6114.6416015625,8835.79296875,4815.26025390625,-0.0,5506.67431640625,27455.48828125,31251.908203125,8829.4345703125,18833.478515625,14281.2724609375,-2834.002197265625,-5943.775390625,4568.89501953125,14640.490234375,10484.0595703125,13343.4931640625,10779.6982421875,1389.9803466796875,391.0064697265625,10454.654296875,0.0,3584.225830078125,7764.498046875,7091.36328125,6283.12451171875,11876.423828125,9239.5146484375,16346.7734375,-13523.1015625,2736.250732421875,10352.9287109375,5495.54833984375,4655.52001953125,2813.33935546875,0.0,9804.56640625
4918.5751953125,2756.11865234375,13894.240234375,6728.96728515625,16967.455078125,6088.41552734375,8682.41015625,13467.470703125,5153.81494140625,7898.01318359375,8752.345703125,7611.91015625,-4681.74609375,0.0,11661.8466796875,12361.208984375,1666.5458984375,2092.5205078125,3937.880126953125,5760.19287109375,4192.98779296875,11225.541015625,8863.6083984375,23127.3984375,-1696.7454833984375,-183.58230590820312,5246.7978515625,13648.6689453125,-6695.58837890625,2988.179443359375,18824.736328125,-10947.38671875,-5317.529296875,3376.007080078125,10893.3447265625,11765.162109375,6107.4892578125,8827.0498046875,4847.0498046875,-0.0,5500.31640625,27448.3359375,31251.11328125,8820.693359375,18823.146484375,14270.94140625,-2819.697021484375,-5946.9541015625,4576.841796875,14632.54296875,10484.0595703125,13332.3671875,10788.4404296875,1370.9068603515625,387.8275451660156,10446.7080078125,0.0,3556.41064453125,7762.1142578125,7073.08447265625,6275.9716796875,11872.451171875,9230.7734375,16335.6455078125,-13529.4599609375,2727.508544921875,10351.33984375,5469.322265625,4649.95703125,2789.497314453125,0.0,9764.03515625
4883.607421875,2727.508544921875,13901.392578125,6721.01953125,16952.35546875,6069.34228515625,8662.541015625,13449.986328125,5128.3837890625,7874.17138671875,8731.6826171875,7590.45263671875,-4711.1513671875,0.0,11644.36328125,12342.9296875,1653.0355224609375,2075.036376953125,3918.01220703125,5735.55615234375,4177.88818359375,11208.0576171875,8845.3291015625,23106.732421875,-1716.61376953125,-203.4505157470703,5224.5458984375,13628.80078125,-6711.48291015625,2969.10595703125,18806.45703125,-10967.2548828125,-5331.03955078125,3358.523193359375,10875.0654296875,11745.2939453125,6086.826171875,8806.3876953125,4857.38134765625,-0.0,5482.83251953125,27427.673828125,31233.62890625,8800.82421875,18802.484375,14249.484375,-2822.081298828125,-5979.5380859375,4568.10009765625,14612.6748046875,10466.5751953125,13314.087890625,10776.51953125,1337.5281982421875,367.16461181640625,10418.8916015625,0.0,3539.72119140625,7731.11962890625,7052.42138671875,6241.79833984375,11852.58203125,9210.109375,16309.419921875,-13550.91796875,2706.845458984375,10334.6513671875,5448.6591796875,4623.73095703125,2751.350341796875,0.0,9725.09375
4906.654296875,2725.124267578125,13888.6767578125,6758.3720703125,16958.712890625,6077.28955078125,8664.92578125,13453.166015625,5132.35693359375,7884.50244140625,8734.8623046875,7589.658203125,-4700.02490234375,0.0,11646.748046875,12346.9033203125,1657.8038330078125,2079.8046875,3921.985595703125,5744.29833984375,4185.83544921875,11219.18359375,8850.8916015625,23110.708984375,-1706.2822265625,-197.88742065429688,5226.13525390625,13631.9794921875,-6706.71484375,2974.669189453125,18814.40625,-10972.0234375,-5323.091796875,3372.828125,10879.833984375,11751.6513671875,6090.7998046875,8811.15625,4830.3603515625,-0.0,5492.369140625,27440.388671875,31238.3984375,8803.2080078125,18806.45703125,14257.4306640625,-2819.697021484375,-5981.12744140625,4573.6630859375,14615.853515625,10469.75390625,13316.4716796875,10751.087890625,1332.7598876953125,367.9593505859375,10414.91796875,0.0,3545.2841796875,7731.11962890625,7061.16357421875,6229.08251953125,11857.3505859375,9214.8779296875,16326.904296875,-13550.91796875,2706.05078125,10337.03515625,5481.2431640625,4616.57861328125,2786.318603515625,0.0,9758.47265625
4941.6220703125,2715.587646484375,13886.2919921875,6735.32470703125,16953.9453125,6071.7265625,8665.720703125,13451.576171875,5130.767578125,7890.0654296875,8728.50390625,7586.47900390625,-4700.8193359375,0.0,11639.5947265625,12344.51953125,1653.0355224609375,2074.24169921875,3918.806640625,5748.27197265625,4177.09375,11213.6201171875,8846.1240234375,23109.1171875,-1707.0770263671875,-205.83470153808594,5220.57177734375,13629.595703125,-6713.072265625,2978.642822265625,18808.841796875,-10969.638671875,-5331.03955078125,3370.444091796875,10875.0654296875,11748.4736328125,6088.41552734375,8809.56640625,4784.26611328125,-0.0,5486.80615234375,27435.62109375,31235.21875,8800.029296875,18804.869140625,14259.0205078125,-2836.386474609375,-5976.35888671875,4570.484375,14611.0849609375,10464.19140625,13315.677734375,10731.220703125,1330.375732421875,353.65423583984375,10410.9453125,0.0,3541.310546875,7733.50390625,7069.11083984375,6229.08251953125,11853.376953125,9214.8779296875,16334.056640625,-13552.5068359375,2704.46142578125,10331.4716796875,5489.1904296875,4607.83642578125,2809.365478515625,0.0,9782.314453125
4921.75439453125,2705.256103515625,13867.21875,6709.8935546875,16945.203125,6058.21630859375,8653.7998046875,13438.0654296875,5127.5888671875,7870.99169921875,8718.9677734375,7576.9423828125,-4712.740234375,0.0,11635.62109375,12330.21484375,1643.498779296875,2063.91015625,3909.269775390625,5736.35107421875,4168.3515625,11200.1103515625,8835.79296875,23098.787109375,-1719.792724609375,-218.5503692626953,5207.0615234375,13618.46875,-6724.19873046875,2960.364013671875,18797.716796875,-10979.9697265625,-5336.6025390625,3352.165283203125,10865.529296875,11738.140625,6078.87890625,8799.2353515625,4742.9404296875,-0.0,5481.2431640625,27422.109375,31223.296875,8788.9033203125,18795.33203125,14244.7158203125,-2857.04931640625,-5986.6904296875,4560.15234375,14599.958984375,10458.62890625,13300.578125,10734.3984375,1315.2757568359375,331.4018249511719,10401.408203125,0.0,3534.157958984375,7738.27197265625,7049.24267578125,6215.572265625,11843.8408203125,9205.341796875,16308.6259765625,-13562.04296875,2694.924560546875,10326.703125,5455.81201171875,4626.115234375,2771.218505859375,0.0,9740.193359375
4892.34912109375,2707.640380859375,13887.087890625,6695.58837890625,16937.255859375,6047.88427734375,8644.263671875,13425.3505859375,5114.87353515625,7861.455078125,8703.8681640625,7568.20068359375,-4713.53515625,0.0,11626.083984375,12315.9091796875,1637.9356689453125,2058.346923828125,3900.52783203125,5722.8408203125,4164.3779296875,11192.9580078125,8827.845703125,23089.25,-1745.2239990234375,-228.8818359375,5194.34619140625,13604.1640625,-6732.9404296875,2941.29052734375,18791.357421875,-10999.0439453125,-5333.423828125,3348.986328125,10860.7607421875,11729.3994140625,6069.34228515625,8789.6982421875,4664.26220703125,-0.0,5473.2958984375,27411.779296875,31216.14453125,8778.572265625,18785.0,14234.3837890625,-2867.380859375,-6000.20068359375,4551.41064453125,14589.626953125,10448.296875,13287.0673828125,10728.0419921875,1297.7918701171875,325.8387145996094,10392.666015625,0.0,3502.368896484375,7722.3779296875,7034.14306640625,6201.26708984375,11835.0986328125,9195.009765625,16292.73046875,-13577.9384765625,2684.59326171875,10317.9619140625,5464.5537109375,4615.78369140625,2770.423828125,0.0,9732.24609375
4866.123046875,2716.38232421875,13858.4775390625,6690.025390625,16925.333984375,6043.1162109375,8633.931640625,13415.0185546875,5093.41552734375,7854.30224609375,8693.5361328125,7564.2265625,-4712.740234375,0.0,11607.806640625,12306.373046875,1628.39892578125,2051.1943359375,3890.196533203125,5708.53564453125,4153.25146484375,11186.599609375,8819.103515625,23079.712890625,-1757.1448974609375,-231.26602172851562,5184.80908203125,13598.6015625,-6739.29833984375,2945.26416015625,18782.615234375,-10996.6591796875,-5351.7021484375,3333.091796875,10851.2236328125,11721.4521484375,6059.0107421875,8781.7509765625,4758.0400390625,-0.0,5461.375,27410.189453125,31205.8125,8770.625,18769.10546875,14224.8466796875,-2879.3017578125,-6034.3740234375,4540.28466796875,14584.859375,10431.607421875,13279.1201171875,10718.5048828125,1320.044189453125,336.9649353027344,10392.666015625,0.0,3474.553466796875,7696.94677734375,7026.1953125,6206.03564453125,11826.35546875,9183.8837890625,16280.015625,-13581.912109375,2681.414306640625,10298.888671875,5464.5537109375,4567.30517578125,2770.423828125,0.0,9737.0146484375
4857.38134765625,2708.43505859375,13779.00390625,6667.77294921875,16921.361328125,6041.52685546875,8628.3681640625,13410.2509765625,5084.67333984375,7843.97119140625,8687.97265625,7553.1005859375,-4713.53515625,0.0,11607.806640625,12301.6044921875,1618.0673828125,2044.0418701171875,3885.42822265625,5700.58837890625,4148.4833984375,11181.037109375,8813.5400390625,23076.53515625,-1753.1712646484375,-230.47129821777344,5176.0673828125,13598.6015625,-6737.708984375,2943.6748046875,18777.84765625,-10996.6591796875,-5370.77587890625,3324.349609375,10844.8671875,11719.0673828125,6051.8583984375,8775.3935546875,4820.02880859375,-0.0,5470.1171875,27410.189453125,31198.66015625,8769.03515625,18762.74609375,14219.2841796875,-2890.427734375,-6049.47412109375,4523.59521484375,14584.064453125,10430.8125,13273.556640625,10713.736328125,1316.070556640625,344.11749267578125,10383.923828125,0.0,3465.0166015625,7692.97265625,7020.63232421875,6191.73046875,11823.177734375,9176.7314453125,16271.2724609375,-13584.2958984375,2672.67236328125,10300.4765625,5455.01708984375,4557.7685546875,2754.529296875,0.0,9724.2998046875
4896.32275390625,2700.48779296875,13779.00390625,6701.9462890625,16930.103515625,6049.47412109375,8640.2890625,13418.9921875,5102.15771484375,7852.71337890625,8692.7412109375,7562.63720703125,-4701.6142578125,0.0,11625.2900390625,12311.935546875,1626.0146484375,2053.57861328125,3896.55419921875,5711.71435546875,4155.6357421875,11190.5732421875,8823.0771484375,23086.0703125,-1746.018798828125,-224.11346435546875,5195.935546875,13604.1640625,-6729.76171875,2946.853515625,18786.587890625,-10984.73828125,-5384.28662109375,3340.244384765625,10855.1982421875,11726.2197265625,6065.36865234375,8786.51953125,4824.0029296875,-0.0,5499.52197265625,27414.95703125,31211.376953125,8776.1875,18777.052734375,14228.8203125,-2880.89111328125,-6012.12158203125,4543.46337890625,14592.01171875,10449.091796875,13281.5048828125,10692.279296875,1301.765380859375,344.9122009277344,10388.6923828125,0.0,3476.9375,7712.04638671875,7030.9638671875,6205.24072265625,11831.1240234375,9188.65234375,16282.400390625,-13577.9384765625,2676.64599609375,10318.755859375,5459.78564453125,4588.7626953125,2760.88720703125,0.0,9725.09375
4912.2177734375,2700.48779296875,13841.7880859375,6752.01416015625,16940.435546875,6054.24267578125,8646.6474609375,13420.58203125,5103.7470703125,7849.5341796875,8697.509765625,7565.81640625,-4699.22998046875,0.0,11626.083984375,12314.3193359375,1636.34619140625,2062.32080078125,3898.9384765625,5709.330078125,4165.17236328125,11200.1103515625,8831.0244140625,23090.83984375,-1726.1505126953125,-223.31874084472656,5205.47265625,13601.7802734375,-6725.7880859375,2946.853515625,18796.125,-10996.6591796875,-5360.4443359375,3377.5966796875,10862.3505859375,11729.3994140625,6070.93212890625,8789.6982421875,4820.82373046875,-0.0,5489.98486328125,27418.931640625,31220.912109375,8776.982421875,18781.02734375,14228.0263671875,-2898.375244140625,-5985.8955078125,4560.15234375,14591.216796875,10449.091796875,13283.888671875,10700.2255859375,1266.002685546875,321.0703430175781,10393.4599609375,0.0,3499.190185546875,7713.6357421875,7028.57958984375,6212.39306640625,11836.6884765625,9191.0361328125,16275.248046875,-13566.017578125,2679.0302734375,10318.755859375,5441.5068359375,4597.5048828125,2736.250732421875,0.0,9709.994140625
4848.63916015625,2695.719482421875,13840.9931640625,6701.1513671875,16930.8984375,6043.1162109375,8637.9052734375,13418.9921875,5099.7734375,7851.91845703125,8677.6416015625,7556.27978515625,-4701.6142578125,0.0,11620.521484375,12311.140625,1621.246337890625,2050.39990234375,3893.37548828125,5710.919921875,4154.8408203125,11184.2158203125,8822.2822265625,23082.09765625,-1734.8924560546875,-239.2133026123047,5192.7568359375,13592.2431640625,-6728.96728515625,2931.75390625,18782.615234375,-10995.0703125,-5358.060546875,3334.68115234375,10851.2236328125,11719.0673828125,6062.984375,8782.5458984375,4781.8818359375,-0.0,5466.14306640625,27403.03515625,31210.580078125,8768.2412109375,18775.462890625,14226.4365234375,-2938.111572265625,-5991.458984375,4552.20556640625,14579.2958984375,10441.1435546875,13281.5048828125,10720.09375,1266.79736328125,317.0967102050781,10382.3349609375,0.0,3508.726806640625,7704.8935546875,7031.7587890625,6215.572265625,11827.1513671875,9186.267578125,16285.578125,-13574.759765625,2667.109130859375,10313.9873046875,5451.837890625,4584.7890625,2770.423828125,0.0,9735.4248046875
4810.4921875,2648.830322265625,13834.6357421875,6697.97265625,16938.84375,6041.52685546875,8637.9052734375,13413.4296875,5099.7734375,7847.9453125,8677.6416015625,7553.1005859375,-4695.2568359375,0.0,11620.521484375,12305.5771484375,1623.6304931640625,2051.9892578125,3894.170166015625,5708.53564453125,4162.78857421875,11181.8310546875,8823.0771484375,23078.91796875,-1747.608154296875,-241.5974884033203,5191.16748046875,13590.6533203125,-6727.37744140625,2928.57470703125,18785.794921875,-10999.8388671875,-5350.90771484375,3321.965576171875,10856.7880859375,11720.6572265625,6063.779296875,8780.9560546875,4771.55078125,-0.0,5504.2900390625,27399.0625,31212.171875,8767.4453125,18774.66796875,14220.078125,-2912.680419921875,-6008.1484375,4555.38427734375,14575.322265625,10442.7333984375,13275.9404296875,10691.4833984375,1281.1025390625,345.7069396972656,10379.1552734375,0.0,3494.421630859375,7706.4833984375,7021.42724609375,6190.935546875,11827.1513671875,9183.8837890625,16285.578125,-13578.732421875,2667.109130859375,10312.3984375,5444.685546875,4585.583984375,2755.32421875,0.0,9727.478515625
4829.5654296875,2651.214599609375,13894.240234375,6734.52978515625,16942.0234375,6053.44775390625,8648.236328125,13419.787109375,5107.720703125,7852.71337890625,8690.357421875,7560.2529296875,-4689.693359375,0.0,11626.083984375,12315.1142578125,1643.498779296875,2063.115478515625,3901.322509765625,5716.482421875,4173.91455078125,11199.3154296875,8831.818359375,23091.634765625,-1742.0450439453125,-222.5240020751953,5201.49853515625,13601.7802734375,-6718.6357421875,2943.6748046875,18799.3046875,-10992.6865234375,-5330.24462890625,3360.112548828125,10867.119140625,11734.16796875,6073.31591796875,8789.6982421875,4777.908203125,-0.0,5492.369140625,27418.13671875,31221.708984375,8777.77734375,18785.794921875,14225.642578125,-2869.76513671875,-6020.86376953125,4550.61572265625,14589.626953125,10449.88671875,13284.68359375,10678.7685546875,1289.844482421875,375.1119079589844,10391.076171875,0.0,3503.16357421875,7714.43017578125,7027.78466796875,6186.16748046875,11838.27734375,9192.6259765625,16290.345703125,-13565.22265625,2680.619384765625,10317.166015625,5451.837890625,4596.7099609375,2754.529296875,0.0,9732.24609375
4892.34912109375,2696.51416015625,13885.498046875,6700.35693359375,16950.765625,6070.13720703125,8663.3369140625,13442.0390625,5126.79443359375,7879.73388671875,8699.8935546875,7569.7900390625,-4691.28271484375,0.0,11640.3896484375,12335.77734375,1655.419677734375,2075.036376953125,3914.8330078125,5741.119140625,4181.86181640625,11212.03125,8844.53515625,23105.14453125,-1735.687255859375,-205.03997802734375,5218.98291015625,13618.46875,-6715.45654296875,2954.006103515625,18809.63671875,-10978.380859375,-5323.091796875,3367.264892578125,10877.4501953125,11747.677734375,6086.826171875,8805.5927734375,4796.98193359375,-0.0,5491.57470703125,27440.388671875,31233.62890625,8792.876953125,18804.07421875,14248.6884765625,-2848.307373046875,-6035.96337890625,4561.7421875,14603.9326171875,10463.3974609375,13306.140625,10698.6357421875,1320.044189453125,377.49609375,10401.408203125,0.0,3526.210693359375,7733.50390625,7060.369140625,6202.06201171875,11852.58203125,9209.3154296875,16317.3671875,-13559.6591796875,2693.335205078125,10329.8828125,5486.80615234375,4618.16796875,2806.9814453125,0.0,9785.4931640625
4927.3173828125,2730.6875,13868.0146484375,6696.3828125,16949.97265625,6063.779296875,8660.9521484375,13439.6552734375,5125.99951171875,7877.349609375,8716.5830078125,7571.37939453125,-4699.22998046875,0.0,11642.7734375,12334.1875,1648.26708984375,2071.857421875,3912.448974609375,5737.14599609375,4177.88818359375,11204.87890625,8842.9453125,23100.376953125,-1725.355712890625,-212.9872589111328,5224.5458984375,13616.0849609375,-6715.45654296875,2954.006103515625,18804.869140625,-10975.9970703125,-5331.03955078125,3358.523193359375,10874.271484375,11741.3203125,6086.03125,8802.4140625,4816.05517578125,-0.0,5492.369140625,27427.673828125,31232.0390625,8788.9033203125,18801.689453125,14247.89453125,-2868.175537109375,-6001.79052734375,4552.20556640625,14600.75390625,10464.986328125,13302.9619140625,10729.630859375,1352.6280517578125,363.9856872558594,10399.0244140625,0.0,3528.594970703125,7733.50390625,7055.6005859375,6210.80419921875,11848.609375,9206.9306640625,16314.1884765625,-13558.8642578125,2690.15625,10333.85546875,5482.83251953125,4624.525390625,2795.855224609375,0.0,9779.9296875
4923.34375,2686.977294921875,13838.6083984375,6692.40966796875,16924.5390625,6044.7060546875,8640.2890625,13410.2509765625,5101.36279296875,7838.40869140625,8718.9677734375,7557.07421875,-4707.97216796875,0.0,11626.083984375,12303.193359375,1623.6304931640625,2049.605224609375,3889.401611328125,5705.3564453125,4151.662109375,11187.39453125,8823.0771484375,23081.302734375,-1729.3294677734375,-228.0871124267578,5206.26708984375,13594.626953125,-6724.19873046875,2944.469482421875,18784.205078125,-10993.48046875,-5362.03369140625,3338.65478515625,10850.4296875,11723.0419921875,6063.779296875,8779.3662109375,4731.01953125,-0.0,5458.99072265625,27413.369140625,31212.171875,8766.6513671875,18777.84765625,14215.310546875,-2871.354248046875,-6005.76416015625,4540.28466796875,14584.859375,10448.296875,13275.9404296875,10748.7041015625,1327.19677734375,352.8594970703125,10383.12890625,0.0,3502.368896484375,7710.45703125,7012.68505859375,6213.18798828125,11826.35546875,9180.705078125,16284.7841796875,-13566.017578125,2676.64599609375,10317.9619140625,5427.20166015625,4606.2470703125,2712.40869140625,0.0,9708.404296875
4962.28564453125,2663.135498046875,13778.2099609375,6713.072265625,16932.48828125,6052.65283203125,8648.236328125,13419.787109375,5116.462890625,7848.73974609375,8713.404296875,7567.40576171875,-4694.4619140625,0.0,11634.0322265625,12311.140625,1624.42529296875,2056.757568359375,3899.7333984375,5720.45654296875,4157.22509765625,11190.5732421875,8830.2294921875,23086.8671875,-1720.58740234375,-220.1398162841797,5208.65087890625,13607.3427734375,-6713.8671875,2957.18505859375,18788.97265625,-10991.890625,-5372.365234375,3340.244384765625,10858.376953125,11727.8095703125,6073.31591796875,8788.1083984375,4782.6767578125,-0.0,5467.73291015625,27414.1640625,31217.732421875,8778.572265625,18788.97265625,14226.4365234375,-2895.1962890625,-5996.22705078125,4556.17919921875,14597.5751953125,10453.8603515625,13283.888671875,10764.5986328125,1313.6864013671875,350.4753112792969,10391.076171875,0.0,3481.705810546875,7722.3779296875,7024.6064453125,6225.90380859375,11832.7138671875,9191.8310546875,16299.08984375,-13566.017578125,2686.1826171875,10321.9345703125,5427.99609375,4626.115234375,2721.945556640625,0.0,9721.9150390625
4989.30615234375,2615.451904296875,13841.7880859375,6694.7939453125,16956.330078125,6078.08447265625,8672.078125,13446.013671875,5145.86767578125,7874.9658203125,8732.478515625,7581.7109375,-4670.6201171875,0.0,11658.6689453125,12337.3671875,1646.6776123046875,2078.21533203125,3923.574951171875,5745.8876953125,4181.06689453125,11212.03125,8850.8916015625,23109.912109375,-1701.513916015625,-197.0926971435547,5231.69873046875,13638.3369140625,-6693.9990234375,2970.695556640625,18808.841796875,-10972.0234375,-5346.1396484375,3355.343994140625,10879.833984375,11752.4462890625,6096.36328125,8812.7451171875,4824.79736328125,-0.0,5493.1640625,27438.005859375,31239.986328125,8805.5927734375,18814.40625,14253.45703125,-2872.94384765625,-5996.22705078125,4579.22607421875,14623.80078125,10480.880859375,13306.935546875,10778.109375,1352.6280517578125,351.2700500488281,10413.3291015625,0.0,3467.40087890625,7758.140625,7056.39501953125,6244.9775390625,11856.5556640625,9218.056640625,16318.1630859375,-13549.328125,2705.256103515625,10349.7509765625,5451.837890625,4656.31494140625,2767.2451171875,0.0,9755.2939453125
4977.38525390625,2689.361572265625,13879.935546875,6724.19873046875,16967.455078125,6084.4423828125,8681.615234375,13457.138671875,5153.81494140625,7895.62890625,8744.3994140625,7588.86328125,-4664.26220703125,0.0,11669.0,12350.08203125,1664.16162109375,2087.752197265625,3933.111572265625,5760.98779296875,4193.78271484375,11223.9521484375,8861.224609375,23121.833984375,-1697.540283203125,-190.73486328125,5241.2353515625,13640.7216796875,-6688.43603515625,2981.02685546875,18821.55859375,-10960.1025390625,-5322.29736328125,3377.5966796875,10891.7548828125,11761.9833984375,6104.310546875,8822.2822265625,4817.64453125,-0.0,5509.05859375,27445.951171875,31251.908203125,8812.7451171875,18823.146484375,14264.583984375,-2838.7705078125,-5954.10693359375,4585.583984375,14632.54296875,10492.0068359375,13320.4462890625,10753.47265625,1377.2646484375,356.8331298828125,10422.8662109375,0.0,3509.521484375,7758.140625,7067.521484375,6245.77197265625,11868.4765625,9228.388671875,16336.44140625,-13540.5859375,2714.79296875,10360.08203125,5483.62744140625,4655.52001953125,2802.212890625,0.0,9791.8505859375
4892.34912109375,2732.27685546875,13868.80859375,6721.814453125,16950.765625,6055.83203125,8665.720703125,13442.0390625,5132.35693359375,7888.4765625,8728.50390625,7572.173828125,-4686.51416015625,0.0,11656.2841796875,12334.982421875,1649.061767578125,2071.062744140625,3914.8330078125,5746.6826171875,4178.6826171875,11202.494140625,8845.3291015625,23100.376953125,-1710.2559814453125,-219.3450927734375,5230.90380859375,13607.3427734375,-6709.8935546875,2958.774658203125,18803.27734375,-10977.5859375,-5327.8603515625,3362.49658203125,10876.6552734375,11738.9365234375,6088.41552734375,8803.2080078125,4783.4716796875,-0.0,5490.77978515625,27417.341796875,31237.6015625,8786.51953125,18805.662109375,14251.8681640625,-2833.207275390625,-5962.8486328125,4570.484375,14597.5751953125,10477.7021484375,13305.3466796875,10703.404296875,1345.4755859375,362.396240234375,10399.0244140625,0.0,3538.92626953125,7736.68310546875,7057.98486328125,6225.90380859375,11850.1982421875,9211.69921875,16329.2880859375,-13552.5068359375,2690.951171875,10345.7763671875,5483.62744140625,4611.01513671875,2811.749755859375,0.0,9801.3876953125
4832.74462890625,2734.6611328125,13883.908203125,6694.7939453125,16930.103515625,6034.3740234375,8639.4951171875,13412.634765625,5103.7470703125,7847.9453125,8714.9931640625,7553.8955078125,-4697.64111328125,0.0,11633.2373046875,12303.98828125,1627.6041259765625,2048.015625,3887.812255859375,5712.50927734375,4152.45654296875,11180.2412109375,8819.103515625,23075.73828125,-1729.3294677734375,-240.80276489257812,5206.26708984375,13585.0908203125,-6722.60888671875,2933.34326171875,18781.02734375,-10985.5341796875,-5356.470703125,3338.65478515625,10851.2236328125,11715.888671875,6061.39501953125,8777.77734375,4817.64453125,-0.0,5462.96435546875,27397.474609375,31211.376953125,8761.8828125,18777.052734375,14218.4892578125,-2827.644287109375,-5995.4326171875,4546.64208984375,14571.349609375,10455.44921875,13273.556640625,10739.1669921875,1314.4810791015625,342.52801513671875,10373.5927734375,0.0,3509.521484375,7710.45703125,7019.837890625,6212.39306640625,11826.35546875,9183.0888671875,16290.345703125,-13566.8115234375,2667.90380859375,10324.3193359375,5446.275390625,4594.326171875,2748.96630859375,0.0,9729.8623046875
4885.19677734375,2768.83447265625,13875.9609375,6704.33056640625,16925.333984375,6035.1689453125,8635.5205078125,13408.6611328125,5097.38916015625,7841.5869140625,8713.404296875,7562.63720703125,-4690.48828125,0.0,11628.46875,12301.6044921875,1628.39892578125,2046.426025390625,3887.017578125,5708.53564453125,4151.662109375,11180.2412109375,8814.3349609375,23074.150390625,-1732.50830078125,-236.82911682128906,5195.140625,13580.322265625,-6722.60888671875,2937.31689453125,18781.02734375,-10982.3544921875,-5352.4970703125,3345.807373046875,10848.83984375,11715.888671875,6059.0107421875,8775.3935546875,4729.4296875,-0.0,5457.4013671875,27396.6796875,31205.8125,8762.6767578125,18772.283203125,14212.92578125,-2838.7705078125,-5982.716796875,4534.72119140625,14577.7060546875,10450.6806640625,13271.1728515625,10732.8095703125,1308.123291015625,331.4018249511719,10376.7705078125,0.0,3522.237060546875,7708.86767578125,7017.45361328125,6216.3671875,11821.587890625,9179.115234375,16285.578125,-13566.8115234375,2671.877685546875,10318.755859375,5454.22216796875,4599.88916015625,2750.5556640625,0.0,9721.9150390625
4900.296875,2767.2451171875,13829.072265625,6688.43603515625,16930.103515625,6031.990234375,8634.7265625,13407.0712890625,5098.978515625,7840.79248046875,8706.251953125,7573.76318359375,-4698.435546875,0.0,11626.8798828125,12300.80859375,1630.7830810546875,2049.605224609375,3887.812255859375,5708.53564453125,4160.404296875,11177.857421875,8817.513671875,23075.73828125,-1734.8924560546875,-241.5974884033203,5199.9091796875,13580.322265625,-6724.9931640625,2938.111572265625,18782.615234375,-10979.9697265625,-5342.96044921875,3340.244384765625,10853.6083984375,11716.68359375,6060.60009765625,8776.1875,4764.39794921875,-0.0,5478.06396484375,27390.322265625,31208.9921875,8762.6767578125,18773.875,14216.10546875,-2867.380859375,-5976.35888671875,4538.69482421875,14572.1435546875,10449.88671875,13270.3779296875,10716.12109375,1308.91796875,325.8387145996094,10376.7705078125,0.0,3525.416015625,7712.04638671875,7017.45361328125,6212.39306640625,11823.177734375,9179.91015625,16285.578125,-13569.1953125,2674.26171875,10317.166015625,5445.48046875,4596.7099609375,2749.760986328125,0.0,9713.9677734375
4934.4697265625,2743.403076171875,13820.3310546875,6661.4150390625,16934.076171875,6031.990234375,8634.7265625,13407.8662109375,5101.36279296875,7842.38134765625,8707.8408203125,7573.76318359375,-4703.99853515625,0.0,11625.2900390625,12302.3984375,1623.6304931640625,2048.015625,3887.812255859375,5708.53564453125,4154.04638671875,11174.6787109375,8819.8974609375,23075.73828125,-1738.0714111328125,-242.39222717285156,5203.8828125,13583.5009765625,-6724.19873046875,2936.522216796875,18777.84765625,-10976.791015625,-5362.03369140625,3321.965576171875,10852.01953125,11715.888671875,6061.39501953125,8777.77734375,4878.0439453125,-0.0,5489.98486328125,27387.142578125,31208.197265625,8761.8828125,18775.462890625,14215.310546875,-2874.533447265625,-5987.4853515625,4553.0,14570.5537109375,10448.296875,13270.3779296875,10743.935546875,1327.991455078125,345.7069396972656,10377.56640625,0.0,3521.4423828125,7709.662109375,7017.45361328125,6202.06201171875,11824.767578125,9179.115234375,16282.400390625,-13562.8388671875,2676.64599609375,10316.3720703125,5450.24853515625,4599.88916015625,2756.913330078125,0.0,9709.994140625
4946.390625,2722.740234375,13861.65625,6667.77294921875,16924.5390625,6032.78515625,8629.1630859375,13407.0712890625,5094.2099609375,7839.9970703125,8710.2255859375,7561.84228515625,-4692.87255859375,0.0,11618.1376953125,12300.80859375,1613.299072265625,2039.2735595703125,3882.2490234375,5702.177734375,4141.33056640625,11171.5,8812.7451171875,23072.560546875,-1736.4820556640625,-242.39222717285156,5187.98828125,13585.0908203125,-6722.60888671875,2936.522216796875,18769.8984375,-10994.275390625,-5377.1337890625,3317.197021484375,10844.8671875,11711.12109375,6053.44775390625,8771.419921875,4846.2548828125,-0.0,5453.427734375,27387.9375,31199.455078125,8758.7041015625,18770.6953125,14212.1318359375,-2865.791259765625,-6015.30078125,4547.43701171875,14566.5810546875,10441.939453125,13270.3779296875,10759.830078125,1320.044189453125,355.2436828613281,10379.9501953125,0.0,3517.46875,7700.919921875,7016.65869140625,6192.525390625,11817.6142578125,9174.3466796875,16275.248046875,-13562.8388671875,2675.056396484375,10310.013671875,5440.7119140625,4579.22607421875,2751.350341796875,0.0,9713.1728515625
4927.3173828125,2715.587646484375,13882.3193359375,6686.0517578125,16922.951171875,6035.1689453125,8627.57421875,13412.634765625,5088.6474609375,7841.5869140625,8703.8681640625,7560.2529296875,-4688.10400390625,0.0,11614.1630859375,12304.783203125,1610.914794921875,2040.863037109375,3883.838623046875,5699.79345703125,4143.71484375,11173.884765625,8810.361328125,23071.765625,-1743.634521484375,-240.80276489257812,5193.5517578125,13589.859375,-6722.60888671875,2943.6748046875,18771.490234375,-11006.9912109375,-5366.00732421875,3319.581298828125,10844.0712890625,11711.9150390625,6053.44775390625,8773.009765625,4822.4130859375,-0.0,5458.99072265625,27394.294921875,31200.25,8761.8828125,18764.337890625,14213.7216796875,-2875.328125,-6024.04248046875,4544.25830078125,14573.7333984375,10437.1708984375,13275.9404296875,10701.8154296875,1310.5074462890625,351.2700500488281,10383.923828125,0.0,3523.031982421875,7700.919921875,7026.1953125,6196.4990234375,11818.4091796875,9175.1416015625,16271.2724609375,-13571.580078125,2677.440673828125,10305.2451171875,5442.30126953125,4566.5107421875,2748.96630859375,0.0,9721.1201171875
4916.19091796875,2738.634765625,13868.0146484375,6704.33056640625,16945.203125,6055.037109375,8651.416015625,13433.296875,5120.43603515625,7866.22314453125,8716.5830078125,7582.505859375,-4684.13037109375,0.0,11640.3896484375,12328.625,1631.577880859375,2062.32080078125,3906.091064453125,5728.40380859375,4164.3779296875,11193.751953125,8832.6142578125,23093.22265625,-1719.792724609375,-218.5503692626953,5221.36669921875,13616.0849609375,-6706.71484375,2964.337646484375,18792.947265625,-10987.91796875,-5350.90771484375,3342.62841796875,10863.9404296875,11733.373046875,6075.7001953125,8796.0556640625,4802.544921875,-0.0,5487.6005859375,27413.369140625,31224.88671875,8784.134765625,18791.357421875,14239.15234375,-2886.454345703125,-5993.84326171875,4569.689453125,14594.3955078125,10461.8076171875,13298.1943359375,10729.630859375,1331.965087890625,363.9856872558594,10403.7919921875,0.0,3528.594970703125,7731.91455078125,7043.6796875,6230.67236328125,11838.27734375,9198.9833984375,16297.4990234375,-13560.4541015625,2694.924560546875,10329.8828125,5466.14306640625,4611.01513671875,2775.98681640625,0.0,9740.98828125
4913.80712890625,2716.38232421875,13840.9931640625,6694.7939453125,16942.0234375,6052.65283203125,8650.6201171875,13422.171875,5117.2578125,7850.32958984375,8715.7890625,7581.7109375,-4680.15673828125,0.0,11643.5693359375,12316.7041015625,1628.39892578125,2059.141845703125,3903.706787109375,5719.66162109375,4162.78857421875,11192.9580078125,8831.818359375,23090.83984375,-1711.0506591796875,-218.5503692626953,5220.57177734375,13609.7265625,-6702.7412109375,2962.748291015625,18792.15234375,-10982.3544921875,-5360.4443359375,3345.0126953125,10863.9404296875,11731.7841796875,6075.7001953125,8790.4931640625,4764.39794921875,-0.0,5491.57470703125,27411.779296875,31225.681640625,8780.9560546875,18792.15234375,14229.615234375,-2880.89111328125,-5985.8955078125,4557.7685546875,14592.806640625,10464.19140625,13286.2734375,10759.830078125,1333.5545654296875,363.9856872558594,10402.9970703125,0.0,3499.98486328125,7723.96728515625,7023.8115234375,6246.56689453125,11838.27734375,9195.8046875,16281.6044921875,-13552.5068359375,2696.51416015625,10333.0615234375,5446.275390625,4617.373046875,2729.892822265625,0.0,9699.662109375
4894.7333984375,2657.572509765625,13841.7880859375,6687.64111328125,16935.66796875,6039.9375,8639.4951171875,13410.2509765625,5105.33642578125,7841.5869140625,8709.4306640625,7561.84228515625,-4693.6669921875,0.0,11632.4423828125,12305.5771484375,1616.47802734375,2048.810302734375,3892.580810546875,5708.53564453125,4156.4306640625,11181.037109375,8822.2822265625,23078.91796875,-1722.9715576171875,-230.47129821777344,5203.08837890625,13593.8330078125,-6716.25146484375,2949.23779296875,18781.02734375,-11005.4013671875,-5352.4970703125,3337.860107421875,10855.1982421875,11717.478515625,6063.779296875,8778.572265625,4737.376953125,-0.0,5490.77978515625,27399.859375,31214.556640625,8767.4453125,18780.232421875,14218.4892578125,-2884.86474609375,-5997.81640625,4553.794921875,14580.0908203125,10453.064453125,13275.9404296875,10730.42578125,1314.4810791015625,339.34912109375,10387.8974609375,0.0,3503.16357421875,7716.814453125,7021.42724609375,6226.6982421875,11825.5615234375,9183.0888671875,16276.041015625,-13565.22265625,2680.619384765625,10321.140625,5438.32763671875,4594.326171875,2722.740234375,0.0,9698.0732421875
4893.14404296875,2675.056396484375,13826.6875,6704.33056640625,16930.8984375,6039.9375,8629.9580078125,13408.6611328125,5098.978515625,7843.97119140625,8706.251953125,7559.45849609375,-4696.05126953125,0.0,11622.111328125,12302.3984375,1614.8885498046875,2044.0418701171875,3887.812255859375,5706.94580078125,4148.4833984375,11177.857421875,8814.3349609375,23074.9453125,-1727.739990234375,-233.65020751953125,5193.5517578125,13595.421875,-6718.6357421875,2942.8798828125,18774.66796875,-11009.3759765625,-5364.41796875,3326.73388671875,10848.044921875,11712.7099609375,6054.24267578125,8775.3935546875,4781.08740234375,-0.0,5479.65380859375,27398.267578125,31205.01953125,8764.2666015625,18768.310546875,14216.10546875,-2909.501220703125,-6007.353515625,4549.0263671875,14579.2958984375,10443.5283203125,13272.7626953125,10729.630859375,1300.970703125,333.7860107421875,10383.12890625,0.0,3493.626953125,7708.07275390625,7017.45361328125,6220.3408203125,11820.79296875,9178.3212890625,16275.248046875,-13566.8115234375,2676.64599609375,10310.8095703125,5442.30126953125,4581.6103515625,2750.5556640625,0.0,9710.7890625
4891.55419921875,2697.308837890625,13848.1455078125,6717.04638671875,16930.8984375,6051.0634765625,8635.5205078125,13416.607421875,5102.95263671875,7848.73974609375,8708.63671875,7569.7900390625,-4680.95166015625,0.0,11629.263671875,12312.7294921875,1626.0146484375,2051.1943359375,3894.170166015625,5711.71435546875,4150.86767578125,11187.39453125,8819.8974609375,23082.09765625,-1724.56103515625,-221.72927856445312,5202.29345703125,13604.958984375,-6710.68798828125,2955.595703125,18781.02734375,-11002.22265625,-5358.85498046875,3350.57568359375,10852.8134765625,11721.4521484375,6062.189453125,8781.7509765625,4817.64453125,-0.0,5475.6796875,27413.369140625,31208.197265625,8774.59765625,18776.2578125,14222.462890625,-2882.480712890625,-6004.96923828125,4532.33740234375,14592.01171875,10449.88671875,13281.5048828125,10741.5517578125,1296.9970703125,350.4753112792969,10393.4599609375,0.0,3507.13720703125,7706.4833984375,7023.0166015625,6224.314453125,11826.35546875,9184.677734375,16280.8095703125,-13555.685546875,2687.77197265625,10317.9619140625,5425.61181640625,4588.7626953125,2745.787353515625,0.0,9715.556640625
4885.99169921875,2724.32958984375,13894.240234375,6680.48876953125,16931.69140625,6053.44775390625,8645.8525390625,13422.9658203125,5112.4892578125,7850.32958984375,8717.3779296875,7577.7373046875,-4676.9775390625,0.0,11641.1845703125,12319.087890625,1629.193603515625,2053.57861328125,3900.52783203125,5718.072265625,4150.07275390625,11185.8056640625,8825.4609375,23086.0703125,-1728.53466796875,-219.3450927734375,5218.18798828125,13607.3427734375,-6707.50927734375,2961.953369140625,18781.8203125,-10983.9443359375,-5348.5234375,3340.244384765625,10853.6083984375,11723.8359375,6071.7265625,8786.51953125,4832.74462890625,-0.0,5462.16943359375,27406.21484375,31216.14453125,8779.3662109375,18786.587890625,14224.8466796875,-2830.028564453125,-5993.04833984375,4535.51611328125,14595.9853515625,10462.6015625,13287.0673828125,10720.09375,1317.6600341796875,363.19097900390625,10401.408203125,0.0,3531.77392578125,7718.404296875,7021.42724609375,6231.466796875,11832.7138671875,9191.8310546875,16284.7841796875,-13552.5068359375,2697.308837890625,10332.2666015625,5426.40673828125,4605.4521484375,2736.250732421875,0.0,9707.6103515625
4899.501953125,2716.38232421875,13859.2724609375,6690.8203125,16940.435546875,6057.42138671875,8653.0048828125,13430.1181640625,5125.20458984375,7862.25048828125,8715.7890625,7577.7373046875,-4683.3359375,0.0,11647.5419921875,12325.4462890625,1629.193603515625,2056.757568359375,3908.475341796875,5729.1982421875,4156.4306640625,11189.7783203125,8830.2294921875,23090.83984375,-1739.660888671875,-219.3450927734375,5221.36669921875,13611.31640625,-6711.48291015625,2954.006103515625,18785.794921875,-10987.91796875,-5346.93408203125,3338.65478515625,10857.58203125,11728.6044921875,6077.28955078125,8792.0830078125,4800.955078125,-0.0,5470.1171875,27408.599609375,31224.091796875,8784.9306640625,18793.7421875,14235.1787109375,-2837.18115234375,-5989.07470703125,4554.58984375,14599.958984375,10468.1650390625,13294.2197265625,10728.0419921875,1307.32861328125,356.8331298828125,10402.2021484375,0.0,3542.900146484375,7735.09375,7033.34814453125,6204.4462890625,11836.6884765625,9200.5732421875,16300.6787109375,-13562.8388671875,2694.1298828125,10339.4189453125,5454.22216796875,4620.55224609375,2764.06591796875,0.0,9728.2724609375
4929.701171875,2672.67236328125,13825.0986328125,6719.4306640625,16942.8203125,6060.60009765625,8653.7998046875,13430.1181640625,5128.3837890625,7864.63427734375,8717.3779296875,7577.7373046875,-4697.64111328125,0.0,11649.1318359375,12325.4462890625,1631.577880859375,2058.346923828125,3909.269775390625,5731.58251953125,4160.404296875,11196.9306640625,8834.203125,23094.8125,-1729.3294677734375,-211.39781188964844,5207.8564453125,13612.90625,-6711.48291015625,2961.953369140625,18789.767578125,-10989.5068359375,-5349.31787109375,3352.165283203125,10860.7607421875,11731.7841796875,6076.49462890625,8795.26171875,4772.34521484375,-0.0,5482.83251953125,27422.904296875,31226.4765625,8787.314453125,18794.537109375,14237.5634765625,-2853.870361328125,-5997.81640625,4580.81591796875,14603.9326171875,10470.5498046875,13293.42578125,10738.373046875,1277.1287841796875,330.6070861816406,10406.1767578125,0.0,3538.1318359375,7739.06689453125,7034.9375,6196.4990234375,11838.27734375,9202.95703125,16301.4736328125,-13559.6591796875,2697.308837890625,10341.8037109375,5469.322265625,4626.90966796875,2772.80810546875,0.0,9733.8359375
4950.36474609375,2683.798583984375,13850.529296875,6740.88818359375,16957.125,6069.34228515625,8662.541015625,13440.4501953125,5135.5361328125,7878.14404296875,8720.5576171875,7588.86328125,-4690.48828125,0.0,11657.0791015625,12335.77734375,1641.9093017578125,2067.8837890625,3918.806640625,5741.119140625,4169.14599609375,11205.6728515625,8842.150390625,23103.556640625,-1712.64013671875,-202.65579223632812,5222.16162109375,13624.0322265625,-6701.1513671875,2974.669189453125,18798.509765625,-10974.4072265625,-5346.1396484375,3368.8544921875,10871.88671875,11740.525390625,6088.41552734375,8806.3876953125,4791.41845703125,-0.0,5506.67431640625,27426.87890625,31236.806640625,8797.6455078125,18805.662109375,14248.6884765625,-2849.10205078125,-5988.27978515625,4581.6103515625,14611.8798828125,10479.291015625,13305.3466796875,10749.4990234375,1320.8388671875,329.8123779296875,10414.123046875,0.0,3546.873779296875,7742.24609375,7050.03759765625,6221.1357421875,11847.01953125,9213.2880859375,16309.419921875,-13544.5595703125,2711.614013671875,10348.1611328125,5487.6005859375,4634.857421875,2802.212890625,0.0,9757.677734375
4926.52294921875,2713.998046875,13833.8408203125,6686.84619140625,16944.408203125,6054.24267578125,8647.44140625,13422.9658203125,5118.8466796875,7859.07080078125,8699.099609375,7572.96875,-4689.693359375,0.0,11645.953125,12317.498046875,1622.0411376953125,2049.605224609375,3902.117431640625,5723.63525390625,4153.25146484375,11185.009765625,8826.255859375,23085.275390625,-1726.1505126953125,-216.96090698242188,5218.98291015625,13608.1376953125,-6709.8935546875,2963.54296875,18779.435546875,-10988.7119140625,-5364.41796875,3333.886474609375,10855.9921875,11723.0419921875,6074.1103515625,8790.4931640625,4796.18701171875,-0.0,5491.57470703125,27405.419921875,31220.1171875,8780.9560546875,18790.564453125,14231.9990234375,-2876.122802734375,-5991.458984375,4560.947265625,14595.19140625,10466.5751953125,13287.0673828125,10731.220703125,1316.070556640625,360.0120544433594,10398.228515625,0.0,3528.594970703125,7726.35107421875,7030.9638671875,6226.6982421875,11831.919921875,9196.5986328125,16291.9365234375,-13554.0966796875,2698.103759765625,10334.6513671875,5458.1962890625,4618.16796875,2768.039794921875,0.0,9732.24609375
4914.6015625,2706.845458984375,13781.388671875,6660.6201171875,16938.05078125,6043.9111328125,8637.1103515625,13411.83984375,5106.130859375,7844.765625,8689.5625,7564.2265625,-4691.28271484375,0.0,11622.111328125,12305.5771484375,1612.50439453125,2040.068359375,3890.9912109375,5710.919921875,4149.2783203125,11172.294921875,8815.9248046875,23074.9453125,-1742.0450439453125,-227.29237365722656,5199.1142578125,13597.01171875,-6721.01953125,2949.23779296875,18770.6953125,-11006.9912109375,-5375.5439453125,3318.78662109375,10848.83984375,11711.12109375,6061.39501953125,8779.3662109375,4755.65576171875,-0.0,5497.1376953125,27394.294921875,31210.580078125,8769.03515625,18776.2578125,14217.6943359375,-2952.416748046875,-5988.27978515625,4560.15234375,14585.654296875,10443.5283203125,13275.9404296875,10727.24609375,1284.2813720703125,363.9856872558594,10388.6923828125,0.0,3512.700439453125,7710.45703125,7019.04296875,6206.83056640625,11823.177734375,9183.8837890625,16276.8359375,-13568.4013671875,2685.387939453125,10313.193359375,5437.53271484375,4591.94189453125,2737.83984375,0.0,9715.556640625
4912.2177734375,2716.38232421875,13811.587890625,6681.28369140625,16941.228515625,6053.44775390625,8645.8525390625,13430.1181640625,5119.6416015625,7862.25048828125,8703.072265625,7569.7900390625,-4690.48828125,0.0,11625.2900390625,12323.0615234375,1618.0673828125,2048.810302734375,3901.322509765625,5726.814453125,4155.6357421875,11178.65234375,8823.8720703125,23084.482421875,-1736.4820556640625,-219.3450927734375,5202.29345703125,13611.31640625,-6720.22509765625,2957.18505859375,18777.84765625,-11006.1962890625,-5356.470703125,3329.117919921875,10855.9921875,11719.0673828125,6070.13720703125,8790.4931640625,4726.2509765625,-0.0,5491.57470703125,27403.03515625,31216.939453125,8780.9560546875,18788.1796875,14232.794921875,-2915.859130859375,-5993.04833984375,4568.10009765625,14597.5751953125,10447.501953125,13292.6298828125,10729.630859375,1335.14404296875,367.16461181640625,10396.6396484375,0.0,3519.852783203125,7716.814453125,7041.29541015625,6201.26708984375,11831.919921875,9195.8046875,16299.08984375,-13562.04296875,2690.951171875,10316.3720703125,5442.30126953125,4600.68359375,2766.4501953125,0.0,9744.1669921875
