4913.80712890625,2720.35595703125,16866.525390625,6719.4306640625,17296.47265625,6717.8408203125,8924.0078125,13903.77734375,6235.44091796875,8113.38427734375,9493.828125,8163.4521484375,-3720.91943359375,0.0,12633.80078125,12761.751953125,1642.7039794921875,1870.7911376953125,4774.7294921875,6512.80078125,4958.3115234375,11525.9482421875,8782.5458984375,23241.04296875,-259.8762512207031,1240.5714111328125,6725.7880859375,13943.5126953125,-6374.51806640625,3150.30419921875,18683.275390625,-8807.1826171875,-2810.955078125,3951.390625,11232.693359375,11734.16796875,6335.57666015625,9173.552734375,7124.7421875,-0.0,6566.0478515625,27205.1484375,31232.833984375,9300.708984375,19420.78125,14844.7353515625,-944.9323120117188,-2997.71630859375,5292.892578125,14435.4501953125,11415.4814453125,13728.1416015625,10788.4404296875,1429.7166748046875,2273.718505859375,10548.4326171875,0.0,4680.95166015625,8562.4052734375,7962.38623046875,6047.08984375,11470.3173828125,10538.8955078125,16455.650390625,-14990.9658203125,2144.177734375,11196.9306640625,6297.4296875,5754.62939453125,3163.814453125,0.0,9849.8662109375
4920.95947265625,2773.602783203125,16839.50390625,6761.55078125,17294.087890625,6717.8408203125,8921.623046875,13902.9814453125,6225.10888671875,8108.61572265625,9498.595703125,8169.81005859375,-3717.740234375,0.0,12622.673828125,12761.751953125,1644.29345703125,1869.20166015625,4771.55078125,6505.64794921875,4959.9013671875,11527.5380859375,8780.9560546875,23240.248046875,-256.69732666015625,1247.723876953125,6725.7880859375,13943.5126953125,-6365.77587890625,3145.53564453125,18684.86328125,-8798.4404296875,-2807.776123046875,3968.080078125,11232.693359375,11733.373046875,6329.21826171875,9173.552734375,7067.521484375,-0.0,6576.37939453125,27199.5859375,31231.244140625,9299.119140625,19413.62890625,14841.556640625,-951.2901611328125,-2945.26416015625,5296.86572265625,14435.4501953125,11404.35546875,13728.1416015625,10805.1298828125,1413.0274658203125,2286.43408203125,10550.81640625,0.0,4688.10400390625,8552.869140625,7961.5908203125,6047.08984375,11468.728515625,10534.126953125,16442.93359375,-14977.455078125,2146.561767578125,11184.2158203125,6303.787109375,5733.171875,3153.483154296875,0.0,9838.740234375
4925.72802734375,2807.776123046875,16835.53125,6776.65087890625,17315.546875,6736.11962890625,8939.107421875,13921.2607421875,6237.82470703125,8127.689453125,9520.8486328125,8183.31982421875,-3702.640625,0.0,12622.673828125,12779.236328125,1663.366943359375,1885.8909912109375,4789.8291015625,6523.13232421875,4976.5908203125,11543.43359375,8798.4404296875,23256.14453125,-233.65020751953125,1266.79736328125,6744.86181640625,13964.970703125,-6346.70263671875,3163.019775390625,18701.552734375,-8791.287109375,-2798.239501953125,3983.974365234375,11252.5625,11750.857421875,6345.90771484375,9191.0361328125,7108.052734375,-0.0,6597.0419921875,27217.0703125,31250.31640625,9316.603515625,19427.140625,14859.0400390625,-929.0377197265625,-2971.490234375,5320.7080078125,14456.11328125,11405.9453125,13746.4208984375,10835.330078125,1402.696044921875,2338.88623046875,10567.505859375,0.0,4696.84619140625,8557.6376953125,7980.6640625,6070.93212890625,11486.212890625,10550.81640625,16466.775390625,-14948.05078125,2158.48291015625,11185.009765625,6330.01318359375,5718.86669921875,3172.556640625,0.0,9862.58203125
4944.80126953125,2827.644287109375,16840.298828125,6757.57763671875,17340.18359375,6754.3984375,8962.94921875,13942.71875,6273.587890625,8157.88916015625,9548.6640625,8202.3935546875,-3690.7197265625,0.0,12653.66796875,12800.693359375,1680.0562744140625,1906.5538330078125,4810.4921875,6556.5107421875,4994.869140625,11557.73828125,8819.8974609375,23278.39453125,-216.1661834716797,1281.897216796875,6769.49853515625,13984.83984375,-6334.78173828125,3180.50390625,18719.83203125,-8768.2412109375,-2783.934326171875,3976.027099609375,11274.0205078125,11769.9306640625,6371.33935546875,9213.2880859375,7224.8779296875,-0.0,6615.32080078125,27233.759765625,31274.955078125,9337.265625,19456.544921875,14886.0615234375,-905.1958618164062,-2974.669189453125,5345.3447265625,14479.16015625,11439.3232421875,13767.0830078125,10859.9658203125,1451.9691162109375,2362.72802734375,10581.0166015625,0.0,4719.0986328125,8594.1953125,8008.47998046875,6105.89990234375,11506.875,10579.4267578125,16510.486328125,-14930.5654296875,2173.582763671875,11216.7998046875,6341.93408203125,5769.7294921875,3195.603515625,0.0,9909.470703125
4976.5908203125,2833.207275390625,16813.27734375,6755.98779296875,17342.568359375,6761.55078125,8964.5390625,13951.4609375,6275.9716796875,8162.65771484375,9555.0224609375,8221.466796875,-3683.567138671875,0.0,12650.490234375,12811.8203125,1680.0562744140625,1912.116943359375,4814.4658203125,6560.484375,5002.81689453125,11561.7109375,8823.0771484375,23283.162109375,-215.37144470214844,1288.255126953125,6771.087890625,13994.3759765625,-6329.21826171875,3190.04052734375,18726.19140625,-8763.47265625,-2780.75537109375,3973.642822265625,11277.19921875,11774.69921875,6375.31298828125,9218.8515625,7193.08837890625,-0.0,6624.06298828125,27239.322265625,31275.75,9343.6240234375,19462.109375,14894.0087890625,-909.9642333984375,-2908.70654296875,5337.39697265625,14487.90234375,11436.14453125,13775.8251953125,10862.3505859375,1493.2950439453125,2360.343994140625,10593.7314453125,0.0,4733.40380859375,8591.015625,8018.0166015625,6105.10498046875,11512.4384765625,10584.1953125,16501.74609375,-14929.771484375,2188.6826171875,11213.6201171875,6339.5498046875,5762.5771484375,3201.166748046875,0.0,9913.4443359375
5011.55859375,2857.04931640625,16814.07421875,6743.2724609375,17341.771484375,6761.55078125,8965.3330078125,13951.4609375,6268.8193359375,8157.09423828125,9558.9951171875,8233.3876953125,-3684.36181640625,0.0,12650.490234375,12810.23046875,1676.0826416015625,1912.116943359375,4814.4658203125,6549.3583984375,5001.22705078125,11562.5068359375,8822.2822265625,23284.75390625,-206.6294403076172,1289.844482421875,6770.29296875,13995.96484375,-6326.833984375,3200.3720703125,18724.599609375,-8767.4453125,-2787.907958984375,3975.232666015625,11276.404296875,11773.904296875,6375.31298828125,9219.646484375,7144.60986328125,-0.0,6625.65234375,27237.734375,31277.33984375,9343.6240234375,19458.9296875,14888.4462890625,-894.8643798828125,-2893.60693359375,5346.1396484375,14490.287109375,11433.7607421875,13775.03125,10867.9130859375,1513.1632080078125,2353.986083984375,10604.064453125,0.0,4722.27734375,8583.068359375,8014.04296875,6100.33642578125,11511.6435546875,10580.2216796875,16481.080078125,-14930.5654296875,2204.5771484375,11212.03125,6326.833984375,5743.50341796875,3195.603515625,0.0,9890.3974609375
5021.09521484375,2910.296142578125,16804.537109375,6800.49267578125,17360.845703125,6770.29296875,8978.84375,13955.43359375,6282.32958984375,8161.8623046875,9562.96875,8232.59375,-3680.38818359375,0.0,12666.384765625,12813.4091796875,1689.593017578125,1927.2169189453125,4824.79736328125,6558.10009765625,5020.30029296875,11579.990234375,8836.5869140625,23295.083984375,-186.76121520996094,1297.7918701171875,6786.98193359375,14002.3232421875,-6312.529296875,3201.166748046875,18740.49609375,-8773.8037109375,-2768.83447265625,4000.663818359375,11292.2978515625,11787.4140625,6388.02880859375,9227.59375,7141.43115234375,-0.0,6651.08349609375,27252.0390625,31291.64453125,9351.5712890625,19472.44140625,14895.5986328125,-887.7118530273438,-2934.9326171875,5373.95458984375,14496.6435546875,11449.654296875,13778.2099609375,10867.119140625,1491.70556640625,2352.396728515625,10608.83203125,0.0,4700.8193359375,8602.142578125,8014.83837890625,6112.25732421875,11525.154296875,10590.5537109375,16493.001953125,-14919.4404296875,2206.16650390625,11226.3369140625,6310.93994140625,5769.7294921875,3192.4248046875,0.0,9883.244140625
4960.69580078125,2907.1171875,16820.431640625,6789.3662109375,17348.130859375,6755.98779296875,8964.5390625,13936.3603515625,6268.8193359375,8141.99462890625,9531.1806640625,8200.009765625,-3708.20361328125,0.0,12655.2578125,12795.9248046875,1678.466796875,1911.322265625,4812.08203125,6541.4111328125,5010.763671875,11565.685546875,8820.693359375,23279.189453125,-205.83470153808594,1278.7183837890625,6783.0087890625,13986.4287109375,-6324.4501953125,3178.11962890625,18726.984375,-8792.0830078125,-2764.86083984375,3989.53759765625,11281.1728515625,11773.904296875,6372.9287109375,9210.904296875,7056.39501953125,-0.0,6635.98388671875,27240.912109375,31279.724609375,9334.8818359375,19459.724609375,14880.498046875,-931.4219360351562,-2981.02685546875,5359.6494140625,14476.7763671875,11437.7333984375,13760.7255859375,10851.2236328125,1415.41162109375,2339.680908203125,10584.1953125,0.0,4683.3359375,8594.1953125,7996.55908203125,6093.97900390625,11510.0546875,10575.4541015625,16465.1875,-14933.7451171875,2173.582763671875,11216.00390625,6300.6083984375,5762.5771484375,3166.993408203125,0.0,9856.2236328125
4901.09130859375,2814.9287109375,16841.888671875,6763.14013671875,17335.4140625,6748.8349609375,8958.9755859375,13936.3603515625,6278.35595703125,8141.99462890625,9519.259765625,8185.7041015625,-3724.892822265625,0.0,12665.5888671875,12795.130859375,1672.1090087890625,1900.196044921875,4807.3134765625,6544.58984375,4997.25341796875,11555.3544921875,8810.361328125,23272.83203125,-223.31874084472656,1271.5657958984375,6777.4453125,13986.4287109375,-6344.318359375,3172.556640625,18715.859375,-8790.4931640625,-2772.013427734375,3979.2060546875,11268.4560546875,11762.7783203125,6368.955078125,9207.7255859375,7000.76416015625,-0.0,6614.5263671875,27232.169921875,31270.98046875,9331.703125,19461.3125,14878.9091796875,-945.72705078125,-2979.4375,5338.98681640625,14470.41796875,11448.8603515625,13759.9306640625,10808.30859375,1449.5849609375,2330.144287109375,10575.4541015625,0.0,4680.15673828125,8607.705078125,7998.14892578125,6086.03125,11500.517578125,10574.658203125,16464.392578125,-14949.6396484375,2167.224853515625,11228.720703125,6313.32421875,5807.08154296875,3166.993408203125,0.0,9856.2236328125
4867.71240234375,2743.403076171875,16833.146484375,6748.8349609375,17326.673828125,6738.50390625,8951.8232421875,13926.029296875,6275.1767578125,8132.45751953125,9520.8486328125,8179.34716796875,-3724.09814453125,0.0,12667.1787109375,12786.388671875,1658.5985107421875,1890.6593017578125,4796.98193359375,6537.4375,4988.51171875,11542.6376953125,8801.619140625,23260.912109375,-245.57113647460938,1261.2342529296875,6769.49853515625,13976.0966796875,-6353.85498046875,3170.17236328125,18704.732421875,-8803.2080078125,-2776.78173828125,3961.721923828125,11257.3310546875,11750.0615234375,6360.212890625,9198.1884765625,7060.369140625,-0.0,6608.962890625,27221.044921875,31262.23828125,9320.5771484375,19454.16015625,14866.98828125,-946.521728515625,-3015.200439453125,5331.83447265625,14459.2919921875,11450.4501953125,13751.189453125,10787.646484375,1464.684814453125,2334.91259765625,10566.7109375,0.0,4690.48828125,8602.9365234375,7988.6123046875,6072.52099609375,11490.185546875,10565.9169921875,16454.85546875,-14954.4072265625,2164.046142578125,11228.720703125,6318.09228515625,5831.71826171875,3163.019775390625,0.0,9842.712890625
4870.0966796875,2768.039794921875,16836.32421875,6764.72998046875,17325.08203125,6734.52978515625,8951.0283203125,13922.8505859375,6271.20361328125,8129.279296875,9528.7958984375,8177.75732421875,-3722.5087890625,0.0,12661.6162109375,12782.4140625,1657.8038330078125,1889.0699462890625,4796.98193359375,6535.84814453125,4984.53759765625,11541.84375,8801.619140625,23260.912109375,-247.16058349609375,1261.2342529296875,6766.3193359375,13963.3818359375,-6351.470703125,3163.019775390625,18701.552734375,-8796.8515625,-2784.72900390625,3959.337646484375,11254.1513671875,11749.267578125,6361.0078125,9194.21484375,7137.45751953125,-0.0,6605.7841796875,27218.66015625,31261.443359375,9315.80859375,19455.751953125,14864.603515625,-935.3955688476562,-3024.737060546875,5332.62890625,14453.728515625,11442.501953125,13748.8046875,10805.1298828125,1456.737548828125,2340.475830078125,10563.533203125,0.0,4716.71435546875,8602.9365234375,7986.22802734375,6067.7529296875,11487.8017578125,10563.533203125,16456.4453125,-14958.3818359375,2162.45654296875,11221.568359375,6319.681640625,5822.9765625,3154.27783203125,0.0,9842.712890625
4909.83349609375,2795.855224609375,16812.482421875,6737.708984375,17325.87890625,6732.9404296875,8943.0810546875,13926.8232421875,6248.951171875,8125.30517578125,9532.76953125,8179.34716796875,-3716.15087890625,0.0,12629.0322265625,12786.388671875,1662.572265625,1889.0699462890625,4794.59765625,6524.7216796875,4984.53759765625,11538.6650390625,8800.82421875,23261.705078125,-231.26602172851562,1258.0552978515625,6748.04052734375,13964.17578125,-6341.93408203125,3158.25146484375,18703.142578125,-8780.162109375,-2789.497314453125,3955.3642578125,11257.3310546875,11749.267578125,6354.64990234375,9191.8310546875,7132.68896484375,-0.0,6613.7314453125,27212.30078125,31254.291015625,9316.603515625,19441.447265625,14863.0146484375,-961.62158203125,-2992.94775390625,5336.6025390625,14451.3447265625,11410.712890625,13750.3935546875,10839.302734375,1451.9691162109375,2347.62841796875,10564.3271484375,0.0,4722.27734375,8572.7373046875,7988.6123046875,6071.7265625,11487.8017578125,10557.1748046875,16451.677734375,-14944.87109375,2160.072265625,11188.984375,6288.68701171875,5722.8408203125,3145.53564453125,0.0,9847.4814453125
4956.72216796875,2803.802490234375,16779.900390625,6772.6767578125,17334.619140625,6744.86181640625,8940.6962890625,13935.56640625,6237.0302734375,8137.22607421875,9531.1806640625,8180.1416015625,-3709.79296875,0.0,12604.3955078125,12796.7197265625,1669.724853515625,1897.01708984375,4797.77685546875,6529.490234375,4993.27978515625,11550.5859375,8804.7978515625,23268.857421875,-224.90818786621094,1266.79736328125,6742.4775390625,13977.6865234375,-6338.75537109375,3170.967041015625,18710.294921875,-8786.51953125,-2783.934326171875,3970.464111328125,11268.4560546875,11758.8046875,6351.470703125,9198.9833984375,7081.82666015625,-0.0,6632.8046875,27230.58203125,31254.291015625,9327.7294921875,19430.318359375,14870.9609375,-972.747802734375,-3016.789794921875,5338.19189453125,14460.0869140625,11387.666015625,13761.5205078125,10839.302734375,1432.1009521484375,2346.038818359375,10570.685546875,0.0,4719.0986328125,8536.1796875,8000.533203125,6062.984375,11494.9541015625,10560.353515625,16473.134765625,-14938.513671875,2162.45654296875,11165.1416015625,6284.7138671875,5635.42041015625,3172.556640625,0.0,9885.62890625
4991.68994140625,2795.855224609375,16786.255859375,6807.6455078125,17317.13671875,6748.8349609375,8941.4912109375,13933.9765625,6245.77197265625,8141.2001953125,9531.974609375,8167.42626953125,-3712.17724609375,0.0,12621.8798828125,12793.541015625,1662.572265625,1894.6329345703125,4796.98193359375,6537.4375,4985.33251953125,11555.3544921875,8800.029296875,23268.857421875,-225.7029266357422,1271.5657958984375,6748.04052734375,13980.0712890625,-6349.0869140625,3171.76171875,18707.91015625,-8794.466796875,-2789.497314453125,3987.947998046875,11259.71484375,11761.1884765625,6351.470703125,9199.7783203125,7072.2900390625,-0.0,6599.42626953125,27251.244140625,31251.908203125,9328.5244140625,19435.087890625,14871.7568359375,-940.1639404296875,-3077.98388671875,5323.88671875,14463.265625,11404.35546875,13759.1357421875,10843.27734375,1376.469970703125,2341.2705078125,10567.505859375,0.0,4679.36181640625,8548.8955078125,7997.353515625,6068.5478515625,11492.5703125,10563.533203125,16491.4140625,-14952.0234375,2157.688232421875,11183.4208984375,6287.892578125,5679.92529296875,3178.11962890625,0.0,9905.4970703125
4936.0595703125,2748.171630859375,16765.59375,6817.18212890625,17311.572265625,6741.6826171875,8935.1337890625,13917.287109375,6237.82470703125,8122.9208984375,9518.4638671875,8157.09423828125,-3718.53515625,0.0,12631.416015625,12776.0576171875,1657.0091552734375,1885.09619140625,4785.85595703125,6521.54296875,4976.5908203125,11545.0224609375,8792.0830078125,23257.732421875,-236.03439331054688,1268.3868408203125,6755.193359375,13971.3291015625,-6352.265625,3170.17236328125,18696.78515625,-8799.2353515625,-2799.0341796875,3985.563720703125,11248.5888671875,11750.857421875,6346.70263671875,9187.857421875,7138.25244140625,-0.0,6593.86279296875,27237.734375,31248.728515625,9318.98828125,19430.318359375,14856.65625,-947.3164672851562,-3055.7314453125,5327.8603515625,14464.060546875,11415.4814453125,13741.65234375,10835.330078125,1351.8333740234375,2335.70751953125,10565.1220703125,0.0,4651.54638671875,8556.048828125,7981.45947265625,6050.2685546875,11483.033203125,10552.40625,16462.0078125,-14960.765625,2153.71435546875,11193.751953125,6273.587890625,5713.30419921875,3147.125244140625,0.0,9866.5556640625
4870.0966796875,2740.22412109375,16778.310546875,6781.41943359375,17324.2890625,6748.8349609375,8942.2861328125,13926.029296875,6248.15625,8126.099609375,9519.259765625,8176.962890625,-3724.09814453125,0.0,12645.7216796875,12784.798828125,1671.314208984375,1891.4541015625,4793.00830078125,6523.92724609375,4989.30615234375,11548.99609375,8800.029296875,23261.705078125,-228.0871124267578,1272.3604736328125,6755.98779296875,13980.0712890625,-6351.470703125,3175.7353515625,18706.322265625,-8796.0556640625,-2775.98681640625,3981.59033203125,11258.919921875,11754.830078125,6353.85498046875,9195.009765625,7146.19970703125,-0.0,6617.705078125,27231.375,31256.67578125,9325.3447265625,19437.470703125,14863.0146484375,-956.0584716796875,-2977.84814453125,5337.39697265625,14474.3916015625,11429.787109375,13748.8046875,10814.6669921875,1374.0858154296875,2333.3232421875,10573.8642578125,0.0,4679.36181640625,8569.55859375,7987.81689453125,6043.9111328125,11489.3916015625,10557.96875,16451.677734375,-14958.3818359375,2164.046142578125,11208.0576171875,6279.150390625,5740.32470703125,3159.046142578125,0.0,9849.0712890625
4917.7802734375,2765.655517578125,16860.9609375,6761.55078125,17332.234375,6761.55078125,8951.8232421875,13941.923828125,6254.51416015625,8136.431640625,9539.921875,8205.5732421875,-3709.79296875,0.0,12640.158203125,12800.693359375,1680.0562744140625,1903.375,4804.92919921875,6531.07958984375,4995.6640625,11558.533203125,8809.56640625,23276.009765625,-216.1661834716797,1285.870849609375,6754.3984375,13995.1708984375,-6338.75537109375,3187.656494140625,18715.859375,-8784.134765625,-2765.655517578125,3986.358642578125,11266.8671875,11768.3408203125,6361.802734375,9208.51953125,7102.4892578125,-0.0,6623.26806640625,27235.349609375,31263.828125,9341.240234375,19443.03515625,14875.7294921875,-915.52734375,-2932.548583984375,5341.37109375,14486.3125,11421.83984375,13764.69921875,10818.640625,1421.76953125,2334.117919921875,10588.1689453125,0.0,4697.64111328125,8569.55859375,7996.55908203125,6082.05810546875,11499.72265625,10568.30078125,16456.4453125,-14943.2822265625,2183.11962890625,11200.1103515625,6303.787109375,5719.66162109375,3164.609130859375,0.0,9841.9189453125
4990.10107421875,2752.14501953125,16865.73046875,6744.86181640625,17337.00390625,6767.1142578125,8953.412109375,13949.076171875,6253.71923828125,8146.7626953125,9552.6376953125,8219.0830078125,-3702.640625,0.0,12625.853515625,12808.640625,1673.698486328125,1905.7591552734375,4809.69775390625,6539.02685546875,4990.10107421875,11558.533203125,8811.951171875,23281.57421875,-210.6030731201172,1296.2022705078125,6758.3720703125,14000.7333984375,-6330.01318359375,3214.677001953125,18715.0625,-8777.77734375,-2788.70263671875,3976.82177734375,11266.8671875,11772.3154296875,6366.57080078125,9214.8779296875,7130.3046875,-0.0,6618.5,27240.1171875,31264.62109375,9346.802734375,19443.830078125,14883.677734375,-902.8117065429688,-2927.7802734375,5337.39697265625,14489.4912109375,11406.7392578125,13773.44140625,10830.5615234375,1435.27978515625,2338.091552734375,10603.2685546875,0.0,4700.8193359375,8562.4052734375,8008.47998046875,6107.4892578125,11504.4912109375,10573.0693359375,16475.51953125,-14934.5400390625,2204.5771484375,11185.009765625,6322.06591796875,5691.84619140625,3174.14599609375,0.0,9861.787109375
4992.48486328125,2807.776123046875,16806.125,6726.5830078125,17322.69921875,6741.6826171875,8942.2861328125,13926.029296875,6244.9775390625,8133.251953125,9538.3330078125,8191.26806640625,-3720.12451171875,0.0,12623.4697265625,12784.798828125,1647.472412109375,1887.4803466796875,4793.802734375,6528.69580078125,4974.20654296875,11537.869140625,8796.8515625,23263.296875,-225.7029266357422,1264.4132080078125,6760.755859375,13968.9443359375,-6335.57666015625,3190.835205078125,18695.990234375,-8804.00390625,-2810.955078125,3946.622314453125,11252.5625,11753.2412109375,6353.06005859375,9197.39453125,7101.69482421875,-0.0,6611.34716796875,27218.66015625,31252.701171875,9322.9609375,19433.498046875,14868.5771484375,-932.2166748046875,-2971.490234375,5333.423828125,14464.85546875,11406.7392578125,13750.3935546875,10825.79296875,1471.83740234375,2335.70751953125,10576.248046875,0.0,4690.48828125,8557.6376953125,7991.791015625,6078.87890625,11489.3916015625,10558.7646484375,16465.982421875,-14945.666015625,2183.11962890625,11182.6259765625,6291.8662109375,5696.61474609375,3171.76171875,0.0,9853.0458984375
4976.5908203125,2851.486328125,16800.5625,6727.37744140625,17321.904296875,6740.88818359375,8947.849609375,13930.0029296875,6259.28271484375,8141.2001953125,9533.564453125,8194.4462890625,-3727.277099609375,0.0,12645.7216796875,12787.1826171875,1648.26708984375,1888.275146484375,4796.98193359375,6539.02685546875,4975.0009765625,11536.2802734375,8799.2353515625,23263.296875,-224.90818786621094,1257.2606201171875,6768.70361328125,13972.123046875,-6339.5498046875,3180.50390625,18695.990234375,-8804.7978515625,-2801.418212890625,3946.622314453125,11251.767578125,11751.6513671875,6357.82861328125,9198.1884765625,7032.55322265625,-0.0,6603.39990234375,27209.91796875,31258.265625,9325.3447265625,19443.830078125,14874.140625,-943.3428344726562,-2957.97998046875,5348.5234375,14464.060546875,11430.5810546875,13754.3681640625,10829.7666015625,1487.73193359375,2342.85986328125,10576.248046875,0.0,4718.3037109375,8575.916015625,7998.943359375,6057.42138671875,11490.9814453125,10566.7109375,16475.51953125,-14948.8447265625,2171.9931640625,11208.0576171875,6299.01904296875,5744.29833984375,3186.06689453125,0.0,9866.5556640625
4926.52294921875,2818.107666015625,16807.71484375,6723.40380859375,17313.95703125,6737.708984375,8943.0810546875,13929.2080078125,6258.48779296875,8141.2001953125,9521.6435546875,8185.7041015625,-3724.09814453125,0.0,12648.10546875,12788.7724609375,1641.9093017578125,1880.327880859375,4793.00830078125,6537.4375,4968.64306640625,11528.3330078125,8793.671875,23258.52734375,-236.82911682128906,1253.2869873046875,6753.603515625,13973.712890625,-6348.2919921875,3161.430419921875,18689.6328125,-8812.7451171875,-2806.9814453125,3940.26416015625,11244.6142578125,11745.2939453125,6351.470703125,9194.21484375,7063.5478515625,-0.0,6589.8896484375,27199.5859375,31251.908203125,9322.9609375,19441.447265625,14872.55078125,-946.521728515625,-2980.232177734375,5338.98681640625,14460.0869140625,11430.5810546875,13755.9580078125,10824.203125,1484.552978515625,2338.091552734375,10565.9169921875,0.0,4719.89306640625,8575.1220703125,7998.14892578125,6048.67919921875,11484.623046875,10564.3271484375,16473.134765625,-14957.5869140625,2147.356689453125,11209.6474609375,6314.9130859375,5755.42431640625,3183.6826171875,0.0,9861.787109375
4927.3173828125,2791.0869140625,16815.662109375,6683.66748046875,17304.419921875,6727.37744140625,8930.365234375,13919.6708984375,6241.00341796875,8130.07373046875,9524.02734375,8165.83642578125,-3709.79296875,0.0,12625.05859375,12778.44140625,1628.39892578125,1868.4068603515625,4782.6767578125,6523.92724609375,4958.3115234375,11518.001953125,8782.5458984375,23248.990234375,-240.80276489257812,1250.108154296875,6740.88818359375,13962.5859375,-6347.49755859375,3144.740966796875,18680.095703125,-8827.0498046875,-2825.26025390625,3926.75390625,11236.66796875,11735.7568359375,6338.75537109375,9184.677734375,7110.43701171875,-0.0,6581.94189453125,27192.43359375,31240.78125,9311.8349609375,19429.525390625,14861.4248046875,-939.3692016601562,-3010.431884765625,5326.27099609375,14450.5498046875,11409.123046875,13744.8310546875,10836.1240234375,1478.989990234375,2335.70751953125,10549.2275390625,0.0,4684.92529296875,8554.458984375,7986.22802734375,6065.36865234375,11473.49609375,10552.40625,16458.830078125,-14951.2294921875,2124.3095703125,11186.599609375,6310.93994140625,5718.86669921875,3165.404052734375,0.0,9847.4814453125
4953.54296875,2804.59716796875,16824.404296875,6712.27783203125,17318.7265625,6742.4775390625,8941.4912109375,13934.771484375,6248.15625,8139.6103515625,9539.921875,8176.16748046875,-3702.640625,0.0,12628.2373046875,12793.541015625,1643.498779296875,1883.5068359375,4794.59765625,6531.07958984375,4975.7958984375,11535.4853515625,8795.26171875,23263.296875,-226.49765014648438,1268.3868408203125,6755.193359375,13976.8916015625,-6337.9609375,3161.430419921875,18696.78515625,-8816.71875,-2800.62353515625,3949.801025390625,11252.5625,11750.857421875,6353.06005859375,9198.1884765625,7055.6005859375,-0.0,6601.015625,27211.5078125,31251.908203125,9326.140625,19439.0625,14873.345703125,-930.627197265625,-3000.895263671875,5335.8076171875,14462.470703125,11413.09765625,13759.9306640625,10848.83984375,1488.5267333984375,2346.038818359375,10573.8642578125,0.0,4700.8193359375,8553.6640625,8002.91748046875,6094.77392578125,11488.5966796875,10562.7373046875,16460.41796875,-14936.1298828125,2142.58837890625,11189.7783203125,6311.73486328125,5710.125,3159.8408203125,0.0,9853.0458984375
4982.9482421875,2846.7177734375,16839.50390625,6755.98779296875,17344.951171875,6775.85595703125,8970.1015625,13967.3544921875,6276.76611328125,8165.0419921875,9558.9951171875,8214.314453125,-3689.130126953125,0.0,12663.205078125,12826.125,1671.314208984375,1912.9117431640625,4823.2080078125,6558.10009765625,5005.20068359375,11565.685546875,8823.8720703125,23294.291015625,-201.0663299560547,1300.970703125,6787.77685546875,14014.244140625,-6319.681640625,3205.935302734375,18723.806640625,-8781.7509765625,-2768.83447265625,3979.2060546875,11277.19921875,11781.056640625,6382.46533203125,9229.18359375,7078.6474609375,-0.0,6626.447265625,27247.271484375,31280.517578125,9357.9296875,19466.876953125,14902.7509765625,-908.374755859375,-2969.90087890625,5360.4443359375,14495.849609375,11446.4755859375,13794.1044921875,10852.8134765625,1506.805419921875,2367.49658203125,10612.8056640625,0.0,4746.9140625,8591.015625,8032.32177734375,6108.2841796875,11516.412109375,10591.34765625,16484.259765625,-14914.671875,2195.835205078125,11221.568359375,6347.49755859375,5759.39794921875,3193.219482421875,0.0,9872.9130859375
4982.9482421875,2817.31298828125,16837.119140625,6849.765625,17348.923828125,6786.1875,8975.6650390625,13974.5078125,6285.5087890625,8170.6044921875,9551.0478515625,8219.8779296875,-3697.077392578125,0.0,12672.7421875,12834.8662109375,1680.0562744140625,1917.68017578125,4829.5654296875,6566.8427734375,5005.9951171875,11579.990234375,8827.845703125,23299.05859375,-197.88742065429688,1313.6864013671875,6793.34033203125,14025.3701171875,-6319.681640625,3226.59814453125,18729.369140625,-8769.03515625,-2777.576416015625,3995.1005859375,11280.376953125,11790.5927734375,6388.02880859375,9235.541015625,7094.5419921875,-0.0,6625.65234375,27265.548828125,31282.90234375,9366.671875,19472.44140625,14909.9033203125,-911.5537109375,-2961.15869140625,5362.03369140625,14509.3603515625,11455.21875,13800.4619140625,10847.2509765625,1474.2215576171875,2365.906982421875,10619.1630859375,0.0,4765.1923828125,8601.34765625,8039.474609375,6084.4423828125,11522.76953125,10596.9111328125,16493.001953125,-14916.2607421875,2216.498046875,11233.4892578125,6356.2392578125,5777.67724609375,3207.524658203125,0.0,9884.833984375
4960.69580078125,2782.3447265625,16828.37890625,6873.607421875,17345.74609375,6786.1875,8971.69140625,13972.123046875,6279.150390625,8165.83642578125,9535.1533203125,8219.8779296875,-3712.971923828125,0.0,12665.5888671875,12832.482421875,1688.79833984375,1917.68017578125,4826.38671875,6560.484375,5008.37939453125,11586.3486328125,8826.255859375,23297.46875,-203.4505157470703,1310.5074462890625,6789.3662109375,14023.78125,-6329.21826171875,3222.62451171875,18732.546875,-8795.26171875,-2769.629150390625,4028.47900390625,11281.966796875,11791.388671875,6383.26025390625,9232.361328125,7140.63623046875,-0.0,6631.21533203125,27274.291015625,31280.517578125,9365.8759765625,19468.46484375,14906.7236328125,-923.474609375,-2967.5166015625,5355.67626953125,14507.7705078125,11452.0390625,13797.283203125,10838.5087890625,1432.8956298828125,2355.57568359375,10616.779296875,0.0,4758.0400390625,8596.5791015625,8037.884765625,6055.037109375,11520.3857421875,10593.7314453125,16485.056640625,-14931.361328125,2214.114013671875,11227.130859375,6357.0341796875,5775.29296875,3198.78271484375,0.0,9882.4501953125
4929.701171875,2780.75537109375,16789.435546875,6775.85595703125,17345.74609375,6773.4716796875,8970.1015625,13963.3818359375,6287.09814453125,8164.24658203125,9531.1806640625,8211.1357421875,-3705.024658203125,0.0,12677.5107421875,12821.3564453125,1679.2615966796875,1909.7327880859375,4820.82373046875,6565.2529296875,5005.9951171875,11567.275390625,8823.0771484375,23289.521484375,-217.75563049316406,1299.3812255859375,6787.77685546875,14015.833984375,-6337.166015625,3201.166748046875,18724.599609375,-8804.7978515625,-2764.06591796875,4008.611083984375,11280.376953125,11777.8779296875,6380.8759765625,9225.208984375,7061.16357421875,-0.0,6643.13671875,27247.271484375,31280.517578125,9357.134765625,19470.849609375,14901.1611328125,-942.548095703125,-2946.853515625,5358.85498046875,14499.0283203125,11460.78125,13788.541015625,10828.177734375,1437.6640625,2344.44921875,10604.064453125,0.0,4724.6611328125,8608.5,8032.32177734375,6075.7001953125,11514.02734375,10590.5537109375,16500.94921875,-14942.486328125,2202.193115234375,11238.2578125,6353.85498046875,5814.234375,3201.96142578125,0.0,9894.37109375
4882.017578125,2772.013427734375,16795.79296875,6779.03515625,17331.44140625,6749.6298828125,8951.0283203125,13931.591796875,6266.43505859375,8143.58447265625,9521.6435546875,8180.93603515625,-3707.408935546875,0.0,12659.232421875,12790.3623046875,1655.419677734375,1889.8646240234375,4800.16064453125,6543.794921875,4991.68994140625,11544.2275390625,8806.3876953125,23268.857421875,-236.03439331054688,1278.7183837890625,6765.5244140625,13982.455078125,-6343.5234375,3166.19873046875,18704.732421875,-8821.4873046875,-2779.166015625,3973.642822265625,11263.6884765625,11757.21484375,6360.212890625,9200.5732421875,7023.8115234375,-0.0,6629.6259765625,27221.837890625,31263.828125,9332.498046875,19450.982421875,14875.7294921875,-964.800537109375,-2981.02685546875,5344.5498046875,14473.59765625,11441.7080078125,13756.751953125,10808.30859375,1419.38525390625,2312.66015625,10566.7109375,0.0,4662.67236328125,8584.658203125,8001.32763671875,6073.31591796875,11493.365234375,10569.8896484375,16489.029296875,-14952.8193359375,2159.277587890625,11220.7724609375,6279.150390625,5788.00830078125,3182.09326171875,0.0,9882.4501953125
4856.58642578125,2759.297607421875,16785.462890625,6766.3193359375,17317.9296875,6728.17236328125,8933.5439453125,13914.1083984375,6244.1826171875,8132.45751953125,9510.517578125,8153.91552734375,-3705.8193359375,0.0,12621.8798828125,12772.8779296875,1641.1146240234375,1874.7647705078125,4783.4716796875,6525.5166015625,4974.20654296875,11529.9228515625,8790.4931640625,23252.96484375,-249.54476928710938,1254.081787109375,6739.29833984375,13948.28125,-6338.75537109375,3137.58837890625,18688.837890625,-8809.56640625,-2803.0078125,3941.05908203125,11248.5888671875,11741.3203125,6341.93408203125,9183.8837890625,7023.0166015625,-0.0,6613.7314453125,27207.533203125,31243.166015625,9307.861328125,19431.11328125,14859.8359375,-970.3636474609375,-3050.168212890625,5330.24462890625,14444.1923828125,11406.7392578125,13738.47265625,10799.5673828125,1384.417236328125,2296.765625,10534.9228515625,0.0,4661.8779296875,8557.6376953125,7989.40673828125,6060.60009765625,11478.2646484375,10552.40625,16476.3125,-14956.7919921875,2122.719970703125,11183.4208984375,6264.05078125,5714.8935546875,3172.556640625,0.0,9876.8876953125
4883.607421875,2769.629150390625,16807.71484375,6736.9140625,17325.08203125,6738.50390625,8939.90234375,13926.029296875,6248.15625,8143.58447265625,9525.6162109375,8157.09423828125,-3686.745849609375,0.0,12625.05859375,12784.798828125,1653.8302001953125,1886.6856689453125,4793.00830078125,6534.25830078125,4984.53759765625,11538.6650390625,8798.4404296875,23260.1171875,-231.26602172851562,1257.2606201171875,6748.8349609375,13960.998046875,-6324.4501953125,3139.97265625,18699.169921875,-8799.2353515625,-2788.70263671875,3946.622314453125,11257.3310546875,11751.6513671875,6349.0869140625,9194.21484375,7063.5478515625,-0.0,6617.705078125,27217.0703125,31250.31640625,9318.98828125,19434.29296875,14870.9609375,-958.4426879882812,-3039.8369140625,5328.6552734375,14447.37109375,11409.9189453125,13750.3935546875,10829.7666015625,1392.364501953125,2330.93896484375,10534.126953125,0.0,4676.9775390625,8560.021484375,8000.533203125,6049.47412109375,11486.212890625,10561.943359375,16484.259765625,-14936.923828125,2124.3095703125,11185.8056640625,6276.76611328125,5713.30419921875,3180.50390625,0.0,9887.21875
4874.865234375,2751.350341796875,16761.62109375,6704.33056640625,17315.546875,6723.40380859375,8934.3388671875,13912.5185546875,6239.4140625,8129.279296875,9524.02734375,8150.73681640625,-3699.461669921875,0.0,12622.673828125,12770.4931640625,1644.29345703125,1877.14892578125,4781.8818359375,6522.33740234375,4975.7958984375,11525.154296875,8791.287109375,23247.400390625,-231.26602172851562,1239.776611328125,6756.78271484375,13951.4609375,-6335.57666015625,3132.820068359375,18688.837890625,-8811.15625,-2802.212890625,3936.290771484375,11248.5888671875,11739.73046875,6341.93408203125,9184.677734375,7089.7734375,-0.0,6612.14208984375,27200.380859375,31247.93359375,9306.271484375,19427.140625,14857.451171875,-971.9530639648438,-2998.510986328125,5323.091796875,14437.8349609375,11405.150390625,13736.8837890625,10814.6669921875,1417.0010986328125,2346.038818359375,10520.6171875,0.0,4660.28857421875,8554.458984375,7981.45947265625,6012.91650390625,11473.49609375,10551.6123046875,16465.982421875,-14951.2294921875,2112.388671875,11181.8310546875,6258.48779296875,5712.50927734375,3170.17236328125,0.0,9866.5556640625
4870.8916015625,2776.78173828125,16693.2734375,6703.53564453125,17312.369140625,6717.04638671875,8922.41796875,13902.9814453125,6227.4931640625,8116.56298828125,9507.3388671875,8160.2734375,-3700.25634765625,0.0,12605.984375,12764.13671875,1637.9356689453125,1870.7911376953125,4773.14013671875,6510.41650390625,4974.20654296875,11517.20703125,8782.5458984375,23240.248046875,-258.28680419921875,1235.802978515625,6728.96728515625,13946.6923828125,-6349.8818359375,3139.97265625,18684.068359375,-8811.951171875,-2800.62353515625,3932.317138671875,11241.435546875,11731.7841796875,6330.80810546875,9176.7314453125,7050.83203125,-0.0,6612.14208984375,27186.076171875,31236.013671875,9299.119140625,19415.220703125,14848.708984375,-991.0265502929688,-2979.4375,5315.939453125,14441.013671875,11388.4609375,13730.5263671875,10782.8779296875,1440.843017578125,2339.680908203125,10525.3857421875,0.0,4657.10986328125,8540.9482421875,7971.9228515625,6024.04248046875,11466.34375,10542.0751953125,16453.265625,-14962.35546875,2128.283203125,11166.7314453125,6265.64013671875,5694.23046875,3159.8408203125,0.0,9855.4296875
4880.42822265625,2772.80810546875,16762.4140625,6689.23046875,17286.935546875,6706.71484375,8908.1123046875,13895.8291015625,6218.75146484375,8105.4375,9487.4697265625,8148.3525390625,-3700.25634765625,0.0,12612.3427734375,12755.3935546875,1622.0411376953125,1853.30712890625,4760.42431640625,6501.6748046875,4948.77490234375,11504.4912109375,8766.6513671875,23229.91796875,-287.6917419433594,1231.03466796875,6698.76708984375,13937.1552734375,-6359.41845703125,3128.846435546875,18667.37890625,-8827.0498046875,-2829.23388671875,3918.01220703125,11222.3623046875,11716.68359375,6316.5029296875,9163.220703125,7080.23681640625,-0.0,6578.763671875,27175.744140625,31214.556640625,9289.58203125,19406.4765625,14838.3779296875,-992.6160278320312,-3009.63720703125,5284.150390625,14431.4765625,11394.0234375,13722.5791015625,10767.77734375,1442.432373046875,2318.22314453125,10528.564453125,0.0,4653.9306640625,8536.1796875,7966.359375,6034.3740234375,11454.4228515625,10532.5380859375,16442.93359375,-14982.2236328125,2132.2568359375,11172.294921875,6275.9716796875,5709.330078125,3156.662109375,0.0,9838.740234375
4914.6015625,2770.423828125,16858.578125,6736.11962890625,17297.267578125,6721.814453125,8924.8017578125,13910.134765625,6240.208984375,8121.3310546875,9507.3388671875,8157.09423828125,-3702.640625,0.0,12633.005859375,12768.904296875,1637.9356689453125,1869.20166015625,4778.703125,6518.36376953125,4959.9013671875,11523.564453125,8783.3408203125,23245.015625,-262.26043701171875,1242.95556640625,6732.9404296875,13951.4609375,-6349.0869140625,3143.151611328125,18684.068359375,-8820.693359375,-2811.749755859375,3939.4697265625,11235.873046875,11734.962890625,6333.98681640625,9179.91015625,7108.052734375,-0.0,6589.0947265625,27201.17578125,31230.44921875,9303.8876953125,19427.140625,14852.6826171875,-955.2637939453125,-3041.426513671875,5289.71337890625,14439.423828125,11414.6875,13736.0888671875,10783.671875,1435.27978515625,2330.144287109375,10552.40625,0.0,4663.46728515625,8566.3798828125,7974.30712890625,6055.037109375,11472.7021484375,10550.0224609375,16462.0078125,-14973.4814453125,2144.97265625,11192.162109375,6294.25048828125,5730.78759765625,3171.76171875,0.0,9853.83984375
4951.9541015625,2809.365478515625,16833.94140625,6788.57177734375,17336.2109375,6761.55078125,8958.9755859375,13945.1025390625,6269.61376953125,8154.7099609375,9542.3056640625,8200.009765625,-3710.587646484375,0.0,12656.84765625,12804.6669921875,1677.6719970703125,1906.5538330078125,4813.6708984375,6546.17919921875,5002.81689453125,11567.275390625,8818.30859375,23281.57421875,-219.3450927734375,1282.69189453125,6767.90869140625,13989.607421875,-6341.13916015625,3190.04052734375,18726.19140625,-8788.9033203125,-2763.271240234375,3998.279541015625,11273.224609375,11776.2880859375,6367.365234375,9214.8779296875,7094.5419921875,-0.0,6628.03662109375,27245.6796875,31266.212890625,9342.0341796875,19457.33984375,14886.0615234375,-917.9114990234375,-3005.66357421875,5340.576171875,14475.9814453125,11437.7333984375,13770.2626953125,10826.587890625,1445.611328125,2355.57568359375,10599.2958984375,0.0,4705.587890625,8590.2216796875,8009.2744140625,6079.673828125,11508.46484375,10581.0166015625,16488.234375,-14945.666015625,2191.066650390625,11216.7998046875,6323.65576171875,5750.65625,3192.4248046875,0.0,9885.62890625
4967.84814453125,2823.670654296875,16852.220703125,6751.21923828125,17340.978515625,6762.345703125,8964.5390625,13948.28125,6269.61376953125,8154.7099609375,9556.611328125,8203.9833984375,-3720.12451171875,0.0,12661.6162109375,12808.640625,1680.0562744140625,1909.7327880859375,4816.85009765625,6546.97412109375,5002.02197265625,11563.30078125,8822.2822265625,23284.75390625,-195.50323486328125,1283.4866943359375,6779.03515625,13992.7861328125,-6338.75537109375,3191.630126953125,18725.39453125,-8773.8037109375,-2775.98681640625,3994.30615234375,11274.814453125,11776.2880859375,6372.1337890625,9218.056640625,7137.45751953125,-0.0,6621.6787109375,27237.734375,31271.7734375,9343.6240234375,19460.51953125,14888.4462890625,-898.0433349609375,-2969.10595703125,5355.67626953125,14477.5703125,11444.091796875,13773.44140625,10845.6611328125,1460.711181640625,2361.138671875,10603.2685546875,0.0,4725.4560546875,8590.2216796875,8014.04296875,6073.31591796875,11510.8486328125,10584.1953125,16484.259765625,-14926.5927734375,2192.65625,11221.568359375,6323.65576171875,5755.42431640625,3181.298583984375,0.0,9879.271484375
4975.7958984375,2818.107666015625,16849.041015625,6747.24560546875,17332.234375,6750.4248046875,8954.20703125,13941.923828125,6262.46142578125,8141.99462890625,9552.6376953125,8184.115234375,-3728.072021484375,0.0,12648.900390625,12801.48828125,1660.9827880859375,1897.8118896484375,4807.3134765625,6539.02685546875,4986.921875,11548.99609375,8811.951171875,23274.421875,-200.2716064453125,1266.002685546875,6768.70361328125,13981.66015625,-6334.78173828125,3174.94091796875,18709.501953125,-8789.6982421875,-2799.0341796875,3972.053466796875,11263.6884765625,11762.7783203125,6363.39208984375,9208.51953125,7146.994140625,-0.0,6607.37353515625,27220.25,31262.23828125,9334.0869140625,19452.572265625,14878.9091796875,-891.6854858398438,-3003.279541015625,5347.728515625,14462.470703125,11433.7607421875,13765.494140625,10835.330078125,1447.9954833984375,2353.986083984375,10584.990234375,0.0,4727.84033203125,8586.2470703125,8006.89013671875,6083.6474609375,11500.517578125,10573.8642578125,16475.51953125,-14925.0029296875,2169.609130859375,11211.236328125,6310.14501953125,5750.65625,3166.19873046875,0.0,9867.3505859375
4979.76904296875,2807.776123046875,16823.609375,6805.26123046875,17336.2109375,6759.96142578125,8955.001953125,13949.87109375,6267.2294921875,8143.58447265625,9548.6640625,8177.75732421875,-3718.53515625,0.0,12650.490234375,12810.23046875,1669.724853515625,1904.9644775390625,4812.08203125,6543.00048828125,4994.869140625,11560.9169921875,8815.12890625,23278.39453125,-202.65579223632812,1274.74462890625,6771.087890625,13991.1962890625,-6333.1923828125,3176.530029296875,18718.2421875,-8797.6455078125,-2787.907958984375,3998.279541015625,11269.251953125,11772.3154296875,6365.77587890625,9214.083984375,7142.2255859375,-0.0,6615.32080078125,27236.9375,31263.828125,9341.240234375,19455.751953125,14885.2666015625,-895.6591186523438,-3031.0947265625,5340.576171875,14471.212890625,11433.7607421875,13775.03125,10844.8671875,1426.537841796875,2347.62841796875,10585.78515625,0.0,4719.89306640625,8591.8115234375,8017.22216796875,6097.9521484375,11503.6962890625,10577.837890625,16480.287109375,-14932.1552734375,2164.046142578125,11213.6201171875,6307.7607421875,5761.7822265625,3163.019775390625,0.0,9868.14453125
4951.1591796875,2768.83447265625,16813.27734375,6739.29833984375,17337.00390625,6760.755859375,8955.001953125,13943.5126953125,6266.43505859375,8143.58447265625,9544.6904296875,8176.962890625,-3701.845947265625,0.0,12658.4365234375,12804.6669921875,1669.724853515625,1903.375,4812.08203125,6542.2060546875,4999.6376953125,11556.943359375,8814.3349609375,23277.6015625,-211.39781188964844,1276.3341064453125,6771.087890625,13997.5546875,-6328.423828125,3171.76171875,18718.2421875,-8804.7978515625,-2773.602783203125,3971.258544921875,11271.6357421875,11769.9306640625,6363.39208984375,9212.494140625,7114.41015625,-0.0,6630.4208984375,27236.142578125,31263.03515625,9340.4453125,19454.95703125,14882.8818359375,-919.5009765625,-3006.458251953125,5341.37109375,14476.7763671875,11440.1181640625,13771.056640625,10840.0986328125,1437.6640625,2338.88623046875,10581.810546875,0.0,4684.92529296875,8591.8115234375,8004.50634765625,6082.05810546875,11504.4912109375,10577.837890625,16474.724609375,-14936.1298828125,2157.688232421875,11219.978515625,6299.81396484375,5772.90869140625,3167.788330078125,0.0,9861.787109375
4927.3173828125,2731.482177734375,16834.736328125,6747.24560546875,17344.951171875,6767.90869140625,8962.154296875,13950.6650390625,6274.38232421875,8153.91552734375,9551.0478515625,8192.8564453125,-3697.8720703125,0.0,12662.4111328125,12812.6142578125,1677.6719970703125,1912.116943359375,4817.64453125,6550.94775390625,5010.763671875,11561.7109375,8823.8720703125,23283.958984375,-204.24525451660156,1285.076171875,6774.2666015625,14006.296875,-6326.03955078125,3178.914306640625,18727.779296875,-8796.0556640625,-2757.708251953125,3970.464111328125,11280.376953125,11775.4931640625,6370.54443359375,9218.056640625,7064.34228515625,-0.0,6643.93115234375,27239.322265625,31273.365234375,9350.7763671875,19463.697265625,14891.6240234375,-922.679931640625,-2952.416748046875,5357.265625,14490.287109375,11446.4755859375,13776.6201171875,10837.7138671875,1445.611328125,2350.012451171875,10595.3212890625,0.0,4700.02490234375,8594.990234375,8014.04296875,6070.13720703125,11510.8486328125,10585.78515625,16485.056640625,-14932.1552734375,2169.609130859375,11225.541015625,6322.86083984375,5778.4716796875,3170.967041015625,0.0,9874.5029296875
4905.859375,2739.429443359375,16883.21484375,6759.16650390625,17337.798828125,6752.01416015625,8949.439453125,13939.5400390625,6260.0771484375,8139.6103515625,9551.0478515625,8182.525390625,-3693.103759765625,0.0,12651.2841796875,12800.693359375,1667.340576171875,1900.9908447265625,4806.5185546875,6535.84814453125,4998.8427734375,11552.1748046875,8812.7451171875,23272.037109375,-208.21888732910156,1273.949951171875,6767.1142578125,13982.455078125,-6326.833984375,3162.22509765625,18718.2421875,-8797.6455078125,-2758.5029296875,3968.87451171875,11268.4560546875,11765.162109375,6358.62353515625,9206.9306640625,7006.3271484375,-0.0,6624.06298828125,27225.8125,31262.23828125,9334.0869140625,19450.1875,14877.3193359375,-925.0640869140625,-2956.390380859375,5342.96044921875,14474.3916015625,11433.7607421875,13763.1103515625,10836.1240234375,1428.9219970703125,2351.601806640625,10587.375,0.0,4718.3037109375,8579.890625,8002.91748046875,6051.8583984375,11501.3125,10573.0693359375,16471.544921875,-14932.9501953125,2159.277587890625,11212.826171875,6275.1767578125,5757.80859375,3161.430419921875,0.0,9861.787109375
4888.3759765625,2764.86083984375,16844.2734375,6775.85595703125,17329.05859375,6747.24560546875,8941.4912109375,13937.9501953125,6252.1298828125,8134.841796875,9541.51171875,8170.6044921875,-3687.540771484375,0.0,12639.36328125,12797.5146484375,1661.7774658203125,1895.427734375,4801.75,6527.90087890625,4993.27978515625,11549.7900390625,8807.1826171875,23268.064453125,-221.72927856445312,1268.3868408203125,6754.3984375,13979.275390625,-6326.833984375,3161.430419921875,18711.08984375,-8795.26171875,-2772.013427734375,3968.87451171875,11264.4833984375,11760.39453125,6350.67626953125,9201.3671875,7050.03759765625,-0.0,6627.24169921875,27224.22265625,31254.291015625,9329.3193359375,19442.240234375,14870.9609375,-946.521728515625,-2984.2060546875,5326.27099609375,14464.060546875,11421.83984375,13763.904296875,10831.3564453125,1413.8221435546875,2350.80712890625,10579.4267578125,0.0,4715.12451171875,8572.7373046875,7997.353515625,6055.83203125,11494.9541015625,10565.9169921875,16464.392578125,-14935.333984375,2154.50927734375,11200.1103515625,6254.51416015625,5736.35107421875,3170.17236328125,0.0,9856.2236328125
4900.296875,2741.01904296875,16828.37890625,6795.724609375,17329.8515625,6750.4248046875,8942.2861328125,13939.5400390625,6249.74560546875,8133.251953125,9543.1015625,8169.01513671875,-3693.103759765625,0.0,12633.80078125,12798.3095703125,1664.9564208984375,1897.8118896484375,4802.544921875,6528.69580078125,4994.07421875,11552.9697265625,8811.15625,23270.44921875,-229.6765594482422,1272.3604736328125,6755.193359375,13987.2236328125,-6330.01318359375,3176.530029296875,18712.6796875,-8791.287109375,-2783.139404296875,3983.1796875,11266.8671875,11762.7783203125,6351.470703125,9202.95703125,7096.1318359375,-0.0,6619.29443359375,27226.60546875,31256.67578125,9333.29296875,19439.85546875,14870.1669921875,-931.4219360351562,-2993.74267578125,5341.37109375,14465.6494140625,11417.0712890625,13764.69921875,10831.3564453125,1412.2327880859375,2352.396728515625,10577.837890625,0.0,4689.693359375,8568.763671875,7994.96923828125,6070.13720703125,11496.5439453125,10565.1220703125,16461.21484375,-14936.923828125,2157.688232421875,11193.751953125,6284.7138671875,5724.43017578125,3168.5830078125,0.0,9855.4296875
4950.36474609375,2698.8984375,16824.404296875,6779.82958984375,17344.15625,6754.3984375,8951.0283203125,13933.9765625,6259.28271484375,8137.22607421875,9551.0478515625,8172.1943359375,-3695.488037109375,0.0,12643.3369140625,12793.541015625,1672.9036865234375,1904.169677734375,4807.3134765625,6535.84814453125,4998.04833984375,11556.943359375,8817.513671875,23276.806640625,-214.57672119140625,1277.923583984375,6765.5244140625,13985.6337890625,-6327.62890625,3175.7353515625,18717.447265625,-8790.4931640625,-2792.67626953125,3994.30615234375,11271.6357421875,11767.546875,6361.0078125,9206.1357421875,7150.17333984375,-0.0,6627.24169921875,27229.78515625,31269.390625,9336.4716796875,19447.802734375,14874.140625,-908.374755859375,-2990.563720703125,5361.23876953125,14473.59765625,11426.6083984375,13760.7255859375,10838.5087890625,1403.49072265625,2350.012451171875,10573.0693359375,0.0,4670.6201171875,8578.30078125,7992.5849609375,6074.9052734375,11502.90234375,10572.2744140625,16470.75,-14934.5400390625,2152.125,11204.87890625,6300.6083984375,5751.451171875,3169.377685546875,0.0,9857.8134765625
4978.974609375,2776.78173828125,16823.609375,6740.88818359375,17349.720703125,6764.72998046875,8958.1806640625,13941.923828125,6268.8193359375,8150.73681640625,9540.716796875,8190.47265625,-3705.8193359375,0.0,12652.8740234375,12800.693359375,1675.287841796875,1911.322265625,4816.05517578125,6545.384765625,5005.20068359375,11562.5068359375,8824.666015625,23284.75390625,-201.0663299560547,1290.6392822265625,6770.29296875,13991.1962890625,-6333.98681640625,3183.6826171875,18725.39453125,-8784.134765625,-2783.934326171875,3982.38525390625,11277.9931640625,11775.4931640625,6368.16015625,9215.6728515625,7156.53076171875,-0.0,6634.39404296875,27240.912109375,31277.33984375,9343.6240234375,19458.134765625,14884.4716796875,-909.9642333984375,-2984.2060546875,5367.59716796875,14483.1337890625,11435.349609375,13767.0830078125,10831.3564453125,1446.406005859375,2346.83349609375,10584.990234375,0.0,4707.177734375,8587.8369140625,8003.7119140625,6087.62109375,11511.6435546875,10582.6064453125,16480.287109375,-14938.513671875,2168.01953125,11213.6201171875,6354.64990234375,5759.39794921875,3205.140380859375,0.0,9869.734375
4951.9541015625,2840.35986328125,16830.763671875,6721.814453125,17336.2109375,6751.21923828125,8951.0283203125,13935.56640625,6269.61376953125,8149.94140625,9522.4384765625,8188.8837890625,-3709.79296875,0.0,12663.205078125,12794.3349609375,1666.5458984375,1900.9908447265625,4808.90283203125,6543.794921875,5002.02197265625,11550.5859375,8815.12890625,23273.626953125,-208.21888732910156,1274.74462890625,6768.70361328125,13979.275390625,-6353.85498046875,3174.94091796875,18717.447265625,-8790.4931640625,-2763.271240234375,3963.311767578125,11270.0458984375,11764.3671875,6361.802734375,9207.7255859375,7061.16357421875,-0.0,6624.06298828125,27224.22265625,31264.62109375,9332.498046875,19454.95703125,14880.498046875,-933.0113525390625,-2970.695556640625,5343.75537109375,14467.2392578125,11444.8857421875,13760.7255859375,10817.845703125,1448.7901611328125,2340.475830078125,10574.658203125,0.0,4719.89306640625,8591.8115234375,8002.1220703125,6097.15771484375,11503.6962890625,10577.04296875,16485.056640625,-14952.8193359375,2167.224853515625,11223.9521484375,6364.98095703125,5783.23974609375,3206.72998046875,0.0,9879.271484375
4950.36474609375,2838.7705078125,16827.583984375,6720.22509765625,17331.44140625,6740.88818359375,8947.0546875,13929.2080078125,6267.2294921875,8146.7626953125,9529.5908203125,8182.525390625,-3705.024658203125,0.0,12661.6162109375,12788.7724609375,1661.7774658203125,1893.04345703125,4801.75,6541.4111328125,4990.8955078125,11545.8173828125,8809.56640625,23264.884765625,-218.5503692626953,1268.3868408203125,6775.06103515625,13968.150390625,-6353.85498046875,3161.430419921875,18710.294921875,-8786.51953125,-2783.934326171875,3958.543212890625,11261.3037109375,11758.8046875,6357.0341796875,9202.1630859375,7062.75341796875,-0.0,6612.9365234375,27217.0703125,31258.265625,9324.55078125,19450.982421875,14874.140625,-940.9586791992188,-2988.179443359375,5331.83447265625,14453.728515625,11444.091796875,13755.9580078125,10817.05078125,1455.1480712890625,2342.065185546875,10561.943359375,0.0,4719.0986328125,8592.60546875,7998.943359375,6101.92626953125,11496.5439453125,10573.0693359375,16487.439453125,-14954.4072265625,2160.072265625,11223.1572265625,6353.06005859375,5795.95556640625,3196.3984375,0.0,9880.06640625
4951.9541015625,2799.828857421875,16800.5625,6732.14599609375,17333.826171875,6739.29833984375,8940.6962890625,13922.0556640625,6252.92431640625,8134.841796875,9529.5908203125,8174.57861328125,-3697.8720703125,0.0,12636.9794921875,12782.4140625,1662.572265625,1895.427734375,4796.98193359375,6527.90087890625,4992.48486328125,11548.201171875,8809.56640625,23263.296875,-220.93455505371094,1268.3868408203125,6760.755859375,13962.5859375,-6337.9609375,3159.046142578125,18711.08984375,-8784.9306640625,-2789.497314453125,3966.490234375,11262.8935546875,11757.21484375,6350.67626953125,9196.5986328125,7093.74755859375,-0.0,6628.03662109375,27225.017578125,31257.46875,9321.3720703125,19441.447265625,14866.98828125,-950.4954223632812,-3028.710693359375,5342.96044921875,14447.37109375,11421.83984375,13747.21484375,10833.740234375,1467.0689697265625,2352.396728515625,10559.55859375,0.0,4691.28271484375,8571.9423828125,7989.40673828125,6074.9052734375,11494.16015625,10564.3271484375,16469.955078125,-14940.1025390625,2159.277587890625,11199.3154296875,6282.32958984375,5753.8349609375,3166.19873046875,0.0,9868.939453125
4900.296875,2721.150634765625,16794.205078125,6796.51904296875,17337.00390625,6749.6298828125,8938.3125,13925.234375,6242.59326171875,8130.8681640625,9531.1806640625,8165.83642578125,-3689.130126953125,0.0,12616.31640625,12786.388671875,1668.13525390625,1902.580322265625,4795.392578125,6519.953125,4998.8427734375,11563.30078125,8811.15625,23267.26953125,-220.93455505371094,1269.976318359375,6742.4775390625,13969.7392578125,-6329.21826171875,3161.430419921875,18716.654296875,-8795.26171875,-2780.75537109375,4005.43212890625,11268.4560546875,11765.95703125,6347.49755859375,9196.5986328125,7108.84716796875,-0.0,6647.10986328125,27249.654296875,31255.0859375,9326.9345703125,19432.703125,14866.1923828125,-961.62158203125,-3066.06298828125,5347.728515625,14456.11328125,11399.5869140625,13748.8046875,10844.0712890625,1409.0538330078125,2357.1650390625,10565.9169921875,0.0,4673.00390625,8545.7158203125,7990.99658203125,6049.47412109375,11495.7490234375,10560.353515625,16458.830078125,-14931.361328125,2159.277587890625,11175.4736328125,6256.8984375,5698.9990234375,3162.22509765625,0.0,9860.1982421875
4898.70703125,2679.0302734375,16816.45703125,6837.8447265625,17346.541015625,6755.98779296875,8943.875,13933.9765625,6248.951171875,8134.841796875,9544.6904296875,8165.0419921875,-3683.567138671875,0.0,12629.0322265625,12795.130859375,1680.8509521484375,1908.1434326171875,4800.955078125,6523.92724609375,5012.353515625,11567.275390625,8818.30859375,23273.626953125,-212.19253540039062,1277.1287841796875,6751.21923828125,13977.6865234375,-6330.01318359375,3165.404052734375,18726.19140625,-8795.26171875,-2763.271240234375,4007.021484375,11277.9931640625,11773.109375,6355.4443359375,9202.95703125,7073.87939453125,-0.0,6665.388671875,27244.88671875,31263.828125,9332.498046875,19439.0625,14873.345703125,-956.0584716796875,-3028.710693359375,5350.90771484375,14464.060546875,11411.5078125,13759.9306640625,10850.4296875,1389.185546875,2353.19140625,10569.8896484375,0.0,4686.51416015625,8560.81640625,7998.14892578125,6042.32177734375,11502.1064453125,10565.9169921875,16456.4453125,-14927.3876953125,2156.8935546875,11191.3681640625,6289.48193359375,5708.53564453125,3169.377685546875,0.0,9857.8134765625
4947.185546875,2751.350341796875,16846.65625,6790.1611328125,17346.541015625,6752.01416015625,8947.849609375,13937.1552734375,6256.103515625,8138.81591796875,9544.6904296875,8176.962890625,-3701.845947265625,0.0,12639.36328125,12796.7197265625,1679.2615966796875,1907.3486328125,4804.92919921875,6531.07958984375,5011.55859375,11556.1484375,8819.103515625,23273.626953125,-203.4505157470703,1276.3341064453125,6763.93505859375,13978.4814453125,-6335.57666015625,3168.5830078125,18723.806640625,-8782.5458984375,-2756.11865234375,3976.82177734375,11275.609375,11768.3408203125,6357.0341796875,9207.7255859375,7040.50048828125,-0.0,6644.7255859375,27224.22265625,31269.390625,9331.703125,19445.419921875,14875.7294921875,-927.4482421875,-2956.390380859375,5356.470703125,14460.880859375,11421.83984375,13763.904296875,10845.6611328125,1440.843017578125,2354.781005859375,10575.4541015625,0.0,4699.22998046875,8575.916015625,8002.91748046875,6074.1103515625,11502.90234375,10571.4794921875,16461.21484375,-14926.5927734375,2155.303955078125,11200.9052734375,6314.11865234375,5730.78759765625,3175.7353515625,0.0,9854.634765625
4943.2119140625,2781.550048828125,16830.763671875,6764.72998046875,17343.36328125,6755.193359375,8955.001953125,13941.12890625,6267.2294921875,8145.96826171875,9545.4853515625,8177.75732421875,-3710.587646484375,0.0,12657.642578125,12799.8994140625,1678.466796875,1907.3486328125,4808.90283203125,6540.61669921875,5005.20068359375,11559.3271484375,8819.8974609375,23276.806640625,-211.39781188964844,1279.5130615234375,6779.82958984375,13983.25,-6333.98681640625,3168.5830078125,18721.421875,-8780.9560546875,-2767.2451171875,3974.437744140625,11274.0205078125,11770.7255859375,6363.39208984375,9210.109375,7078.6474609375,-0.0,6628.83154296875,27229.78515625,31270.98046875,9336.4716796875,19457.33984375,14881.29296875,-921.0904541015625,-2959.5693359375,5352.4970703125,14472.8017578125,11439.3232421875,13765.494140625,10836.9189453125,1467.8636474609375,2353.986083984375,10574.658203125,0.0,4705.587890625,8591.8115234375,8006.89013671875,6092.3896484375,11504.4912109375,10578.6328125,16473.134765625,-14929.771484375,2148.1513671875,11219.18359375,6331.6025390625,5762.5771484375,3178.914306640625,0.0,9866.5556640625
4881.22314453125,2753.734619140625,16819.634765625,6754.3984375,17334.619140625,6749.6298828125,8950.2333984375,13938.744140625,6265.64013671875,8140.40478515625,9535.94921875,8167.42626953125,-3711.382568359375,0.0,12659.232421875,12799.8994140625,1670.51953125,1900.9908447265625,4802.544921875,6538.232421875,5000.4326171875,11553.7646484375,8814.3349609375,23272.037109375,-226.49765014648438,1272.3604736328125,6779.82958984375,13980.865234375,-6330.80810546875,3160.6357421875,18715.859375,-8793.671875,-2763.271240234375,3976.82177734375,11268.4560546875,11764.3671875,6360.212890625,9205.341796875,7029.37451171875,-0.0,6620.8837890625,27224.22265625,31266.212890625,9331.703125,19454.95703125,14878.11328125,-921.8851928710938,-2969.10595703125,5342.16552734375,14466.4453125,11442.501953125,13764.69921875,10818.640625,1437.6640625,2344.44921875,10568.30078125,0.0,4707.177734375,8591.8115234375,8009.2744140625,6072.52099609375,11498.1337890625,10575.4541015625,16469.955078125,-14936.1298828125,2137.820068359375,11220.7724609375,6326.03955078125,5768.9345703125,3165.404052734375,0.0,9864.1708984375
4865.328125,2781.550048828125,16826.787109375,6797.3134765625,17338.59375,6752.01416015625,8951.0283203125,13940.333984375,6264.05078125,8141.99462890625,9530.384765625,8168.220703125,-3702.640625,0.0,12648.900390625,12802.283203125,1674.4931640625,1904.9644775390625,4803.33935546875,6535.84814453125,5012.353515625,11560.9169921875,8816.71875,23275.216796875,-228.0871124267578,1274.74462890625,6771.88232421875,13983.25,-6331.6025390625,3161.430419921875,18722.21484375,-8799.2353515625,-2731.482177734375,3995.1005859375,11273.224609375,11766.7509765625,6360.212890625,9207.7255859375,7036.52734375,-0.0,6639.16259765625,27230.58203125,31268.595703125,9334.0869140625,19452.572265625,14878.11328125,-933.0113525390625,-2979.4375,5340.576171875,14464.85546875,11432.96484375,13766.2890625,10797.1826171875,1389.185546875,2325.375732421875,10569.095703125,0.0,4701.6142578125,8584.658203125,8007.685546875,6055.037109375,11498.927734375,10573.8642578125,16466.775390625,-14936.923828125,2143.383056640625,11210.44140625,6317.29736328125,5753.04052734375,3174.14599609375,0.0,9855.4296875
4898.70703125,2802.212890625,16769.568359375,6801.287109375,17330.646484375,6742.4775390625,8945.46484375,13929.2080078125,6256.103515625,8135.63623046875,9528.0009765625,8161.8623046875,-3688.33544921875,0.0,12639.36328125,12787.978515625,1661.7774658203125,1893.8382568359375,4795.392578125,6529.490234375,4998.04833984375,11550.5859375,8807.9765625,23264.884765625,-226.49765014648438,1273.1552734375,6764.72998046875,13972.9189453125,-6332.3974609375,3164.609130859375,18710.294921875,-8805.5927734375,-2774.397705078125,3987.947998046875,11263.6884765625,11757.21484375,6354.64990234375,9199.7783203125,7077.05810546875,-0.0,6633.599609375,27223.4296875,31260.650390625,9323.755859375,19443.830078125,14869.3720703125,-953.67431640625,-3008.0478515625,5331.83447265625,14456.908203125,11422.6337890625,13752.7783203125,10814.6669921875,1408.259033203125,2313.454833984375,10566.7109375,0.0,4678.5673828125,8571.9423828125,7990.99658203125,6064.57373046875,11490.9814453125,10564.3271484375,16465.982421875,-14943.2822265625,2147.356689453125,11200.9052734375,6292.6611328125,5741.119140625,3170.967041015625,0.0,9857.0185546875
4924.138671875,2764.86083984375,16791.025390625,6721.01953125,17317.9296875,6728.96728515625,8935.9287109375,13918.08203125,6247.36181640625,8126.89501953125,9519.259765625,8149.14697265625,-3696.28271484375,0.0,12633.80078125,12773.6728515625,1639.5250244140625,1877.943603515625,4785.06103515625,6522.33740234375,4973.41162109375,11527.5380859375,8796.0556640625,23250.580078125,-226.49765014648438,1258.0552978515625,6759.16650390625,13958.61328125,-6345.11328125,3157.45654296875,18690.427734375,-8808.7724609375,-2826.054931640625,3952.18505859375,11248.5888671875,11742.9091796875,6344.318359375,9186.267578125,7144.60986328125,-0.0,6624.857421875,27205.1484375,31250.31640625,9311.0400390625,19436.677734375,14859.0400390625,-961.62158203125,-3031.8896484375,5335.0126953125,14441.8076171875,11417.0712890625,13739.2685546875,10810.6923828125,1416.206298828125,2329.349609375,10557.1748046875,0.0,4665.056640625,8566.3798828125,7983.04833984375,6067.7529296875,11476.67578125,10556.3798828125,16463.59765625,-14953.61328125,2139.409423828125,11194.546875,6276.76611328125,5735.55615234375,3166.993408203125,0.0,9858.6083984375
4915.39599609375,2729.09814453125,16850.62890625,6673.3359375,17312.369140625,6722.60888671875,8930.365234375,13911.7236328125,6240.208984375,8120.53662109375,9523.232421875,8134.841796875,-3716.15087890625,0.0,12635.390625,12770.4931640625,1632.37255859375,1869.20166015625,4777.11328125,6515.18505859375,4963.080078125,11522.76953125,8787.314453125,23242.6328125,-227.29237365722656,1246.1343994140625,6758.3720703125,13952.2548828125,-6352.265625,3132.820068359375,18681.68359375,-8807.9765625,-2821.286376953125,3929.93310546875,11241.435546875,11734.16796875,6338.75537109375,9178.3212890625,7168.45166015625,-0.0,6593.86279296875,27205.1484375,31244.75390625,9305.4775390625,19431.91015625,14852.6826171875,-931.4219360351562,-3061.29443359375,5338.98681640625,14433.06640625,11420.25,13734.5,10809.103515625,1372.4962158203125,2350.80712890625,10537.306640625,0.0,4662.67236328125,8560.81640625,7980.6640625,6047.08984375,11470.3173828125,10550.0224609375,16452.470703125,-14956.7919921875,2115.5673828125,11196.13671875,6277.56103515625,5732.37744140625,3166.19873046875,0.0,9850.6611328125
4906.654296875,2753.734619140625,16856.193359375,6702.7412109375,17320.314453125,6736.9140625,8940.6962890625,13930.0029296875,6260.0771484375,8136.431640625,9536.7431640625,8145.96826171875,-3707.408935546875,0.0,12656.052734375,12787.978515625,1649.8565673828125,1882.7120361328125,4791.41845703125,6531.07958984375,4977.38525390625,11537.0751953125,8799.2353515625,23257.732421875,-216.96090698242188,1254.081787109375,6766.3193359375,13972.123046875,-6343.5234375,3140.767333984375,18695.990234375,-8793.671875,-2791.881591796875,3947.416748046875,11250.1787109375,11749.267578125,6350.67626953125,9194.21484375,7168.45166015625,-0.0,6590.6845703125,27217.0703125,31256.67578125,9321.3720703125,19447.802734375,14869.3720703125,-904.401123046875,-3015.200439453125,5338.19189453125,14453.728515625,11437.7333984375,13753.5732421875,10829.7666015625,1432.1009521484375,2364.317626953125,10547.6376953125,0.0,4669.03076171875,8582.2744140625,7998.14892578125,6047.88427734375,11483.828125,10565.9169921875,16465.982421875,-14941.6923828125,2117.95166015625,11216.00390625,6316.5029296875,5766.55078125,3186.06689453125,0.0,9860.9921875
4921.75439453125,2760.092529296875,16845.861328125,6749.6298828125,17333.03125,6746.45068359375,8952.6171875,13940.333984375,6274.38232421875,8149.94140625,9539.126953125,8172.1943359375,-3708.99853515625,0.0,12664.794921875,12795.9248046875,1667.340576171875,1895.427734375,4804.92919921875,6546.97412109375,4993.27978515625,11547.40625,8810.361328125,23270.44921875,-208.21888732910156,1259.6448974609375,6769.49853515625,13988.8125,-6342.72900390625,3163.814453125,18709.501953125,-8784.9306640625,-2775.1923828125,3964.90087890625,11264.4833984375,11760.39453125,6362.59716796875,9209.3154296875,7137.45751953125,-0.0,6612.9365234375,27212.30078125,31266.212890625,9334.0869140625,19460.51953125,14882.087890625,-897.2485961914062,-2936.522216796875,5353.2919921875,14467.2392578125,11448.0654296875,13764.69921875,10836.1240234375,1455.1480712890625,2360.343994140625,10569.8896484375,0.0,4653.9306640625,8597.3740234375,8006.095703125,6052.65283203125,11496.5439453125,10581.0166015625,16480.287109375,-14938.513671875,2142.58837890625,11226.3369140625,6339.5498046875,5784.82958984375,3198.78271484375,0.0,9876.091796875
4945.59619140625,2764.86083984375,16839.50390625,6766.3193359375,17332.234375,6738.50390625,8946.259765625,13930.7978515625,6263.255859375,8141.2001953125,9539.126953125,8172.1943359375,-3709.79296875,0.0,12649.6953125,12790.3623046875,1661.7774658203125,1888.275146484375,4797.77685546875,6536.642578125,4984.53759765625,11543.43359375,8804.7978515625,23262.5,-216.96090698242188,1254.081787109375,6766.3193359375,13972.123046875,-6341.93408203125,3164.609130859375,18702.349609375,-8791.287109375,-2787.11328125,3972.848388671875,11258.125,11752.4462890625,6355.4443359375,9200.5732421875,7070.7001953125,-0.0,6616.11572265625,27206.740234375,31259.060546875,9324.55078125,19451.77734375,14871.7568359375,-908.374755859375,-2953.21142578125,5350.11279296875,14456.908203125,11432.96484375,13755.162109375,10829.7666015625,1455.1480712890625,2352.396728515625,10572.2744140625,0.0,4701.6142578125,8583.86328125,7998.943359375,6051.8583984375,11490.9814453125,10572.2744140625,16469.16015625,-14937.71875,2148.1513671875,11209.6474609375,6340.3447265625,5761.7822265625,3188.451171875,0.0,9861.787109375
4981.35888671875,2789.497314453125,16833.94140625,6783.0087890625,17332.234375,6751.21923828125,8947.0546875,13942.71875,6265.64013671875,8143.58447265625,9551.0478515625,8168.220703125,-3700.25634765625,0.0,12648.900390625,12803.8720703125,1657.8038330078125,1889.8646240234375,4802.544921875,6540.61669921875,4982.1533203125,11549.7900390625,8805.5927734375,23267.26953125,-206.6294403076172,1266.002685546875,6770.29296875,13988.017578125,-6335.57666015625,3158.25146484375,18703.9375,-8794.466796875,-2795.855224609375,3977.61669921875,11258.919921875,11759.5986328125,6358.62353515625,9206.1357421875,7100.10546875,-0.0,6612.14208984375,27225.017578125,31263.828125,9333.29296875,19454.16015625,14878.9091796875,-911.5537109375,-3000.100341796875,5357.265625,14468.0341796875,11431.3759765625,13768.6728515625,10847.2509765625,1445.611328125,2360.343994140625,10570.685546875,0.0,4749.2978515625,8583.068359375,8010.06982421875,6053.44775390625,11494.16015625,10576.248046875,16470.75,-14927.3876953125,2145.76708984375,11209.6474609375,6358.62353515625,5757.80859375,3190.04052734375,0.0,9860.9921875
4986.921875,2774.397705078125,16810.099609375,6767.1142578125,17337.00390625,6758.3720703125,8951.8232421875,13949.87109375,6265.64013671875,8149.14697265625,9550.25390625,8173.783203125,-3689.130126953125,0.0,12640.953125,12809.435546875,1658.5985107421875,1897.8118896484375,4807.3134765625,6543.00048828125,4990.10107421875,11556.1484375,8813.5400390625,23273.626953125,-206.6294403076172,1275.5394287109375,6769.49853515625,13995.1708984375,-6330.01318359375,3168.5830078125,18709.501953125,-8799.2353515625,-2789.497314453125,3984.769287109375,11265.2783203125,11767.546875,6361.802734375,9213.2880859375,7122.35791015625,-0.0,6621.6787109375,27232.96484375,31267.802734375,9340.4453125,19454.95703125,14885.2666015625,-919.5009765625,-3004.86865234375,5356.470703125,14479.16015625,11424.2236328125,13776.6201171875,10849.634765625,1434.485107421875,2361.138671875,10577.04296875,0.0,4739.76123046875,8580.6845703125,8016.42724609375,6060.60009765625,11498.1337890625,10582.6064453125,16472.33984375,-14922.619140625,2152.125,11200.9052734375,6351.470703125,5743.50341796875,3193.219482421875,0.0,9869.734375
4972.61669921875,2769.629150390625,16833.94140625,6765.5244140625,17344.15625,6770.29296875,8960.564453125,13959.408203125,6272.79296875,8160.2734375,9543.1015625,8184.115234375,-3678.798583984375,0.0,12643.3369140625,12818.97265625,1665.7510986328125,1908.9381103515625,4818.439453125,6550.94775390625,4999.6376953125,11565.685546875,8823.8720703125,23285.546875,-216.96090698242188,1296.2022705078125,6771.88232421875,14002.3232421875,-6325.2451171875,3182.09326171875,18719.037109375,-8794.466796875,-2779.960693359375,3983.974365234375,11274.0205078125,11777.0830078125,6369.74951171875,9223.6201171875,7097.72119140625,-0.0,6632.009765625,27248.064453125,31274.158203125,9350.7763671875,19462.904296875,14894.0087890625,-918.7062377929688,-3006.458251953125,5358.060546875,14489.4912109375,11426.6083984375,13784.5673828125,10840.892578125,1438.458740234375,2369.0859375,10588.1689453125,0.0,4711.1513671875,8579.890625,8026.75927734375,6073.31591796875,11508.46484375,10590.5537109375,16485.056640625,-14917.0556640625,2169.609130859375,11204.0830078125,6321.271484375,5733.171875,3182.887939453125,0.0,9879.271484375
4978.974609375,2789.497314453125,16864.935546875,6747.24560546875,17348.130859375,6780.62451171875,8966.9228515625,13961.7919921875,6277.56103515625,8161.06787109375,9548.6640625,8200.009765625,-3676.41455078125,0.0,12654.4638671875,12818.1767578125,1673.698486328125,1914.501220703125,4824.0029296875,6555.7158203125,5005.9951171875,11572.837890625,8830.2294921875,23294.291015625,-210.6030731201172,1309.7127685546875,6780.62451171875,14011.8603515625,-6321.271484375,3200.3720703125,18725.39453125,-8788.9033203125,-2768.039794921875,3979.2060546875,11279.5830078125,11786.6201171875,6376.10791015625,9231.5673828125,7092.15771484375,-0.0,6632.009765625,27256.01171875,31279.724609375,9360.3134765625,19470.056640625,14898.77734375,-901.2222290039062,-3000.895263671875,5352.4970703125,14501.412109375,11438.529296875,13786.9521484375,10853.6083984375,1455.1480712890625,2373.0595703125,10601.6796875,0.0,4703.20361328125,8591.8115234375,8025.16943359375,6090.7998046875,11515.6171875,10594.52734375,16489.029296875,-14910.6982421875,2188.6826171875,11214.416015625,6344.318359375,5741.9140625,3200.3720703125,0.0,9884.0400390625
4969.43798828125,2803.802490234375,16845.861328125,6763.93505859375,17350.515625,6781.41943359375,8962.94921875,13954.6396484375,6275.1767578125,8157.88916015625,9552.6376953125,8201.599609375,-3686.745849609375,0.0,12652.8740234375,12812.6142578125,1676.0826416015625,1914.501220703125,4821.61865234375,6553.33203125,5007.5849609375,11574.427734375,8827.845703125,23291.111328125,-216.1661834716797,1308.123291015625,6780.62451171875,14008.681640625,-6323.65576171875,3198.78271484375,18726.19140625,-8795.26171875,-2764.86083984375,3991.126953125,11280.376953125,11785.0302734375,6372.9287109375,9228.388671875,7106.462890625,-0.0,6643.13671875,27262.369140625,31278.1328125,9359.5185546875,19464.4921875,14894.802734375,-913.1431884765625,-2977.84814453125,5354.88134765625,14501.412109375,11435.349609375,13778.2099609375,10871.0927734375,1414.616943359375,2373.8544921875,10596.9111328125,0.0,4716.71435546875,8594.1953125,8018.81103515625,6101.92626953125,11515.6171875,10593.7314453125,16489.029296875,-14913.876953125,2184.708740234375,11213.6201171875,6339.5498046875,5746.6826171875,3206.72998046875,0.0,9886.423828125
4959.1064453125,2817.31298828125,16832.3515625,6796.51904296875,17353.693359375,6777.4453125,8962.154296875,13953.0498046875,6275.1767578125,8158.68359375,9555.0224609375,8200.8046875,-3691.51416015625,0.0,12652.8740234375,12810.23046875,1674.4931640625,1914.501220703125,4821.61865234375,6551.74267578125,5008.37939453125,11572.837890625,8825.4609375,23291.111328125,-193.9137725830078,1301.765380859375,6781.41943359375,13999.939453125,-6321.271484375,3192.4248046875,18725.39453125,-8800.029296875,-2762.4765625,3995.8955078125,11281.966796875,11782.646484375,6371.33935546875,9225.208984375,7095.3369140625,-0.0,6639.16259765625,27250.447265625,31279.724609375,9356.33984375,19464.4921875,14892.4189453125,-911.5537109375,-2945.26416015625,5362.82861328125,14494.259765625,11438.529296875,13776.6201171875,10862.3505859375,1434.485107421875,2375.443603515625,10593.7314453125,0.0,4727.04541015625,8594.1953125,8015.6328125,6106.69482421875,11513.2333984375,10590.5537109375,16488.234375,-14913.08203125,2183.9140625,11214.416015625,6303.787109375,5751.451171875,3201.166748046875,0.0,9885.62890625
4964.669921875,2768.83447265625,16833.146484375,6788.57177734375,17362.435546875,6781.41943359375,8969.306640625,13961.7919921875,6279.150390625,8159.47802734375,9557.40625,8211.9306640625,-3687.540771484375,0.0,12662.4111328125,12819.7666015625,1680.8509521484375,1922.448486328125,4827.18115234375,6552.53759765625,5017.916015625,11576.8115234375,8833.408203125,23298.263671875,-178.0192108154297,1305.739013671875,6786.98193359375,14007.091796875,-6318.09228515625,3205.140380859375,18733.34375,-8784.9306640625,-2751.350341796875,3995.8955078125,11290.7099609375,11788.208984375,6378.49169921875,9230.7734375,7058.779296875,-0.0,6655.0576171875,27253.626953125,31286.876953125,9361.9033203125,19470.849609375,14895.5986328125,-904.401123046875,-2938.906494140625,5372.365234375,14499.0283203125,11448.0654296875,13785.3623046875,10853.6083984375,1476.605712890625,2375.443603515625,10608.83203125,0.0,4751.68212890625,8598.16796875,8020.40087890625,6110.66796875,11518.7958984375,10596.1162109375,16476.3125,-14906.7236328125,2194.24560546875,11223.1572265625,6322.86083984375,5762.5771484375,3194.014404296875,0.0,9870.529296875
4926.52294921875,2747.376708984375,16825.19921875,6806.8505859375,17371.177734375,6789.3662109375,8976.4599609375,13972.123046875,6291.0712890625,8165.83642578125,9555.81640625,8217.494140625,-3674.0302734375,0.0,12681.484375,12831.6875,1691.9771728515625,1928.0115966796875,4833.53955078125,6559.68994140625,5029.8369140625,11586.3486328125,8839.7666015625,23304.62109375,-189.9401397705078,1313.6864013671875,6793.34033203125,14021.396484375,-6321.271484375,3213.087890625,18742.083984375,-8769.830078125,-2740.22412109375,4013.379638671875,11299.451171875,11796.1572265625,6387.23388671875,9239.5146484375,7090.568359375,-0.0,6665.388671875,27263.1640625,31291.64453125,9371.439453125,19479.59375,14901.9560546875,-928.2429809570312,-2930.958984375,5373.15966796875,14504.591796875,11462.37109375,13795.693359375,10830.5615234375,1478.1951904296875,2364.317626953125,10619.1630859375,0.0,4765.1923828125,8616.447265625,8033.1162109375,6095.568359375,11525.9482421875,10604.064453125,16482.671875,-14914.671875,2201.398193359375,11241.435546875,6362.59716796875,5800.72412109375,3197.98779296875,0.0,9874.5029296875
4823.2080078125,2729.09814453125,16791.8203125,6794.9296875,17352.900390625,6768.70361328125,8963.744140625,13953.0498046875,6291.0712890625,8154.7099609375,9529.5908203125,8186.49951171875,-3664.49365234375,0.0,12690.2265625,12814.2041015625,1676.0826416015625,1908.9381103515625,4818.439453125,6555.7158203125,5013.94287109375,11566.4794921875,8823.0771484375,23283.958984375,-217.75563049316406,1287.4603271484375,6779.03515625,14003.9130859375,-6329.21826171875,3182.887939453125,18723.806640625,-8795.26171875,-2757.708251953125,3996.690185546875,11281.1728515625,11776.2880859375,6375.31298828125,9222.0302734375,7089.7734375,-0.0,6657.44140625,27242.501953125,31278.1328125,9353.1611328125,19474.82421875,14889.240234375,-971.1583251953125,-2983.4111328125,5343.75537109375,14485.5185546875,11471.1123046875,13779.00390625,10790.0302734375,1449.5849609375,2345.244140625,10594.52734375,0.0,4734.1982421875,8625.189453125,8016.42724609375,6054.24267578125,11509.2587890625,10592.9375,16486.64453125,-14934.5400390625,2161.661865234375,11250.1787109375,6347.49755859375,5847.61279296875,3181.298583984375,0.0,9872.119140625
4796.18701171875,2737.83984375,16851.42578125,6742.4775390625,17338.59375,6752.01416015625,8945.46484375,13936.3603515625,6260.8720703125,8138.0205078125,9528.0009765625,8169.01513671875,-3683.567138671875,0.0,12638.5693359375,12795.9248046875,1665.7510986328125,1895.427734375,4801.75,6534.25830078125,5002.81689453125,11548.201171875,8809.56640625,23270.44921875,-216.96090698242188,1268.3868408203125,6759.96142578125,13982.455078125,-6332.3974609375,3163.814453125,18711.884765625,-8804.7978515625,-2753.734619140625,3973.642822265625,11269.251953125,11760.39453125,6354.64990234375,9204.546875,7065.931640625,-0.0,6654.2626953125,27223.4296875,31263.03515625,9334.8818359375,19449.392578125,14873.345703125,-948.1112060546875,-3008.0478515625,5339.78125,14465.6494140625,11421.83984375,13761.5205078125,10786.056640625,1450.3797607421875,2336.501953125,10569.8896484375,0.0,4717.5087890625,8579.0947265625,7998.943359375,6050.2685546875,11494.16015625,10572.2744140625,16465.982421875,-14940.1025390625,2134.640869140625,11199.3154296875,6336.37109375,5757.013671875,3182.887939453125,0.0,9861.787109375
4879.63330078125,2804.59716796875,16850.62890625,6730.556640625,17346.541015625,6750.4248046875,8949.439453125,13933.9765625,6256.103515625,8138.81591796875,9542.3056640625,8172.98876953125,-3702.640625,0.0,12633.80078125,12793.541015625,1668.13525390625,1900.196044921875,4804.13427734375,6532.6689453125,5005.20068359375,11547.40625,8815.9248046875,23272.037109375,-198.68214416503906,1269.181640625,6764.72998046875,13976.8916015625,-6330.80810546875,3157.45654296875,18712.6796875,-8786.51953125,-2745.787353515625,3966.490234375,11275.609375,11761.9833984375,6359.41845703125,9205.341796875,7058.779296875,-0.0,6666.18359375,27217.865234375,31269.390625,9332.498046875,19447.802734375,14873.345703125,-936.9849853515625,-2984.2060546875,5356.470703125,14460.880859375,11418.66015625,13758.341796875,10817.05078125,1471.0426025390625,2342.85986328125,10563.533203125,0.0,4710.3564453125,8570.353515625,7995.7646484375,6069.34228515625,11496.5439453125,10573.0693359375,16465.1875,-14928.181640625,2131.462158203125,11195.341796875,6315.7080078125,5722.8408203125,3189.245849609375,0.0,9866.5556640625
4949.56982421875,2831.6181640625,16815.662109375,6724.19873046875,17339.388671875,6742.4775390625,8947.849609375,13926.029296875,6260.8720703125,8138.0205078125,9546.2802734375,8160.2734375,-3708.20361328125,0.0,12638.5693359375,12784.00390625,1655.419677734375,1893.8382568359375,4801.75,6535.84814453125,4988.51171875,11543.43359375,8808.7724609375,23266.474609375,-204.24525451660156,1259.6448974609375,6763.93505859375,13965.765625,-6335.57666015625,3134.40966796875,18703.9375,-8784.134765625,-2774.397705078125,3960.132568359375,11266.8671875,11756.419921875,6357.0341796875,9200.5732421875,7044.47412109375,-0.0,6629.6259765625,27216.275390625,31267.005859375,9323.755859375,19449.392578125,14869.3720703125,-936.1903076171875,-3022.35302734375,5358.85498046875,14449.755859375,11422.6337890625,13748.8046875,10838.5087890625,1468.658447265625,2348.423095703125,10548.4326171875,0.0,4685.7197265625,8575.1220703125,7990.99658203125,6093.18408203125,11491.775390625,10571.4794921875,16479.4921875,-14932.1552734375,2125.104248046875,11200.1103515625,6270.40869140625,5735.55615234375,3182.887939453125,0.0,9874.5029296875
4977.38525390625,2811.749755859375,16807.71484375,6755.98779296875,17329.05859375,6745.65625,8943.0810546875,13926.8232421875,6256.103515625,8136.431640625,9538.3330078125,8156.2998046875,-3707.408935546875,0.0,12639.36328125,12784.00390625,1649.8565673828125,1886.6856689453125,4797.77685546875,6532.6689453125,4976.5908203125,11546.611328125,8802.4140625,23265.6796875,-216.1661834716797,1262.82373046875,6757.57763671875,13970.5341796875,-6345.11328125,3137.58837890625,18697.580078125,-8792.0830078125,-2802.212890625,3974.437744140625,11258.125,11757.21484375,6352.265625,9198.9833984375,7097.72119140625,-0.0,6603.39990234375,27228.990234375,31259.853515625,9324.55078125,19443.830078125,14868.5771484375,-929.0377197265625,-3023.942138671875,5351.7021484375,14452.9345703125,11421.83984375,13750.3935546875,10839.302734375,1436.8692626953125,2346.038818359375,10551.6123046875,0.0,4670.6201171875,8570.353515625,7990.99658203125,6094.77392578125,11489.3916015625,10569.8896484375,16477.107421875,-14940.8974609375,2132.2568359375,11199.3154296875,6273.587890625,5733.966796875,3182.09326171875,0.0,9873.7080078125
4991.68994140625,2724.32958984375,16831.556640625,6817.18212890625,17336.2109375,6758.3720703125,8950.2333984375,13936.3603515625,6261.6669921875,8141.2001953125,9539.126953125,8167.42626953125,-3708.99853515625,0.0,12639.36328125,12792.74609375,1660.9827880859375,1896.222412109375,4804.92919921875,6539.02685546875,4987.716796875,11560.1220703125,8808.7724609375,23275.216796875,-214.57672119140625,1277.1287841796875,6762.345703125,13982.455078125,-6341.93408203125,3155.867431640625,18707.91015625,-8790.4931640625,-2795.060302734375,3997.484619140625,11266.8671875,11767.546875,6357.0341796875,9206.9306640625,7132.68896484375,-0.0,6625.65234375,27244.091796875,31266.212890625,9334.8818359375,19450.982421875,14874.140625,-910.7589721679688,-3001.68994140625,5353.2919921875,14468.8291015625,11424.2236328125,13759.9306640625,10838.5087890625,1415.41162109375,2350.80712890625,10570.685546875,0.0,4669.03076171875,8574.326171875,7997.353515625,6082.05810546875,11496.5439453125,10577.04296875,16475.51953125,-14932.9501953125,2148.1513671875,11201.69921875,6289.48193359375,5744.29833984375,3182.09326171875,0.0,9872.9130859375
4988.51171875,2661.5458984375,16839.50390625,6793.34033203125,17338.59375,6757.57763671875,8951.8232421875,13934.771484375,6257.69287109375,8139.6103515625,9547.07421875,8169.01513671875,-3707.408935546875,0.0,12632.2109375,12793.541015625,1662.572265625,1898.606689453125,4804.92919921875,6534.25830078125,4991.68994140625,11556.943359375,8812.7451171875,23276.806640625,-205.83470153808594,1280.3077392578125,6765.5244140625,13984.0439453125,-6334.78173828125,3161.430419921875,18710.294921875,-8792.0830078125,-2783.139404296875,3983.974365234375,11269.251953125,11768.3408203125,6360.212890625,9210.109375,7112.0263671875,-0.0,6627.24169921875,27240.1171875,31269.390625,9338.85546875,19448.599609375,14875.7294921875,-902.0169677734375,-3023.1474609375,5352.4970703125,14471.212890625,11415.4814453125,13759.9306640625,10838.5087890625,1427.33251953125,2353.986083984375,10575.4541015625,0.0,4674.59326171875,8563.9951171875,7997.353515625,6052.65283203125,11499.72265625,10577.04296875,16468.3671875,-14924.208984375,2154.50927734375,11193.751953125,6299.01904296875,5717.27734375,3180.50390625,0.0,9868.14453125
4955.92724609375,2753.734619140625,16765.59375,6805.26123046875,17339.388671875,6757.57763671875,8950.2333984375,13932.3876953125,6259.28271484375,8138.81591796875,9546.2802734375,8164.24658203125,-3697.8720703125,0.0,12640.158203125,12790.3623046875,1659.393310546875,1898.606689453125,4804.92919921875,6535.84814453125,4996.45849609375,11557.73828125,8814.3349609375,23273.626953125,-205.83470153808594,1277.923583984375,6766.3193359375,13976.8916015625,-6328.423828125,3157.45654296875,18710.294921875,-8800.029296875,-2777.576416015625,3986.358642578125,11269.251953125,11769.9306640625,6360.212890625,9208.51953125,7012.68505859375,-0.0,6632.009765625,27240.1171875,31268.595703125,9336.4716796875,19450.982421875,14874.935546875,-933.0113525390625,-3042.22119140625,5350.90771484375,14465.6494140625,11421.83984375,13758.341796875,10842.482421875,1440.843017578125,2345.244140625,10570.685546875,0.0,4686.51416015625,8567.173828125,7994.1748046875,6028.81103515625,11498.927734375,10575.4541015625,16467.5703125,-14920.234375,2150.53564453125,11200.1103515625,6292.6611328125,5729.1982421875,3175.7353515625,0.0,9864.1708984375
4904.27001953125,2782.3447265625,16767.978515625,6775.06103515625,17338.59375,6751.21923828125,8946.259765625,13933.181640625,6262.46142578125,8138.0205078125,9537.537109375,8162.65771484375,-3692.30908203125,0.0,12646.515625,12791.951171875,1653.8302001953125,1896.222412109375,4804.13427734375,6535.05322265625,5000.4326171875,11550.5859375,8812.7451171875,23270.44921875,-210.6030731201172,1266.79736328125,6766.3193359375,13972.123046875,-6330.80810546875,3159.046142578125,18706.322265625,-8803.2080078125,-2765.655517578125,3971.258544921875,11270.8408203125,11765.162109375,6357.82861328125,9204.546875,6997.58544921875,-0.0,6642.341796875,27228.990234375,31264.62109375,9330.9091796875,19451.77734375,14874.140625,-955.2637939453125,-2977.053466796875,5346.1396484375,14456.11328125,11428.9921875,13759.1357421875,10835.330078125,1415.41162109375,2346.83349609375,10570.685546875,0.0,4707.97216796875,8575.1220703125,7997.353515625,6048.67919921875,11495.7490234375,10573.8642578125,16465.1875,-14929.771484375,2146.561767578125,11208.0576171875,6295.83984375,5745.0927734375,3167.788330078125,0.0,9860.9921875
4919.3701171875,2788.70263671875,16875.267578125,6743.2724609375,17337.00390625,6755.98779296875,8952.6171875,13947.4873046875,6268.0244140625,8149.14697265625,9542.3056640625,8182.525390625,-3690.7197265625,0.0,12644.9267578125,12806.255859375,1660.9827880859375,1900.196044921875,4811.287109375,6543.00048828125,4993.27978515625,11549.7900390625,8814.3349609375,23278.39453125,-208.21888732910156,1273.1552734375,6773.4716796875,13984.83984375,-6333.1923828125,3174.14599609375,18710.294921875,-8794.466796875,-2774.397705078125,3988.742919921875,11274.0205078125,11769.1357421875,6364.98095703125,9211.69921875,7172.42578125,-0.0,6635.98388671875,27224.22265625,31269.390625,9341.240234375,19458.134765625,14886.0615234375,-931.4219360351562,-2924.601318359375,5346.93408203125,14468.0341796875,11430.5810546875,13772.646484375,10839.302734375,1408.259033203125,2364.317626953125,10584.1953125,0.0,4726.2509765625,8579.0947265625,8018.81103515625,6084.4423828125,11502.1064453125,10582.6064453125,16475.51953125,-14928.9765625,2159.277587890625,11208.0576171875,6310.93994140625,5743.50341796875,3176.530029296875,0.0,9873.7080078125
4920.16455078125,2806.186767578125,16874.470703125,6715.45654296875,17333.826171875,6753.603515625,8951.8232421875,13947.4873046875,6268.8193359375,8151.53125,9539.921875,8183.31982421875,-3691.51416015625,0.0,12644.1318359375,12807.0517578125,1657.8038330078125,1897.01708984375,4809.69775390625,6546.17919921875,4986.12744140625,11544.2275390625,8812.7451171875,23276.806640625,-215.37144470214844,1272.3604736328125,6773.4716796875,13984.83984375,-6334.78173828125,3171.76171875,18706.322265625,-8788.9033203125,-2782.3447265625,3962.516845703125,11269.251953125,11765.95703125,6362.59716796875,9211.69921875,7226.46728515625,-0.0,6625.65234375,27220.25,31268.595703125,9339.650390625,19458.9296875,14887.650390625,-902.0169677734375,-2945.26416015625,5338.98681640625,14464.85546875,11428.9921875,13773.44140625,10834.5341796875,1417.7957763671875,2355.57568359375,10577.837890625,0.0,4715.91943359375,8580.6845703125,8018.0166015625,6087.62109375,11501.3125,10583.400390625,16477.107421875,-14929.771484375,2156.8935546875,11206.4677734375,6311.73486328125,5749.06689453125,3189.245849609375,0.0,9872.119140625
4888.3759765625,2804.59716796875,16831.556640625,6717.04638671875,17325.87890625,6745.65625,8943.875,13935.56640625,6262.46142578125,8142.7890625,9529.5908203125,8172.98876953125,-3682.7724609375,0.0,12635.390625,12796.7197265625,1657.8038330078125,1889.8646240234375,4800.16064453125,6539.82177734375,4986.921875,11539.458984375,8805.5927734375,23267.26953125,-229.6765594482422,1262.82373046875,6763.14013671875,13976.8916015625,-6337.9609375,3159.046142578125,18700.7578125,-8789.6982421875,-2773.602783203125,3956.1591796875,11261.3037109375,11758.8046875,6353.85498046875,9203.751953125,7191.4990234375,-0.0,6620.0888671875,27212.30078125,31257.46875,9330.11328125,19450.1875,14876.525390625,-909.9642333984375,-2954.80078125,5317.529296875,14456.908203125,11417.8662109375,13760.7255859375,10812.2822265625,1417.7957763671875,2335.70751953125,10566.7109375,0.0,4693.6669921875,8575.916015625,8002.91748046875,6047.88427734375,11490.185546875,10574.658203125,16473.927734375,-14940.1025390625,2147.356689453125,11197.7265625,6305.37646484375,5747.47705078125,3191.630126953125,0.0,9868.939453125
4909.03857421875,2792.67626953125,16843.4765625,6741.6826171875,17313.95703125,6739.29833984375,8935.1337890625,13929.2080078125,6255.30859375,8133.251953125,9526.412109375,8159.47802734375,-3675.619873046875,0.0,12634.5947265625,12787.978515625,1644.29345703125,1879.533203125,4791.41845703125,6534.25830078125,4978.1796875,11534.6904296875,8794.466796875,23259.3203125,-228.8818359375,1257.2606201171875,6744.06689453125,13969.7392578125,-6339.5498046875,3152.688232421875,18690.427734375,-8800.029296875,-2791.881591796875,3960.132568359375,11250.97265625,11751.6513671875,6344.318359375,9195.8046875,7103.2841796875,-0.0,6621.6787109375,27208.328125,31244.75390625,9324.55078125,19441.447265625,14870.9609375,-930.627197265625,-2989.76904296875,5293.6875,14450.5498046875,11416.2763671875,13752.7783203125,10801.951171875,1459.1217041015625,2332.5283203125,10560.353515625,0.0,4686.51416015625,8572.7373046875,7996.55908203125,6028.0166015625,11481.4443359375,10569.095703125,16472.33984375,-14940.8974609375,2140.2041015625,11195.341796875,6304.58203125,5749.861328125,3184.4775390625,0.0,9868.14453125
4951.1591796875,2760.092529296875,16829.966796875,6750.4248046875,17322.69921875,6752.80908203125,8942.2861328125,13936.3603515625,6262.46142578125,8138.0205078125,9535.94921875,8163.4521484375,-3680.38818359375,0.0,12647.3115234375,12795.130859375,1648.26708984375,1888.275146484375,4800.955078125,6541.4111328125,4987.716796875,11545.8173828125,8801.619140625,23269.65234375,-213.78199768066406,1268.3868408203125,6748.8349609375,13980.865234375,-6332.3974609375,3166.19873046875,18699.96484375,-8804.00390625,-2774.397705078125,3969.66943359375,11260.509765625,11760.39453125,6353.06005859375,9202.95703125,7026.990234375,-0.0,6640.75244140625,27230.58203125,31253.498046875,9332.498046875,19448.599609375,14880.498046875,-926.653564453125,-3040.631591796875,5315.14501953125,14463.265625,11429.787109375,13760.7255859375,10823.4091796875,1460.711181640625,2318.22314453125,10569.8896484375,0.0,4692.07763671875,8580.6845703125,8003.7119140625,6049.47412109375,11490.185546875,10577.04296875,16473.927734375,-14928.9765625,2146.561767578125,11207.2626953125,6304.58203125,5762.5771484375,3186.86181640625,0.0,9868.14453125
4927.3173828125,2710.8193359375,16853.80859375,6764.72998046875,17335.4140625,6755.193359375,8947.0546875,13938.744140625,6260.8720703125,8139.6103515625,9536.7431640625,8169.81005859375,-3692.30908203125,0.0,12640.158203125,12798.3095703125,1661.7774658203125,1898.606689453125,4805.7236328125,6539.82177734375,5002.81689453125,11555.3544921875,8807.1826171875,23272.037109375,-212.9872589111328,1270.77099609375,6763.93505859375,13983.25,-6329.21826171875,3165.404052734375,18711.08984375,-8804.00390625,-2741.813720703125,3992.71630859375,11272.4306640625,11766.7509765625,6357.0341796875,9206.9306640625,6991.2275390625,-0.0,6647.90478515625,27230.58203125,31263.03515625,9336.4716796875,19450.1875,14882.087890625,-917.1168212890625,-2998.510986328125,5331.03955078125,14466.4453125,11421.83984375,13763.1103515625,10821.8193359375,1448.7901611328125,2330.93896484375,10575.4541015625,0.0,4698.435546875,8575.916015625,8006.095703125,6070.13720703125,11494.9541015625,10577.837890625,16469.955078125,-14924.208984375,2145.76708984375,11200.1103515625,6310.14501953125,5745.8876953125,3185.272216796875,0.0,9864.966796875
4936.0595703125,2743.403076171875,16845.068359375,6731.3515625,17334.619140625,6759.16650390625,8953.412109375,13949.87109375,6268.8193359375,8146.7626953125,9543.8955078125,8184.90966796875,-3710.587646484375,0.0,12651.2841796875,12809.435546875,1665.7510986328125,1901.7855224609375,4812.08203125,6549.3583984375,4998.04833984375,11554.55859375,8813.5400390625,23280.779296875,-212.9872589111328,1275.5394287109375,6774.2666015625,13991.9921875,-6334.78173828125,3174.14599609375,18712.6796875,-8786.51953125,-2761.681884765625,3978.4111328125,11274.814453125,11772.3154296875,6363.39208984375,9215.6728515625,7069.90576171875,-0.0,6615.32080078125,27230.58203125,31267.802734375,9344.4189453125,19457.33984375,14890.03515625,-909.1694946289062,-2970.695556640625,5361.23876953125,14474.3916015625,11432.1708984375,13774.2353515625,10832.150390625,1463.89013671875,2373.0595703125,10583.400390625,0.0,4707.177734375,8582.2744140625,8018.0166015625,6093.97900390625,11502.1064453125,10586.5791015625,16485.056640625,-14925.0029296875,2156.0986328125,11212.826171875,6325.2451171875,5752.24560546875,3190.04052734375,0.0,9878.4765625
4940.82763671875,2757.708251953125,16789.435546875,6740.09326171875,17344.15625,6767.90869140625,8961.3603515625,13957.818359375,6278.35595703125,8154.7099609375,9545.4853515625,8190.47265625,-3718.53515625,0.0,12664.0009765625,12818.97265625,1668.9300537109375,1906.5538330078125,4820.02880859375,6557.3056640625,4997.25341796875,11558.533203125,8819.8974609375,23287.138671875,-218.5503692626953,1284.2813720703125,6784.59765625,13999.14453125,-6338.75537109375,3183.6826171875,18715.0625,-8770.625,-2789.497314453125,3976.027099609375,11277.9931640625,11777.8779296875,6372.1337890625,9222.8251953125,7106.462890625,-0.0,6629.6259765625,27240.1171875,31275.75,9351.5712890625,19467.671875,14896.392578125,-917.9114990234375,-3015.200439453125,5366.80224609375,14480.75,11448.8603515625,13783.7724609375,10833.740234375,1457.5322265625,2387.36474609375,10591.34765625,0.0,4712.740234375,8589.4267578125,8030.73193359375,6095.568359375,11508.46484375,10592.9375,16493.796875,-14924.208984375,2168.01953125,11226.3369140625,6334.78173828125,5771.31884765625,3201.96142578125,0.0,9887.21875
4942.4169921875,2738.634765625,16787.84765625,6772.6767578125,17339.388671875,6766.3193359375,8958.1806640625,13953.8447265625,6273.587890625,8149.94140625,9539.921875,8192.0625,-3707.408935546875,0.0,12653.66796875,12814.9990234375,1667.340576171875,1906.5538330078125,4816.05517578125,6551.74267578125,4998.04833984375,11560.1220703125,8815.9248046875,23284.75390625,-228.8818359375,1289.0498046875,6774.2666015625,13994.3759765625,-6340.3447265625,3178.11962890625,18713.474609375,-8781.7509765625,-2782.3447265625,3987.947998046875,11276.404296875,11777.0830078125,6367.365234375,9220.4404296875,7104.07861328125,-0.0,6628.83154296875,27240.912109375,31272.572265625,9349.1865234375,19462.904296875,14894.0087890625,-925.8588256835938,-2977.053466796875,5354.88134765625,14478.3662109375,11437.7333984375,13779.7998046875,10847.2509765625,1451.1744384765625,2380.212158203125,10591.34765625,0.0,4729.4296875,8583.86328125,8024.375,6083.6474609375,11506.0810546875,10589.7587890625,16485.849609375,-14920.234375,2162.45654296875,11214.416015625,6343.5234375,5759.39794921875,3205.140380859375,0.0,9880.06640625
4965.46435546875,2776.78173828125,16803.7421875,6775.85595703125,17343.36328125,6767.1142578125,8958.9755859375,13953.8447265625,6275.9716796875,8150.73681640625,9542.3056640625,8186.49951171875,-3685.951171875,0.0,12656.052734375,12813.4091796875,1664.16162109375,1904.169677734375,4816.85009765625,6553.33203125,5001.22705078125,11562.5068359375,8816.71875,23287.138671875,-236.82911682128906,1293.0234375,6773.4716796875,13994.3759765625,-6328.423828125,3178.11962890625,18715.859375,-8790.4931640625,-2779.166015625,3991.921875,11277.9931640625,11777.0830078125,6368.16015625,9218.8515625,7139.841796875,-0.0,6641.546875,27239.322265625,31272.572265625,9349.982421875,19465.2890625,14894.0087890625,-917.1168212890625,-2966.7216796875,5353.2919921875,14479.955078125,11439.3232421875,13777.4150390625,10851.2236328125,1456.737548828125,2381.801513671875,10586.5791015625,0.0,4734.1982421875,8587.8369140625,8021.99072265625,6088.41552734375,11506.875,10588.9638671875,16488.234375,-14916.2607421875,2160.072265625,11216.7998046875,6349.0869140625,5769.7294921875,3207.524658203125,0.0,9885.62890625
4984.53759765625,2817.31298828125,16853.013671875,6769.49853515625,17337.00390625,6762.345703125,8954.20703125,13945.1025390625,6273.587890625,8141.99462890625,9550.25390625,8180.93603515625,-3678.798583984375,0.0,12655.2578125,12802.283203125,1660.1881103515625,1899.4013671875,4812.08203125,6550.94775390625,4993.27978515625,11556.943359375,8811.951171875,23283.958984375,-208.21888732910156,1285.870849609375,6768.70361328125,13989.607421875,-6319.681640625,3179.709228515625,18709.501953125,-8791.287109375,-2783.139404296875,3983.1796875,11271.6357421875,11772.3154296875,6363.39208984375,9214.083984375,7085.80029296875,-0.0,6630.4208984375,27234.5546875,31269.390625,9345.2138671875,19461.3125,14886.0615234375,-911.5537109375,-2982.616455078125,5357.265625,14471.212890625,11438.529296875,13769.4677734375,10848.83984375,1475.81103515625,2375.443603515625,10579.4267578125,0.0,4704.79345703125,8586.2470703125,8007.685546875,6089.21044921875,11499.72265625,10584.990234375,16481.876953125,-14917.8505859375,2160.072265625,11217.59375,6328.423828125,5777.67724609375,3198.78271484375,0.0,9878.4765625
4970.232421875,2828.43896484375,16876.0625,6765.5244140625,17342.568359375,6763.93505859375,8958.9755859375,13942.71875,6276.76611328125,8141.99462890625,9549.458984375,8186.49951171875,-3700.25634765625,0.0,12660.0263671875,12801.48828125,1663.366943359375,1904.169677734375,4814.4658203125,6548.5634765625,4998.04833984375,11560.9169921875,8815.12890625,23283.958984375,-184.3770294189453,1289.844482421875,6775.85595703125,13986.4287109375,-6326.833984375,3181.298583984375,18712.6796875,-8785.724609375,-2775.98681640625,3978.4111328125,11276.404296875,11775.4931640625,6367.365234375,9215.6728515625,7115.205078125,-0.0,6635.18896484375,27237.734375,31274.955078125,9346.802734375,19464.4921875,14884.4716796875,-915.52734375,-2978.642822265625,5362.03369140625,14472.8017578125,11442.501953125,13768.6728515625,10841.6875,1480.579345703125,2367.49658203125,10581.810546875,0.0,4699.22998046875,8592.60546875,8005.30126953125,6087.62109375,11502.1064453125,10588.1689453125,16481.876953125,-14919.4404296875,2163.251220703125,11219.978515625,6318.88720703125,5768.14013671875,3197.193115234375,0.0,9874.5029296875
4946.390625,2816.51806640625,16874.470703125,6741.6826171875,17340.18359375,6760.755859375,8955.7958984375,13941.12890625,6273.587890625,8140.40478515625,9552.6376953125,8184.115234375,-3710.587646484375,0.0,12659.232421875,12801.48828125,1662.572265625,1902.580322265625,4811.287109375,6545.384765625,4998.04833984375,11556.943359375,8813.5400390625,23282.369140625,-189.9401397705078,1288.255126953125,6776.65087890625,13986.4287109375,-6333.1923828125,3178.914306640625,18711.884765625,-8792.0830078125,-2768.83447265625,3972.848388671875,11274.0205078125,11773.904296875,6365.77587890625,9212.494140625,7106.462890625,-0.0,6630.4208984375,27232.96484375,31271.7734375,9343.6240234375,19461.3125,14882.8818359375,-908.374755859375,-2968.311279296875,5359.6494140625,14471.212890625,11439.3232421875,13766.2890625,10820.2294921875,1421.76953125,2361.933349609375,10581.0166015625,0.0,4698.435546875,8588.6318359375,8008.47998046875,6090.00537109375,11499.72265625,10585.78515625,16483.46484375,-14925.7978515625,2162.45654296875,11218.388671875,6314.9130859375,5757.013671875,3188.451171875,0.0,9877.681640625
4928.90673828125,2784.72900390625,16861.7578125,6809.234375,17350.515625,6773.4716796875,8964.5390625,13949.87109375,6282.32958984375,8145.1728515625,9555.81640625,8185.7041015625,-3702.640625,0.0,12670.357421875,12808.640625,1673.698486328125,1912.9117431640625,4819.234375,6551.74267578125,5007.5849609375,11572.04296875,8823.0771484375,23291.111328125,-187.5559539794922,1295.4075927734375,6783.0087890625,13999.939453125,-6330.01318359375,3181.298583984375,18723.01171875,-8798.4404296875,-2755.32421875,4015.763671875,11285.1455078125,11785.0302734375,6373.7236328125,9221.236328125,7143.8154296875,-0.0,6632.009765625,27248.859375,31278.1328125,9354.7509765625,19469.26171875,14889.240234375,-898.8380126953125,-2962.748291015625,5370.77587890625,14482.3388671875,11454.4228515625,13773.44140625,10837.7138671875,1394.7486572265625,2365.1123046875,10588.9638671875,0.0,4700.02490234375,8601.34765625,8015.6328125,6089.21044921875,11509.2587890625,10591.34765625,16488.234375,-14919.4404296875,2167.224853515625,11232.693359375,6319.681640625,5780.85546875,3194.014404296875,0.0,9880.8603515625
4912.2177734375,2722.740234375,16845.861328125,6787.77685546875,17350.515625,6772.6767578125,8957.3857421875,13940.333984375,6269.61376953125,8134.841796875,9553.4326171875,8181.7314453125,-3700.25634765625,0.0,12650.490234375,12799.103515625,1669.724853515625,1907.3486328125,4813.6708984375,6540.61669921875,5004.40576171875,11567.275390625,8818.30859375,23286.341796875,-189.9401397705078,1293.0234375,6776.65087890625,13995.96484375,-6327.62890625,3176.530029296875,18719.037109375,-8802.4140625,-2762.4765625,3997.484619140625,11279.5830078125,11781.056640625,6367.365234375,9213.2880859375,7109.64208984375,-0.0,6635.18896484375,27245.6796875,31275.75,9349.982421875,19459.724609375,14877.3193359375,-911.5537109375,-3007.2529296875,5371.57080078125,14484.72265625,11436.14453125,13763.904296875,10854.4033203125,1432.8956298828125,2369.880615234375,10588.9638671875,0.0,4699.22998046875,8587.04296875,8000.533203125,6092.3896484375,11504.4912109375,10580.2216796875,16474.724609375,-14909.9033203125,2164.046142578125,11211.236328125,6318.88720703125,5760.19287109375,3187.656494140625,0.0,9861.787109375
4889.96484375,2679.0302734375,16841.09375,6706.71484375,17346.541015625,6762.345703125,8947.0546875,13927.619140625,6251.3349609375,8122.9208984375,9551.8427734375,8157.09423828125,-3691.51416015625,0.0,12631.416015625,12787.978515625,1660.1881103515625,1897.8118896484375,4804.13427734375,6525.5166015625,5000.4326171875,11552.9697265625,8810.361328125,23275.216796875,-193.9137725830078,1282.69189453125,6768.70361328125,13979.275390625,-6320.4765625,3160.6357421875,18709.501953125,-8802.4140625,-2760.092529296875,3954.5693359375,11273.224609375,11770.7255859375,6357.0341796875,9202.95703125,7061.16357421875,-0.0,6637.5732421875,27243.294921875,31269.390625,9338.0615234375,19444.623046875,14866.1923828125,-930.627197265625,-3091.494384765625,5363.623046875,14472.0078125,11413.8916015625,13751.9833984375,10853.6083984375,1445.611328125,2372.264892578125,10570.685546875,0.0,4704.79345703125,8565.5849609375,7987.0224609375,6075.7001953125,11494.16015625,10567.505859375,16458.830078125,-14908.3134765625,2143.383056640625,11189.7783203125,6287.892578125,5720.45654296875,3168.5830078125,0.0,9851.4560546875
4890.759765625,2746.58203125,16810.89453125,6761.55078125,17342.568359375,6751.21923828125,8944.6708984375,13928.4130859375,6253.71923828125,8119.7421875,9543.8955078125,8149.94140625,-3689.130126953125,0.0,12641.7470703125,12787.1826171875,1657.0091552734375,1893.8382568359375,4800.955078125,6525.5166015625,4997.25341796875,11550.5859375,8807.9765625,23270.44921875,-203.4505157470703,1269.181640625,6769.49853515625,13968.9443359375,-6326.03955078125,3149.509521484375,18706.322265625,-8790.4931640625,-2769.629150390625,3975.232666015625,11273.224609375,11765.95703125,6357.0341796875,9198.9833984375,7110.43701171875,-0.0,6640.75244140625,27231.375,31268.595703125,9331.703125,19444.623046875,14865.3984375,-944.1375732421875,-3018.379150390625,5355.67626953125,14456.908203125,11424.2236328125,13751.189453125,10826.587890625,1420.179931640625,2365.1123046875,10564.3271484375,0.0,4707.97216796875,8569.55859375,7986.22802734375,6053.44775390625,11491.775390625,10567.505859375,16461.21484375,-14916.2607421875,2132.2568359375,11200.1103515625,6282.32958984375,5730.78759765625,3170.967041015625,0.0,9851.4560546875
4923.34375,2818.90234375,16824.404296875,6786.1875,17348.130859375,6748.8349609375,8951.8232421875,13931.591796875,6262.46142578125,8126.099609375,9553.4326171875,8169.81005859375,-3685.951171875,0.0,12649.6953125,12789.5673828125,1661.7774658203125,1898.606689453125,4804.92919921875,6534.25830078125,5002.81689453125,11550.5859375,8815.12890625,23273.626953125,-207.42416381835938,1270.77099609375,6775.06103515625,13973.712890625,-6328.423828125,3163.814453125,18711.08984375,-8783.3408203125,-2766.4501953125,3975.232666015625,11280.376953125,11768.3408203125,6361.802734375,9203.751953125,7147.7890625,-0.0,6654.2626953125,27215.48046875,31274.158203125,9334.8818359375,19451.77734375,14870.9609375,-919.5009765625,-2939.701171875,5360.4443359375,14455.318359375,11431.3759765625,13755.162109375,10825.79296875,1412.2327880859375,2361.138671875,10573.8642578125,0.0,4704.79345703125,8579.0947265625,7994.96923828125,6051.0634765625,11499.72265625,10576.248046875,16471.544921875,-14915.466796875,2144.97265625,11209.6474609375,6303.787109375,5750.65625,3182.887939453125,0.0,9861.787109375
4937.64892578125,2810.955078125,16831.556640625,6771.88232421875,17352.103515625,6750.4248046875,8951.8232421875,13929.2080078125,6265.64013671875,8124.5107421875,9540.716796875,8178.5517578125,-3673.235595703125,0.0,12651.2841796875,12788.7724609375,1661.7774658203125,1897.8118896484375,4804.13427734375,6535.84814453125,5003.611328125,11552.1748046875,8815.12890625,23272.83203125,-212.19253540039062,1273.949951171875,6765.5244140625,13975.302734375,-6322.06591796875,3167.788330078125,18710.294921875,-8800.82421875,-2764.86083984375,3980.0009765625,11278.7880859375,11766.7509765625,6361.0078125,9203.751953125,7037.32177734375,-0.0,6654.2626953125,27217.865234375,31274.158203125,9334.8818359375,19451.77734375,14870.9609375,-910.7589721679688,-2933.34326171875,5363.623046875,14457.703125,11434.5546875,13755.162109375,10825.79296875,1441.6376953125,2359.54931640625,10575.4541015625,0.0,4702.4091796875,8581.4794921875,7994.96923828125,6062.984375,11497.337890625,10574.658203125,16470.75,-14919.4404296875,2149.740966796875,11212.826171875,6306.17138671875,5761.7822265625,3178.914306640625,0.0,9858.6083984375
4885.19677734375,2786.318603515625,16835.53125,6723.40380859375,17332.234375,6732.14599609375,8937.5185546875,13912.5185546875,6254.51416015625,8108.61572265625,9512.1064453125,8159.47802734375,-3678.00390625,0.0,12649.6953125,12772.0830078125,1641.9093017578125,1878.7384033203125,4789.0341796875,6522.33740234375,4984.53759765625,11530.716796875,8797.6455078125,23255.34765625,-223.31874084472656,1251.697509765625,6747.24560546875,13957.0234375,-6334.78173828125,3147.125244140625,18692.8125,-8812.7451171875,-2783.139404296875,3952.97998046875,11260.509765625,11748.4736328125,6345.11328125,9187.0625,7030.1689453125,-0.0,6630.4208984375,27197.203125,31256.67578125,9315.80859375,19439.85546875,14856.65625,-936.9849853515625,-2970.695556640625,5335.0126953125,14441.013671875,11433.7607421875,13740.0625,10801.951171875,1427.33251953125,2342.065185546875,10557.1748046875,0.0,4687.30908203125,8574.326171875,7978.2802734375,6070.93212890625,11476.67578125,10558.7646484375,16460.41796875,-14936.923828125,2130.66748046875,11212.03125,6291.8662109375,5767.34521484375,3165.404052734375,0.0,9846.6875
4885.99169921875,2790.2919921875,16810.89453125,6722.60888671875,17337.00390625,6737.708984375,8938.3125,13916.4921875,6248.15625,8108.61572265625,9531.974609375,8161.06787109375,-3677.209228515625,0.0,12634.5947265625,12775.26171875,1647.472412109375,1885.8909912109375,4792.21337890625,6517.56884765625,4989.30615234375,11537.0751953125,8801.619140625,23261.705078125,-212.19253540039062,1258.85009765625,6749.6298828125,13959.408203125,-6326.833984375,3147.125244140625,18698.373046875,-8806.3876953125,-2782.3447265625,3954.5693359375,11266.8671875,11754.830078125,6348.2919921875,9191.8310546875,7141.43115234375,-0.0,6647.90478515625,27207.533203125,31261.443359375,9318.98828125,19438.267578125,14858.24609375,-963.2110595703125,-2981.82177734375,5338.19189453125,14444.9873046875,11418.66015625,13744.8310546875,10812.2822265625,1429.7166748046875,2348.423095703125,10557.1748046875,0.0,4693.6669921875,8563.201171875,7981.45947265625,6071.7265625,11483.033203125,10560.353515625,16451.677734375,-14927.3876953125,2130.66748046875,11196.13671875,6295.83984375,5731.58251953125,3164.609130859375,0.0,9842.712890625
4932.08544921875,2786.318603515625,16777.515625,6744.06689453125,17348.130859375,6747.24560546875,8946.259765625,13923.64453125,6252.92431640625,8113.38427734375,9550.25390625,8172.1943359375,-3684.36181640625,0.0,12640.953125,12780.8251953125,1650.6513671875,1892.248779296875,4799.3662109375,6522.33740234375,4993.27978515625,11546.611328125,8808.7724609375,23268.857421875,-201.0663299560547,1269.976318359375,6765.5244140625,13968.150390625,-6321.271484375,3163.814453125,18703.142578125,-8800.82421875,-2791.881591796875,3964.90087890625,11272.4306640625,11761.9833984375,6354.64990234375,9197.39453125,7147.7890625,-0.0,6647.10986328125,27217.865234375,31270.1875,9327.7294921875,19443.03515625,14863.0146484375,-936.9849853515625,-2981.02685546875,5361.23876953125,14455.318359375,11424.2236328125,13748.8046875,10821.8193359375,1445.611328125,2361.138671875,10567.505859375,0.0,4703.20361328125,8568.763671875,7984.63818359375,6070.93212890625,11493.365234375,10566.7109375,16452.470703125,-14917.0556640625,2144.97265625,11202.494140625,6294.25048828125,5740.32470703125,3161.430419921875,0.0,9839.53515625
4975.7958984375,2752.93994140625,16849.041015625,6755.193359375,17342.568359375,6752.80908203125,8950.2333984375,13925.234375,6262.46142578125,8115.7685546875,9544.6904296875,8173.783203125,-3699.461669921875,0.0,12662.4111328125,12784.00390625,1650.6513671875,1891.4541015625,4801.75,6528.69580078125,4984.53759765625,11551.3798828125,8809.56640625,23272.037109375,-205.83470153808594,1273.949951171875,6776.65087890625,13972.9189453125,-6335.57666015625,3169.377685546875,18702.349609375,-8800.029296875,-2791.0869140625,3977.61669921875,11269.251953125,11767.546875,6359.41845703125,9199.7783203125,7131.89453125,-0.0,6620.0888671875,27225.8125,31270.1875,9330.9091796875,19451.77734375,14866.1923828125,-900.427490234375,-3002.484619140625,5362.82861328125,14456.11328125,11443.2978515625,13749.599609375,10842.482421875,1442.432373046875,2360.343994140625,10573.8642578125,0.0,4705.587890625,8581.4794921875,7984.63818359375,6077.28955078125,11493.365234375,10572.2744140625,16461.21484375,-14926.5927734375,2153.71435546875,11222.3623046875,6292.6611328125,5772.90869140625,3160.6357421875,0.0,9845.892578125
4963.080078125,2739.429443359375,16854.60546875,6761.55078125,17344.15625,6761.55078125,8951.8232421875,13931.591796875,6262.46142578125,8123.71533203125,9536.7431640625,8165.0419921875,-3702.640625,0.0,12657.642578125,12791.951171875,1655.419677734375,1895.427734375,4805.7236328125,6534.25830078125,4988.51171875,11557.73828125,8812.7451171875,23278.39453125,-214.57672119140625,1281.1025390625,6778.240234375,13976.8916015625,-6336.37109375,3162.22509765625,18707.91015625,-8803.2080078125,-2784.72900390625,3989.53759765625,11273.224609375,11775.4931640625,6360.212890625,9204.546875,7111.2314453125,-0.0,6616.91064453125,27240.1171875,31271.7734375,9337.265625,19453.3671875,14872.55078125,-899.6327514648438,-3029.50537109375,5351.7021484375,14463.265625,11438.529296875,13756.751953125,10853.6083984375,1430.511474609375,2352.396728515625,10572.2744140625,0.0,4707.177734375,8575.916015625,7998.14892578125,6090.00537109375,11496.5439453125,10573.0693359375,16469.16015625,-14932.1552734375,2149.740966796875,11216.7998046875,6316.5029296875,5753.8349609375,3176.530029296875,0.0,9864.1708984375
4943.2119140625,2749.760986328125,16849.041015625,6803.67138671875,17333.826171875,6763.14013671875,8946.259765625,13934.771484375,6252.1298828125,8118.15283203125,9536.7431640625,8163.4521484375,-3688.33544921875,0.0,12639.36328125,12794.3349609375,1659.393310546875,1894.6329345703125,4801.75,6527.10595703125,4990.10107421875,11560.1220703125,8807.1826171875,23278.39453125,-218.5503692626953,1280.3077392578125,6769.49853515625,13984.0439453125,-6330.01318359375,3166.993408203125,18710.294921875,-8807.1826171875,-2769.629150390625,3992.71630859375,11270.8408203125,11776.2880859375,6356.2392578125,9203.751953125,7057.18994140625,-0.0,6616.11572265625,27240.1171875,31265.419921875,9340.4453125,19445.419921875,14870.9609375,-913.9378662109375,-2981.82177734375,5331.03955078125,14468.0341796875,11421.0439453125,13759.1357421875,10838.5087890625,1409.0538330078125,2342.065185546875,10575.4541015625,0.0,4707.177734375,8562.4052734375,8001.32763671875,6067.7529296875,11494.16015625,10566.7109375,16454.060546875,-14929.771484375,2148.946044921875,11200.1103515625,6326.833984375,5725.22509765625,3178.11962890625,0.0,9853.83984375
4949.56982421875,2758.5029296875,16822.814453125,6738.50390625,17328.26171875,6754.3984375,8943.0810546875,13926.029296875,6252.92431640625,8111.0,9539.126953125,8165.83642578125,-3686.745849609375,0.0,12648.900390625,12784.798828125,1651.446044921875,1886.6856689453125,4796.98193359375,6523.13232421875,4984.53759765625,11545.8173828125,8802.4140625,23270.44921875,-223.31874084472656,1273.949951171875,6771.087890625,13980.865234375,-6331.6025390625,3174.14599609375,18702.349609375,-8796.8515625,-2773.602783203125,3967.28515625,11266.8671875,11766.7509765625,6353.06005859375,9197.39453125,7065.931640625,-0.0,6623.26806640625,27217.865234375,31262.23828125,9335.6767578125,19445.419921875,14863.0146484375,-918.7062377929688,-2977.053466796875,5328.6552734375,14466.4453125,11429.787109375,13751.189453125,10831.3564453125,1421.76953125,2338.091552734375,10576.248046875,0.0,4704.79345703125,8572.7373046875,7984.63818359375,6047.88427734375,11488.5966796875,10563.533203125,16446.908203125,-14928.181640625,2144.177734375,11210.44140625,6326.03955078125,5760.98779296875,3177.324951171875,0.0,9834.7666015625
4944.00634765625,2713.203369140625,16822.01953125,6726.5830078125,17336.2109375,6758.3720703125,8952.6171875,13929.2080078125,6274.38232421875,8116.56298828125,9550.25390625,8159.47802734375,-3678.798583984375,0.0,12679.89453125,12787.1826171875,1652.24072265625,1889.8646240234375,4804.92919921875,6536.642578125,4988.51171875,11547.40625,8807.9765625,23275.216796875,-224.11346435546875,1272.3604736328125,6786.1875,13984.0439453125,-6322.86083984375,3168.5830078125,18704.732421875,-8796.0556640625,-2779.166015625,3970.464111328125,11269.251953125,11768.3408203125,6362.59716796875,9202.1630859375,7099.310546875,-0.0,6622.47314453125,27223.4296875,31271.7734375,9338.0615234375,19461.3125,14869.3720703125,-916.3220825195312,-3002.484619140625,5346.1396484375,14467.2392578125,11463.1650390625,13754.3681640625,10845.6611328125,1422.564208984375,2365.906982421875,10576.248046875,0.0,4700.02490234375,8602.9365234375,7983.84375,6028.81103515625,11494.16015625,10573.8642578125,16465.982421875,-14918.64453125,2139.409423828125,11242.23046875,6326.03955078125,5836.48681640625,3172.556640625,0.0,9841.9189453125
4929.701171875,2730.6875,16828.37890625,6783.80322265625,17348.130859375,6780.62451171875,8955.7958984375,13946.6923828125,6258.48779296875,8126.89501953125,9565.353515625,8183.31982421875,-3677.209228515625,0.0,12642.54296875,12806.255859375,1676.8773193359375,1909.7327880859375,4813.6708984375,6533.4638671875,5008.37939453125,11572.837890625,8822.2822265625,23295.083984375,-189.9401397705078,1296.9970703125,6792.54541015625,14004.70703125,-6301.40283203125,3194.80908203125,18724.599609375,-8774.59765625,-2766.4501953125,4010.200439453125,11285.94140625,11789.00390625,6366.57080078125,9216.4677734375,7099.310546875,-0.0,6639.95751953125,27250.447265625,31282.107421875,9358.7236328125,19453.3671875,14880.498046875,-904.401123046875,-2977.053466796875,5373.15966796875,14491.0810546875,11428.197265625,13771.8515625,10874.271484375,1450.3797607421875,2396.9013671875,10604.8583984375,0.0,4717.5087890625,8567.173828125,8001.32763671875,6052.65283203125,11509.2587890625,10578.6328125,16462.802734375,-14889.240234375,2167.224853515625,11202.494140625,6364.1865234375,5716.482421875,3191.630126953125,0.0,9860.1982421875
4869.30224609375,2768.83447265625,16855.3984375,6769.49853515625,17344.15625,6764.72998046875,8943.875,13927.619140625,6244.9775390625,8115.7685546875,9550.25390625,8167.42626953125,-3694.693359375,0.0,12628.2373046875,12786.388671875,1668.13525390625,1898.606689453125,4800.16064453125,6519.953125,5005.20068359375,11563.30078125,8811.15625,23283.162109375,-178.81393432617188,1282.69189453125,6778.240234375,13982.455078125,-6307.7607421875,3175.7353515625,18715.859375,-8793.671875,-2750.5556640625,3982.38525390625,11278.7880859375,11777.0830078125,6354.64990234375,9202.1630859375,7065.13720703125,-0.0,6643.93115234375,27238.52734375,31272.572265625,9341.240234375,19437.470703125,14864.603515625,-916.3220825195312,-3012.816162109375,5369.9814453125,14472.8017578125,11411.5078125,13752.7783203125,10841.6875,1416.206298828125,2376.238525390625,10588.1689453125,0.0,4703.20361328125,8551.2802734375,7987.81689453125,6042.32177734375,11494.9541015625,10564.3271484375,16457.23828125,-14897.1875,2148.946044921875,11188.189453125,6323.65576171875,5687.078125,3180.50390625,0.0,9857.8134765625
4886.7861328125,2761.681884765625,16833.146484375,6744.86181640625,17339.388671875,6752.01416015625,8939.107421875,13916.4921875,6248.15625,8109.41015625,9539.126953125,8157.88916015625,-3703.435302734375,0.0,12640.158203125,12773.6728515625,1658.5985107421875,1890.6593017578125,4791.41845703125,6520.748046875,4998.8427734375,11554.55859375,8802.4140625,23271.2421875,-187.5559539794922,1269.976318359375,6767.90869140625,13968.9443359375,-6320.4765625,3155.072509765625,18706.322265625,-8807.1826171875,-2756.11865234375,3973.642822265625,11271.6357421875,11768.3408203125,6349.0869140625,9193.419921875,7003.94287109375,-0.0,6651.08349609375,27230.58203125,31266.212890625,9330.11328125,19436.677734375,14857.451171875,-933.8060913085938,-3015.200439453125,5363.623046875,14458.4970703125,11422.6337890625,13740.857421875,10807.5146484375,1396.338134765625,2348.423095703125,10569.8896484375,0.0,4689.693359375,8563.201171875,7978.2802734375,6067.7529296875,11486.212890625,10558.7646484375,16459.623046875,-14909.1083984375,2133.051513671875,11200.9052734375,6271.998046875,5729.9931640625,3170.17236328125,0.0,9852.25
