7601.5791015625,5184.0146484375,15280.2470703125,9485.880859375,19402.50390625,7277.330078125,11106.33203125,16129.8125,7611.91015625,11033.2177734375,10842.482421875,9630.5205078125,-6070.13720703125,0.0,11909.0078125,14859.8359375,3857.612548828125,4616.57861328125,4850.22900390625,8175.373046875,5194.34619140625,13747.21484375,10543.6640625,26209.353515625,-2433.458984375,1454.353271484375,6866.455078125,16794.205078125,-7004.73779296875,4340.8076171875,21961.53125,-8098.28466796875,-5966.822265625,5710.125,12931.82421875,13807.6142578125,8544.1279296875,10910.828125,8072.85302734375,-0.0,4303.45556640625,30929.24609375,34588.17578125,10890.166015625,21798.611328125,17482.439453125,-4487.03759765625,-5276.998046875,5768.14013671875,17561.912109375,10820.2294921875,15865.9609375,12764.9306640625,2950.032470703125,458.55841064453125,12505.8486328125,0.0,4067.4208984375,9061.49609375,9340.4453125,8370.08203125,14406.83984375,10821.8193359375,19030.5703125,-12225.310546875,5291.30322265625,10376.7705078125,3709.79296875,2849.896728515625,2339.680908203125,0.0,11979.7392578125
7676.283203125,5214.21435546875,15248.4580078125,9404.0234375,19371.509765625,7241.56689453125,11076.1328125,16101.2021484375,7588.068359375,11011.759765625,10833.740234375,9613.037109375,-6069.34228515625,0.0,11884.3720703125,14832.01953125,3819.465576171875,4581.6103515625,4822.4130859375,8153.12109375,5147.45703125,13706.6845703125,10512.669921875,26176.771484375,-2470.0166015625,1418.590576171875,6829.8974609375,16758.44140625,-7018.248046875,4300.2763671875,21921.0,-8106.2314453125,-6066.16357421875,5664.8251953125,12896.060546875,13771.8515625,8514.7216796875,10882.21875,8296.966796875,-0.0,4270.07666015625,30881.5625,34558.7734375,10857.58203125,21770.794921875,17455.419921875,-4495.779296875,-5234.08251953125,5745.0927734375,17528.533203125,10796.3876953125,15836.5576171875,12771.2890625,2955.595703125,433.1270751953125,12487.5703125,0.0,4038.015869140625,9035.26953125,9316.603515625,8366.1083984375,14376.640625,10795.59375,19013.0859375,-12254.71484375,5269.05078125,10355.3134765625,3711.382568359375,2841.15478515625,2324.5810546875,0.0,11955.1015625
7722.3779296875,5207.0615234375,15256.4052734375,9399.2548828125,19345.283203125,7234.41455078125,11065.005859375,16093.25390625,7580.916015625,11007.7861328125,10830.5615234375,9624.1640625,-6062.984375,0.0,11871.6552734375,14823.27734375,3805.16064453125,4569.689453125,4813.6708984375,8148.3525390625,5128.3837890625,13695.5576171875,10497.5703125,26168.02734375,-2459.68505859375,1417.7957763671875,6826.71875,16752.87890625,-7023.0166015625,4294.71337890625,21908.283203125,-8134.841796875,-6086.03125,5659.26220703125,12878.5771484375,13762.314453125,8503.5966796875,10873.4765625,8362.9296875,-0.0,4223.18798828125,30865.669921875,34537.31640625,10850.4296875,21762.052734375,17452.240234375,-4492.60107421875,-5189.57763671875,5711.71435546875,17527.73828125,10783.671875,15828.609375,12776.0576171875,2964.337646484375,410.0799560546875,12492.3388671875,0.0,4020.5322265625,9018.580078125,9315.013671875,8401.87109375,14367.103515625,10788.4404296875,19009.11328125,-12253.125,5272.2294921875,10341.8037109375,3727.277099609375,2827.644287109375,2336.501953125,0.0,11960.666015625
7750.193359375,5251.56640625,15280.2470703125,9458.0654296875,19397.736328125,7294.8134765625,11117.4580078125,16152.0634765625,7641.3154296875,11068.98046875,10873.4765625,9680.5888671875,-6023.248046875,0.0,11913.7763671875,14882.087890625,3859.996826171875,4626.90966796875,4869.30224609375,8205.5732421875,5185.60400390625,13753.5732421875,10554.7900390625,26224.455078125,-2422.332763671875,1481.3741455078125,6879.1708984375,16817.251953125,-6973.74365234375,4350.34423828125,21965.50390625,-8091.9267578125,-6029.60595703125,5720.45654296875,12935.001953125,13821.125,8556.048828125,10929.90234375,8377.234375,-0.0,4287.56103515625,30929.24609375,34590.5625,10910.0341796875,21816.888671875,17511.048828125,-4435.38037109375,-5149.84130859375,5743.50341796875,17590.5234375,10826.587890625,15886.625,12823.7412109375,3012.816162109375,463.3267822265625,12550.353515625,0.0,4053.11572265625,9087.7216796875,9372.234375,8460.6806640625,14422.734375,10844.8671875,19064.744140625,-12203.8525390625,5327.8603515625,10383.923828125,3773.371337890625,2888.043701171875,2397.6962890625,0.0,12025.8330078125
7790.72412109375,5294.48193359375,15312.03515625,9540.716796875,19438.267578125,7339.31884765625,11159.5791015625,16191.80078125,7684.23095703125,11107.126953125,10911.6240234375,9713.9677734375,-5981.92236328125,0.0,11951.12890625,14921.029296875,3904.501708984375,4669.8251953125,4909.03857421875,8246.1044921875,5230.90380859375,13802.845703125,10599.2958984375,26267.37109375,-2392.133056640625,1525.0841064453125,6919.7021484375,16864.140625,-6934.8017578125,4399.61767578125,22010.802734375,-8063.31640625,-5978.7431640625,5775.29296875,12977.91796875,13864.8349609375,8598.9638671875,10972.8173828125,8356.5712890625,-0.0,4316.17138671875,30976.9296875,34635.06640625,10954.5390625,21859.009765625,17549.1953125,-4395.6435546875,-5120.43603515625,5805.4921875,17635.02734375,10864.734375,15927.9501953125,12853.1455078125,3019.96875,532.4681396484375,12582.9384765625,0.0,4066.6259765625,9137.7900390625,9406.4072265625,8486.111328125,14464.060546875,10885.3974609375,19105.275390625,-12164.91015625,5366.80224609375,10418.8916015625,3786.881591796875,2946.05908203125,2418.359130859375,0.0,12056.033203125
7725.556640625,5242.82470703125,15288.193359375,9527.2060546875,19398.53125,7294.8134765625,11112.6904296875,16139.3486328125,7628.599609375,11042.75390625,10863.14453125,9663.10546875,-6034.3740234375,0.0,11916.16015625,14868.5771484375,3863.970458984375,4626.115234375,4862.9443359375,8185.7041015625,5194.34619140625,13760.7255859375,10553.99609375,26218.095703125,-2431.074951171875,1478.1951904296875,6878.3759765625,16814.8671875,-6988.04833984375,4362.26513671875,21970.271484375,-8106.2314453125,-5993.04833984375,5742.70849609375,12936.591796875,13820.3310546875,8552.869140625,10922.75,8234.18359375,-0.0,4280.408203125,30932.42578125,34592.9453125,10906.060546875,21808.146484375,17491.181640625,-4454.4541015625,-5192.7568359375,5776.08740234375,17590.5234375,10827.3818359375,15875.498046875,12813.4091796875,2954.80078125,486.3739013671875,12531.2802734375,0.0,4016.55810546875,9071.0322265625,9347.59765625,8433.6591796875,14418.76171875,10831.3564453125,19036.134765625,-12211.0048828125,5323.88671875,10383.923828125,3709.79296875,2895.1962890625,2322.99169921875,0.0,11974.970703125
7646.87890625,5187.98828125,15274.68359375,9454.88671875,19367.537109375,7256.66650390625,11084.8740234375,16117.8916015625,7597.60546875,11014.9384765625,10836.9189453125,9624.9580078125,-6066.16357421875,0.0,11893.908203125,14847.9150390625,3827.412841796875,4589.5576171875,4831.1552734375,8157.09423828125,5156.19921875,13720.1943359375,10520.6171875,26183.923828125,-2459.68505859375,1441.6376953125,6843.408203125,16776.720703125,-7019.837890625,4330.47607421875,21934.509765625,-8138.81591796875,-6034.3740234375,5701.38330078125,12900.8291015625,13782.978515625,8524.2587890625,10893.3447265625,8203.9833984375,-0.0,4239.08251953125,30891.099609375,34562.74609375,10872.681640625,21782.716796875,17464.95703125,-4474.32177734375,-5259.513671875,5739.5302734375,17549.1953125,10805.9248046875,15854.8359375,12767.314453125,2924.601318359375,449.02166748046875,12497.90234375,0.0,4026.094970703125,9036.8583984375,9342.0341796875,8402.6650390625,14385.3828125,10801.951171875,19013.0859375,-12244.3837890625,5284.150390625,10360.876953125,3683.567138671875,2849.10205078125,2282.46044921875,0.0,11962.2548828125
7645.2890625,5140.3046875,15233.357421875,9409.5869140625,19349.255859375,7236.798828125,11065.80078125,16105.970703125,7588.068359375,11008.580078125,10829.7666015625,9613.8310546875,-6069.34228515625,0.0,11870.06640625,14839.171875,3808.33935546875,4572.8681640625,4816.85009765625,8149.14697265625,5137.12548828125,13698.7373046875,10503.927734375,26168.02734375,-2475.57958984375,1421.76953125,6812.41357421875,16758.44140625,-7035.732421875,4297.09765625,21914.640625,-8148.3525390625,-6065.36865234375,5666.41455078125,12883.345703125,13765.494140625,8505.185546875,10879.0400390625,8230.208984375,-0.0,4221.59814453125,30869.642578125,34542.87890625,10854.4033203125,21766.02734375,17455.419921875,-4494.98486328125,-5259.513671875,5724.43017578125,17530.123046875,10781.2880859375,15845.298828125,12725.9892578125,2924.601318359375,428.35870361328125,12479.623046875,0.0,4050.731689453125,9035.26953125,9336.4716796875,8391.5400390625,14368.693359375,10788.4404296875,19005.93359375,-12260.27734375,5265.87158203125,10338.6240234375,3683.567138671875,2832.41259765625,2299.149658203125,0.0,11952.7177734375
7656.41552734375,5153.81494140625,15240.509765625,9416.7392578125,19366.740234375,7253.48828125,11081.6953125,16109.1484375,7611.11572265625,11018.1171875,10851.2236328125,9636.0849609375,-6060.60009765625,0.0,11889.9345703125,14839.171875,3830.591796875,4594.326171875,4834.333984375,8166.630859375,5160.96728515625,13718.60546875,10523.001953125,26185.51171875,-2452.532470703125,1434.485107421875,6831.4873046875,16765.59375,-7015.86376953125,4301.0712890625,21937.689453125,-8131.6630859375,-6040.73193359375,5681.5146484375,12904.0078125,13786.15625,8521.080078125,10891.7548828125,8227.0302734375,-0.0,4252.5927734375,30888.71484375,34559.56640625,10867.9130859375,21785.1015625,17464.16015625,-4494.1904296875,-5215.00927734375,5741.119140625,17542.04296875,10804.3359375,15846.09375,12760.95703125,2980.232177734375,452.2005615234375,12497.90234375,0.0,4045.16845703125,9071.8271484375,9317.3984375,8392.333984375,14387.7666015625,10805.1298828125,19021.03515625,-12242.0,5280.9716796875,10362.4658203125,3690.7197265625,2866.5859375,2315.839111328125,0.0,11951.923828125
7661.97802734375,5254.74560546875,15270.7099609375,9443.759765625,19396.146484375,7286.07177734375,11107.921875,16144.1171875,7644.49462890625,11056.263671875,10877.4501953125,9667.873046875,-6047.08984375,0.0,11912.1865234375,14874.140625,3859.2021484375,4625.3203125,4865.328125,8201.599609375,5195.935546875,13748.009765625,10553.99609375,26218.890625,-2425.51171875,1466.2742919921875,6858.5078125,16801.357421875,-6989.6376953125,4330.47607421875,21969.4765625,-8103.05322265625,-5997.81640625,5704.5615234375,12935.7978515625,13817.1513671875,8545.7158203125,10922.75,8213.5205078125,-0.0,4296.302734375,30918.12109375,34585.0,10902.0869140625,21811.326171875,17496.744140625,-4507.70068359375,-5187.193359375,5762.5771484375,17574.62890625,10824.203125,15878.677734375,12811.8203125,3031.8896484375,472.06878662109375,12536.84375,0.0,4072.189453125,9104.4111328125,9355.544921875,8421.73828125,14417.9658203125,10836.1240234375,19063.154296875,-12216.568359375,5310.37646484375,10382.3349609375,3743.171630859375,2913.47509765625,2365.906982421875,0.0,12002.7861328125
7722.3779296875,5333.423828125,15304.8828125,9449.322265625,19428.73046875,7313.0927734375,11135.7373046875,16174.31640625,7669.130859375,11087.2587890625,10898.9072265625,9697.2783203125,-6015.30078125,0.0,11924.9033203125,14905.134765625,3885.42822265625,4653.9306640625,4893.9384765625,8230.208984375,5226.13525390625,13772.646484375,10584.1953125,26245.912109375,-2399.28564453125,1493.2950439453125,6884.73388671875,16833.94140625,-6966.5908203125,4365.4443359375,21995.703125,-8076.8271484375,-5962.0537109375,5726.814453125,12965.9970703125,13842.5830078125,8575.1220703125,10951.359375,8218.2880859375,-0.0,4326.50244140625,30941.16796875,34615.9921875,10931.4921875,21840.73046875,17523.765625,-4448.095703125,-5158.5830078125,5794.3662109375,17604.033203125,10838.5087890625,15910.466796875,12804.6669921875,3051.7578125,492.73175048828125,12564.6591796875,0.0,4104.77294921875,9120.3046875,9390.513671875,8438.427734375,14445.78125,10863.9404296875,19097.328125,-12191.13671875,5341.37109375,10391.076171875,3763.834716796875,2938.906494140625,2400.080322265625,0.0,12041.7275390625
7739.86181640625,5339.78125,15311.2412109375,9458.859375,19426.345703125,7314.68212890625,11132.5576171875,16177.49609375,7659.59423828125,11086.4638671875,10894.9345703125,9700.4580078125,-6004.96923828125,0.0,11916.16015625,14909.9033203125,3887.017578125,4655.52001953125,4892.34912109375,8224.646484375,5226.13525390625,13774.2353515625,10583.400390625,26246.705078125,-2399.28564453125,1493.2950439453125,6887.11767578125,16838.708984375,-6959.4384765625,4378.16015625,21998.8828125,-8072.85302734375,-5963.6435546875,5729.1982421875,12968.380859375,13844.966796875,8573.5322265625,10953.744140625,8235.7724609375,-0.0,4324.1181640625,30944.34765625,34612.81640625,10934.6708984375,21835.962890625,17526.150390625,-4405.1806640625,-5153.81494140625,5783.23974609375,17608.0078125,10832.9462890625,15913.64453125,12756.9833984375,3040.631591796875,497.5001220703125,12564.6591796875,0.0,4106.36279296875,9100.4375,9392.1025390625,8436.0439453125,14444.9873046875,10861.5556640625,19097.328125,-12182.39453125,5344.5498046875,10385.513671875,3745.555908203125,2904.73291015625,2396.9013671875,0.0,12047.291015625
7691.38330078125,5294.48193359375,15273.09375,9441.3759765625,19389.787109375,7283.6875,11101.5634765625,16144.1171875,7615.08935546875,11045.138671875,10865.529296875,9668.66796875,-6021.658203125,0.0,11891.5244140625,14876.525390625,3857.612548828125,4623.73095703125,4859.765625,8181.7314453125,5192.7568359375,13744.037109375,10550.81640625,26214.91796875,-2436.637939453125,1464.684814453125,6852.94482421875,16807.71484375,-6983.2802734375,4351.93408203125,21966.298828125,-8101.46337890625,-5997.81640625,5705.3564453125,12934.2080078125,13814.7666015625,8540.9482421875,10920.365234375,8235.7724609375,-0.0,4286.76611328125,30913.353515625,34582.61328125,10902.8818359375,21800.994140625,17491.181640625,-4441.73828125,-5187.98828125,5737.14599609375,17579.396484375,10805.9248046875,15879.47265625,12777.646484375,3004.86865234375,474.4529724121094,12532.8701171875,0.0,4061.857666015625,9047.1904296875,9357.134765625,8416.17578125,14413.9931640625,10824.203125,19048.0546875,-12211.0048828125,5315.939453125,10360.08203125,3717.740234375,2842.744140625,2350.012451171875,0.0,12002.7861328125
7668.33642578125,5249.97705078125,15246.8681640625,9445.349609375,19377.8671875,7262.22998046875,11084.080078125,16117.8916015625,7599.19482421875,11018.912109375,10831.3564453125,9632.9052734375,-6058.21630859375,0.0,11886.755859375,14849.50390625,3835.3603515625,4601.478515625,4838.3076171875,8156.2998046875,5171.298828125,13725.7578125,10532.5380859375,26191.869140625,-2461.2744140625,1438.458740234375,6836.25537109375,16782.283203125,-7008.71142578125,4320.14453125,21943.25,-8133.251953125,-6028.0166015625,5695.02490234375,12914.33984375,13791.720703125,8521.8740234375,10894.9345703125,8194.4462890625,-0.0,4270.87158203125,30899.046875,34568.30859375,10878.2451171875,21782.716796875,17466.544921875,-4488.626953125,-5239.6455078125,5743.50341796875,17553.171875,10800.361328125,15852.451171875,12795.130859375,2957.97998046875,445.0480041503906,12499.4912109375,0.0,4027.6845703125,9048.779296875,9326.9345703125,8403.4609375,14394.1240234375,10802.74609375,19013.0859375,-12238.025390625,5286.53466796875,10356.1083984375,3705.024658203125,2843.5390625,2327.760009765625,0.0,11967.818359375
7665.1572265625,5186.39892578125,15243.689453125,9480.3173828125,19381.046875,7259.05078125,11080.10546875,16109.943359375,7600.7841796875,11018.1171875,10825.79296875,9618.599609375,-6069.34228515625,0.0,11886.755859375,14841.556640625,3832.18115234375,4596.7099609375,4835.12890625,8158.68359375,5171.298828125,13724.962890625,10530.9482421875,26185.51171875,-2461.2744140625,1433.6904296875,6839.43408203125,16775.92578125,-7014.2744140625,4307.4287109375,21940.8671875,-8145.96826171875,-6020.0693359375,5704.5615234375,12913.544921875,13786.9521484375,8519.490234375,10890.9609375,8139.6103515625,-0.0,4271.666015625,30899.046875,34570.6953125,10871.0927734375,21779.537109375,17462.572265625,-4498.95849609375,-5244.4140625,5748.27197265625,17545.22265625,10798.771484375,15845.298828125,12770.4931640625,2914.269775390625,433.1270751953125,12483.5966796875,0.0,4014.174072265625,9055.931640625,9320.5771484375,8396.3076171875,14389.35546875,10802.74609375,19019.4453125,-12238.8203125,5276.203125,10356.1083984375,3694.693359375,2853.07568359375,2330.144287109375,0.0,11970.2021484375
7643.69970703125,5203.08837890625,15261.1728515625,9506.54296875,19417.603515625,7299.58203125,11114.279296875,16148.8857421875,7635.75244140625,11056.263671875,10869.5029296875,9655.9521484375,-6032.78515625,0.0,11916.955078125,14879.703125,3868.73876953125,4634.0625,4871.6865234375,8196.0361328125,5217.3935546875,13763.904296875,10566.7109375,26224.455078125,-2428.690673828125,1476.605712890625,6864.86572265625,16819.634765625,-6992.02197265625,4344.78125,21979.80859375,-8107.8212890625,-5970.0009765625,5747.47705078125,12950.8974609375,13826.6875,8556.8427734375,10930.697265625,8177.75732421875,-0.0,4316.17138671875,30937.1953125,34606.45703125,10911.6240234375,21815.30078125,17499.923828125,-4458.42724609375,-5208.65087890625,5791.98193359375,17590.5234375,10827.3818359375,15886.625,12755.3935546875,2940.495849609375,449.8163757324219,12519.359375,0.0,4034.837158203125,9086.9267578125,9361.107421875,8420.1494140625,14426.7080078125,10839.302734375,19056.796875,-12211.7998046875,5313.55517578125,10385.513671875,3729.6611328125,2885.659423828125,2353.986083984375,0.0,12003.5810546875
7629.39453125,5229.314453125,15302.4990234375,9473.1650390625,19435.8828125,7309.11865234375,11129.37890625,16163.984375,7650.05712890625,11076.1328125,10876.6552734375,9665.4892578125,-6024.04248046875,0.0,11928.8759765625,14894.802734375,3875.0966796875,4645.18896484375,4884.40185546875,8215.109375,5224.5458984375,13770.2626953125,10581.810546875,26236.375,-2429.4853515625,1483.75830078125,6877.5810546875,16830.763671875,-6983.2802734375,4363.06005859375,21986.9609375,-8096.69482421875,-5968.412109375,5731.58251953125,12962.818359375,13834.6357421875,8570.353515625,10941.8232421875,8177.75732421875,-0.0,4336.833984375,30946.732421875,34623.94140625,10923.544921875,21831.990234375,17516.61328125,-4431.40673828125,-5242.02978515625,5815.029296875,17597.67578125,10840.0986328125,15900.134765625,12709.2998046875,2964.337646484375,479.2213439941406,12543.201171875,0.0,4049.142333984375,9095.6689453125,9383.361328125,8430.48046875,14437.8349609375,10854.4033203125,19080.638671875,-12207.8251953125,5328.6552734375,10395.0498046875,3761.450439453125,2902.348876953125,2398.490966796875,0.0,12040.138671875
7625.4208984375,5185.60400390625,15256.4052734375,9477.9326171875,19411.24609375,7286.07177734375,11107.921875,16142.5263671875,7626.21533203125,11056.263671875,10861.5556640625,9651.18359375,-6028.0166015625,0.0,11896.29296875,14872.55078125,3856.81787109375,4625.3203125,4862.9443359375,8194.4462890625,5199.9091796875,13748.8046875,10558.7646484375,26214.123046875,-2420.7431640625,1463.89013671875,6861.6865234375,16802.15234375,-6992.81689453125,4359.880859375,21966.298828125,-8108.61572265625,-5989.07470703125,5712.50927734375,12941.3603515625,13814.7666015625,8547.3056640625,10921.1611328125,8180.1416015625,-0.0,4317.76025390625,30929.24609375,34600.09765625,10900.4970703125,21808.146484375,17496.744140625,-4471.14306640625,-5241.2353515625,5784.03466796875,17574.62890625,10809.8984375,15877.8818359375,12750.6259765625,2963.54296875,481.60552978515625,12531.2802734375,0.0,4048.347412109375,9065.46875,9364.287109375,8412.9970703125,14417.171875,10832.9462890625,19063.154296875,-12217.3623046875,5315.939453125,10363.2607421875,3738.4033203125,2871.354248046875,2390.543701171875,0.0,12028.2177734375
7632.57373046875,5158.5830078125,15207.9267578125,9489.0595703125,19427.140625,7299.58203125,11120.63671875,16153.654296875,7642.1103515625,11060.23828125,10859.171875,9666.283203125,-6015.30078125,0.0,11909.802734375,14883.677734375,3872.71240234375,4637.2412109375,4876.45458984375,8202.3935546875,5217.3935546875,13760.7255859375,10572.2744140625,26225.248046875,-2400.080322265625,1476.605712890625,6871.2236328125,16818.046875,-6978.51171875,4365.4443359375,21982.193359375,-8091.13232421875,-5981.92236328125,5725.22509765625,12959.6396484375,13827.4833984375,8559.2265625,10933.08203125,8251.6669921875,-0.0,4351.13916015625,30937.1953125,34609.6328125,10915.5966796875,21820.86328125,17506.28125,-4509.2900390625,-5194.34619140625,5783.23974609375,17595.291015625,10821.8193359375,15889.802734375,12790.3623046875,2983.4111328125,487.16864013671875,12532.8701171875,0.0,4062.652587890625,9088.5166015625,9369.8505859375,8409.0234375,14429.88671875,10844.0712890625,19067.921875,-12208.62109375,5323.091796875,10378.3603515625,3751.913818359375,2894.401611328125,2379.41748046875,0.0,12017.8857421875
7671.51513671875,5187.98828125,15230.9736328125,9500.98046875,19452.572265625,7328.1923828125,11146.86328125,16176.7001953125,7670.720703125,11080.10546875,10896.5234375,9691.71484375,-5985.8955078125,0.0,11943.1806640625,14905.134765625,3906.8857421875,4665.8515625,4902.6806640625,8228.619140625,5247.5927734375,13790.9248046875,10599.2958984375,26253.859375,-2382.59619140625,1506.0106201171875,6903.80712890625,16848.24609375,-6948.3125,4382.13330078125,22011.59765625,-8052.9853515625,-5964.43798828125,5764.16650390625,12988.25,13855.2978515625,8586.2470703125,10958.5126953125,8261.2041015625,-0.0,4391.67041015625,30964.216796875,34636.65625,10943.4130859375,21847.8828125,17527.73828125,-4491.80615234375,-5168.9150390625,5815.029296875,17620.72265625,10854.4033203125,15911.2607421875,12793.541015625,3008.842529296875,515.7788696289062,12547.17578125,0.0,4065.036865234375,9121.89453125,9385.7451171875,8420.9443359375,14457.703125,10868.708984375,19088.5859375,-12179.2158203125,5345.3447265625,10410.9453125,3761.450439453125,2935.727294921875,2382.59619140625,0.0,12027.4228515625
7692.97265625,5208.65087890625,15367.6669921875,9467.6015625,19405.68359375,7303.55615234375,11119.0478515625,16150.474609375,7642.1103515625,11053.0849609375,10894.1396484375,9675.0263671875,-6006.55908203125,0.0,11916.955078125,14880.498046875,3883.838623046875,4635.65185546875,4876.45458984375,8200.009765625,5203.8828125,13763.904296875,10566.7109375,26227.6328125,-2412.00146484375,1486.1424560546875,6883.939453125,16825.994140625,-6968.18017578125,4363.06005859375,21981.3984375,-8072.85302734375,-5977.94873046875,5741.119140625,12947.71875,13827.4833984375,8558.4326171875,10932.2861328125,8274.71484375,-0.0,4274.05029296875,30942.7578125,34603.27734375,10916.392578125,21820.068359375,17500.71875,-4419.4853515625,-5199.1142578125,5761.7822265625,17596.880859375,10829.7666015625,15887.4189453125,12780.0302734375,2986.590087890625,478.4266052246094,12531.2802734375,0.0,4048.347412109375,9086.1318359375,9361.107421875,8401.076171875,14429.0927734375,10841.6875,19062.361328125,-12197.494140625,5320.7080078125,10383.12890625,3716.945556640625,2897.580322265625,2350.012451171875,0.0,12002.7861328125
7666.74658203125,5226.93017578125,15338.26171875,9454.88671875,19396.939453125,7294.8134765625,11114.279296875,16145.7060546875,7634.1630859375,11050.701171875,10887.7822265625,9669.462890625,-6012.12158203125,0.0,11907.41796875,14877.3193359375,3875.891357421875,4628.49951171875,4869.30224609375,8194.4462890625,5198.31982421875,13754.3681640625,10558.7646484375,26219.685546875,-2409.6171875,1475.81103515625,6883.14453125,16814.8671875,-6978.51171875,4354.318359375,21975.041015625,-8078.416015625,-5970.7958984375,5723.63525390625,12938.181640625,13820.3310546875,8552.07421875,10925.9287109375,8300.1455078125,-0.0,4271.666015625,30930.04296875,34596.921875,10907.650390625,21813.7109375,17495.951171875,-4426.63818359375,-5200.7041015625,5730.78759765625,17590.5234375,10822.61328125,15884.2412109375,12777.646484375,2992.153076171875,444.2532958984375,12527.306640625,0.0,4057.88427734375,9071.8271484375,9356.33984375,8401.87109375,14420.349609375,10836.1240234375,19061.564453125,-12208.62109375,5315.14501953125,10376.7705078125,3717.740234375,2883.275390625,2357.1650390625,0.0,12010.7333984375
7661.18359375,5257.92431640625,15358.9248046875,9429.455078125,19428.73046875,7310.70849609375,11135.7373046875,16171.9326171875,7652.44140625,11085.669921875,10891.7548828125,9688.537109375,-6003.3798828125,0.0,11924.9033203125,14904.33984375,3886.222900390625,4645.9833984375,4890.759765625,8221.466796875,5218.98291015625,13767.87890625,10580.2216796875,26237.96484375,-2403.25927734375,1484.552978515625,6895.0654296875,16833.94140625,-6968.18017578125,4357.49658203125,21990.140625,-8062.52197265625,-5961.25927734375,5726.01953125,12959.6396484375,13838.6083984375,8574.326171875,10948.9755859375,8290.6083984375,-0.0,4321.73388671875,30940.375,34618.37890625,10929.107421875,21833.578125,17522.970703125,-4432.99609375,-5156.99365234375,5759.39794921875,17607.212890625,10838.5087890625,15909.671875,12799.103515625,3019.173828125,485.57916259765625,12547.17578125,0.0,4094.44189453125,9082.158203125,9391.3076171875,8438.427734375,14440.21875,10859.171875,19099.712890625,-12188.751953125,5334.21826171875,10391.87109375,3764.62939453125,2895.990966796875,2415.18017578125,0.0,12072.72265625
7669.92578125,5293.6875,15362.8984375,9432.6337890625,19443.830078125,7332.166015625,11154.015625,16198.158203125,7669.92578125,11119.0478515625,10906.060546875,9703.6357421875,-5995.4326171875,0.0,11940.001953125,14927.3876953125,3894.170166015625,4661.0830078125,4913.80712890625,8250.0771484375,5230.10888671875,13785.3623046875,10597.7060546875,26257.833984375,-2380.212158203125,1501.2423095703125,6906.19140625,16860.166015625,-6960.2333984375,4376.5703125,22002.85546875,-8065.70068359375,-5966.822265625,5742.70849609375,12976.3291015625,13856.09375,8592.60546875,10971.228515625,8309.681640625,-0.0,4336.0390625,30965.009765625,34636.65625,10952.1552734375,21855.83203125,17551.580078125,-4414.71728515625,-5172.09375,5807.08154296875,17632.642578125,10854.4033203125,15933.513671875,12809.435546875,3039.042236328125,523.7261352539062,12572.6064453125,0.0,4107.9521484375,9095.6689453125,9428.66015625,8461.4755859375,14459.2919921875,10883.013671875,19130.70703125,-12172.8583984375,5349.31787109375,10406.1767578125,3792.44482421875,2903.938232421875,2466.042724609375,0.0,12139.4794921875
7714.43017578125,5327.8603515625,15343.8251953125,9511.3115234375,19443.03515625,7328.9873046875,11149.2470703125,16191.005859375,7660.38916015625,11101.5634765625,10909.240234375,9700.4580078125,-5989.86962890625,0.0,11931.259765625,14920.234375,3892.580810546875,4657.10986328125,4905.06494140625,8232.59375,5223.7509765625,13785.3623046875,10594.52734375,26253.859375,-2376.238525390625,1502.831787109375,6905.39697265625,16853.80859375,-6957.05419921875,4379.74951171875,21999.677734375,-8063.31640625,-5978.7431640625,5757.013671875,12972.3544921875,13853.708984375,8587.8369140625,10964.8701171875,8344.650390625,-0.0,4316.9658203125,30961.037109375,34634.2734375,10945.796875,21847.08984375,17540.455078125,-4412.3330078125,-5173.68310546875,5809.4658203125,17630.2578125,10844.8671875,15927.9501953125,12838.0458984375,3027.916015625,523.7261352539062,12577.3740234375,0.0,4103.18359375,9102.02734375,9416.7392578125,8472.6015625,14455.318359375,10875.861328125,19090.970703125,-12177.626953125,5346.93408203125,10398.228515625,3767.80810546875,2888.043701171875,2424.717041015625,0.0,12105.3056640625
7723.1728515625,5268.255859375,15307.267578125,9554.2265625,19417.603515625,7304.3505859375,11122.2265625,16162.3955078125,7647.67333984375,11068.98046875,10883.80859375,9672.6416015625,-6006.55908203125,0.0,11908.2138671875,14891.6240234375,3874.302001953125,4635.65185546875,4879.63330078125,8207.95703125,5203.08837890625,13767.0830078125,10570.685546875,26230.017578125,-2421.5380859375,1483.75830078125,6890.296875,16822.01953125,-6975.33251953125,4363.06005859375,21979.80859375,-8086.36376953125,-6006.55908203125,5745.0927734375,12950.1025390625,13832.251953125,8562.4052734375,10938.64453125,8312.06640625,-0.0,4309.81298828125,30942.7578125,34608.046875,10921.1611328125,21821.65625,17511.048828125,-4434.58544921875,-5180.041015625,5772.11376953125,17602.443359375,10822.61328125,15897.7509765625,12829.3037109375,2963.54296875,492.73175048828125,12556.7119140625,0.0,4075.368408203125,9090.900390625,9377.0029296875,8443.9912109375,14430.6826171875,10850.4296875,19056.001953125,-12202.2626953125,5328.6552734375,10375.1826171875,3737.608642578125,2890.427734375,2380.212158203125,0.0,12036.1640625
7706.4833984375,5228.51953125,15292.16796875,9555.0224609375,19411.24609375,7298.78759765625,11116.6640625,16146.501953125,7642.1103515625,11046.7275390625,10886.986328125,9659.130859375,-6028.0166015625,0.0,11915.3662109375,14873.345703125,3870.328125,4631.67822265625,4873.27587890625,8193.65234375,5201.49853515625,13767.0830078125,10565.9169921875,26223.66015625,-2422.332763671875,1476.605712890625,6874.40234375,16809.3046875,-6976.12744140625,4345.57568359375,21977.423828125,-8093.51611328125,-5998.611328125,5729.9931640625,12946.9228515625,13826.6875,8556.048828125,10929.90234375,8241.3359375,-0.0,4309.0185546875,30947.52734375,34604.07421875,10910.828125,21818.48046875,17496.744140625,-4448.095703125,-5208.65087890625,5774.498046875,17587.34375,10827.3818359375,15879.47265625,12800.693359375,2937.31689453125,499.08953857421875,12540.8173828125,0.0,4041.19482421875,9086.1318359375,9353.1611328125,8436.8388671875,14425.9140625,10840.892578125,19050.439453125,-12197.494140625,5318.32373046875,10383.923828125,3721.714111328125,2893.60693359375,2342.065185546875,0.0,11977.35546875
7688.2041015625,5207.0615234375,15252.4306640625,9486.6748046875,19407.271484375,7297.19775390625,11114.279296875,16137.7578125,7630.98388671875,11035.6015625,10888.576171875,9655.158203125,-6047.08984375,0.0,11915.3662109375,14866.98828125,3867.944091796875,4630.8837890625,4870.0966796875,8184.115234375,5201.49853515625,13763.904296875,10561.943359375,26218.890625,-2413.590576171875,1470.2479248046875,6878.3759765625,16806.921875,-6985.66455078125,4322.52880859375,21975.8359375,-8099.0791015625,-5996.22705078125,5736.35107421875,12945.333984375,13823.5087890625,8551.2802734375,10924.3388671875,8186.49951171875,-0.0,4309.81298828125,30940.375,34597.71484375,10906.85546875,21813.7109375,17488.001953125,-4462.40087890625,-5234.08251953125,5767.34521484375,17588.138671875,10828.9716796875,15872.3203125,12789.5673828125,2934.9326171875,496.7053527832031,12536.84375,0.0,4028.47900390625,9078.185546875,9343.6240234375,8431.275390625,14421.939453125,10832.9462890625,19042.4921875,-12203.8525390625,5309.58154296875,10383.923828125,3710.587646484375,2882.480712890625,2322.99169921875,0.0,11963.8447265625
7672.31005859375,5211.830078125,15250.046875,9438.9912109375,19394.556640625,7286.07177734375,11105.537109375,16125.8369140625,7622.2421875,11022.8857421875,10881.423828125,9648.7998046875,-6053.44775390625,0.0,11909.0078125,14856.65625,3856.81787109375,4619.75732421875,4862.14990234375,8174.57861328125,5189.57763671875,13751.9833984375,10553.201171875,26208.55859375,-2426.306396484375,1460.711181640625,6873.607421875,16795.79296875,-6995.99609375,4341.6025390625,21963.9140625,-8104.64208984375,-6007.353515625,5727.609375,12930.234375,13813.177734375,8543.33203125,10914.0078125,8216.6982421875,-0.0,4278.0244140625,30926.86328125,34588.97265625,10897.318359375,21804.173828125,17480.0546875,-4458.42724609375,-5226.93017578125,5763.3720703125,17583.37109375,10821.8193359375,15863.5771484375,12778.44140625,2907.1171875,480.810791015625,12528.1015625,0.0,4036.426513671875,9070.2373046875,9335.6767578125,8412.2021484375,14413.197265625,10822.61328125,19032.16015625,-12216.568359375,5303.22412109375,10374.38671875,3702.640625,2875.328125,2306.30224609375,0.0,11949.5390625
7731.91455078125,5230.90380859375,15291.373046875,9488.2646484375,19407.271484375,7290.84033203125,11118.2529296875,16144.1171875,7645.2890625,11047.5224609375,10891.7548828125,9671.0517578125,-6031.1953125,0.0,11921.7236328125,14874.935546875,3868.73876953125,4631.67822265625,4875.66015625,8200.009765625,5198.31982421875,13757.546875,10566.7109375,26222.86328125,-2420.7431640625,1466.2742919921875,6878.3759765625,16802.9453125,-6984.0751953125,4367.828125,21975.041015625,-8087.95263671875,-6000.99560546875,5733.171875,12941.3603515625,13823.5087890625,8555.2529296875,10929.90234375,8278.6875,-0.0,4285.1767578125,30922.890625,34600.09765625,10909.240234375,21821.65625,17498.333984375,-4421.86962890625,-5167.32568359375,5772.90869140625,17590.5234375,10832.9462890625,15877.8818359375,12802.283203125,2919.8330078125,486.3739013671875,12538.4326171875,0.0,4073.778564453125,9096.462890625,9356.33984375,8422.5341796875,14427.5029296875,10840.892578125,19066.333984375,-12203.8525390625,5323.88671875,10387.103515625,3739.992919921875,2899.169921875,2353.986083984375,0.0,11990.865234375
7731.91455078125,5246.7978515625,15302.4990234375,9442.9658203125,19410.451171875,7286.07177734375,11115.07421875,16140.9375,7641.3154296875,11048.3173828125,10886.1923828125,9671.84765625,-6018.47998046875,0.0,11915.3662109375,14870.9609375,3861.58642578125,4630.0888671875,4874.07080078125,8196.0361328125,5199.1142578125,13746.4208984375,10567.505859375,26218.095703125,-2416.769775390625,1464.684814453125,6876.78662109375,16801.357421875,-6976.92236328125,4361.470703125,21969.4765625,-8090.3369140625,-5998.611328125,5705.3564453125,12942.1552734375,13818.7412109375,8553.6640625,10928.3134765625,8243.7197265625,-0.0,4293.12353515625,30910.173828125,34599.3046875,10902.8818359375,21816.888671875,17495.951171875,-4429.0224609375,-5154.60986328125,5770.5244140625,17580.986328125,10825.79296875,15875.498046875,12810.23046875,2954.80078125,487.16864013671875,12532.8701171875,0.0,4068.2158203125,9086.1318359375,9349.1865234375,8433.6591796875,14425.9140625,10838.5087890625,19060.76953125,-12193.5205078125,5323.091796875,10382.3349609375,3738.4033203125,2890.427734375,2355.57568359375,0.0,11994.8388671875
7658.0048828125,5254.74560546875,15277.068359375,9412.765625,19417.603515625,7286.07177734375,11115.07421875,16139.3486328125,7634.9580078125,11041.958984375,10889.37109375,9673.4365234375,-5994.63818359375,0.0,11911.392578125,14868.5771484375,3859.2021484375,4627.70458984375,4871.6865234375,8189.67822265625,5207.0615234375,13742.447265625,10567.505859375,26214.123046875,-2420.7431640625,1466.2742919921875,6880.76025390625,16801.357421875,-6965.7958984375,4361.470703125,21967.888671875,-8098.28466796875,-5985.8955078125,5696.61474609375,12944.5390625,13816.3564453125,8553.6640625,10924.3388671875,8206.3671875,-0.0,4312.9921875,30904.611328125,34601.6875,10902.0869140625,21812.916015625,17489.591796875,-4458.42724609375,-5158.5830078125,5766.55078125,17585.75390625,10825.79296875,15873.9091796875,12800.693359375,3026.326416015625,491.14227294921875,12537.638671875,0.0,4063.447509765625,9078.9794921875,9344.4189453125,8428.8916015625,14423.529296875,10836.1240234375,19047.259765625,-12196.7001953125,5324.681640625,10379.1552734375,3718.53515625,2883.275390625,2346.038818359375,0.0,11987.6865234375
7661.97802734375,5246.7978515625,15292.16796875,9404.0234375,19404.888671875,7274.94580078125,11100.76953125,16126.6328125,7617.4736328125,11018.912109375,10884.6025390625,9657.5419921875,-5990.6640625,0.0,11897.8818359375,14856.65625,3854.433837890625,4616.57861328125,4858.970703125,8169.01513671875,5202.29345703125,13733.7041015625,10555.5849609375,26202.998046875,-2448.558837890625,1451.9691162109375,6863.27587890625,16795.79296875,-6968.97509765625,4340.01318359375,21959.939453125,-8109.41015625,-5978.7431640625,5689.46240234375,12934.2080078125,13804.435546875,8540.1533203125,10910.828125,8176.962890625,-0.0,4306.63427734375,30894.279296875,34591.359375,10892.55078125,21800.19921875,17472.109375,-4471.9375,-5186.39892578125,5755.42431640625,17576.216796875,10813.8720703125,15861.98828125,12762.546875,3032.684326171875,480.0160827636719,12524.9228515625,0.0,4056.294921875,9059.111328125,9322.166015625,8414.5859375,14410.8134765625,10819.435546875,19018.650390625,-12214.18359375,5311.9658203125,10364.0556640625,3679.59326171875,2864.201904296875,2298.35498046875,0.0,11950.333984375
7681.8466796875,5216.5986328125,15287.3994140625,9407.9970703125,19383.4296875,7264.6142578125,11088.84765625,16115.5068359375,7603.96337890625,11011.759765625,10859.9658203125,9647.2099609375,-6012.12158203125,0.0,11889.9345703125,14845.5302734375,3839.333740234375,4600.68359375,4844.66552734375,8158.68359375,5180.8359375,13723.373046875,10538.8955078125,26192.666015625,-2464.453369140625,1442.432373046875,6838.6396484375,16783.080078125,-6995.99609375,4347.9599609375,21944.841796875,-8118.947265625,-6006.55908203125,5683.10400390625,12915.134765625,13793.3095703125,8529.02734375,10897.318359375,8195.2412109375,-0.0,4273.255859375,30888.71484375,34573.87109375,10880.6298828125,21789.869140625,17461.77734375,-4469.5537109375,-5217.3935546875,5730.78759765625,17561.1171875,10805.1298828125,15852.451171875,12747.447265625,3001.68994140625,449.02166748046875,12522.5380859375,0.0,4036.426513671875,9047.9853515625,9315.013671875,8413.7919921875,14396.5078125,10808.30859375,19009.908203125,-12237.2314453125,5305.6083984375,10358.4931640625,3684.36181640625,2862.612548828125,2292.7919921875,0.0,11943.1806640625
7686.615234375,5242.02978515625,15242.099609375,9434.2236328125,19401.708984375,7281.30322265625,11105.537109375,16135.3740234375,7629.39453125,11037.9853515625,10863.9404296875,9656.7470703125,-6018.47998046875,0.0,11897.0869140625,14866.98828125,3856.023193359375,4619.75732421875,4864.53369140625,8183.31982421875,5199.9091796875,13741.65234375,10557.1748046875,26210.150390625,-2427.895751953125,1457.5322265625,6864.86572265625,16795.79296875,-6997.58544921875,4356.7021484375,21961.53125,-8109.41015625,-5997.81640625,5703.76708984375,12935.001953125,13809.998046875,8545.7158203125,10915.5966796875,8161.8623046875,-0.0,4319.349609375,30910.173828125,34591.359375,10896.5234375,21808.146484375,17486.4140625,-4452.8642578125,-5216.5986328125,5742.70849609375,17573.833984375,10810.6923828125,15873.9091796875,12758.572265625,2996.921630859375,466.50567626953125,12532.0751953125,0.0,4072.984130859375,9066.263671875,9342.830078125,8426.5068359375,14413.9931640625,10828.9716796875,19044.080078125,-12222.130859375,5315.14501953125,10364.0556640625,3705.8193359375,2876.122802734375,2342.065185546875,0.0,11989.2763671875
7669.130859375,5252.361328125,15257.19921875,9445.349609375,19413.62890625,7290.84033203125,11111.8955078125,16143.322265625,7632.57373046875,11037.9853515625,10875.861328125,9658.3369140625,-6023.248046875,0.0,11902.6494140625,14874.140625,3863.970458984375,4626.90966796875,4870.0966796875,8185.7041015625,5207.8564453125,13749.599609375,10564.3271484375,26217.302734375,-2411.20654296875,1467.8636474609375,6876.78662109375,16810.099609375,-6988.84326171875,4351.13916015625,21969.4765625,-8104.64208984375,-5974.76953125,5709.330078125,12941.3603515625,13817.1513671875,8550.484375,10922.75,8184.90966796875,-0.0,4312.9921875,30923.685546875,34600.89453125,10906.060546875,21812.916015625,17489.591796875,-4461.6064453125,-5215.8037109375,5772.11376953125,17584.958984375,10816.2568359375,15881.0615234375,12776.0576171875,2982.616455078125,487.16864013671875,12536.048828125,0.0,4090.468017578125,9067.05859375,9346.0078125,8418.5595703125,14420.349609375,10832.9462890625,19047.259765625,-12209.4150390625,5322.29736328125,10368.82421875,3681.182861328125,2872.94384765625,2326.170654296875,0.0,11987.6865234375
7692.17822265625,5237.26123046875,15293.7578125,9486.6748046875,19427.140625,7313.88720703125,11129.37890625,16166.3681640625,7650.85205078125,11056.263671875,10886.986328125,9677.41015625,-6000.20068359375,0.0,11923.3134765625,14897.1875,3883.838623046875,4644.39404296875,4887.5810546875,8202.3935546875,5220.57177734375,13771.056640625,10581.810546875,26236.375,-2407.23291015625,1490.910888671875,6895.8603515625,16836.32421875,-6963.41162109375,4374.98095703125,21987.755859375,-8078.416015625,-5973.974609375,5741.119140625,12957.2548828125,13837.814453125,8568.763671875,10941.8232421875,8273.9189453125,-0.0,4315.37646484375,30945.142578125,34615.9921875,10925.1337890625,21830.400390625,17507.076171875,-4440.943359375,-5186.39892578125,5784.82958984375,17608.0078125,10835.330078125,15902.51953125,12801.48828125,2972.284912109375,496.7053527832031,12557.5068359375,0.0,4099.21044921875,9087.7216796875,9372.234375,8432.865234375,14439.423828125,10851.2236328125,19065.5390625,-12191.931640625,5339.78125,10388.6923828125,3706.6142578125,2899.964599609375,2338.88623046875,0.0,12005.169921875
7708.86767578125,5230.90380859375,15315.21484375,9528.0009765625,19429.525390625,7311.5029296875,11134.1474609375,16163.984375,7655.62060546875,11061.828125,10877.4501953125,9672.6416015625,-5983.51123046875,0.0,11926.4921875,14894.0087890625,3882.2490234375,4645.9833984375,4892.34912109375,8209.5458984375,5221.36669921875,13775.03125,10584.1953125,26236.375,-2406.438232421875,1486.9371337890625,6900.62841796875,16826.787109375,-6951.49072265625,4360.67578125,21988.55078125,-8075.2373046875,-5983.51123046875,5755.42431640625,12960.43359375,13839.404296875,8572.7373046875,10942.6181640625,8283.4560546875,-0.0,4324.1181640625,30947.52734375,34622.3515625,10922.75,21836.7578125,17512.640625,-4434.58544921875,-5190.37255859375,5779.2666015625,17601.6484375,10840.892578125,15898.5458984375,12764.13671875,2958.774658203125,478.4266052246094,12543.99609375,0.0,4073.778564453125,9086.1318359375,9374.6181640625,8430.48046875,14444.1923828125,10854.4033203125,19068.71875,-12187.1630859375,5334.21826171875,10392.666015625,3736.813720703125,2915.859130859375,2365.906982421875,0.0,12009.9384765625
7648.4677734375,5234.876953125,15243.689453125,9490.6494140625,19424.7578125,7290.84033203125,11124.611328125,16141.7333984375,7647.67333984375,11053.0849609375,10875.861328125,9651.18359375,-5987.4853515625,0.0,11920.9287109375,14870.1669921875,3866.354736328125,4634.857421875,4878.8388671875,8203.1884765625,5217.3935546875,13754.3681640625,10573.8642578125,26218.095703125,-2421.5380859375,1467.8636474609375,6891.091796875,16801.357421875,-6961.822265625,4337.62890625,21974.244140625,-8087.158203125,-5980.3330078125,5722.8408203125,12951.69140625,13821.125,8563.9951171875,10928.3134765625,8281.8671875,-0.0,4320.14453125,30924.478515625,34614.40234375,10905.265625,21828.015625,17498.333984375,-4479.09033203125,-5243.61962890625,5782.4453125,17579.396484375,10834.5341796875,15875.498046875,12746.6513671875,2958.774658203125,475.2477111816406,12517.76953125,0.0,4029.27392578125,9087.7216796875,9347.59765625,8412.9970703125,14429.88671875,10844.0712890625,19064.744140625,-12206.2373046875,5315.939453125,10387.103515625,3735.224365234375,2904.73291015625,2377.033203125,0.0,12015.501953125
7596.01611328125,5207.0615234375,15277.068359375,9448.5283203125,19416.013671875,7286.86669921875,11113.484375,16133.78515625,7641.3154296875,11053.8798828125,10877.4501953125,9644.03125,-6000.20068359375,0.0,11916.955078125,14863.0146484375,3863.970458984375,4627.70458984375,4871.6865234375,8199.21484375,5211.03515625,13751.189453125,10563.533203125,26212.533203125,-2413.590576171875,1467.0689697265625,6873.607421875,16794.205078125,-6970.564453125,4333.65478515625,21968.68359375,-8099.0791015625,-5975.564453125,5713.30419921875,12942.9501953125,13815.5625,8552.869140625,10921.1611328125,8212.7255859375,-0.0,4310.60791015625,30929.24609375,34600.09765625,10896.5234375,21819.2734375,17493.56640625,-4482.26953125,-5288.1240234375,5766.55078125,17575.421875,10830.5615234375,15868.345703125,12753.8046875,2958.774658203125,480.0160827636719,12515.3857421875,0.0,4008.611083984375,9076.595703125,9346.0078125,8399.486328125,14421.1455078125,10836.9189453125,19065.5390625,-12218.158203125,5311.1708984375,10382.3349609375,3739.992919921875,2880.096435546875,2386.570068359375,0.0,12029.806640625
7603.96337890625,5141.099609375,15303.2939453125,9500.185546875,19412.8359375,7290.04541015625,11110.3056640625,16133.78515625,7634.9580078125,11053.0849609375,10874.271484375,9644.826171875,-6021.658203125,0.0,11899.4716796875,14864.603515625,3871.123046875,4625.3203125,4867.71240234375,8194.4462890625,5205.47265625,13761.5205078125,10558.7646484375,26214.123046875,-2408.027587890625,1469.4532470703125,6870.4287109375,16799.767578125,-6984.86962890625,4335.24462890625,21971.068359375,-8111.79443359375,-5994.63818359375,5747.47705078125,12939.7705078125,13819.53515625,8548.1005859375,10920.365234375,8266.7666015625,-0.0,4303.45556640625,30944.34765625,34596.125,10899.703125,21813.7109375,17491.181640625,-4447.30126953125,-5257.1298828125,5755.42431640625,17578.6015625,10811.48828125,15871.5244140625,12735.5263671875,2908.70654296875,471.2740478515625,12520.94921875,0.0,4032.453125,9065.46875,9349.1865234375,8397.896484375,14417.9658203125,10834.5341796875,19067.12890625,-12220.5419921875,5307.19775390625,10364.849609375,3729.6611328125,2857.843994140625,2388.159423828125,0.0,12036.1640625
7681.0517578125,5136.3310546875,15282.630859375,9459.6552734375,19412.8359375,7290.84033203125,11108.7158203125,16128.2216796875,7627.01025390625,11034.01171875,10875.861328125,9651.18359375,-6028.0166015625,0.0,11892.318359375,14859.0400390625,3875.0966796875,4628.49951171875,4866.91796875,8178.5517578125,5211.830078125,13759.9306640625,10559.55859375,26214.123046875,-2408.822265625,1471.83740234375,6873.607421875,16801.357421875,-6984.0751953125,4343.986328125,21975.041015625,-8099.87353515625,-5986.6904296875,5726.814453125,12942.9501953125,13821.125,8545.7158203125,10916.392578125,8166.630859375,-0.0,4321.73388671875,30941.962890625,34596.921875,10901.2919921875,21807.3515625,17480.849609375,-4464.78515625,-5245.208984375,5776.88232421875,17583.37109375,10806.7197265625,15865.16796875,12781.6201171875,2901.55419921875,480.0160827636719,12528.1015625,0.0,4032.453125,9063.0849609375,9330.11328125,8399.486328125,14418.76171875,10826.587890625,19035.33984375,-12204.6474609375,5311.9658203125,10360.876953125,3699.461669921875,2865.791259765625,2330.93896484375,0.0,11981.328125
7718.404296875,5187.193359375,15345.4140625,9455.6806640625,19424.7578125,7297.19775390625,11119.0478515625,16131.4013671875,7638.93115234375,11038.7802734375,10904.4716796875,9659.130859375,-6025.63232421875,0.0,11913.7763671875,14860.6298828125,3884.63330078125,4635.65185546875,4876.45458984375,8188.08837890625,5218.98291015625,13763.1103515625,10570.685546875,26222.0703125,-2392.927978515625,1485.3477783203125,6880.76025390625,16803.7421875,-6977.716796875,4362.26513671875,21982.98828125,-8063.31640625,-5977.15380859375,5721.2509765625,12953.28125,13827.4833984375,8557.6376953125,10923.544921875,8284.2509765625,-0.0,4323.32373046875,30934.810546875,34611.2265625,10906.060546875,21817.68359375,17486.4140625,-4422.66455078125,-5217.3935546875,5802.3134765625,17596.880859375,10827.3818359375,15867.5517578125,12806.255859375,2941.29052734375,515.7788696289062,12540.0224609375,0.0,4030.86328125,9079.7734375,9330.9091796875,8427.302734375,14427.5029296875,10836.1240234375,19038.51953125,-12186.3681640625,5328.6552734375,10379.9501953125,3713.766845703125,2884.86474609375,2322.99169921875,0.0,11982.123046875
7705.6884765625,5215.8037109375,15343.8251953125,9476.34375,19408.861328125,7283.6875,11103.1533203125,16120.275390625,7624.6259765625,11025.26953125,10900.4970703125,9650.3896484375,-6023.248046875,0.0,11898.6767578125,14847.9150390625,3869.533447265625,4618.962890625,4861.35498046875,8176.16748046875,5198.31982421875,13751.189453125,10554.7900390625,26208.55859375,-2405.6435546875,1470.2479248046875,6865.66015625,16791.8203125,-6977.716796875,4332.0654296875,21967.888671875,-8081.59521484375,-6000.20068359375,5723.63525390625,12936.591796875,13813.177734375,8540.9482421875,10910.828125,8373.2607421875,-0.0,4291.5341796875,30917.326171875,34593.7421875,10891.7548828125,21800.994140625,17476.08203125,-4398.82275390625,-5199.9091796875,5779.2666015625,17584.958984375,10810.6923828125,15857.2197265625,12792.74609375,2934.9326171875,497.5001220703125,12517.76953125,0.0,4020.5322265625,9062.2900390625,9324.55078125,8427.302734375,14412.4033203125,10822.61328125,19035.33984375,-12193.5205078125,5309.58154296875,10361.671875,3693.103759765625,2865.791259765625,2307.891845703125,0.0,11972.5869140625
7702.50927734375,5170.50390625,15301.7041015625,9486.6748046875,19388.19921875,7270.9716796875,11086.4638671875,16107.5595703125,7607.14208984375,11014.9384765625,10881.423828125,9647.2099609375,-6037.55322265625,0.0,11874.8349609375,14838.3779296875,3852.84423828125,4605.4521484375,4846.2548828125,8161.06787109375,5184.0146484375,13738.47265625,10539.69140625,26192.666015625,-2422.332763671875,1451.9691162109375,6860.8916015625,16779.103515625,-6992.81689453125,4316.17138671875,21951.994140625,-8114.1787109375,-6009.7373046875,5719.66162109375,12919.90234375,13799.6669921875,8525.8486328125,10898.11328125,8274.71484375,-0.0,4267.6923828125,30909.380859375,34577.0546875,10878.2451171875,21784.3046875,17462.572265625,-4437.7646484375,-5184.0146484375,5757.013671875,17570.654296875,10786.8505859375,15844.5029296875,12787.978515625,2921.42236328125,459.3531188964844,12513.796875,0.0,4026.094970703125,9044.806640625,9314.2197265625,8429.6865234375,14396.5078125,10807.5146484375,19019.4453125,-12213.3896484375,5297.66064453125,10339.4189453125,3685.951171875,2845.923095703125,2303.918212890625,0.0,11954.3076171875
7726.35107421875,5209.44580078125,15281.041015625,9485.880859375,19403.298828125,7280.50830078125,11103.1533203125,16129.8125,7628.599609375,11045.9326171875,10902.8818359375,9674.2314453125,-6035.1689453125,0.0,11892.318359375,14863.0146484375,3867.1494140625,4622.1416015625,4866.123046875,8186.49951171875,5199.9091796875,13748.8046875,10557.1748046875,26210.150390625,-2405.6435546875,1457.5322265625,6860.8916015625,16798.97265625,-6991.2275390625,4341.6025390625,21967.091796875,-8087.95263671875,-6005.76416015625,5722.0458984375,12935.7978515625,13814.7666015625,8544.1279296875,10917.9814453125,8280.27734375,-0.0,4285.97119140625,30909.380859375,34591.359375,10894.9345703125,21804.96875,17486.4140625,-4430.6123046875,-5143.4833984375,5774.498046875,17577.013671875,10802.74609375,15866.7568359375,12811.8203125,2978.642822265625,479.2213439941406,12545.5859375,0.0,4026.889892578125,9065.46875,9339.650390625,8457.5009765625,14414.787109375,10830.5615234375,19054.412109375,-12199.083984375,5323.091796875,10358.4931640625,3722.5087890625,2868.175537109375,2353.986083984375,0.0,11998.017578125
7723.1728515625,5284.150390625,15261.1728515625,9446.9384765625,19406.4765625,7281.30322265625,11111.8955078125,16136.169921875,7634.1630859375,11053.0849609375,10906.060546875,9675.8203125,-6024.83740234375,0.0,11904.2392578125,14867.7822265625,3864.76513671875,4624.525390625,4871.6865234375,8197.625,5203.8828125,13748.009765625,10561.943359375,26214.91796875,-2403.25927734375,1459.91650390625,6871.2236328125,16802.15234375,-6987.25390625,4350.34423828125,21968.68359375,-8080.80029296875,-6005.76416015625,5704.5615234375,12939.7705078125,13814.7666015625,8549.6904296875,10922.75,8239.74609375,-0.0,4293.12353515625,30908.583984375,34597.71484375,10899.703125,21812.12109375,17495.15625,-4450.47998046875,-5168.1201171875,5772.90869140625,17575.421875,10816.2568359375,15871.5244140625,12814.2041015625,2997.71630859375,487.16864013671875,12543.99609375,0.0,4010.200439453125,9065.46875,9349.1865234375,8443.9912109375,14418.76171875,10837.7138671875,19071.8984375,-12197.494140625,5327.06591796875,10372.0029296875,3728.072021484375,2878.5068359375,2357.959716796875,0.0,12020.2705078125
7722.3779296875,5283.35546875,15296.935546875,9382.5654296875,19388.19921875,7259.845703125,11094.4111328125,16115.5068359375,7610.3212890625,11029.2431640625,10880.6298828125,9654.3623046875,-6028.0166015625,0.0,11891.5244140625,14844.7353515625,3845.691650390625,4606.2470703125,4852.61279296875,8172.98876953125,5183.2197265625,13726.5517578125,10543.6640625,26195.84375,-2423.92236328125,1441.6376953125,6857.71337890625,16773.54296875,-6997.58544921875,4338.42333984375,21948.814453125,-8107.8212890625,-6019.2744140625,5679.92529296875,12920.697265625,13795.693359375,8533.0009765625,10903.67578125,8211.1357421875,-0.0,4274.05029296875,30886.33203125,34582.61328125,10875.861328125,21794.63671875,17475.287109375,-4456.04345703125,-5202.29345703125,5751.451171875,17550.787109375,10803.5400390625,15849.271484375,12779.236328125,2986.590087890625,460.1478576660156,12514.5908203125,0.0,4019.7373046875,9040.0380859375,9326.9345703125,8415.3818359375,14402.8662109375,10815.4609375,19026.59765625,-12219.7470703125,5307.99267578125,10357.697265625,3719.329833984375,2852.28076171875,2338.88623046875,0.0,11994.0439453125
7729.5302734375,5273.02392578125,15322.3671875,9415.9443359375,19397.736328125,7267.79296875,11099.974609375,16125.8369140625,7623.03662109375,11038.7802734375,10886.1923828125,9657.5419921875,-6030.40087890625,0.0,11897.0869140625,14855.861328125,3856.023193359375,4616.57861328125,4861.35498046875,8181.7314453125,5196.72998046875,13736.0888671875,10552.40625,26204.5859375,-2421.5380859375,1444.0218505859375,6856.91845703125,16784.66796875,-6985.66455078125,4337.62890625,21959.939453125,-8110.20556640625,-5993.84326171875,5695.02490234375,12930.234375,13805.23046875,8538.5634765625,10912.41796875,8186.49951171875,-0.0,4285.97119140625,30894.279296875,34585.79296875,10884.6025390625,21800.19921875,17484.029296875,-4420.2802734375,-5190.37255859375,5752.24560546875,17557.939453125,10809.103515625,15861.98828125,12767.314453125,2993.74267578125,468.09515380859375,12509.0283203125,0.0,4054.705078125,9055.1376953125,9339.650390625,8417.765625,14412.4033203125,10823.4091796875,19029.775390625,-12211.0048828125,5311.1708984375,10364.0556640625,3736.813720703125,2856.254638671875,2364.317626953125,0.0,11997.22265625
7735.88818359375,5302.42919921875,15314.419921875,9463.6279296875,19423.9609375,7304.3505859375,11134.1474609375,16161.6005859375,7658.0048828125,11066.595703125,10919.5712890625,9694.8935546875,-6000.99560546875,0.0,11928.8759765625,14890.830078125,3890.9912109375,4649.95703125,4895.5283203125,8214.314453125,5234.08251953125,13771.8515625,10585.78515625,26240.349609375,-2389.748779296875,1481.3741455078125,6906.19140625,16825.994140625,-6947.517578125,4375.77587890625,21994.91015625,-8076.03173828125,-5953.31201171875,5730.78759765625,12963.6123046875,13840.1982421875,8571.9423828125,10945.796875,8235.7724609375,-0.0,4320.14453125,30932.42578125,34617.5859375,10921.955078125,21833.578125,17515.0234375,-4413.1279296875,-5161.76220703125,5770.5244140625,17596.0859375,10841.6875,15896.955078125,12780.0302734375,3031.8896484375,511.80523681640625,12548.7646484375,0.0,4096.03125,9092.490234375,9368.2607421875,8448.759765625,14444.1923828125,10856.7880859375,19066.333984375,-12175.2421875,5349.31787109375,10395.8447265625,3739.992919921875,2901.55419921875,2361.933349609375,0.0,12003.5810546875
7667.54150390625,5269.05078125,15256.4052734375,9484.291015625,19408.861328125,7293.22412109375,11118.2529296875,16152.8583984375,7643.69970703125,11056.263671875,10896.5234375,9669.462890625,-6000.20068359375,0.0,11915.3662109375,14879.703125,3876.68603515625,4635.65185546875,4880.42822265625,8200.009765625,5219.77734375,13762.314453125,10569.8896484375,26224.455078125,-2408.027587890625,1474.2215576171875,6883.939453125,16815.662109375,-6961.822265625,4359.08642578125,21982.193359375,-8095.900390625,-5978.7431640625,5726.01953125,12950.1025390625,13827.4833984375,8558.4326171875,10931.4921875,8257.2294921875,-0.0,4317.76025390625,30926.068359375,34604.07421875,10911.6240234375,21820.068359375,17502.30859375,-4438.55908203125,-5200.7041015625,5769.7294921875,17584.958984375,10828.177734375,15885.830078125,12772.8779296875,2985.795166015625,499.08953857421875,12540.0224609375,0.0,4077.752685546875,9086.1318359375,9357.9296875,8432.865234375,14430.6826171875,10843.27734375,19054.412109375,-12195.1103515625,5328.6552734375,10383.12890625,3709.79296875,2886.454345703125,2345.244140625,0.0,11997.22265625
7630.98388671875,5219.77734375,15265.1474609375,9498.595703125,19379.45703125,7268.58740234375,11087.2587890625,16123.453125,7618.2685546875,11025.26953125,10868.708984375,9637.673828125,-6021.658203125,0.0,11888.3447265625,14854.271484375,3848.87060546875,4603.86279296875,4850.22900390625,8171.39892578125,5181.63037109375,13735.2939453125,10539.69140625,26196.638671875,-2438.227294921875,1452.763916015625,6841.02392578125,16786.255859375,-6992.81689453125,4317.76025390625,21950.40234375,-8122.9208984375,-6016.095703125,5699.79345703125,12915.9287109375,13798.873046875,8525.0537109375,10902.8818359375,8195.2412109375,-0.0,4274.84521484375,30907.7890625,34575.4609375,10883.013671875,21790.662109375,17473.697265625,-4461.6064453125,-5233.28759765625,5745.8876953125,17561.912109375,10801.15625,15859.603515625,12785.59375,2938.906494140625,464.1214904785156,12513.796875,0.0,4047.552490234375,9058.31640625,9333.29296875,8407.43359375,14400.482421875,10814.6669921875,19025.802734375,-12222.130859375,5299.25,10355.3134765625,3685.951171875,2863.4072265625,2317.4287109375,0.0,11964.638671875
7655.62060546875,5219.77734375,15288.193359375,9435.017578125,19379.45703125,7270.17724609375,11092.0263671875,16130.60546875,7626.21533203125,11034.01171875,10870.2978515625,9644.826171875,-6031.1953125,0.0,11893.908203125,14860.6298828125,3845.691650390625,4604.65771484375,4852.61279296875,8179.34716796875,5179.24658203125,13731.3203125,10541.2802734375,26200.61328125,-2439.816650390625,1453.55859375,6848.970703125,16789.435546875,-6994.40625,4338.42333984375,21948.01953125,-8108.61572265625,-6012.91650390625,5696.61474609375,12917.5185546875,13798.0771484375,8530.6171875,10906.85546875,8245.30859375,-0.0,4275.64013671875,30900.63671875,34577.0546875,10885.3974609375,21797.021484375,17481.646484375,-4455.24853515625,-5195.935546875,5749.06689453125,17566.681640625,10806.7197265625,15865.16796875,12791.951171875,2941.29052734375,464.9162292480469,12514.5908203125,0.0,4053.91064453125,9062.2900390625,9342.0341796875,8405.8447265625,14401.2763671875,10819.435546875,19036.134765625,-12224.5146484375,5308.787109375,10360.08203125,3699.461669921875,2872.94384765625,2330.144287109375,0.0,11976.5595703125
7673.10498046875,5200.7041015625,15256.4052734375,9408.7919921875,19385.814453125,7275.740234375,11103.947265625,16141.7333984375,7635.75244140625,11049.90625,10882.21875,9651.978515625,-6028.81103515625,0.0,11905.8291015625,14872.55078125,3848.075927734375,4609.42578125,4862.14990234375,8193.65234375,5187.193359375,13734.5,10549.2275390625,26207.765625,-2441.40625,1454.353271484375,6872.0185546875,16797.384765625,-6981.69091796875,4343.986328125,21954.37890625,-8107.02587890625,-6013.71142578125,5697.4091796875,12926.2607421875,13804.435546875,8541.7431640625,10917.9814453125,8255.640625,-0.0,4286.76611328125,30900.63671875,34588.17578125,10894.1396484375,21808.146484375,17494.359375,-4462.40087890625,-5182.4248046875,5750.65625,17571.44921875,10818.640625,15877.8818359375,12797.5146484375,2929.36962890625,471.2740478515625,12519.359375,0.0,4069.01025390625,9067.05859375,9360.3134765625,8400.28125,14408.4287109375,10830.5615234375,19051.232421875,-12214.978515625,5312.7607421875,10371.2080078125,3729.6611328125,2878.5068359375,2361.933349609375,0.0,11996.4287109375
7625.4208984375,5160.96728515625,15211.8994140625,9396.87109375,19369.919921875,7253.48828125,11083.28515625,16118.6845703125,7615.08935546875,11029.2431640625,10848.83984375,9625.7529296875,-6042.32177734375,0.0,11882.7822265625,14850.298828125,3824.23388671875,4587.17333984375,4842.28125,8173.783203125,5172.09375,13714.630859375,10527.7705078125,26185.51171875,-2453.3271484375,1433.6904296875,6856.91845703125,16775.130859375,-7005.53271484375,4301.8662109375,21933.71484375,-8140.40478515625,-6021.658203125,5673.5673828125,12907.9814453125,13782.18359375,8521.080078125,10895.7294921875,8136.431640625,-0.0,4297.09765625,30884.7421875,34569.1015625,10873.4765625,21785.1015625,17471.3125,-4513.263671875,-5224.5458984375,5727.609375,17549.1953125,10795.59375,15854.8359375,12738.705078125,2884.86474609375,447.43218994140625,12497.107421875,0.0,4038.810791015625,9043.216796875,9337.265625,8379.6181640625,14386.9716796875,10809.8984375,19034.544921875,-12238.025390625,5280.9716796875,10350.544921875,3706.6142578125,2852.28076171875,2340.475830078125,0.0,11979.7392578125
7655.62060546875,5192.7568359375,15274.68359375,9407.203125,19360.384765625,7251.10400390625,11077.7216796875,16116.30078125,7615.88427734375,11027.6533203125,10851.2236328125,9624.1640625,-6027.2216796875,0.0,11872.451171875,14847.119140625,3818.6708984375,4582.4052734375,4839.89697265625,8173.783203125,5160.96728515625,13709.8623046875,10523.001953125,26183.12890625,-2465.248046875,1430.511474609375,6840.22900390625,16775.130859375,-7002.353515625,4307.4287109375,21926.560546875,-8141.2001953125,-6035.1689453125,5668.00439453125,12896.85546875,13779.7998046875,8517.9013671875,10893.3447265625,8190.47265625,-0.0,4244.6455078125,30879.974609375,34562.74609375,10872.681640625,21785.1015625,17470.517578125,-4487.83251953125,-5236.466796875,5723.63525390625,17550.787109375,10786.8505859375,15852.451171875,12727.578125,2919.0380859375,448.2269287109375,12499.4912109375,0.0,4027.6845703125,9040.83203125,9334.0869140625,8381.20703125,14382.998046875,10808.30859375,19036.927734375,-12240.41015625,5283.35546875,10340.2138671875,3689.130126953125,2858.638671875,2323.786376953125,0.0,11976.5595703125
7691.38330078125,5214.21435546875,15308.857421875,9444.5546875,19383.4296875,7275.740234375,11103.1533203125,16141.7333984375,7642.90478515625,11052.291015625,10867.9130859375,9643.2373046875,-6002.5849609375,0.0,11895.4970703125,14871.7568359375,3842.512939453125,4606.2470703125,4865.328125,8200.8046875,5179.24658203125,13733.7041015625,10547.6376953125,26207.765625,-2470.0166015625,1447.9954833984375,6860.8916015625,16799.767578125,-6976.12744140625,4337.62890625,21948.01953125,-8119.7421875,-6024.04248046875,5701.38330078125,12919.90234375,13803.6416015625,8543.33203125,10917.9814453125,8264.3828125,-0.0,4266.10302734375,30902.2265625,34586.58984375,10894.9345703125,21813.7109375,17498.333984375,-4436.9697265625,-5237.26123046875,5745.0927734375,17573.833984375,10809.8984375,15878.677734375,12761.751953125,2967.5166015625,459.3531188964844,12521.744140625,0.0,4048.347412109375,9069.4423828125,9366.671875,8397.1025390625,14406.83984375,10833.740234375,19059.9765625,-12221.3359375,5307.19775390625,10361.671875,3730.4560546875,2891.22265625,2351.601806640625,0.0,12004.375
7677.078125,5199.1142578125,15304.8828125,9429.455078125,19388.994140625,7286.07177734375,11108.7158203125,16144.1171875,7644.49462890625,11052.291015625,10878.2451171875,9652.7734375,-6023.248046875,0.0,11912.982421875,14874.935546875,3848.075927734375,4613.3994140625,4870.0966796875,8198.4208984375,5191.16748046875,13743.2412109375,10553.99609375,26213.328125,-2446.174560546875,1460.711181640625,6877.5810546875,16802.9453125,-6978.51171875,4349.5498046875,21956.76171875,-8113.38427734375,-6012.12158203125,5698.9990234375,12931.029296875,13813.177734375,8548.8955078125,10923.544921875,8273.9189453125,-0.0,4291.5341796875,30920.505859375,34592.9453125,10901.2919921875,21815.30078125,17500.71875,-4435.38037109375,-5276.203125,5738.7353515625,17586.548828125,10825.79296875,15878.677734375,12774.4677734375,3000.895263671875,473.6582336425781,12535.2548828125,0.0,4045.16845703125,9084.5419921875,9365.08203125,8408.228515625,14413.197265625,10836.9189453125,19051.232421875,-12214.18359375,5320.7080078125,10379.9501953125,3739.197998046875,2891.22265625,2361.933349609375,0.0,12001.197265625
7664.3623046875,5196.72998046875,15277.068359375,9417.5341796875,19376.27734375,7269.38232421875,11092.822265625,16121.0693359375,7619.85791015625,11030.8330078125,10880.6298828125,9648.005859375,-6044.7060546875,0.0,11896.29296875,14848.708984375,3837.744384765625,4600.68359375,4854.2021484375,8175.373046875,5177.65673828125,13728.1416015625,10541.2802734375,26199.021484375,-2417.564453125,1447.9954833984375,6867.25,16785.462890625,-6988.04833984375,4334.44970703125,21944.841796875,-8120.53662109375,-6030.40087890625,5683.89892578125,12916.724609375,13798.873046875,8530.6171875,10905.265625,8288.224609375,-0.0,4271.666015625,30901.431640625,34579.4375,10885.3974609375,21793.046875,17478.466796875,-4456.837890625,-5235.671875,5736.35107421875,17571.44921875,10807.5146484375,15855.630859375,12766.5205078125,2978.642822265625,466.50567626953125,12523.333984375,0.0,4023.710693359375,9055.931640625,9331.703125,8398.6923828125,14396.5078125,10817.05078125,19023.41796875,-12214.18359375,5313.55517578125,10362.4658203125,3721.714111328125,2859.433349609375,2343.654541015625,0.0,11977.35546875
7672.31005859375,5198.31982421875,15256.4052734375,9419.91796875,19381.841796875,7269.38232421875,11094.4111328125,16122.66015625,7623.8310546875,11036.396484375,10870.2978515625,9651.978515625,-6020.86376953125,0.0,11900.265625,14851.8876953125,3838.5390625,4603.06787109375,4854.2021484375,8179.34716796875,5181.63037109375,13726.5517578125,10542.869140625,26198.228515625,-2412.00146484375,1444.0218505859375,6859.302734375,16788.640625,-6981.69091796875,4333.65478515625,21944.841796875,-8122.9208984375,-6022.453125,5683.89892578125,12919.1083984375,13794.8994140625,8531.4111328125,10906.85546875,8229.4150390625,-0.0,4270.07666015625,30892.69140625,34581.0234375,10886.986328125,21797.021484375,17480.0546875,-4479.88525390625,-5195.935546875,5747.47705078125,17572.244140625,10811.48828125,15857.2197265625,12764.13671875,2959.5693359375,445.0480041503906,12527.306640625,0.0,4027.6845703125,9058.31640625,9336.4716796875,8394.7177734375,14397.3037109375,10819.435546875,19033.75,-12204.6474609375,5311.9658203125,10366.439453125,3728.072021484375,2864.99658203125,2353.19140625,0.0,11990.0703125
7638.93115234375,5182.4248046875,15207.1318359375,9410.380859375,19393.76171875,7270.9716796875,11099.1796875,16130.60546875,7629.39453125,11049.90625,10853.6083984375,9651.978515625,-6000.99560546875,0.0,11904.2392578125,14861.4248046875,3840.92333984375,4608.63134765625,4858.17578125,8188.08837890625,5199.1142578125,13724.16796875,10550.0224609375,26202.201171875,-2427.10107421875,1443.2271728515625,6863.27587890625,16793.41015625,-6974.5380859375,4331.2705078125,21950.40234375,-8127.689453125,-5991.458984375,5680.7197265625,12930.234375,13797.283203125,8536.974609375,10912.41796875,8143.58447265625,-0.0,4299.48193359375,30888.71484375,34590.5625,10889.37109375,21801.791015625,17488.001953125,-4518.8271484375,-5209.44580078125,5760.19287109375,17572.244140625,10816.2568359375,15866.7568359375,12746.6513671875,2952.416748046875,472.06878662109375,12526.51171875,0.0,4041.19482421875,9055.931640625,9353.955078125,8376.439453125,14403.6611328125,10825.79296875,19050.439453125,-12215.7734375,5310.37646484375,10372.0029296875,3737.608642578125,2869.76513671875,2380.212158203125,0.0,12020.2705078125
7584.09521484375,5171.298828125,15184.0849609375,9373.82421875,19369.919921875,7237.59326171875,11070.5693359375,16101.9951171875,7598.39990234375,11020.5009765625,10832.9462890625,9613.8310546875,-6030.40087890625,0.0,11881.1923828125,14832.814453125,3810.7236328125,4576.04736328125,4828.77099609375,8158.68359375,5172.09375,13693.173828125,10520.6171875,26170.412109375,-2468.427001953125,1409.8485107421875,6834.666015625,16760.03125,-7002.353515625,4288.35546875,21920.205078125,-8156.2998046875,-6023.248046875,5648.93115234375,12903.2138671875,13765.494140625,8509.1591796875,10881.423828125,8107.8212890625,-0.0,4303.45556640625,30858.517578125,34565.1328125,10855.9921875,21772.384765625,17458.59765625,-4539.48974609375,-5255.54052734375,5733.966796875,17536.482421875,10794.00390625,15837.3505859375,12679.099609375,2919.8330078125,460.9425964355469,12484.3916015625,0.0,4008.611083984375,9025.7333984375,9325.3447265625,8341.4716796875,14372.666015625,10794.00390625,19024.212890625,-12251.5361328125,5274.61376953125,10349.7509765625,3704.22998046875,2826.849609375,2357.959716796875,0.0,12005.96484375
7604.7578125,5160.1728515625,15207.1318359375,9436.607421875,19329.388671875,7212.95703125,11042.75390625,16074.1806640625,7573.76318359375,10994.275390625,10813.8720703125,9580.453125,-6070.93212890625,0.0,11862.119140625,14804.2041015625,3782.11328125,4547.43701171875,4801.75,8133.251953125,5132.35693359375,13674.8955078125,10491.2119140625,26143.392578125,-2509.7529296875,1382.032958984375,6810.82373046875,16732.216796875,-7036.52734375,4258.95068359375,21893.18359375,-8189.67822265625,-6072.52099609375,5657.6728515625,12869.0400390625,13741.65234375,8482.138671875,10855.1982421875,8094.310546875,-0.0,4247.02978515625,30841.03125,34530.1640625,10828.9716796875,21748.54296875,17430.783203125,-4545.05322265625,-5282.56103515625,5684.69384765625,17504.69140625,10772.5458984375,15811.125,12676.7158203125,2881.68603515625,417.2325134277344,12451.8076171875,0.0,3970.464111328125,9003.4794921875,9296.734375,8328.755859375,14345.6455078125,10767.77734375,18999.576171875,-12281.7353515625,5242.82470703125,10326.703125,3665.288330078125,2791.881591796875,2319.812744140625,0.0,11978.943359375
7643.69970703125,5168.9150390625,15257.9951171875,9452.501953125,19330.18359375,7232.82470703125,11060.23828125,16098.0224609375,7600.7841796875,11024.474609375,10836.1240234375,9595.5537109375,-6078.87890625,0.0,11866.88671875,14829.6357421875,3795.623779296875,4561.7421875,4820.02880859375,8162.65771484375,5138.71533203125,13689.2001953125,10503.927734375,26163.259765625,-2479.55322265625,1401.9012451171875,6834.666015625,16752.87890625,-7034.9375,4288.35546875,21905.103515625,-8165.0419921875,-6062.189453125,5660.85205078125,12877.7822265625,13758.341796875,8498.0322265625,10874.271484375,8198.4208984375,-0.0,4212.8564453125,30861.6953125,34542.87890625,10849.634765625,21767.6171875,17457.0078125,-4492.60107421875,-5288.1240234375,5695.81982421875,17526.150390625,10779.6982421875,15835.76171875,12717.2470703125,2892.81201171875,436.3059997558594,12474.8544921875,0.0,4007.81640625,9020.1689453125,9326.140625,8356.5712890625,14363.1298828125,10790.0302734375,19041.697265625,-12266.6357421875,5263.4873046875,10333.0615234375,3700.25634765625,2812.544677734375,2369.880615234375,0.0,12028.2177734375
7674.69384765625,5253.15625,15329.5205078125,9457.2705078125,19419.98828125,7319.4501953125,11140.505859375,16188.62109375,7681.8466796875,11104.7431640625,10920.365234375,9684.5625,-6017.68505859375,0.0,11907.41796875,14917.8505859375,3881.45458984375,4649.162109375,4907.44921875,8243.7197265625,5221.36669921875,13771.8515625,10590.5537109375,26250.681640625,-2389.748779296875,1490.1160888671875,6906.19140625,16845.861328125,-6964.20654296875,4386.10693359375,21990.140625,-8066.4951171875,-5984.30615234375,5715.68798828125,12962.818359375,13844.966796875,8579.0947265625,10960.896484375,8325.5771484375,-0.0,4309.81298828125,30946.732421875,34626.32421875,10939.4384765625,21847.8828125,17542.04296875,-4395.6435546875,-5220.57177734375,5782.4453125,17612.775390625,10822.61328125,15923.9765625,12784.798828125,2976.258544921875,510.21575927734375,12571.8115234375,0.0,4111.13134765625,9098.84765625,9411.17578125,8447.96484375,14449.755859375,10874.271484375,19125.9375,-12183.189453125,5358.060546875,10373.5927734375,3774.960693359375,2896.78564453125,2437.4326171875,0.0,12093.384765625
7716.02001953125,5304.8134765625,15343.8251953125,9512.1064453125,19481.9765625,7375.8759765625,11185.009765625,16223.5888671875,7710.45703125,11114.279296875,10954.5390625,9744.9619140625,-5965.23291015625,0.0,11947.94921875,14952.8193359375,3936.290771484375,4703.99853515625,4950.36474609375,8261.998046875,5280.9716796875,13829.072265625,10641.416015625,26298.365234375,-2339.680908203125,1550.5155029296875,6947.517578125,16898.314453125,-6910.16552734375,4441.73828125,22046.56640625,-8028.34814453125,-5929.47021484375,5785.6240234375,13019.244140625,13899.0087890625,8622.8056640625,11003.017578125,8364.5185546875,-0.0,4393.259765625,31009.515625,34676.390625,10987.91796875,21886.029296875,17566.681640625,-4349.5498046875,-5168.9150390625,5851.5869140625,17666.021484375,10862.3505859375,15958.9443359375,12801.48828125,3012.021240234375,549.9522094726562,12627.4423828125,0.0,4127.8203125,9138.583984375,9423.0966796875,8492.4697265625,14497.439453125,10907.650390625,19116.40234375,-12135.505859375,5419.25439453125,10413.3291015625,3767.80810546875,2938.906494140625,2380.212158203125,0.0,12046.49609375
7712.8408203125,5224.5458984375,15342.2353515625,9493.033203125,19432.703125,7333.75537109375,11132.5576171875,16170.34375,7660.38916015625,11058.6484375,10909.240234375,9690.9208984375,-5991.458984375,0.0,11914.5712890625,14901.9560546875,3890.196533203125,4653.9306640625,4899.501953125,8207.162109375,5231.69873046875,13785.3623046875,10588.9638671875,26249.08984375,-2385.775390625,1507.6002197265625,6886.3232421875,16854.60546875,-6943.5439453125,4388.4912109375,21998.8828125,-8086.36376953125,-5969.20654296875,5745.0927734375,12969.970703125,13851.3251953125,8570.353515625,10952.1552734375,8269.9462890625,-0.0,4340.8076171875,30972.162109375,34623.94140625,10941.0283203125,21832.78515625,17511.84375,-4428.22802734375,-5225.34033203125,5799.134765625,17630.2578125,10827.3818359375,15907.287109375,12770.4931640625,2942.8798828125,491.9369812011719,12578.169921875,0.0,4065.83154296875,9090.900390625,9362.697265625,8426.5068359375,14447.37109375,10855.1982421875,19059.9765625,-12180.8056640625,5362.82861328125,10380.7451171875,3688.33544921875,2895.1962890625,2318.22314453125,0.0,11982.91796875
7696.94677734375,5156.19921875,15316.009765625,9476.34375,19372.3046875,7286.07177734375,11088.0537109375,16127.427734375,7619.85791015625,11018.912109375,10869.5029296875,9636.87890625,-6008.94287109375,0.0,11882.7822265625,14859.0400390625,3840.92333984375,4603.06787109375,4854.2021484375,8167.42626953125,5179.24658203125,13737.6787109375,10541.2802734375,26202.998046875,-2433.458984375,1460.711181640625,6840.22900390625,16806.125,-6981.69091796875,4342.39697265625,21947.224609375,-8128.48388671875,-6019.2744140625,5705.3564453125,12915.9287109375,13803.6416015625,8525.0537109375,10906.060546875,8196.0361328125,-0.0,4251.79833984375,30918.916015625,34574.66796875,10894.9345703125,21790.662109375,17468.9296875,-4461.6064453125,-5275.408203125,5745.0927734375,17584.166015625,10795.59375,15865.16796875,12764.9306640625,2894.401611328125,453.7900390625,12524.1279296875,0.0,4025.300537109375,9051.1640625,9322.9609375,8381.20703125,14399.6875,10813.0771484375,19026.59765625,-12216.568359375,5310.37646484375,10348.9560546875,3661.314697265625,2855.4599609375,2295.17626953125,0.0,11956.69140625
7708.07275390625,5148.251953125,15297.73046875,9418.328125,19363.5625,7260.640625,11077.7216796875,16113.123046875,7608.73193359375,11008.580078125,10855.9921875,9632.9052734375,-6020.0693359375,0.0,11871.6552734375,14843.146484375,3827.412841796875,4588.7626953125,4842.28125,8159.47802734375,5164.94140625,13716.220703125,10529.3583984375,26186.30859375,-2447.76416015625,1439.25341796875,6832.28173828125,16779.900390625,-7002.353515625,4334.44970703125,21932.125,-8128.48388671875,-6034.3740234375,5675.1572265625,12903.2138671875,13786.15625,8514.7216796875,10890.9609375,8203.9833984375,-0.0,4246.23486328125,30885.5390625,34565.92578125,10874.271484375,21778.7421875,17460.1875,-4435.38037109375,-5225.34033203125,5740.32470703125,17557.14453125,10782.0830078125,15848.478515625,12770.4931640625,2892.81201171875,460.9425964355469,12508.2333984375,0.0,4016.55810546875,9040.83203125,9323.755859375,8380.4130859375,14386.1767578125,10801.951171875,19025.802734375,-12233.2568359375,5302.42919921875,10336.240234375,3684.36181640625,2841.949462890625,2295.970947265625,0.0,11963.8447265625
7671.51513671875,5146.662109375,15288.193359375,9419.91796875,19368.330078125,7252.693359375,11080.10546875,16102.791015625,7611.11572265625,11010.169921875,10871.88671875,9632.1103515625,-6028.0166015625,0.0,11878.013671875,14830.4296875,3828.207763671875,4589.5576171875,4843.87060546875,8162.65771484375,5167.32568359375,13714.630859375,10530.9482421875,26179.94921875,-2449.353515625,1432.8956298828125,6836.25537109375,16765.59375,-6997.58544921875,4322.52880859375,21933.71484375,-8138.0205078125,-6023.248046875,5679.92529296875,12905.59765625,13783.7724609375,8517.1064453125,10889.37109375,8184.90966796875,-0.0,4247.82421875,30879.974609375,34569.1015625,10867.9130859375,21783.509765625,17458.59765625,-4446.50634765625,-5200.7041015625,5749.861328125,17542.04296875,10790.0302734375,15835.76171875,12773.6728515625,2897.580322265625,464.1214904785156,12497.107421875,0.0,3986.358642578125,9038.4482421875,9325.3447265625,8374.8505859375,14385.3828125,10802.74609375,19029.775390625,-12236.435546875,5293.6875,10344.1875,3715.356201171875,2847.512451171875,2322.99169921875,0.0,11967.0224609375
7646.87890625,5168.1201171875,15269.916015625,9455.6806640625,19377.07421875,7265.4091796875,11095.2060546875,16105.1748046875,7624.6259765625,11020.5009765625,10893.3447265625,9645.62109375,-6045.50048828125,0.0,11902.6494140625,14832.814453125,3837.744384765625,4602.2734375,4856.58642578125,8172.98876953125,5182.4248046875,13728.9365234375,10543.6640625,26189.486328125,-2427.10107421875,1450.3797607421875,6869.63427734375,16772.74609375,-6985.66455078125,4332.8603515625,21945.634765625,-8131.6630859375,-6011.3271484375,5696.61474609375,12919.1083984375,13797.283203125,8533.0009765625,10900.4970703125,8209.5458984375,-0.0,4265.30859375,30895.869140625,34581.8203125,10876.6552734375,21801.791015625,17467.33984375,-4447.30126953125,-5191.9619140625,5757.80859375,17562.70703125,10813.0771484375,15839.7353515625,12781.6201171875,2930.164306640625,479.2213439941406,12512.20703125,0.0,3968.080078125,9047.9853515625,9315.80859375,8397.896484375,14396.5078125,10813.0771484375,19030.5703125,-12220.5419921875,5310.37646484375,10368.029296875,3724.09814453125,2857.843994140625,2335.70751953125,0.0,11974.970703125
7690.58837890625,5201.49853515625,15280.2470703125,9413.5595703125,19391.37890625,7280.50830078125,11107.921875,16121.0693359375,7637.341796875,11027.6533203125,10901.2919921875,9665.4892578125,-6036.75830078125,0.0,11903.4453125,14851.09375,3848.87060546875,4613.3994140625,4869.30224609375,8180.93603515625,5189.57763671875,13738.47265625,10557.96875,26202.201171875,-2415.18017578125,1469.4532470703125,6891.88623046875,16786.255859375,-6972.94873046875,4341.6025390625,21957.556640625,-8101.46337890625,-6018.47998046875,5693.435546875,12930.234375,13808.41015625,8546.51171875,10915.5966796875,8242.9248046875,-0.0,4278.81884765625,30910.96875,34594.53515625,10890.166015625,21812.12109375,17479.26171875,-4427.43310546875,-5209.44580078125,5772.11376953125,17573.0390625,10817.05078125,15855.630859375,12763.3408203125,2961.15869140625,493.5264587402344,12530.486328125,0.0,4011.789794921875,9059.90625,9336.4716796875,8430.48046875,14410.0185546875,10824.998046875,19038.51953125,-12210.2099609375,5327.06591796875,10369.6181640625,3724.892822265625,2867.380859375,2321.40234375,0.0,11972.5869140625
7730.3251953125,5211.03515625,15271.5048828125,9436.607421875,19416.80859375,7301.96630859375,11124.611328125,16156.0380859375,7657.2099609375,11061.0322265625,10911.6240234375,9682.97265625,-6009.7373046875,0.0,11910.59765625,14887.650390625,3871.917724609375,4633.26806640625,4889.96484375,8207.162109375,5212.625,13757.546875,10576.248046875,26225.248046875,-2399.28564453125,1483.75830078125,6885.5283203125,16822.01953125,-6963.41162109375,4355.9072265625,21979.80859375,-8086.36376953125,-5990.6640625,5720.45654296875,12951.69140625,13829.8671875,8563.201171875,10937.849609375,8246.1044921875,-0.0,4310.60791015625,30927.658203125,34611.2265625,10917.9814453125,21829.60546875,17505.48828125,-4425.048828125,-5175.2724609375,5788.80322265625,17598.470703125,10824.203125,15892.982421875,12772.8779296875,2966.7216796875,502.26849365234375,12547.17578125,0.0,4090.468017578125,9087.7216796875,9372.234375,8427.302734375,14431.4765625,10847.2509765625,19068.71875,-12197.494140625,5339.78125,10375.9765625,3744.76123046875,2879.3017578125,2364.317626953125,0.0,12017.8857421875
7723.96728515625,5230.90380859375,15261.9677734375,9461.2431640625,19429.525390625,7321.03955078125,11137.326171875,16183.853515625,7676.283203125,11094.4111328125,10918.7763671875,9706.814453125,-5981.92236328125,0.0,11919.3388671875,14915.466796875,3890.196533203125,4651.54638671875,4908.24365234375,8234.18359375,5230.10888671875,13775.8251953125,10590.5537109375,26241.9375,-2376.238525390625,1499.65283203125,6891.091796875,16845.068359375,-6953.08056640625,4389.2861328125,21997.29296875,-8057.75341796875,-5976.35888671875,5741.9140625,12968.380859375,13846.556640625,8575.1220703125,10957.7177734375,8260.4091796875,-0.0,4340.8076171875,30942.7578125,34621.5546875,10938.64453125,21842.322265625,17530.123046875,-4438.55908203125,-5122.8203125,5788.80322265625,17622.3125,10832.150390625,15919.208984375,12818.97265625,2992.94775390625,517.3682861328125,12567.04296875,0.0,4139.7412109375,9097.2587890625,9401.638671875,8435.2490234375,14446.576171875,10866.32421875,19106.865234375,-12181.599609375,5359.6494140625,10383.923828125,3786.0869140625,2889.63330078125,2428.690673828125,0.0,12079.080078125
7718.404296875,5269.845703125,15332.69921875,9471.576171875,19413.62890625,7317.06640625,11130.96875,16168.7529296875,7668.33642578125,11075.337890625,10921.955078125,9708.404296875,-5977.94873046875,0.0,11914.5712890625,14897.982421875,3890.196533203125,4648.3671875,4901.8857421875,8220.6728515625,5219.77734375,13773.44140625,10584.1953125,26235.580078125,-2384.98046875,1494.884521484375,6882.349609375,16835.53125,-6946.72265625,4374.18603515625,21992.525390625,-8048.216796875,-5981.92236328125,5740.32470703125,12959.6396484375,13842.5830078125,8569.55859375,10950.5654296875,8314.4501953125,-0.0,4309.81298828125,30937.990234375,34612.81640625,10933.08203125,21837.552734375,17517.408203125,-4412.3330078125,-5137.92041015625,5765.75634765625,17617.544921875,10827.3818359375,15904.1083984375,12831.6875,2995.33203125,518.957763671875,12557.5068359375,0.0,4097.62060546875,9096.462890625,9375.4130859375,8448.759765625,14441.8076171875,10858.376953125,19085.408203125,-12169.6787109375,5358.060546875,10379.1552734375,3760.65576171875,2886.454345703125,2385.775390625,0.0,12037.75390625
7708.07275390625,5261.10302734375,15293.7578125,9466.8076171875,19417.603515625,7309.91357421875,11126.2001953125,16152.8583984375,7658.7998046875,11059.443359375,10910.828125,9698.0732421875,-5997.81640625,0.0,11908.2138671875,14882.8818359375,3885.42822265625,4642.8046875,4896.32275390625,8209.5458984375,5221.36669921875,13767.87890625,10581.810546875,26230.8125,-2404.848876953125,1489.3214111328125,6882.349609375,16823.609375,-6955.46484375,4361.470703125,21990.140625,-8070.46875,-5973.18017578125,5727.609375,12958.0498046875,13836.224609375,8564.7900390625,10942.6181640625,8268.3564453125,-0.0,4309.81298828125,30934.015625,34616.78515625,10923.544921875,21831.990234375,17505.48828125,-4415.51220703125,-5171.298828125,5790.392578125,17608.0078125,10821.0244140625,15889.009765625,12825.330078125,3003.279541015625,506.2420959472656,12553.5322265625,0.0,4060.268310546875,9085.337890625,9357.134765625,8439.2236328125,14437.8349609375,10850.4296875,19067.921875,-12177.626953125,5354.88134765625,10372.7978515625,3749.529541015625,2886.454345703125,2361.933349609375,0.0,12005.169921875
7712.8408203125,5218.18798828125,15256.4052734375,9463.6279296875,19408.861328125,7297.19775390625,11120.63671875,16146.501953125,7653.236328125,11061.0322265625,10898.9072265625,9682.97265625,-6022.453125,0.0,11905.0341796875,14876.525390625,3867.1494140625,4630.0888671875,4887.5810546875,8210.341796875,5208.65087890625,13753.5732421875,10571.4794921875,26221.275390625,-2413.590576171875,1475.0162353515625,6875.19677734375,16811.689453125,-6972.154296875,4363.06005859375,21974.244140625,-8093.51611328125,-5999.40625,5718.072265625,12947.71875,13825.0986328125,8560.021484375,10935.4658203125,8289.01953125,-0.0,4301.0712890625,30921.30078125,34608.046875,10912.41796875,21827.220703125,17501.51171875,-4436.1748046875,-5195.140625,5788.80322265625,17592.90625,10818.640625,15881.0615234375,12796.7197265625,3008.0478515625,498.2948303222656,12557.5068359375,0.0,4059.4736328125,9074.2109375,9358.7236328125,8425.712890625,14428.2978515625,10848.044921875,19075.07421875,-12196.7001953125,5341.37109375,10370.4140625,3770.9873046875,2884.86474609375,2397.6962890625,0.0,12032.19140625
7723.1728515625,5231.69873046875,15287.3994140625,9464.4228515625,19416.80859375,7309.11865234375,11131.763671875,16153.654296875,7663.56787109375,11066.595703125,10910.0341796875,9682.97265625,-6016.095703125,0.0,11918.544921875,14883.677734375,3872.71240234375,4638.83056640625,4897.91259765625,8217.494140625,5218.18798828125,13765.494140625,10581.0166015625,26230.017578125,-2396.106689453125,1486.9371337890625,6903.80712890625,16817.251953125,-6958.6435546875,4364.6494140625,21982.98828125,-8087.95263671875,-5992.25390625,5722.0458984375,12956.4599609375,13837.01953125,8570.353515625,10942.6181640625,8273.125,-0.0,4317.76025390625,30940.375,34615.9921875,10918.7763671875,21837.552734375,17511.048828125,-4421.0751953125,-5236.466796875,5795.16064453125,17602.443359375,10831.3564453125,15889.802734375,12786.388671875,3008.842529296875,508.62628173828125,12566.2490234375,0.0,4089.673583984375,9087.7216796875,9367.4658203125,8436.0439453125,14435.4501953125,10855.9921875,19076.666015625,-12187.9580078125,5347.728515625,10383.923828125,3776.55029296875,2880.89111328125,2392.927978515625,0.0,12029.01171875
7712.04638671875,5264.2822265625,15288.9892578125,9473.9599609375,19416.013671875,7308.32421875,11126.9951171875,16151.26953125,7659.59423828125,11061.828125,10906.060546875,9683.7685546875,-6004.1748046875,0.0,11909.802734375,14881.29296875,3875.0966796875,4638.83056640625,4893.9384765625,8211.9306640625,5219.77734375,13767.0830078125,10577.837890625,26227.6328125,-2395.31201171875,1486.9371337890625,6896.65478515625,16816.45703125,-6957.05419921875,4363.85498046875,21982.98828125,-8086.36376953125,-5981.12744140625,5725.22509765625,12957.2548828125,13836.224609375,8564.7900390625,10939.4384765625,8254.845703125,-0.0,4321.73388671875,30938.783203125,34614.40234375,10917.9814453125,21831.990234375,17507.076171875,-4427.43310546875,-5211.03515625,5788.00830078125,17601.6484375,10821.0244140625,15888.2138671875,12784.00390625,3008.842529296875,506.2420959472656,12563.0693359375,0.0,4091.2626953125,9090.900390625,9361.9033203125,8432.865234375,14433.06640625,10852.01953125,19071.8984375,-12188.751953125,5350.11279296875,10375.1826171875,3763.039794921875,2873.738525390625,2371.47021484375,0.0,12019.474609375
7703.30419921875,5253.95068359375,15289.783203125,9440.5810546875,19379.45703125,7280.50830078125,11097.5908203125,16128.2216796875,7635.75244140625,11042.75390625,10882.21875,9664.6943359375,-6026.4267578125,0.0,11887.55078125,14859.0400390625,3845.691650390625,4610.22021484375,4866.123046875,8188.8837890625,5187.193359375,13735.2939453125,10548.4326171875,26199.818359375,-2427.895751953125,1459.91650390625,6854.5341796875,16795.79296875,-6987.25390625,4336.833984375,21952.787109375,-8113.38427734375,-6013.71142578125,5695.02490234375,12926.2607421875,13805.23046875,8536.1796875,10913.212890625,8205.5732421875,-0.0,4282.79248046875,30901.431640625,34582.61328125,10892.55078125,21802.583984375,17484.822265625,-4475.91162109375,-5173.68310546875,5740.32470703125,17576.216796875,10800.361328125,15865.9609375,12759.3681640625,2979.4375,472.06878662109375,12536.84375,0.0,4050.731689453125,9061.49609375,9343.6240234375,8414.5859375,14403.6611328125,10824.998046875,19052.029296875,-12218.158203125,5326.27099609375,10353.724609375,3742.376953125,2857.843994140625,2353.19140625,0.0,12005.169921875
7707.27783203125,5224.5458984375,15287.3994140625,9462.0390625,19381.046875,7279.7138671875,11096.0009765625,16127.427734375,7631.77880859375,11039.57421875,10887.7822265625,9662.310546875,-6025.63232421875,0.0,11894.703125,14858.24609375,3844.89697265625,4608.63134765625,4865.328125,8186.49951171875,5185.60400390625,13735.2939453125,10548.4326171875,26197.43359375,-2431.86962890625,1463.0953369140625,6860.09716796875,16797.384765625,-6990.4326171875,4338.42333984375,21950.40234375,-8114.97412109375,-6022.453125,5702.177734375,12925.4658203125,13804.435546875,8536.974609375,10912.41796875,8236.5673828125,-0.0,4289.9453125,30903.021484375,34584.20703125,10894.1396484375,21802.583984375,17482.439453125,-4454.4541015625,-5177.65673828125,5751.451171875,17576.216796875,10805.9248046875,15863.5771484375,12740.294921875,2974.669189453125,476.04241943359375,12532.8701171875,0.0,4037.221435546875,9058.31640625,9340.4453125,8409.8173828125,14403.6611328125,10823.4091796875,19043.287109375,-12215.7734375,5329.4501953125,10360.876953125,3724.892822265625,2857.04931640625,2338.88623046875,0.0,11998.017578125
7696.94677734375,5210.24072265625,15315.21484375,9472.3701171875,19401.708984375,7296.4033203125,11115.07421875,16144.1171875,7642.90478515625,11050.701171875,10904.4716796875,9670.2578125,-6005.76416015625,0.0,11906.6240234375,14875.7294921875,3863.175537109375,4624.525390625,4881.22314453125,8197.625,5201.49853515625,13754.3681640625,10566.7109375,26215.7109375,-2411.20654296875,1480.579345703125,6882.349609375,16814.07421875,-6971.359375,4363.85498046875,21967.091796875,-8095.10498046875,-5995.4326171875,5717.27734375,12942.1552734375,13821.919921875,8552.869140625,10927.517578125,8246.1044921875,-0.0,4290.73974609375,30925.2734375,34606.45703125,10909.240234375,21818.48046875,17495.15625,-4407.564453125,-5211.830078125,5780.85546875,17594.49609375,10818.640625,15879.47265625,12748.2412109375,2974.669189453125,498.2948303222656,12549.5595703125,0.0,4065.036865234375,9065.46875,9357.134765625,8411.4072265625,14421.939453125,10837.7138671875,19048.849609375,-12196.7001953125,5342.16552734375,10372.7978515625,3725.687744140625,2868.175537109375,2342.065185546875,0.0,12007.5537109375
7704.09912109375,5190.37255859375,15286.6044921875,9479.5224609375,19392.966796875,7291.63525390625,11106.33203125,16137.7578125,7640.5205078125,11049.90625,10884.6025390625,9652.7734375,-6009.7373046875,0.0,11899.4716796875,14866.98828125,3852.84423828125,4616.57861328125,4874.865234375,8195.2412109375,5196.72998046875,13746.4208984375,10558.7646484375,26206.970703125,-2419.948486328125,1467.8636474609375,6875.19677734375,16812.482421875,-6972.154296875,4357.49658203125,21959.146484375,-8111.0,-5989.86962890625,5706.1513671875,12933.4130859375,13813.97265625,8544.921875,10920.365234375,8147.55712890625,-0.0,4286.76611328125,30918.916015625,34596.125,10903.67578125,21811.326171875,17490.38671875,-4443.32763671875,-5251.56640625,5768.14013671875,17592.111328125,10810.6923828125,15873.9091796875,12760.95703125,2948.443115234375,487.9633483886719,12529.6904296875,0.0,4045.16845703125,9067.05859375,9352.3662109375,8393.1279296875,14411.6083984375,10830.5615234375,19051.232421875,-12210.2099609375,5327.06591796875,10364.0556640625,3725.687744140625,2857.843994140625,2359.54931640625,0.0,12013.912109375
7662.77294921875,5168.1201171875,15242.099609375,9472.3701171875,19369.125,7271.7666015625,11080.9013671875,16112.3271484375,7617.4736328125,11025.26953125,10857.58203125,9634.4951171875,-6024.04248046875,0.0,11874.0400390625,14841.556640625,3836.94970703125,4595.91552734375,4851.81787109375,8173.783203125,5178.45166015625,13732.91015625,10534.126953125,26186.30859375,-2442.200927734375,1444.0218505859375,6850.560546875,16787.052734375,-6993.61181640625,4343.19140625,21943.25,-8141.99462890625,-6014.505859375,5714.0986328125,12911.9560546875,13794.8994140625,8518.6962890625,10897.318359375,8104.64208984375,-0.0,4282.79248046875,30904.611328125,34567.515625,10880.6298828125,21786.689453125,17466.544921875,-4499.75341796875,-5265.0771484375,5730.78759765625,17573.833984375,10786.056640625,15849.271484375,12756.9833984375,2907.1171875,440.2796325683594,12515.3857421875,0.0,4018.9423828125,9040.0380859375,9324.55078125,8370.8759765625,14388.5615234375,10806.7197265625,19032.16015625,-12236.435546875,5301.63427734375,10337.03515625,3705.8193359375,2839.565185546875,2337.296630859375,0.0,11986.8916015625
7601.5791015625,5202.29345703125,15197.5947265625,9409.5869140625,19364.357421875,7261.43505859375,11073.7490234375,16103.5859375,7606.34765625,11011.759765625,10846.4560546875,9640.8525390625,-6040.73193359375,0.0,11858.1455078125,14835.1982421875,3829.00244140625,4591.14697265625,4845.46044921875,8163.4521484375,5178.45166015625,13718.60546875,10528.564453125,26176.771484375,-2458.89013671875,1437.6640625,6841.02392578125,16772.74609375,-7006.3271484375,4336.0390625,21936.09765625,-8145.1728515625,-6015.30078125,5683.10400390625,12907.9814453125,13784.5673828125,8511.54296875,10889.37109375,8104.64208984375,-0.0,4279.61328125,30889.51171875,34561.94921875,10871.0927734375,21778.7421875,17456.212890625,-4508.4951171875,-5244.4140625,5729.9931640625,17558.732421875,10770.95703125,15842.119140625,12730.7578125,2909.501220703125,422.7956237792969,12512.20703125,0.0,4023.710693359375,9028.9111328125,9318.1923828125,8375.64453125,14383.79296875,10797.1826171875,19022.623046875,-12244.3837890625,5299.25,10321.9345703125,3687.540771484375,2830.028564453125,2317.4287109375,0.0,11970.2021484375
7607.14208984375,5258.71875,15331.904296875,9408.7919921875,19408.068359375,7297.99267578125,11119.0478515625,16156.0380859375,7655.62060546875,11063.416015625,10894.1396484375,9693.3046875,-6005.76416015625,0.0,11898.6767578125,14886.8564453125,3872.71240234375,4632.47314453125,4892.34912109375,8214.314453125,5213.41943359375,13753.5732421875,10572.2744140625,26221.275390625,-2416.769775390625,1477.400390625,6879.1708984375,16817.251953125,-6967.3857421875,4365.4443359375,21975.8359375,-8091.13232421875,-5977.15380859375,5698.2041015625,12950.1025390625,13825.0986328125,8557.6376953125,10937.0546875,8281.8671875,-0.0,4309.81298828125,30916.533203125,34608.83984375,10914.802734375,21827.220703125,17508.666015625,-4429.8173828125,-5166.53076171875,5772.90869140625,17592.111328125,10812.2822265625,15892.982421875,12760.162109375,2967.5166015625,469.6846008300781,12547.9697265625,0.0,4086.494384765625,9078.185546875,9373.0283203125,8420.9443359375,14429.0927734375,10846.4560546875,19078.25390625,-12207.03125,5348.5234375,10364.0556640625,3742.376953125,2873.738525390625,2373.0595703125,0.0,12021.859375
7650.85205078125,5258.71875,15343.8251953125,9434.2236328125,19400.119140625,7295.6083984375,11111.8955078125,16152.0634765625,7650.85205078125,11064.2119140625,10888.576171875,9687.7412109375,-6008.1484375,0.0,11897.0869140625,14881.29296875,3863.970458984375,4623.73095703125,4885.19677734375,8211.9306640625,5197.52490234375,13748.009765625,10565.9169921875,26215.7109375,-2416.769775390625,1476.605712890625,6873.607421875,16818.046875,-6971.359375,4363.85498046875,21966.298828125,-8096.69482421875,-6000.99560546875,5702.97265625,12939.7705078125,13820.3310546875,8549.6904296875,10930.697265625,8311.271484375,-0.0,4285.1767578125,30914.1484375,34602.48046875,10912.41796875,21819.2734375,17503.896484375,-4415.51220703125,-5156.19921875,5754.62939453125,17592.111328125,10810.6923828125,15888.2138671875,12776.0576171875,2972.284912109375,487.9633483886719,12550.353515625,0.0,4073.778564453125,9070.2373046875,9365.08203125,8420.9443359375,14421.939453125,10842.482421875,19079.05078125,-12209.4150390625,5345.3447265625,10364.0556640625,3737.608642578125,2872.149169921875,2377.827880859375,0.0,12032.9853515625
7720.78857421875,5249.18212890625,15329.5205078125,9461.2431640625,19398.53125,7302.76123046875,11119.0478515625,16159.2158203125,7659.59423828125,11086.4638671875,10895.7294921875,9684.5625,-6014.505859375,0.0,11902.6494140625,14889.240234375,3866.354736328125,4627.70458984375,4892.34912109375,8229.4150390625,5203.08837890625,13756.751953125,10571.4794921875,26222.86328125,-2406.438232421875,1482.963623046875,6883.14453125,16823.609375,-6969.77001953125,4371.8017578125,21971.861328125,-8092.72119140625,-5999.40625,5714.0986328125,12943.7451171875,13827.4833984375,8559.2265625,10939.4384765625,8308.8876953125,-0.0,4286.76611328125,30925.2734375,34608.046875,10921.1611328125,21828.015625,17515.818359375,-4409.154296875,-5165.73583984375,5771.31884765625,17602.443359375,10817.845703125,15896.162109375,12797.5146484375,2982.616455078125,505.4473876953125,12559.0966796875,0.0,4069.01025390625,9076.595703125,9375.4130859375,8424.91796875,14429.0927734375,10853.6083984375,19110.837890625,-12200.6728515625,5346.93408203125,10371.2080078125,3765.424072265625,2876.91748046875,2412.7958984375,0.0,12094.1796875
7727.94091796875,5192.7568359375,15306.47265625,9452.501953125,19402.50390625,7305.1455078125,11122.2265625,16159.2158203125,7663.56787109375,11099.974609375,10895.7294921875,9676.615234375,-6024.83740234375,0.0,11901.85546875,14889.240234375,3867.1494140625,4629.2939453125,4897.11767578125,8238.9521484375,5204.677734375,13755.9580078125,10573.0693359375,26224.455078125,-2396.106689453125,1478.989990234375,6884.73388671875,16825.994140625,-6972.94873046875,4365.4443359375,21971.068359375,-8095.900390625,-6001.79052734375,5714.8935546875,12944.5390625,13826.6875,8562.4052734375,10943.4130859375,8258.8193359375,-0.0,4301.8662109375,30929.24609375,34610.43359375,10920.365234375,21832.78515625,17521.380859375,-4445.71142578125,-5204.677734375,5793.5712890625,17604.033203125,10818.640625,15895.3662109375,12791.1572265625,2965.92724609375,495.1159362792969,12556.7119140625,0.0,4057.08935546875,9071.8271484375,9388.923828125,8410.61328125,14430.6826171875,10857.58203125,19125.142578125,-12204.6474609375,5339.78125,10369.6181640625,3774.166015625,2876.122802734375,2442.995849609375,0.0,12150.60546875
7701.71484375,5186.39892578125,15309.6513671875,9427.0703125,19416.80859375,7315.47705078125,11126.9951171875,16156.83203125,7658.7998046875,11083.28515625,10899.703125,9682.1787109375,-5999.40625,0.0,11900.265625,14886.0615234375,3873.50732421875,4638.0361328125,4898.70703125,8226.2353515625,5218.98291015625,13766.2890625,10579.4267578125,26228.427734375,-2392.927978515625,1493.2950439453125,6887.91259765625,16832.3515625,-6960.2333984375,4381.33837890625,21981.3984375,-8091.9267578125,-5981.12744140625,5718.86669921875,12955.666015625,13834.6357421875,8564.7900390625,10943.4130859375,8210.341796875,-0.0,4330.47607421875,30945.935546875,34616.78515625,10925.1337890625,21833.578125,17514.228515625,-4444.9169921875,-5215.8037109375,5799.134765625,17615.16015625,10817.05078125,15892.982421875,12774.4677734375,2969.90087890625,507.8315734863281,12567.837890625,0.0,4053.11572265625,9073.4169921875,9377.796875,8400.28125,14435.4501953125,10855.1982421875,19086.203125,-12198.2890625,5357.265625,10367.234375,3769.397705078125,2864.99658203125,2414.385498046875,0.0,12094.974609375
7644.49462890625,5184.80908203125,15299.3203125,9435.8125,19385.01953125,7285.27685546875,11097.5908203125,16121.8642578125,7630.189453125,11032.421875,10883.80859375,9658.3369140625,-6012.12158203125,0.0,11884.3720703125,14851.09375,3858.4072265625,4611.81005859375,4869.30224609375,8183.31982421875,5189.57763671875,13740.857421875,10551.6123046875,26199.021484375,-2422.332763671875,1465.4794921875,6863.27587890625,16795.79296875,-6983.2802734375,4355.9072265625,21956.76171875,-8102.2578125,-6006.55908203125,5703.76708984375,12927.849609375,13807.6142578125,8535.384765625,10910.828125,8235.7724609375,-0.0,4274.05029296875,30912.556640625,34587.3828125,10894.9345703125,21803.37890625,17474.4921875,-4442.533203125,-5204.677734375,5765.75634765625,17584.166015625,10799.5673828125,15858.0146484375,12725.9892578125,2944.469482421875,486.3739013671875,12541.611328125,0.0,4030.86328125,9058.31640625,9328.5244140625,8383.591796875,14406.044921875,10821.0244140625,19029.775390625,-12217.3623046875,5337.39697265625,10352.134765625,3721.714111328125,2859.433349609375,2331.733642578125,0.0,11983.7119140625
7631.77880859375,5159.3779296875,15228.5888671875,9456.4755859375,19379.45703125,7266.998046875,11082.490234375,16103.5859375,7609.5263671875,11002.22265625,10859.9658203125,9641.6474609375,-6041.52685546875,0.0,11868.4765625,14835.1982421875,3843.3076171875,4597.5048828125,4852.61279296875,8156.2998046875,5178.45166015625,13726.5517578125,10539.69140625,26184.716796875,-2463.65869140625,1445.611328125,6847.3818359375,16776.720703125,-7003.1484375,4333.65478515625,21943.25,-8118.15283203125,-6026.4267578125,5698.2041015625,12916.724609375,13793.3095703125,8521.080078125,10894.9345703125,8215.109375,-0.0,4280.408203125,30893.484375,34579.4375,10878.2451171875,21785.1015625,17452.240234375,-4492.60107421875,-5189.57763671875,5759.39794921875,17563.501953125,10783.671875,15839.7353515625,12724.3994140625,2930.958984375,453.7900390625,12522.5380859375,0.0,4031.658203125,9034.474609375,9305.4775390625,8385.9755859375,14393.330078125,10801.951171875,18997.98828125,-12238.025390625,5315.939453125,10337.03515625,3692.30908203125,2841.949462890625,2289.613037109375,0.0,11919.3388671875
7657.2099609375,5207.0615234375,15254.8154296875,9438.9912109375,19393.76171875,7283.6875,11096.794921875,16122.66015625,7626.21533203125,11018.1171875,10879.0400390625,9659.130859375,-6011.3271484375,0.0,11876.423828125,14852.6826171875,3852.84423828125,4613.3994140625,4868.50732421875,8172.1943359375,5191.9619140625,13741.65234375,10554.7900390625,26199.818359375,-2454.916748046875,1467.0689697265625,6853.7392578125,16793.41015625,-6976.92236328125,4340.8076171875,21956.76171875,-8108.61572265625,-6011.3271484375,5703.76708984375,12931.82421875,13809.998046875,8533.794921875,10910.0341796875,8223.8515625,-0.0,4306.63427734375,30911.763671875,34592.9453125,10895.7294921875,21800.994140625,17468.134765625,-4474.32177734375,-5203.8828125,5772.90869140625,17586.548828125,10790.8251953125,15859.603515625,12760.95703125,2950.827392578125,477.63189697265625,12534.458984375,0.0,4056.294921875,9049.5751953125,9319.7822265625,8416.970703125,14407.634765625,10817.845703125,19028.1875,-12230.873046875,5325.47607421875,10342.59765625,3697.077392578125,2859.433349609375,2302.328857421875,0.0,11932.0556640625
7650.85205078125,5266.66650390625,15338.26171875,9461.2431640625,19418.3984375,7321.03955078125,11126.9951171875,16160.806640625,7661.18359375,11057.853515625,10917.1865234375,9690.125,-5982.716796875,0.0,11910.59765625,14890.03515625,3885.42822265625,4645.9833984375,4901.09130859375,8211.9306640625,5216.5986328125,13778.2099609375,10583.400390625,26233.1953125,-2395.31201171875,1504.4212646484375,6870.4287109375,16831.556640625,-6959.4384765625,4373.3916015625,21988.55078125,-8080.005859375,-5977.94873046875,5740.32470703125,12961.228515625,13844.1728515625,8564.7900390625,10945.0029296875,8267.5615234375,-0.0,4305.04443359375,30952.294921875,34618.37890625,10930.697265625,21832.78515625,17506.28125,-4386.90185546875,-5191.16748046875,5803.1083984375,17619.1328125,10824.203125,15897.7509765625,12766.5205078125,2967.5166015625,515.7788696289062,12559.890625,0.0,4083.3154296875,9085.337890625,9359.5185546875,8435.2490234375,14438.62890625,10852.01953125,19075.07421875,-12199.87890625,5353.2919921875,10375.9765625,3732.04541015625,2889.63330078125,2350.012451171875,0.0,12001.197265625
7688.2041015625,5254.74560546875,15319.9833984375,9469.19140625,19417.603515625,7321.83447265625,11126.9951171875,16163.984375,7660.38916015625,11057.853515625,10913.212890625,9690.9208984375,-5982.716796875,0.0,11909.0078125,14893.2138671875,3884.63330078125,4644.39404296875,4900.296875,8212.7255859375,5213.41943359375,13778.2099609375,10582.6064453125,26233.9921875,-2389.748779296875,1505.2159423828125,6883.939453125,16837.119140625,-6965.7958984375,4383.72265625,21988.55078125,-8074.44287109375,-5985.8955078125,5735.55615234375,12958.84375,13845.76171875,8565.5849609375,10944.20703125,8281.0712890625,-0.0,4301.8662109375,30948.3203125,34620.76171875,10930.697265625,21832.78515625,17507.076171875,-4379.74951171875,-5192.7568359375,5788.80322265625,17618.337890625,10823.4091796875,15899.33984375,12796.7197265625,2965.92724609375,517.3682861328125,12563.8642578125,0.0,4074.573486328125,9086.1318359375,9361.9033203125,8428.8916015625,14437.8349609375,10849.634765625,19076.666015625,-12189.5478515625,5354.88134765625,10373.5927734375,3731.250732421875,2884.070068359375,2350.012451171875,0.0,12007.5537109375
7762.1142578125,5237.26123046875,15322.3671875,9472.3701171875,19410.451171875,7316.271484375,11122.2265625,16159.2158203125,7659.59423828125,11065.005859375,10913.212890625,9689.3310546875,-5991.458984375,0.0,11899.4716796875,14889.240234375,3880.659912109375,4641.21484375,4898.70703125,8217.494140625,5206.26708984375,13771.056640625,10579.4267578125,26230.8125,-2392.927978515625,1499.65283203125,6885.5283203125,16829.171875,-6964.20654296875,4385.3125,21984.578125,-8073.6474609375,-5988.27978515625,5728.40380859375,12954.076171875,13839.404296875,8561.611328125,10941.8232421875,8278.6875,-0.0,4297.09765625,30940.375,34611.2265625,10925.9287109375,21831.193359375,17507.076171875,-4391.67041015625,-5183.2197265625,5775.29296875,17615.16015625,10814.6669921875,15897.7509765625,12802.283203125,2981.02685546875,510.21575927734375,12563.0693359375,0.0,4067.4208984375,9080.5693359375,9365.08203125,8431.275390625,14436.2451171875,10849.634765625,19086.203125,-12189.5478515625,5353.2919921875,10365.6455078125,3753.503173828125,2870.5595703125,2384.98046875,0.0,12037.75390625
7766.087890625,5227.724609375,15273.888671875,9473.1650390625,19416.013671875,7324.21875,11134.1474609375,16170.34375,7676.283203125,11091.232421875,10911.6240234375,9694.099609375,-5999.40625,0.0,11914.5712890625,14901.1611328125,3884.63330078125,4649.95703125,4910.6279296875,8238.9521484375,5213.41943359375,13775.8251953125,10588.1689453125,26240.349609375,-2395.31201171875,1503.62646484375,6906.19140625,16845.068359375,-6954.669921875,4381.33837890625,21992.525390625,-8065.70068359375,-5991.458984375,5727.609375,12962.818359375,13846.556640625,8573.5322265625,10952.94921875,8276.3037109375,-0.0,4306.63427734375,30945.142578125,34617.5859375,10937.0546875,21844.705078125,17524.560546875,-4409.154296875,-5163.3515625,5784.03466796875,17622.3125,10831.3564453125,15909.671875,12802.283203125,2983.4111328125,514.1893920898438,12570.2216796875,0.0,4060.268310546875,9098.052734375,9388.12890625,8435.2490234375,14445.78125,10865.529296875,19112.427734375,-12189.5478515625,5360.4443359375,10383.923828125,3785.29248046875,2884.86474609375,2427.10107421875,0.0,12088.6162109375
7701.71484375,5208.65087890625,15228.5888671875,9438.197265625,19395.3515625,7294.8134765625,11106.33203125,16135.3740234375,7643.69970703125,11048.3173828125,10882.21875,9667.873046875,-6024.83740234375,0.0,11888.3447265625,14865.3984375,3859.996826171875,4626.115234375,4880.42822265625,8200.009765625,5195.935546875,13749.599609375,10565.1220703125,26211.73828125,-2423.12744140625,1476.605712890625,6875.19677734375,16810.89453125,-6981.69091796875,4346.37060546875,21969.4765625,-8107.8212890625,-6013.71142578125,5703.76708984375,12941.3603515625,13823.5087890625,8546.51171875,10922.75,8252.4619140625,-0.0,4299.48193359375,30920.505859375,34596.125,10905.265625,21816.095703125,17489.591796875,-4449.685546875,-5190.37255859375,5772.11376953125,17591.318359375,10804.3359375,15873.9091796875,12750.6259765625,2953.21142578125,486.3739013671875,12543.99609375,0.0,4034.04248046875,9065.46875,9345.2138671875,8401.076171875,14419.5556640625,10831.3564453125,19059.181640625,-12218.158203125,5335.0126953125,10355.3134765625,3728.072021484375,2864.201904296875,2351.601806640625,0.0,12021.064453125
7692.97265625,5174.47802734375,15219.84765625,9435.017578125,19371.509765625,7265.4091796875,11078.5166015625,16102.791015625,7603.96337890625,10999.0439453125,10866.32421875,9640.8525390625,-6031.1953125,0.0,11859.734375,14832.814453125,3836.155029296875,4601.478515625,4853.4072265625,8154.7099609375,5175.2724609375,13726.5517578125,10538.8955078125,26183.12890625,-2435.04833984375,1449.5849609375,6840.22900390625,16772.74609375,-7002.353515625,4318.55517578125,21947.224609375,-8143.58447265625,-6029.60595703125,5683.89892578125,12915.9287109375,13796.48828125,8518.6962890625,10892.55078125,8195.2412109375,-0.0,4280.408203125,30899.84375,34569.90234375,10874.271484375,21785.1015625,17450.650390625,-4480.68017578125,-5234.876953125,5741.9140625,17558.732421875,10774.1357421875,15838.146484375,12741.8828125,2917.44873046875,466.50567626953125,12516.9755859375,0.0,4037.221435546875,9028.1171875,9300.708984375,8382.796875,14391.740234375,10798.771484375,18997.98828125,-12241.2041015625,5307.19775390625,10325.1142578125,3664.49365234375,2828.43896484375,2277.692138671875,0.0,11937.6181640625
7698.5361328125,5189.57763671875,15288.9892578125,9482.701171875,19388.19921875,7286.07177734375,11092.822265625,16133.78515625,7620.65283203125,11025.26953125,10883.013671875,9654.3623046875,-6017.68505859375,0.0,11880.3974609375,14864.603515625,3858.4072265625,4619.75732421875,4870.8916015625,8173.783203125,5193.5517578125,13748.8046875,10554.7900390625,26202.201171875,-2412.00146484375,1467.8636474609375,6855.3291015625,16802.15234375,-6989.6376953125,4341.6025390625,21965.50390625,-8124.5107421875,-5996.22705078125,5714.8935546875,12934.2080078125,13816.3564453125,8534.5908203125,10914.0078125,8157.88916015625,-0.0,4285.1767578125,30922.09375,34587.3828125,10899.703125,21801.791015625,17473.697265625,-4467.96435546875,-5242.82470703125,5768.14013671875,17580.986328125,10794.00390625,15869.935546875,12768.109375,2930.958984375,476.04241943359375,12536.048828125,0.0,4090.468017578125,9048.779296875,9330.9091796875,8393.923828125,14409.224609375,10817.05078125,19017.060546875,-12228.4892578125,5321.5029296875,10344.982421875,3670.8515625,2836.386474609375,2314.249755859375,0.0,11965.43359375
7681.0517578125,5174.47802734375,15317.599609375,9491.443359375,19409.65625,7302.76123046875,11115.8681640625,16163.1904296875,7639.72607421875,11049.90625,10890.166015625,9670.2578125,-6021.658203125,0.0,11905.0341796875,14894.802734375,3872.71240234375,4636.4462890625,4893.14404296875,8198.4208984375,5213.41943359375,13763.1103515625,10572.2744140625,26221.275390625,-2396.9013671875,1476.605712890625,6885.5283203125,16831.556640625,-6984.0751953125,4355.11279296875,21980.603515625,-8111.0,-5968.412109375,5723.63525390625,12953.28125,13832.251953125,8556.8427734375,10934.6708984375,8149.14697265625,-0.0,4312.9921875,30934.015625,34608.83984375,10921.1611328125,21824.041015625,17497.5390625,-4452.8642578125,-5218.98291015625,5794.3662109375,17598.470703125,10819.435546875,15900.134765625,12780.8251953125,2971.490234375,492.73175048828125,12544.791015625,0.0,4106.36279296875,9065.46875,9362.697265625,8401.87109375,14428.2978515625,10840.0986328125,19054.412109375,-12218.158203125,5334.21826171875,10370.4140625,3674.0302734375,2870.5595703125,2342.85986328125,0.0,12001.9912109375
7652.44140625,5187.98828125,15325.5458984375,9486.6748046875,19404.888671875,7293.22412109375,11118.2529296875,16154.447265625,7629.39453125,11050.701171875,10889.37109375,9668.66796875,-6036.75830078125,0.0,11901.0615234375,14885.2666015625,3865.559814453125,4631.67822265625,4892.34912109375,8199.21484375,5208.65087890625,13753.5732421875,10572.2744140625,26216.5078125,-2406.438232421875,1463.0953369140625,6890.296875,16815.662109375,-6983.2802734375,4347.16552734375,21975.041015625,-8107.02587890625,-5975.564453125,5706.1513671875,12947.71875,13824.3037109375,8556.048828125,10929.90234375,8180.1416015625,-0.0,4309.81298828125,30920.505859375,34608.83984375,10910.828125,21824.041015625,17494.359375,-4425.84375,-5200.7041015625,5788.80322265625,17586.548828125,10817.05078125,15892.982421875,12758.572265625,2981.82177734375,490.3475646972656,12536.84375,0.0,4069.80517578125,9062.2900390625,9356.33984375,8398.6923828125,14425.9140625,10836.9189453125,19062.361328125,-12214.978515625,5327.8603515625,10366.439453125,3708.99853515625,2858.638671875,2356.3701171875,0.0,12003.5810546875
7627.80517578125,5171.298828125,15310.4462890625,9454.88671875,19388.994140625,7277.330078125,11108.7158203125,16128.2216796875,7620.65283203125,11045.138671875,10878.2451171875,9653.568359375,-6052.65283203125,0.0,11886.755859375,14859.8359375,3852.049560546875,4616.57861328125,4879.63330078125,8195.2412109375,5188.783203125,13741.65234375,10557.96875,26201.40625,-2421.5380859375,1456.737548828125,6883.14453125,16791.025390625,-6988.04833984375,4333.65478515625,21959.939453125,-8120.53662109375,-6004.96923828125,5705.3564453125,12931.029296875,13810.7939453125,8545.7158203125,10915.5966796875,8273.125,-0.0,4284.3818359375,30906.99609375,34595.328125,10892.55078125,21816.095703125,17483.234375,-4422.66455078125,-5208.65087890625,5772.11376953125,17568.26953125,10801.951171875,15866.7568359375,12707.7099609375,2933.34326171875,472.06878662109375,12516.1806640625,0.0,4030.86328125,9055.1376953125,9342.0341796875,8386.771484375,14412.4033203125,10828.177734375,19067.12890625,-12227.6943359375,5311.1708984375,10352.9287109375,3751.913818359375,2844.333740234375,2368.291259765625,0.0,12017.0908203125
7644.49462890625,5168.1201171875,15290.578125,9439.7861328125,19388.994140625,7277.330078125,11100.76953125,16125.0439453125,7616.6787109375,11040.3701171875,10867.9130859375,9641.6474609375,-6046.294921875,0.0,11878.013671875,14855.0673828125,3846.486328125,4610.22021484375,4874.07080078125,8191.26806640625,5181.63037109375,13737.6787109375,10553.99609375,26195.84375,-2439.816650390625,1455.1480712890625,6868.83935546875,16791.025390625,-6994.40625,4324.1181640625,21953.58203125,-8128.48388671875,-6014.505859375,5709.330078125,12926.2607421875,13806.8203125,8539.359375,10912.41796875,8257.2294921875,-0.0,4289.9453125,30903.81640625,34591.359375,10891.7548828125,21810.53125,17481.646484375,-4449.685546875,-5252.361328125,5768.14013671875,17569.064453125,10793.208984375,15861.98828125,12748.2412109375,2912.680419921875,463.3267822265625,12513.796875,0.0,4017.35302734375,9053.5478515625,9349.1865234375,8380.4130859375,14407.634765625,10823.4091796875,19054.412109375,-12236.435546875,5304.0185546875,10344.982421875,3754.2978515625,2848.307373046875,2369.0859375,0.0,12021.064453125
7632.57373046875,5165.73583984375,15247.662109375,9408.7919921875,19400.916015625,7278.12451171875,11092.822265625,16111.5322265625,7602.37353515625,11017.322265625,10862.3505859375,9644.03125,-6013.71142578125,0.0,11862.9140625,14839.966796875,3848.075927734375,4611.01513671875,4866.123046875,8169.01513671875,5188.783203125,13734.5,10554.7900390625,26194.25390625,-2454.916748046875,1455.9427490234375,6859.302734375,16790.232421875,-6993.61181640625,4339.21826171875,21955.966796875,-8114.1787109375,-6014.505859375,5691.84619140625,12933.4130859375,13804.435546875,8531.4111328125,10906.060546875,8211.9306640625,-0.0,4330.47607421875,30905.404296875,34592.9453125,10890.166015625,21797.814453125,17464.95703125,-4479.88525390625,-5228.51953125,5775.29296875,17572.244140625,10774.9296875,15845.298828125,12745.0625,2931.75390625,473.6582336425781,12528.1015625,0.0,3984.769287109375,9047.1904296875,9317.3984375,8373.2607421875,14405.2509765625,10811.48828125,19012.29296875,-12235.6416015625,5311.1708984375,10329.8828125,3716.15087890625,2822.8759765625,2309.4814453125,0.0,11960.666015625
7650.05712890625,5153.81494140625,15204.7470703125,9412.765625,19377.07421875,7267.79296875,11074.54296875,16098.8173828125,7585.68408203125,11004.607421875,10865.529296875,9648.005859375,-5997.02197265625,0.0,11852.58203125,14828.0458984375,3840.128662109375,4596.7099609375,4854.2021484375,8155.50537109375,5174.47802734375,13725.7578125,10537.306640625,26183.923828125,-2450.94287109375,1447.2008056640625,6812.41357421875,16783.080078125,-6995.201171875,4336.833984375,21943.25,-8122.9208984375,-6035.1689453125,5687.078125,12917.5185546875,13794.8994140625,8511.54296875,10890.9609375,8226.2353515625,-0.0,4309.81298828125,30893.484375,34569.1015625,10879.0400390625,21780.33203125,17450.650390625,-4489.421875,-5190.37255859375,5758.603515625,17564.296875,10765.3935546875,15835.76171875,12755.3935546875,2922.217041015625,482.4002685546875,12529.6904296875,0.0,3976.027099609375,9030.5009765625,9297.5302734375,8360.544921875,14392.53515625,10797.9775390625,19003.548828125,-12241.2041015625,5311.1708984375,10319.55078125,3702.640625,2813.33935546875,2294.38134765625,0.0,11942.38671875
7690.58837890625,5178.45166015625,15288.9892578125,9454.0908203125,19349.255859375,7264.6142578125,11079.3115234375,16111.5322265625,7598.39990234375,11024.474609375,10868.708984375,9648.7998046875,-6003.3798828125,0.0,11874.0400390625,14843.9404296875,3836.94970703125,4591.94189453125,4858.17578125,8172.1943359375,5158.5830078125,13724.962890625,10533.3330078125,26183.923828125,-2446.174560546875,1440.0482177734375,6839.43408203125,16782.283203125,-6990.4326171875,4329.681640625,21937.689453125,-8131.6630859375,-6037.55322265625,5706.94580078125,12903.2138671875,13792.5146484375,8515.517578125,10897.318359375,8273.125,-0.0,4228.75048828125,30891.099609375,34560.36328125,10880.6298828125,21791.458984375,17464.16015625,-4453.6591796875,-5176.0673828125,5720.45654296875,17563.501953125,10790.0302734375,15849.271484375,12749.8310546875,2861.02294921875,473.6582336425781,12528.1015625,0.0,4029.27392578125,9040.83203125,9323.755859375,8374.8505859375,14391.740234375,10806.7197265625,19032.955078125,-12238.025390625,5309.58154296875,10339.4189453125,3732.04541015625,2837.975830078125,2354.781005859375,0.0,11989.2763671875
7689.7939453125,5177.65673828125,15302.4990234375,9459.6552734375,19356.408203125,7266.20361328125,11092.822265625,16128.2216796875,7611.11572265625,11044.3427734375,10867.119140625,9639.2626953125,-6029.60595703125,0.0,11882.7822265625,14859.0400390625,3835.3603515625,4595.12109375,4866.91796875,8188.08837890625,5159.3779296875,13727.34765625,10541.2802734375,26189.486328125,-2446.96923828125,1440.843017578125,6860.8916015625,16787.84765625,-6987.25390625,4320.939453125,21940.072265625,-8136.431640625,-6036.75830078125,5692.640625,12907.1875,13794.1044921875,8527.4384765625,10906.060546875,8223.8515625,-0.0,4231.9296875,30894.279296875,34572.28515625,10886.986328125,21804.173828125,17480.0546875,-4429.8173828125,-5207.8564453125,5737.9404296875,17557.939453125,10797.1826171875,15864.3720703125,12756.1884765625,2859.433349609375,454.5847473144531,12522.5380859375,0.0,4061.857666015625,9049.5751953125,9350.7763671875,8385.181640625,14396.5078125,10820.2294921875,19052.029296875,-12247.5625,5303.22412109375,10348.1611328125,3765.424072265625,2833.207275390625,2404.848876953125,0.0,12027.4228515625
