6470.68017578125,3510.316162109375,16126.6328125,6669.3623046875,18537.83984375,7057.18994140625,9579.658203125,14812.15234375,6645.5205078125,9228.388671875,10331.4716796875,8290.6083984375,-3648.598876953125,0.0,12823.7412109375,13579.5283203125,3031.8896484375,3001.68994140625,5366.00732421875,6963.41162109375,5528.1318359375,12501.080078125,9552.6376953125,24514.19921875,-329.01763916015625,1456.737548828125,6311.73486328125,14949.6396484375,-6713.072265625,2995.33203125,19761.720703125,-10914.0078125,-4716.71435546875,3633.4990234375,12212.59375,12789.5673828125,7006.3271484375,9903.11328125,6408.69140625,-0.0,6173.45166015625,28325.716796875,32149.154296875,10108.947265625,20172.595703125,15854.8359375,-2096.493896484375,-5315.14501953125,6034.3740234375,15313.625,11629.263671875,14563.4013671875,11353.4931640625,1859.6649169921875,2193.450927734375,11180.2412109375,0.0,4800.16064453125,8819.103515625,8591.8115234375,7387.00244140625,12673.537109375,10991.890625,17145.474609375,-14495.849609375,3519.05810546875,11302.630859375,6887.91259765625,5186.39892578125,4292.3291015625,0.0,10690.689453125
6426.97021484375,3458.658935546875,16105.970703125,6656.646484375,18534.66015625,7046.8583984375,9578.068359375,14801.8193359375,6647.90478515625,9228.388671875,10323.5244140625,8269.9462890625,-3669.261962890625,0.0,12830.0986328125,13568.4013671875,3025.53173828125,3000.100341796875,5363.623046875,6965.00146484375,5532.10595703125,12493.1337890625,9550.25390625,24507.841796875,-305.17578125,1444.816650390625,6315.7080078125,14933.7451171875,-6728.17236328125,2975.4638671875,19759.3359375,-10926.7236328125,-4698.435546875,3606.478515625,12212.59375,12782.4140625,7002.353515625,9897.5498046875,6387.23388671875,-0.0,6182.19384765625,28316.1796875,32145.18359375,10096.232421875,20172.595703125,15850.8623046875,-2102.851806640625,-5337.39697265625,6019.2744140625,15298.525390625,11635.62109375,14552.275390625,11343.1611328125,1815.954833984375,2184.708740234375,11166.7314453125,0.0,4780.29248046875,8823.0771484375,8586.2470703125,7377.4658203125,12669.5634765625,10990.3017578125,17150.244140625,-14501.412109375,3508.726806640625,11309.783203125,6913.34375,5199.9091796875,4320.939453125,0.0,10696.251953125
6437.3017578125,3457.0693359375,16104.3798828125,6640.75244140625,18530.6875,7038.1162109375,9573.30078125,14778.7734375,6642.341796875,9220.4404296875,10313.193359375,8258.8193359375,-3649.393798828125,0.0,12827.7138671875,13542.9697265625,3016.789794921875,2989.76904296875,5357.265625,6961.02783203125,5526.54248046875,12482.802734375,9543.1015625,24497.509765625,-300.40740966796875,1430.511474609375,6314.9130859375,14917.0556640625,-6721.814453125,2969.90087890625,19751.390625,-10929.90234375,-4706.3828125,3584.225830078125,12204.6474609375,12773.6728515625,6998.38037109375,9887.21875,6378.49169921875,-0.0,6175.041015625,28308.232421875,32138.82421875,10086.6953125,20168.623046875,15837.3505859375,-2108.414794921875,-5350.11279296875,6016.89013671875,15289.783203125,11631.6484375,14527.638671875,11369.3876953125,1811.1864013671875,2167.224853515625,11166.7314453125,0.0,4741.3505859375,8812.7451171875,8562.4052734375,7371.107421875,12662.4111328125,10982.3544921875,17149.44921875,-14506.1806640625,3505.5478515625,11308.193359375,6926.8544921875,5195.140625,4355.11279296875,0.0,10698.6357421875
6484.1904296875,3502.368896484375,16153.654296875,6681.28369140625,18537.83984375,7063.5478515625,9591.5791015625,14802.615234375,6659.82568359375,9241.8984375,10338.6240234375,8289.814453125,-3613.631103515625,0.0,12852.3515625,13566.017578125,3039.8369140625,3007.2529296875,5378.72314453125,6982.4853515625,5542.43701171875,12507.4384765625,9558.9951171875,24520.5546875,-288.4864807128906,1458.326904296875,6334.78173828125,14946.4609375,-6694.7939453125,2997.71630859375,19771.2578125,-10909.240234375,-4684.13037109375,3625.552001953125,12218.9521484375,12796.7197265625,7016.65869140625,9908.67578125,6385.64453125,-0.0,6179.0146484375,28332.869140625,32153.12890625,10110.537109375,20187.697265625,15860.3994140625,-2067.089111328125,-5325.47607421875,6010.5322265625,15319.9833984375,11657.8740234375,14551.48046875,11381.30859375,1854.896484375,2160.866943359375,11187.39453125,0.0,4772.34521484375,8832.6142578125,8583.068359375,7381.439453125,12681.484375,11003.017578125,17169.31640625,-14493.4658203125,3525.416015625,11332.03515625,6967.3857421875,5201.49853515625,4378.16015625,0.0,10723.2734375
6488.16455078125,3514.289794921875,16187.0322265625,6650.2890625,18524.328125,7058.779296875,9583.6328125,14795.462890625,6660.6201171875,9241.8984375,10344.982421875,8289.814453125,-3623.167724609375,0.0,12853.1455078125,13561.2490234375,3032.684326171875,3001.68994140625,5374.74951171875,6980.89599609375,5528.1318359375,12501.080078125,9554.2265625,24516.58203125,-307.5599670410156,1455.1480712890625,6320.4765625,14943.2822265625,-6691.61474609375,2996.921630859375,19763.310546875,-10903.67578125,-4706.3828125,3619.194091796875,12210.2099609375,12791.951171875,7008.71142578125,9905.4970703125,6422.20166015625,-0.0,6159.94140625,28325.716796875,32145.9765625,10105.76953125,20179.748046875,15858.80859375,-2060.731201171875,-5342.96044921875,6017.68505859375,15317.599609375,11657.8740234375,14547.5068359375,11369.3876953125,1877.14892578125,2160.072265625,11181.8310546875,0.0,4751.68212890625,8851.6875,8579.890625,7375.8759765625,12678.3056640625,10999.8388671875,17171.701171875,-14496.6435546875,3517.46875,11332.8291015625,6933.21240234375,5214.21435546875,4364.6494140625,0.0,10726.4521484375
6477.0380859375,3497.6005859375,16165.5751953125,6661.4150390625,18525.919921875,7053.21630859375,9577.2744140625,14789.8984375,6656.646484375,9233.1572265625,10338.6240234375,8277.892578125,-3639.85693359375,0.0,12853.9404296875,13554.0966796875,3024.737060546875,2997.71630859375,5369.1865234375,6976.92236328125,5520.9794921875,12494.7236328125,9551.0478515625,24509.4296875,-298.0232238769531,1445.611328125,6305.37646484375,14936.1298828125,-6701.1513671875,2985.795166015625,19755.36328125,-10909.240234375,-4720.68798828125,3608.06787109375,12205.44140625,12787.978515625,7003.1484375,9899.1396484375,6460.3486328125,-0.0,6161.53076171875,28321.7421875,32141.208984375,10099.4111328125,20174.185546875,15850.0673828125,-2072.652099609375,-5358.85498046875,6036.75830078125,15310.4462890625,11657.0791015625,14541.1494140625,11370.181640625,1832.6441650390625,2176.76171875,11177.0625,0.0,4723.86669921875,8851.6875,8577.505859375,7368.7236328125,12673.537109375,10994.275390625,17165.341796875,-14495.0556640625,3504.753173828125,11333.625,6888.70751953125,5228.51953125,4321.73388671875,0.0,10716.12109375
6503.26416015625,3492.03759765625,16150.474609375,6662.2099609375,18544.9921875,7064.34228515625,9591.5791015625,14806.587890625,6666.978515625,9241.1044921875,10341.8037109375,8287.4296875,-3639.062255859375,0.0,12865.861328125,13570.78515625,3037.45263671875,3010.431884765625,5381.90234375,6986.45947265625,5536.07958984375,12507.4384765625,9563.763671875,24521.3515625,-278.9497375488281,1459.91650390625,6323.65576171875,14944.87109375,-6710.68798828125,2991.3583984375,19766.48828125,-10901.2919921875,-4707.97216796875,3623.167724609375,12218.158203125,12798.3095703125,7017.45361328125,9912.650390625,6466.70654296875,-0.0,6186.9619140625,28336.84375,32157.103515625,10112.1259765625,20187.697265625,15864.3720703125,-2061.526123046875,-5336.6025390625,6048.67919921875,15323.162109375,11671.3837890625,14557.8388671875,11386.87109375,1804.033935546875,2192.65625,11187.39453125,0.0,4762.80810546875,8855.66015625,8601.34765625,7381.439453125,12684.6630859375,11005.4013671875,17173.291015625,-14479.16015625,3512.700439453125,11346.33984375,6906.986328125,5245.208984375,4326.50244140625,0.0,10722.4775390625
6504.853515625,3494.421630859375,16201.337890625,6682.078125,18564.06640625,7080.23681640625,9608.2685546875,14821.6884765625,6681.28369140625,9261.767578125,10364.849609375,8305.708984375,-3616.01513671875,0.0,12865.06640625,13588.26953125,3061.29443359375,3029.50537109375,5398.59130859375,6999.9697265625,5557.537109375,12528.1015625,9581.248046875,24538.041015625,-273.3866271972656,1475.81103515625,6337.166015625,14957.5869140625,-6692.40966796875,3018.379150390625,19788.7421875,-10886.986328125,-4667.44091796875,3649.393798828125,12239.615234375,12815.79296875,7033.34814453125,9929.33984375,6450.017578125,-0.0,6204.4462890625,28351.1484375,32175.380859375,10126.431640625,20202.001953125,15880.2666015625,-2035.300048828125,-5291.30322265625,6059.0107421875,15331.109375,11669.794921875,14572.1435546875,11405.150390625,1860.459716796875,2204.5771484375,11213.6201171875,0.0,4800.16064453125,8866.787109375,8614.857421875,7388.591796875,12702.94140625,11021.296875,17182.826171875,-14464.85546875,3535.74755859375,11345.5458984375,6953.875,5232.4931640625,4385.3125,0.0,10735.98828125
6495.31689453125,3468.195556640625,16199.7470703125,6705.919921875,18564.06640625,7077.05810546875,9606.6787109375,14820.8935546875,6684.4619140625,9262.5615234375,10371.2080078125,8301.7353515625,-3612.04150390625,0.0,12867.451171875,13585.0908203125,3064.473388671875,3031.0947265625,5399.3857421875,7002.353515625,5561.5107421875,12528.1015625,9582.8369140625,24537.244140625,-286.89703369140625,1467.8636474609375,6338.75537109375,14955.203125,-6686.0517578125,3010.431884765625,19792.71484375,-10879.833984375,-4657.904296875,3658.930419921875,12241.2041015625,12816.5888671875,7034.14306640625,9929.33984375,6399.15478515625,-0.0,6198.08837890625,28345.583984375,32176.970703125,10124.046875,20204.38671875,15878.677734375,-2038.4788818359375,-5304.8134765625,6058.21630859375,15318.3935546875,11672.1796875,14568.96484375,11407.5341796875,1898.606689453125,2210.934814453125,11214.416015625,0.0,4793.802734375,8872.349609375,8606.9111328125,7380.64453125,12705.326171875,11021.296875,17189.18359375,-14468.0341796875,3538.1318359375,11346.33984375,6951.49072265625,5238.85107421875,4362.26513671875,0.0,10745.525390625
6486.57470703125,3483.29541015625,16167.958984375,6653.4677734375,18553.734375,7070.7001953125,9596.34765625,14817.71484375,6670.15673828125,9251.435546875,10359.287109375,8295.376953125,-3631.90966796875,0.0,12853.9404296875,13582.7060546875,3046.989501953125,3019.173828125,5390.64404296875,6986.45947265625,5547.20556640625,12515.3857421875,9570.916015625,24526.9140625,-297.2284851074219,1463.0953369140625,6330.01318359375,14955.9970703125,-6694.7939453125,2999.3056640625,19776.8203125,-10897.318359375,-4692.07763671875,3633.4990234375,12228.4892578125,12806.255859375,7021.42724609375,9918.212890625,6408.69140625,-0.0,6193.31982421875,28342.40625,32165.84375,10120.07421875,20190.875,15872.3203125,-2057.55224609375,-5347.728515625,6056.626953125,15323.162109375,11659.462890625,14567.375,11369.3876953125,1900.9908447265625,2209.345458984375,11207.2626953125,0.0,4778.703125,8854.0712890625,8610.0888671875,7372.697265625,12693.4052734375,11011.759765625,17169.31640625,-14476.7763671875,3530.1845703125,11332.8291015625,6936.39111328125,5224.5458984375,4344.78125,0.0,10721.68359375
6382.46533203125,3512.700439453125,16131.4013671875,6612.9365234375,18541.017578125,7053.21630859375,9582.04296875,14791.48828125,6656.646484375,9233.1572265625,10329.0869140625,8281.8671875,-3642.2412109375,0.0,12847.5830078125,13555.685546875,3027.916015625,3003.279541015625,5373.15966796875,6972.154296875,5537.6689453125,12493.927734375,9553.4326171875,24511.01953125,-330.6070861816406,1451.1744384765625,6316.5029296875,14939.30859375,-6716.25146484375,2986.590087890625,19760.1328125,-10925.9287109375,-4699.22998046875,3598.531005859375,12215.7734375,12789.5673828125,7007.1220703125,9900.7294921875,6318.88720703125,-0.0,6201.26708984375,28320.947265625,32148.361328125,10100.205078125,20176.568359375,15850.8623046875,-2086.957275390625,-5364.41796875,6024.83740234375,15306.47265625,11651.515625,14542.7392578125,11354.287109375,1899.4013671875,2177.556396484375,11187.39453125,0.0,4723.072265625,8835.79296875,8571.1474609375,7356.0078125,12675.921875,10995.865234375,17151.83203125,-14501.412109375,3512.700439453125,11324.087890625,6928.44384765625,5234.08251953125,4364.6494140625,0.0,10701.8154296875
6366.57080078125,3526.210693359375,16118.6845703125,6644.7255859375,18529.095703125,7046.8583984375,9580.453125,14785.130859375,6655.85205078125,9234.74609375,10327.498046875,8275.5087890625,-3647.80419921875,0.0,12850.76171875,13547.73828125,3027.916015625,3000.100341796875,5370.77587890625,6972.94873046875,5536.07958984375,12492.3388671875,9551.0478515625,24507.841796875,-324.249267578125,1444.0218505859375,6317.29736328125,14932.1552734375,-6724.9931640625,2990.563720703125,19760.1328125,-10928.3134765625,-4693.6669921875,3606.478515625,12210.2099609375,12785.59375,7006.3271484375,9898.3447265625,6337.9609375,-0.0,6199.677734375,28312.20703125,32143.59375,10093.052734375,20177.365234375,15846.09375,-2105.236083984375,-5343.75537109375,6021.658203125,15298.525390625,11655.490234375,14534.791015625,11340.77734375,1892.248779296875,2154.50927734375,11179.447265625,0.0,4688.10400390625,8832.6142578125,8560.81640625,7361.57080078125,12670.357421875,10995.0703125,17151.83203125,-14506.9765625,3511.90576171875,11328.0615234375,6940.36474609375,5235.671875,4359.880859375,0.0,10706.583984375
6470.68017578125,3492.832275390625,16170.34375,6642.341796875,18537.83984375,7053.21630859375,9591.5791015625,14789.8984375,6669.3623046875,9244.283203125,10332.2666015625,8282.6611328125,-3643.035888671875,0.0,12871.4248046875,13552.5068359375,3032.684326171875,3002.484619140625,5379.51806640625,6984.86962890625,5532.10595703125,12497.90234375,9558.9951171875,24513.40234375,-309.1494140625,1447.9954833984375,6332.3974609375,14938.513671875,-6720.22509765625,2992.153076171875,19762.515625,-10910.828125,-4705.587890625,3608.06787109375,12211.7998046875,12790.3623046875,7017.45361328125,9905.4970703125,6427.7646484375,-0.0,6185.373046875,28321.7421875,32154.720703125,10099.4111328125,20191.669921875,15854.8359375,-2097.288818359375,-5335.8076171875,6037.55322265625,15308.0625,11673.767578125,14537.970703125,11345.5458984375,1899.4013671875,2152.125,11175.4736328125,0.0,4700.02490234375,8854.8662109375,8571.1474609375,7367.13427734375,12677.5107421875,11004.607421875,17166.13671875,-14509.3603515625,3514.289794921875,11347.9296875,6953.875,5264.2822265625,4357.49658203125,0.0,10720.09375
6533.4638671875,3489.6533203125,16187.826171875,6666.18359375,18537.044921875,7056.39501953125,9589.1953125,14790.6943359375,6663.79931640625,9233.951171875,10336.240234375,8287.4296875,-3627.141357421875,0.0,12855.529296875,13554.0966796875,3030.300048828125,3000.895263671875,5376.3388671875,6975.33251953125,5525.74755859375,12497.90234375,9556.611328125,24514.19921875,-302.7915954589844,1451.9691162109375,6326.833984375,14940.1025390625,-6713.8671875,2994.537353515625,19757.748046875,-10905.265625,-4711.1513671875,3616.809814453125,12209.4150390625,12791.1572265625,7012.68505859375,9905.4970703125,6461.1435546875,-0.0,6162.3251953125,28320.154296875,32150.74609375,10103.384765625,20184.517578125,15850.0673828125,-2063.91015625,-5346.93408203125,6032.78515625,15316.8037109375,11658.6689453125,14540.3544921875,11373.3603515625,1879.533203125,2169.609130859375,11178.65234375,0.0,4747.708984375,8849.3037109375,8571.9423828125,7377.4658203125,12678.3056640625,10999.8388671875,17154.216796875,-14502.2080078125,3513.4951171875,11332.8291015625,6929.23876953125,5246.7978515625,4340.8076171875,0.0,10702.6103515625
6547.76904296875,3507.931884765625,16175.9052734375,6663.79931640625,18533.072265625,7065.13720703125,9578.8642578125,14800.2314453125,6648.69921875,9233.1572265625,10348.1611328125,8289.01953125,-3635.88330078125,0.0,12822.9453125,13564.427734375,3033.47900390625,3004.07421875,5376.3388671875,6972.154296875,5528.1318359375,12503.46484375,9555.0224609375,24518.966796875,-294.84429931640625,1465.4794921875,6299.81396484375,14948.8447265625,-6711.48291015625,2993.74267578125,19762.515625,-10899.703125,-4708.76708984375,3620.783447265625,12209.4150390625,12795.9248046875,7003.94287109375,9908.67578125,6449.22265625,-0.0,6163.9150390625,28332.07421875,32141.208984375,10109.7421875,20172.595703125,15854.0400390625,-2047.220947265625,-5363.623046875,6008.94287109375,15325.5458984375,11626.8798828125,14549.095703125,11388.4609375,1891.4541015625,2185.503662109375,11185.009765625,0.0,4791.41845703125,8827.0498046875,8584.658203125,7399.7177734375,12682.2783203125,10996.6591796875,17152.62890625,-14486.3125,3517.46875,11299.451171875,6938.775390625,5172.88818359375,4354.318359375,0.0,10708.1728515625
6539.82177734375,3505.5478515625,16150.474609375,6634.39404296875,18523.53515625,7058.779296875,9581.248046875,14801.025390625,6658.23583984375,9245.8720703125,10345.7763671875,8279.482421875,-3662.109375,0.0,12842.01953125,13566.017578125,3028.710693359375,2998.510986328125,5377.1337890625,6981.69091796875,5518.59521484375,12494.7236328125,9551.0478515625,24513.40234375,-307.5599670410156,1462.3006591796875,6314.9130859375,14936.923828125,-6721.01953125,2985.795166015625,19756.158203125,-10902.8818359375,-4724.6611328125,3603.29931640625,12203.8525390625,12791.1572265625,7007.1220703125,9903.908203125,6467.5009765625,-0.0,6155.1728515625,28321.7421875,32140.416015625,10105.76953125,20178.953125,15858.0146484375,-2048.810302734375,-5341.37109375,6002.5849609375,15312.03515625,11644.36328125,14550.685546875,11383.6923828125,1905.7591552734375,2177.556396484375,11177.0625,0.0,4793.00830078125,8838.970703125,8580.6845703125,7390.97607421875,12677.5107421875,10999.8388671875,17164.548828125,-14489.4912109375,3517.46875,11318.5244140625,6963.41162109375,5190.37255859375,4380.5439453125,0.0,10722.4775390625
6515.97998046875,3482.500732421875,16144.1171875,6626.447265625,18516.3828125,7042.884765625,9574.890625,14785.130859375,6657.44140625,9236.3359375,10340.2138671875,8269.150390625,-3658.930419921875,0.0,12842.814453125,13549.328125,3019.173828125,2988.179443359375,5366.80224609375,6974.5380859375,5509.853515625,12482.0068359375,9543.1015625,24501.482421875,-300.40740966796875,1449.5849609375,6313.32421875,14917.8505859375,-6724.9931640625,2981.02685546875,19745.826171875,-10921.1611328125,-4731.01953125,3595.35205078125,12195.1103515625,12778.44140625,7001.55859375,9893.576171875,6438.89111328125,-0.0,6148.0205078125,28301.080078125,32134.056640625,10091.4638671875,20175.775390625,15846.8876953125,-2053.57861328125,-5323.091796875,6008.1484375,15296.1416015625,11645.953125,14534.791015625,11378.9248046875,1905.7591552734375,2174.37744140625,11165.9365234375,0.0,4767.57666015625,8837.3818359375,8565.5849609375,7364.75,12666.384765625,10992.6865234375,17158.984375,-14496.6435546875,3512.700439453125,11322.498046875,6966.5908203125,5210.24072265625,4376.5703125,0.0,10719.298828125
6515.18505859375,3502.368896484375,16140.9375,6618.5,18512.408203125,7038.9111328125,9574.890625,14781.1572265625,6651.87841796875,9229.18359375,10338.6240234375,8281.0712890625,-3654.162109375,0.0,12842.814453125,13544.5595703125,3015.200439453125,2983.4111328125,5363.623046875,6968.18017578125,5508.26416015625,12479.623046875,9541.51171875,24499.09765625,-298.0232238769531,1442.432373046875,6319.681640625,14917.0556640625,-6721.01953125,2980.232177734375,19743.443359375,-10925.1337890625,-4730.224609375,3595.35205078125,12191.931640625,12775.26171875,6999.1748046875,9891.9873046875,6418.22802734375,-0.0,6145.63623046875,28301.875,32134.056640625,10087.490234375,20172.595703125,15843.7099609375,-2058.346923828125,-5308.787109375,6005.76416015625,15291.373046875,11647.5419921875,14531.6123046875,11385.28125,1902.580322265625,2180.7353515625,11168.3203125,0.0,4762.013671875,8833.408203125,8565.5849609375,7366.33935546875,12665.5888671875,10989.5068359375,17147.859375,-14493.4658203125,3511.90576171875,11321.7041015625,6956.25927734375,5207.0615234375,4363.85498046875,0.0,10706.583984375
6530.28466796875,3527.80029296875,16154.447265625,6637.5732421875,18527.5078125,7056.39501953125,9589.1953125,14801.025390625,6670.95166015625,9244.283203125,10350.544921875,8303.32421875,-3641.4462890625,0.0,12863.4765625,13566.017578125,3028.710693359375,2998.510986328125,5378.72314453125,6984.86962890625,5526.54248046875,12496.3125,9557.40625,24514.994140625,-290.075927734375,1455.1480712890625,6336.37109375,14940.8974609375,-6709.8935546875,3001.68994140625,19759.3359375,-10909.240234375,-4711.1513671875,3610.451904296875,12209.4150390625,12790.3623046875,7015.0693359375,9907.0859375,6420.6123046875,-0.0,6166.29931640625,28320.154296875,32152.3359375,10104.9736328125,20189.28515625,15861.1923828125,-2051.1943359375,-5296.86572265625,6014.505859375,15311.2412109375,11666.615234375,14552.275390625,11403.560546875,1896.222412109375,2190.27197265625,11189.7783203125,0.0,4791.41845703125,8856.4560546875,8585.453125,7390.97607421875,12680.689453125,11006.1962890625,17166.93359375,-14478.3662109375,3527.00537109375,11339.1875,6961.02783203125,5239.6455078125,4368.623046875,0.0,10722.4775390625
6522.33740234375,3510.316162109375,16158.4228515625,6635.18896484375,18525.919921875,7052.42138671875,9581.248046875,14800.2314453125,6659.82568359375,9236.3359375,10344.982421875,8298.556640625,-3639.85693359375,0.0,12847.5830078125,13565.22265625,3027.121337890625,2996.126953125,5372.365234375,6975.33251953125,5527.33740234375,12494.7236328125,9553.4326171875,24512.609375,-290.075927734375,1447.2008056640625,6321.271484375,14939.30859375,-6705.919921875,2999.3056640625,19756.953125,-10917.9814453125,-4708.76708984375,3606.478515625,12207.03125,12785.59375,7007.9169921875,9902.318359375,6395.18115234375,-0.0,6175.041015625,28320.154296875,32148.361328125,10102.58984375,20180.54296875,15854.8359375,-2062.32080078125,-5334.21826171875,6010.5322265625,15306.47265625,11652.310546875,14550.685546875,11383.6923828125,1878.7384033203125,2165.63525390625,11192.162109375,0.0,4786.650390625,8842.9453125,8583.068359375,7386.20751953125,12674.33203125,10999.8388671875,17155.01171875,-14482.3388671875,3521.4423828125,11323.29296875,6937.98046875,5213.41943359375,4334.44970703125,0.0,10707.3779296875
6499.29052734375,3482.500732421875,16152.8583984375,6639.95751953125,18521.150390625,7040.50048828125,9567.7373046875,14786.720703125,6639.16259765625,9222.0302734375,10332.2666015625,8284.2509765625,-3640.651611328125,0.0,12822.9453125,13552.5068359375,3019.173828125,2985.00048828125,5358.85498046875,6957.84912109375,5520.18505859375,12484.3916015625,9541.51171875,24498.3046875,-300.40740966796875,1437.6640625,6312.529296875,14924.208984375,-6709.0986328125,2986.590087890625,19749.798828125,-10933.08203125,-4709.56201171875,3602.504638671875,12197.494140625,12773.6728515625,6994.40625,9887.21875,6379.2861328125,-0.0,6176.63037109375,28307.4375,32138.03125,10090.6689453125,20161.470703125,15840.5302734375,-2069.47314453125,-5327.8603515625,6007.353515625,15294.5517578125,11628.46875,14536.380859375,11359.0556640625,1840.5914306640625,2159.277587890625,11183.4208984375,0.0,4755.65576171875,8815.12890625,8573.5322265625,7374.28662109375,12660.0263671875,10983.1494140625,17134.34765625,-14489.4912109375,3510.316162109375,11301.8349609375,6930.033203125,5172.88818359375,4316.9658203125,0.0,10689.099609375
6509.6220703125,3474.553466796875,16148.0908203125,6666.18359375,18550.5546875,7062.75341796875,9593.9638671875,14804.2041015625,6666.978515625,9245.078125,10344.982421875,8297.7607421875,-3612.836181640625,0.0,12854.7353515625,13568.4013671875,3038.247314453125,3007.2529296875,5378.72314453125,6984.86962890625,5544.02685546875,12504.259765625,9565.353515625,24518.171875,-298.0232238769531,1460.711181640625,6341.13916015625,14947.2548828125,-6690.8203125,3009.63720703125,19770.46484375,-10911.6240234375,-4688.10400390625,3625.552001953125,12224.5146484375,12795.130859375,7019.04296875,9907.8818359375,6376.10791015625,-0.0,6203.6513671875,28326.51171875,32164.2578125,10109.7421875,20188.490234375,15861.1923828125,-2063.115478515625,-5284.150390625,6037.55322265625,15315.21484375,11661.052734375,14552.275390625,11387.666015625,1870.7911376953125,2204.5771484375,11208.8515625,0.0,4762.80810546875,8846.1240234375,8587.04296875,7394.15478515625,12679.89453125,11005.4013671875,17166.93359375,-14469.6240234375,3535.74755859375,11335.2138671875,6959.4384765625,5222.9560546875,4362.26513671875,0.0,10724.8623046875
6491.34326171875,3459.45361328125,16122.66015625,6675.72021484375,18546.58203125,7061.95849609375,9589.9892578125,14797.8466796875,6666.978515625,9239.5146484375,10333.85546875,8276.3037109375,-3616.809814453125,0.0,12859.50390625,13562.8388671875,3033.47900390625,3004.07421875,5375.5439453125,6983.2802734375,5540.052734375,12503.46484375,9558.201171875,24514.19921875,-319.48089599609375,1454.353271484375,6329.21826171875,14952.0234375,-6698.76708984375,3009.63720703125,19764.900390625,-10917.9814453125,-4695.2568359375,3627.93603515625,12218.9521484375,12791.951171875,7014.2744140625,9904.7021484375,6350.67626953125,-0.0,6197.2939453125,28330.484375,32157.103515625,10108.1533203125,20186.10546875,15855.630859375,-2094.904541015625,-5319.11865234375,6023.248046875,15316.8037109375,11664.2314453125,14548.3017578125,11383.6923828125,1846.154541015625,2206.16650390625,11194.546875,0.0,4734.1982421875,8851.6875,8582.2744140625,7379.05517578125,12675.1259765625,11003.017578125,17166.13671875,-14478.3662109375,3527.80029296875,11338.3935546875,6931.623046875,5242.82470703125,4347.16552734375,0.0,10724.0673828125
6475.44873046875,3476.142822265625,16117.8916015625,6691.61474609375,18535.455078125,7062.75341796875,9584.4267578125,14793.873046875,6663.00439453125,9233.951171875,10336.240234375,8268.3564453125,-3633.4990234375,0.0,12856.32421875,13558.0703125,3031.8896484375,3000.895263671875,5373.15966796875,6976.92236328125,5533.6953125,12505.0546875,9552.6376953125,24511.814453125,-296.43377685546875,1458.326904296875,6322.86083984375,14947.2548828125,-6701.1513671875,3002.484619140625,19762.515625,-10917.9814453125,-4706.3828125,3631.90966796875,12213.3896484375,12791.951171875,7008.71142578125,9900.7294921875,6375.31298828125,-0.0,6188.55126953125,28337.63671875,32144.38671875,10106.5634765625,20182.927734375,15850.0673828125,-2110.00439453125,-5335.0126953125,6008.94287109375,15325.5458984375,11660.2578125,14545.123046875,11386.87109375,1814.3653564453125,2187.093017578125,11185.8056640625,0.0,4731.01953125,8850.8916015625,8581.4794921875,7369.51806640625,12672.7421875,10999.0439453125,17161.369140625,-14483.1337890625,3516.674072265625,11336.0087890625,6927.64892578125,5230.90380859375,4340.8076171875,0.0,10712.94140625
6464.32275390625,3441.9697265625,16109.1484375,6693.9990234375,18534.66015625,7053.21630859375,9581.248046875,14788.3095703125,6655.0576171875,9228.388671875,10330.6767578125,8273.9189453125,-3641.4462890625,0.0,12855.529296875,13551.7119140625,3022.35302734375,2995.33203125,5366.80224609375,6968.97509765625,5528.9267578125,12496.3125,9549.458984375,24506.25,-291.6654052734375,1454.353271484375,6333.98681640625,14928.9765625,-6699.56201171875,2975.4638671875,19756.158203125,-10925.9287109375,-4710.3564453125,3620.783447265625,12209.4150390625,12784.798828125,7006.3271484375,9895.1650390625,6391.20703125,-0.0,6190.14111328125,28325.716796875,32145.9765625,10096.232421875,20177.365234375,15845.298828125,-2105.236083984375,-5342.96044921875,6020.0693359375,15308.857421875,11659.462890625,14537.970703125,11387.666015625,1867.6121826171875,2173.582763671875,11169.91015625,0.0,4762.80810546875,8844.53515625,8576.7109375,7366.33935546875,12665.5888671875,10992.6865234375,17151.83203125,-14485.5185546875,3499.98486328125,11334.4189453125,6945.92822265625,5226.93017578125,4346.37060546875,0.0,10704.994140625
6444.4541015625,3427.66455078125,16125.0439453125,6701.9462890625,18522.740234375,7044.47412109375,9577.2744140625,14788.3095703125,6660.6201171875,9222.8251953125,10325.1142578125,8265.177734375,-3640.651611328125,0.0,12864.2724609375,13552.5068359375,3015.9951171875,2988.974365234375,5362.03369140625,6971.359375,5522.5693359375,12489.955078125,9542.3056640625,24499.892578125,-304.38104248046875,1446.406005859375,6328.423828125,14925.0029296875,-6705.919921875,2965.132568359375,19750.595703125,-10940.234375,-4703.99853515625,3621.578125,12199.87890625,12776.8515625,7003.94287109375,9889.6025390625,6339.5498046875,-0.0,6172.6572265625,28320.154296875,32142.798828125,10089.8740234375,20178.953125,15842.9150390625,-2100.4677734375,-5393.0283203125,6020.0693359375,15292.9619140625,11668.205078125,14536.380859375,11355.876953125,1840.5914306640625,2179.145751953125,11166.7314453125,0.0,4764.39794921875,8846.1240234375,8576.7109375,7356.80224609375,12659.232421875,10989.5068359375,17155.01171875,-14496.6435546875,3492.832275390625,11343.9560546875,6921.29150390625,5262.69287109375,4320.939453125,0.0,10704.2001953125
6417.43310546875,3399.848876953125,16146.501953125,6633.599609375,18515.5859375,7034.9375,9578.8642578125,14792.283203125,6673.3359375,9226.0048828125,10316.3720703125,8255.640625,-3648.598876953125,0.0,12886.5244140625,13558.0703125,3008.842529296875,2980.232177734375,5360.4443359375,6977.716796875,5511.44287109375,12476.4443359375,9536.7431640625,24491.9453125,-322.6598205566406,1428.1273193359375,6332.3974609375,14928.181640625,-6723.40380859375,2959.5693359375,19738.673828125,-10939.4384765625,-4713.53515625,3602.504638671875,12191.931640625,12767.314453125,7003.94287109375,9885.62890625,6345.11328125,-0.0,6163.1201171875,28301.875,32141.208984375,10085.900390625,20187.697265625,15842.119140625,-2110.00439453125,-5406.53857421875,6004.96923828125,15286.6044921875,11689.6630859375,14541.943359375,11319.3193359375,1810.3917236328125,2168.814453125,11174.6787109375,0.0,4750.0927734375,8862.8134765625,8584.658203125,7344.88134765625,12653.66796875,10991.890625,17165.341796875,-14513.3330078125,3485.6796875,11366.2080078125,6879.96533203125,5311.9658203125,4297.09765625,0.0,10707.3779296875
6402.33349609375,3403.82275390625,16171.9326171875,6601.810546875,18533.865234375,7051.62646484375,9589.9892578125,14810.5625,6678.1044921875,9236.3359375,10329.0869140625,8281.8671875,-3632.70458984375,0.0,12879.3720703125,13575.5537109375,3027.121337890625,2996.921630859375,5375.5439453125,6986.45947265625,5528.1318359375,12490.7490234375,9553.4326171875,24509.4296875,-311.5335998535156,1451.1744384765625,6341.13916015625,14947.2548828125,-6699.56201171875,2980.232177734375,19755.36328125,-10915.5966796875,-4696.84619140625,3597.736328125,12208.62109375,12784.00390625,7015.86376953125,9903.11328125,6419.02294921875,-0.0,6181.39892578125,28316.974609375,32154.720703125,10101.794921875,20196.4375,15857.2197265625,-2077.42041015625,-5348.5234375,6019.2744140625,15308.857421875,11682.5107421875,14561.0166015625,11334.4189453125,1819.1337890625,2184.708740234375,11190.5732421875,0.0,4757.24560546875,8870.7607421875,8597.3740234375,7350.44482421875,12667.9736328125,11003.8115234375,17169.31640625,-14494.259765625,3506.342529296875,11358.2607421875,6886.3232421875,5288.1240234375,4306.63427734375,0.0,10710.556640625
6432.533203125,3492.832275390625,16152.8583984375,6640.75244140625,18548.169921875,7065.931640625,9592.3740234375,14816.125,6657.44140625,9244.283203125,10360.08203125,8306.5029296875,-3617.6044921875,0.0,12841.224609375,13580.322265625,3045.39990234375,3011.2265625,5382.69677734375,6980.10107421875,5545.6162109375,12505.0546875,9564.55859375,24522.146484375,-290.87066650390625,1469.4532470703125,6337.166015625,14957.5869140625,-6678.8994140625,3009.63720703125,19772.052734375,-10888.576171875,-4681.74609375,3616.809814453125,12224.5146484375,12800.693359375,7016.65869140625,9911.060546875,6448.427734375,-0.0,6203.6513671875,28328.896484375,32161.076171875,10115.3056640625,20186.10546875,15863.5771484375,-2044.8367919921875,-5280.9716796875,6030.40087890625,15323.9560546875,11644.36328125,14567.375,11375.7451171875,1916.8853759765625,2202.193115234375,11204.0830078125,0.0,4802.544921875,8823.0771484375,8598.16796875,7363.955078125,12683.8681640625,11004.607421875,17160.57421875,-14464.060546875,3538.92626953125,11316.935546875,6927.64892578125,5172.09375,4359.880859375,0.0,10721.68359375
6446.04345703125,3493.626953125,16063.8486328125,6647.10986328125,18529.892578125,7048.4482421875,9570.916015625,14785.92578125,6630.4208984375,9214.8779296875,10345.7763671875,8284.2509765625,-3626.3466796875,0.0,12814.9990234375,13551.7119140625,3023.1474609375,2992.153076171875,5360.4443359375,6949.9013671875,5525.74755859375,12488.365234375,9543.8955078125,24500.689453125,-317.0967102050781,1451.1744384765625,6319.681640625,14934.5400390625,-6702.7412109375,2988.974365234375,19750.595703125,-10913.212890625,-4716.71435546875,3610.451904296875,12203.8525390625,12780.8251953125,6993.61181640625,9885.62890625,6432.533203125,-0.0,6186.16748046875,28313.794921875,32138.82421875,10092.2587890625,20160.67578125,15836.5576171875,-2086.957275390625,-5328.6552734375,6010.5322265625,15304.8828125,11619.7275390625,14537.1748046875,11366.2080078125,1878.7384033203125,2185.503662109375,11179.447265625,0.0,4820.82373046875,8804.7978515625,8566.3798828125,7346.47119140625,12665.5888671875,10979.9697265625,17125.607421875,-14482.3388671875,3518.263671875,11293.8876953125,6934.8017578125,5131.5625,4340.01318359375,0.0,10689.099609375
6459.55419921875,3490.447998046875,16131.4013671875,6684.4619140625,18517.970703125,7043.6796875,9563.763671875,14777.18359375,6637.5732421875,9210.904296875,10339.4189453125,8271.53515625,-3631.114990234375,0.0,12822.9453125,13540.5859375,3019.173828125,2987.384765625,5354.08642578125,6949.10693359375,5516.2109375,12488.365234375,9536.7431640625,24493.53515625,-323.45452880859375,1449.5849609375,6299.81396484375,14921.82421875,-6711.48291015625,2971.490234375,19745.826171875,-10928.3134765625,-4718.3037109375,3623.96240234375,12194.3154296875,12776.8515625,6988.04833984375,9880.8603515625,6411.07568359375,-0.0,6167.888671875,28315.38671875,32130.87890625,10085.10546875,20158.291015625,15831.7890625,-2089.34130859375,-5368.3916015625,6004.96923828125,15292.16796875,11630.05859375,14526.0498046875,11359.8505859375,1861.25439453125,2169.609130859375,11167.5263671875,0.0,4781.8818359375,8814.3349609375,8561.611328125,7352.0341796875,12656.84765625,10975.9970703125,17127.990234375,-14495.849609375,3503.16357421875,11306.603515625,6968.97509765625,5180.8359375,4347.9599609375,0.0,10685.1259765625
6448.427734375,3475.34814453125,16174.31640625,6700.35693359375,18508.43359375,7037.32177734375,9557.40625,14763.6728515625,6643.93115234375,9207.7255859375,10322.73046875,8255.640625,-3647.80419921875,0.0,12837.2509765625,13528.6650390625,3009.63720703125,2977.053466796875,5345.3447265625,6948.3125,5505.0849609375,12480.41796875,9526.412109375,24486.3828125,-325.04400634765625,1435.27978515625,6298.22412109375,14914.671875,-6732.9404296875,2969.10595703125,19737.0859375,-10955.333984375,-4721.48291015625,3631.114990234375,12185.5732421875,12768.109375,6983.2802734375,9872.119140625,6295.04541015625,-0.0,6148.0205078125,28309.02734375,32122.134765625,10077.1591796875,20157.49609375,15823.0458984375,-2082.18896484375,-5358.85498046875,5985.8955078125,15287.3994140625,11642.7734375,14514.12890625,11335.2138671875,1845.35986328125,2159.277587890625,11164.34765625,0.0,4746.119140625,8824.666015625,8545.7158203125,7356.80224609375,12646.515625,10972.0234375,17139.1171875,-14506.9765625,3494.421630859375,11317.7294921875,6972.94873046875,5209.44580078125,4343.986328125,0.0,10688.3046875
6442.06982421875,3467.40087890625,16178.2890625,6620.8837890625,18491.744140625,7023.8115234375,9548.6640625,14757.3154296875,6640.75244140625,9204.546875,10313.193359375,8258.8193359375,-3668.46728515625,0.0,12822.1513671875,13523.1015625,2997.71630859375,2965.92724609375,5337.39697265625,6945.92822265625,5493.958984375,12462.93359375,9516.080078125,24477.640625,-321.0703430175781,1417.0010986328125,6296.634765625,14914.671875,-6739.29833984375,2969.90087890625,19725.1640625,-10951.359375,-4726.2509765625,3589.7890625,12173.65234375,12757.7783203125,6973.74365234375,9863.376953125,6337.9609375,-0.0,6133.71533203125,28287.568359375,32111.8046875,10070.80078125,20147.958984375,15817.484375,-2085.367919921875,-5338.19189453125,5989.86962890625,15281.8369140625,11623.7001953125,14506.9765625,11303.4248046875,1867.6121826171875,2161.661865234375,11166.7314453125,0.0,4707.97216796875,8822.2822265625,8536.974609375,7345.67626953125,12637.7744140625,10964.076171875,17139.1171875,-14518.1015625,3492.03759765625,11300.24609375,6925.2646484375,5187.193359375,4332.0654296875,0.0,10698.6357421875
6453.1962890625,3437.995849609375,16170.34375,6584.326171875,18500.486328125,7018.248046875,9548.6640625,14756.5205078125,6643.13671875,9204.546875,10314.7822265625,8265.177734375,-3675.619873046875,0.0,12826.919921875,13523.1015625,2998.510986328125,2965.92724609375,5338.19189453125,6947.517578125,5499.52197265625,12458.9609375,9516.875,24476.05078125,-319.48089599609375,1420.179931640625,6287.892578125,14907.51953125,-6734.52978515625,2969.10595703125,19724.369140625,-10934.6708984375,-4718.3037109375,3563.56298828125,12176.8310546875,12755.3935546875,6972.154296875,9864.966796875,6392.001953125,-0.0,6137.68896484375,28278.828125,32111.8046875,10067.6220703125,20147.958984375,15815.8935546875,-2082.18896484375,-5329.4501953125,5993.04833984375,15276.2724609375,11629.263671875,14506.1806640625,11322.498046875,1899.4013671875,2156.8935546875,11164.34765625,0.0,4677.7724609375,8824.666015625,8542.5380859375,7328.1923828125,12638.5693359375,10964.8701171875,17135.939453125,-14517.3076171875,3491.24267578125,11305.0146484375,6913.34375,5200.7041015625,4321.73388671875,0.0,10712.146484375
6459.55419921875,3456.274658203125,16138.5537109375,6575.58447265625,18488.56640625,7012.68505859375,9544.6904296875,14757.3154296875,6642.341796875,9193.419921875,10313.9873046875,8259.6142578125,-3656.54638671875,0.0,12837.2509765625,13525.486328125,2993.74267578125,2957.97998046875,5333.423828125,6939.56982421875,5489.98486328125,12451.0126953125,9510.517578125,24471.283203125,-329.8123779296875,1417.7957763671875,6285.5087890625,14894.802734375,-6732.9404296875,2964.337646484375,19718.8046875,-10940.234375,-4738.96630859375,3560.384033203125,12169.6787109375,12749.0361328125,6968.18017578125,9860.1982421875,6425.380859375,-0.0,6132.1259765625,28274.05859375,32104.65234375,10061.263671875,20149.548828125,15811.919921875,-2090.930908203125,-5338.19189453125,5962.0537109375,15269.916015625,11640.3896484375,14509.3603515625,11339.982421875,1893.8382568359375,2150.53564453125,11158.7841796875,0.0,4731.81396484375,8827.0498046875,8549.6904296875,7307.529296875,12634.5947265625,10960.1025390625,17117.658203125,-14518.8974609375,3484.090087890625,11313.755859375,6893.47607421875,5228.51953125,4270.07666015625,0.0,10678.7685546875
6480.216796875,3496.010986328125,16118.6845703125,6589.8896484375,18490.94921875,7024.6064453125,9548.6640625,14767.646484375,6637.5732421875,9189.4462890625,10317.9619140625,8265.9716796875,-3653.3671875,0.0,12822.9453125,13534.228515625,2999.3056640625,2966.7216796875,5341.37109375,6934.8017578125,5496.34326171875,12459.7548828125,9516.080078125,24480.0234375,-331.4018249511719,1428.1273193359375,6289.48193359375,14907.51953125,-6728.96728515625,2971.490234375,19725.95703125,-10930.697265625,-4734.9931640625,3573.89453125,12175.2421875,12758.572265625,6971.359375,9866.5556640625,6404.7177734375,-0.0,6143.251953125,28289.953125,32109.419921875,10070.0068359375,20148.75390625,15815.8935546875,-2083.7783203125,-5368.3916015625,5968.412109375,15273.09375,11627.673828125,14519.69140625,11352.6982421875,1862.049072265625,2141.79345703125,11165.9365234375,0.0,4770.755859375,8814.3349609375,8556.048828125,7326.60302734375,12640.953125,10961.69140625,17107.328125,-14511.744140625,3493.626953125,11300.24609375,6883.14453125,5200.7041015625,4290.73974609375,0.0,10662.873046875
6506.44287109375,3527.00537109375,16138.5537109375,6612.14208984375,18515.5859375,7044.47412109375,9561.3798828125,14770.8251953125,6639.16259765625,9199.7783203125,10334.6513671875,8282.6611328125,-3664.49365234375,0.0,12814.9990234375,13535.8173828125,3018.379150390625,2987.384765625,5355.67626953125,6941.15966796875,5517.005859375,12479.623046875,9534.359375,24495.125,-305.17578125,1441.6376953125,6303.787109375,14923.4130859375,-6720.22509765625,2985.795166015625,19745.826171875,-10916.392578125,-4719.0986328125,3594.5576171875,12196.7001953125,12776.8515625,6986.45947265625,9880.06640625,6409.486328125,-0.0,6165.50439453125,28309.02734375,32129.287109375,10086.6953125,20154.318359375,15824.63671875,-2065.49951171875,-5332.62890625,6022.453125,15292.16796875,11618.931640625,14520.486328125,11372.56640625,1865.22802734375,2163.251220703125,11177.857421875,0.0,4757.24560546875,8805.5927734375,8545.7158203125,7362.36572265625,12656.84765625,10972.8173828125,17118.453125,-14498.2333984375,3510.316162109375,11289.9140625,6950.6962890625,5155.40478515625,4350.34423828125,0.0,10669.2314453125
6501.6748046875,3541.310546875,16158.4228515625,6635.98388671875,18529.095703125,7048.4482421875,9572.505859375,14770.8251953125,6659.82568359375,9218.056640625,10342.59765625,8286.6357421875,-3664.49365234375,0.0,12834.8662109375,13535.0224609375,3025.53173828125,2996.126953125,5364.41796875,6959.4384765625,5524.953125,12489.955078125,9546.2802734375,24503.865234375,-290.075927734375,1441.6376953125,6311.73486328125,14919.4404296875,-6713.8671875,2994.537353515625,19752.18359375,-10911.6240234375,-4710.3564453125,3608.862548828125,12205.44140625,12785.59375,6999.1748046875,9887.21875,6438.0966796875,-0.0,6164.70947265625,28309.822265625,32142.001953125,10090.6689453125,20169.416015625,15830.1982421875,-2063.91015625,-5300.83984375,6037.55322265625,15300.91015625,11639.5947265625,14519.69140625,11379.71875,1900.196044921875,2179.9404296875,11182.6259765625,0.0,4734.9931640625,8829.4345703125,8541.7431640625,7379.05517578125,12664.794921875,10985.5341796875,17143.091796875,-14486.3125,3516.674072265625,11312.1669921875,6950.6962890625,5195.140625,4358.29150390625,0.0,10684.3310546875
6484.9853515625,3522.237060546875,16152.0634765625,6643.93115234375,18532.275390625,7051.62646484375,9577.2744140625,14779.5673828125,6663.79931640625,9227.59375,10339.4189453125,8277.0986328125,-3641.4462890625,0.0,12837.2509765625,13544.5595703125,3027.121337890625,2997.71630859375,5370.77587890625,6968.97509765625,5525.74755859375,12493.1337890625,9549.458984375,24507.841796875,-290.075927734375,1444.816650390625,6312.529296875,14921.029296875,-6705.919921875,2989.76904296875,19755.36328125,-10912.41796875,-4712.740234375,3603.29931640625,12206.2373046875,12788.7724609375,7001.55859375,9896.7548828125,6434.91748046875,-0.0,6167.09375,28317.76953125,32143.59375,10096.232421875,20174.98046875,15841.326171875,-2064.704833984375,-5342.16552734375,6030.40087890625,15301.7041015625,11642.7734375,14530.0224609375,11377.3349609375,1892.248779296875,2179.145751953125,11185.009765625,0.0,4741.3505859375,8827.0498046875,8560.021484375,7380.64453125,12669.5634765625,10992.6865234375,17155.8046875,-14484.72265625,3512.700439453125,11316.935546875,6941.9541015625,5197.52490234375,4352.728515625,0.0,10703.404296875
6481.80615234375,3511.90576171875,16156.83203125,6660.6201171875,18541.8125,7064.34228515625,9585.2216796875,14787.5146484375,6671.74658203125,9231.5673828125,10343.392578125,8281.8671875,-3616.809814453125,0.0,12847.5830078125,13553.3017578125,3032.684326171875,3007.2529296875,5377.1337890625,6977.716796875,5536.87451171875,12504.259765625,9557.40625,24515.787109375,-293.2548522949219,1458.326904296875,6319.681640625,14934.5400390625,-6693.9990234375,2985.795166015625,19763.310546875,-10909.240234375,-4696.05126953125,3614.42578125,12215.7734375,12796.7197265625,7010.30126953125,9905.4970703125,6378.49169921875,-0.0,6188.55126953125,28332.07421875,32153.12890625,10103.384765625,20182.927734375,15849.271484375,-2056.757568359375,-5331.03955078125,6031.1953125,15312.8310546875,11653.10546875,14535.5859375,11383.6923828125,1888.275146484375,2191.861328125,11194.546875,0.0,4742.9404296875,8839.7666015625,8566.3798828125,7387.00244140625,12679.099609375,10999.8388671875,17164.548828125,-14473.59765625,3519.05810546875,11325.6767578125,6933.21240234375,5204.677734375,4359.08642578125,0.0,10710.556640625
6486.57470703125,3502.368896484375,16160.806640625,6683.66748046875,18548.96484375,7073.08447265625,9593.1689453125,14791.48828125,6686.84619140625,9238.7197265625,10348.1611328125,8290.6083984375,-3606.478515625,0.0,12861.0927734375,13557.2744140625,3042.22119140625,3015.9951171875,5386.67041015625,6988.84326171875,5550.384765625,12513.796875,9564.55859375,24524.53125,-298.8179626464844,1470.2479248046875,6322.86083984375,14939.30859375,-6690.025390625,2991.3583984375,19773.640625,-10905.265625,-4673.798828125,3631.90966796875,12225.310546875,12804.6669921875,7017.45361328125,9911.8544921875,6374.51806640625,-0.0,6199.677734375,28343.99609375,32158.69140625,10112.1259765625,20192.46484375,15857.2197265625,-2046.426025390625,-5304.0185546875,6031.990234375,15319.1884765625,11665.8212890625,14540.3544921875,11395.61328125,1880.327880859375,2201.398193359375,11199.3154296875,0.0,4750.0927734375,8859.634765625,8577.505859375,7386.20751953125,12687.046875,11010.96484375,17174.87890625,-14467.2392578125,3529.3896484375,11339.982421875,6949.10693359375,5240.4404296875,4376.5703125,0.0,10728.0419921875
6473.064453125,3496.010986328125,16163.984375,6686.84619140625,18543.40234375,7064.34228515625,9587.60546875,14791.48828125,6677.3095703125,9237.92578125,10334.6513671875,8289.01953125,-3622.372802734375,0.0,12853.9404296875,13557.2744140625,3039.042236328125,3009.63720703125,5380.3125,6981.69091796875,5544.8212890625,12509.8232421875,9557.40625,24518.966796875,-293.2548522949219,1461.505859375,6318.09228515625,14935.333984375,-6697.97265625,2985.00048828125,19766.48828125,-10917.1865234375,-4689.693359375,3633.4990234375,12220.5419921875,12799.8994140625,7011.095703125,9904.7021484375,6437.3017578125,-0.0,6200.47216796875,28335.251953125,32150.74609375,10107.3583984375,20185.3125,15853.2470703125,-2062.32080078125,-5327.06591796875,6026.4267578125,15312.03515625,11661.052734375,14540.3544921875,11367.7978515625,1873.969970703125,2183.11962890625,11192.162109375,0.0,4769.16650390625,8844.53515625,8572.7373046875,7374.28662109375,12682.2783203125,11004.607421875,17165.341796875,-14475.9814453125,3516.674072265625,11333.625,6961.02783203125,5234.876953125,4380.5439453125,0.0,10719.298828125
6445.2490234375,3482.500732421875,16159.2158203125,6653.4677734375,18525.919921875,7050.03759765625,9575.6845703125,14776.388671875,6663.00439453125,9219.646484375,10327.498046875,8278.6875,-3631.90966796875,0.0,12850.76171875,13540.5859375,3024.737060546875,2995.33203125,5366.80224609375,6966.5908203125,5528.1318359375,12493.927734375,9545.4853515625,24505.45703125,-288.4864807128906,1444.816650390625,6318.09228515625,14922.619140625,-6708.3037109375,2969.10595703125,19752.18359375,-10926.7236328125,-4700.02490234375,3609.6572265625,12205.44140625,12786.388671875,7000.76416015625,9888.80859375,6419.02294921875,-0.0,6181.39892578125,28317.76953125,32137.234375,10092.2587890625,20174.185546875,15836.5576171875,-2075.8310546875,-5350.90771484375,5997.81640625,15299.3203125,11654.6943359375,14524.4599609375,11335.2138671875,1832.6441650390625,2140.998779296875,11172.294921875,0.0,4734.1982421875,8828.6396484375,8552.07421875,7366.33935546875,12667.9736328125,10989.5068359375,17148.65234375,-14495.0556640625,3498.395263671875,11329.650390625,6925.2646484375,5230.90380859375,4347.9599609375,0.0,10691.4833984375
6437.3017578125,3460.248291015625,16132.1962890625,6663.79931640625,18515.5859375,7047.6533203125,9565.353515625,14768.44140625,6651.87841796875,9207.7255859375,10318.755859375,8272.330078125,-3616.01513671875,0.0,12832.482421875,13531.84375,3019.96875,2989.76904296875,5361.23876953125,6955.46484375,5520.18505859375,12489.1591796875,9538.3330078125,24498.3046875,-309.94415283203125,1440.843017578125,6311.73486328125,14925.7978515625,-6697.97265625,2970.695556640625,19748.2109375,-10930.697265625,-4707.97216796875,3611.246826171875,12198.2890625,12782.4140625,6991.2275390625,9883.244140625,6394.38623046875,-0.0,6165.50439453125,28316.1796875,32129.287109375,10088.2841796875,20163.85546875,15827.0205078125,-2086.957275390625,-5358.060546875,5976.35888671875,15300.91015625,11636.416015625,14515.7177734375,11328.0615234375,1836.6177978515625,2142.58837890625,11164.34765625,0.0,4703.20361328125,8816.71875,8544.921875,7359.9814453125,12661.6162109375,10981.5595703125,17135.939453125,-14501.412109375,3498.395263671875,11312.1669921875,6920.49658203125,5211.03515625,4332.0654296875,0.0,10674.7939453125
6464.32275390625,3450.71142578125,16124.248046875,6697.97265625,18531.48046875,7059.57421875,9575.6845703125,14781.9521484375,6664.59423828125,9218.8515625,10333.0615234375,8285.83984375,-3610.451904296875,0.0,12838.8408203125,13543.7646484375,3034.27392578125,3004.07421875,5371.57080078125,6965.7958984375,5536.87451171875,12500.2861328125,9551.8427734375,24512.609375,-313.1230773925781,1451.9691162109375,6316.5029296875,14938.513671875,-6687.64111328125,2986.590087890625,19762.515625,-10925.1337890625,-4692.87255859375,3628.730712890625,12213.3896484375,12794.3349609375,7000.76416015625,9896.7548828125,6378.49169921875,-0.0,6183.783203125,28326.51171875,32142.798828125,10103.384765625,20174.98046875,15838.94140625,-2066.29443359375,-5338.19189453125,6002.5849609375,15315.21484375,11643.5693359375,14526.84375,11356.6708984375,1842.9755859375,2174.37744140625,11181.037109375,0.0,4713.53515625,8831.0244140625,8557.6376953125,7359.1865234375,12674.33203125,10991.890625,17147.064453125,-14491.8759765625,3512.700439453125,11318.5244140625,6930.033203125,5215.00927734375,4340.01318359375,0.0,10689.89453125
6478.62744140625,3446.738037109375,16125.8369140625,6689.23046875,18545.78515625,7063.5478515625,9588.400390625,14793.873046875,6679.69384765625,9229.9775390625,10344.1875,8289.814453125,-3642.2412109375,0.0,12863.4765625,13558.0703125,3042.22119140625,3013.61083984375,5381.90234375,6977.716796875,5551.17919921875,12509.8232421875,9562.96875,24521.3515625,-301.9968566894531,1459.1217041015625,6333.98681640625,14933.7451171875,-6709.0986328125,2996.921630859375,19773.640625,-10917.9814453125,-4682.541015625,3635.088623046875,12225.310546875,12802.283203125,7015.0693359375,9907.0859375,6376.90234375,-0.0,6206.83056640625,28334.458984375,32157.8984375,10108.1533203125,20187.697265625,15850.8623046875,-2072.652099609375,-5328.6552734375,6025.63232421875,15312.03515625,11666.615234375,14541.1494140625,11374.15625,1850.128173828125,2199.808837890625,11190.5732421875,0.0,4754.861328125,8846.9189453125,8575.1220703125,7358.39208984375,12684.6630859375,11004.607421875,17160.57421875,-14483.9287109375,3522.237060546875,11342.3662109375,6938.775390625,5252.361328125,4341.6025390625,0.0,10704.2001953125
6473.859375,3449.916748046875,16173.521484375,6672.541015625,18538.6328125,7059.57421875,9580.453125,14797.0517578125,6660.6201171875,9218.8515625,10338.6240234375,8292.9921875,-3652.57275390625,0.0,12839.634765625,13562.04296875,3043.810546875,3012.021240234375,5378.72314453125,6962.6171875,5547.20556640625,12505.8486328125,9559.791015625,24518.171875,-289.2812194824219,1461.505859375,6326.833984375,14937.71875,-6711.48291015625,3002.484619140625,19770.46484375,-10910.828125,-4677.7724609375,3627.93603515625,12222.130859375,12799.103515625,7008.71142578125,9903.908203125,6392.001953125,-0.0,6199.677734375,28328.099609375,32150.74609375,10106.5634765625,20176.568359375,15846.09375,-2077.42041015625,-5309.58154296875,6026.4267578125,15306.47265625,11644.36328125,14545.123046875,11371.771484375,1886.6856689453125,2188.6826171875,11194.546875,0.0,4784.26611328125,8823.8720703125,8580.6845703125,7360.7763671875,12680.689453125,10995.0703125,17142.294921875,-14486.3125,3527.80029296875,11319.3193359375,6930.828125,5199.9091796875,4321.73388671875,0.0,10703.404296875
6481.01171875,3467.40087890625,16171.13671875,6628.03662109375,18527.5078125,7057.98486328125,9572.505859375,14800.2314453125,6654.2626953125,9218.056640625,10334.6513671875,8294.58203125,-3643.83056640625,0.0,12827.7138671875,13565.22265625,3031.0947265625,3002.484619140625,5373.15966796875,6959.4384765625,5532.10595703125,12495.517578125,9551.0478515625,24512.609375,-301.2021484375,1461.505859375,6314.11865234375,14941.6923828125,-6701.1513671875,2994.537353515625,19757.748046875,-10911.6240234375,-4695.2568359375,3607.273193359375,12211.0048828125,12793.541015625,6996.79052734375,9899.93359375,6397.5654296875,-0.0,6179.8095703125,28324.921875,32139.6171875,10104.9736328125,20167.033203125,15842.9150390625,-2069.47314453125,-5330.24462890625,6012.12158203125,15307.267578125,11633.2373046875,14548.3017578125,11364.619140625,1920.0643310546875,2176.76171875,11191.3681640625,0.0,4782.6767578125,8819.8974609375,8587.04296875,7360.7763671875,12674.33203125,10989.5068359375,17140.70703125,-14495.0556640625,3520.647705078125,11307.3984375,6908.57568359375,5193.5517578125,4309.0185546875,0.0,10703.404296875
6477.0380859375,3482.500732421875,16117.095703125,6588.30029296875,18522.740234375,7053.21630859375,9572.505859375,14796.2568359375,6655.0576171875,9219.646484375,10329.8828125,8285.0458984375,-3652.57275390625,0.0,12831.6875,13562.04296875,3019.173828125,2996.126953125,5369.9814453125,6960.2333984375,5526.54248046875,12486.775390625,9546.2802734375,24506.25,-307.5599670410156,1455.9427490234375,6313.32421875,14937.71875,-6708.3037109375,2983.4111328125,19749.798828125,-10923.544921875,-4705.587890625,3590.583740234375,12207.8251953125,12786.388671875,6994.40625,9894.37109375,6375.31298828125,-0.0,6178.22021484375,28320.947265625,32136.439453125,10099.4111328125,20166.23828125,15842.119140625,-2094.904541015625,-5344.5498046875,6000.99560546875,15302.4990234375,11636.416015625,14545.123046875,11363.82421875,1917.68017578125,2184.708740234375,11181.8310546875,0.0,4777.11328125,8821.4873046875,8577.505859375,7363.16064453125,12667.9736328125,10988.7119140625,17137.52734375,-14499.0283203125,3507.931884765625,11309.783203125,6926.0595703125,5207.8564453125,4320.14453125,0.0,10699.431640625
6468.2958984375,3507.13720703125,16116.30078125,6616.11572265625,18544.197265625,7060.369140625,9583.6328125,14797.0517578125,6665.388671875,9222.8251953125,10345.7763671875,8295.376953125,-3657.341064453125,0.0,12845.1982421875,13562.8388671875,3032.684326171875,3008.842529296875,5378.72314453125,6964.20654296875,5542.43701171875,12497.90234375,9560.5849609375,24515.787109375,-283.7181091308594,1464.684814453125,6330.01318359375,14943.2822265625,-6708.3037109375,2991.3583984375,19763.310546875,-10909.240234375,-4689.693359375,3608.862548828125,12224.5146484375,12796.7197265625,7008.71142578125,9901.5234375,6378.49169921875,-0.0,6213.98291015625,28323.33203125,32152.3359375,10106.5634765625,20175.775390625,15845.298828125,-2110.00439453125,-5279.38232421875,6019.2744140625,15311.2412109375,11649.92578125,14545.91796875,11382.1025390625,1875.5594482421875,2206.16650390625,11192.162109375,0.0,4792.21337890625,8835.79296875,8570.353515625,7371.107421875,12679.099609375,10997.455078125,17139.1171875,-14479.955078125,3518.263671875,11324.087890625,6922.880859375,5215.8037109375,4326.50244140625,0.0,10689.89453125
6477.8330078125,3520.647705078125,16175.9052734375,6677.3095703125,18546.58203125,7069.90576171875,9583.6328125,14797.0517578125,6665.388671875,9223.6201171875,10353.724609375,8308.0927734375,-3646.21484375,0.0,12843.6083984375,13562.8388671875,3045.39990234375,3013.61083984375,5383.49169921875,6966.5908203125,5547.20556640625,12506.64453125,9563.763671875,24520.5546875,-277.36029052734375,1475.0162353515625,6331.6025390625,14951.2294921875,-6705.12548828125,3000.895263671875,19769.66796875,-10898.9072265625,-4682.541015625,3634.293701171875,12227.6943359375,12803.8720703125,7010.30126953125,9907.0859375,6402.33349609375,-0.0,6202.8564453125,28328.896484375,32153.923828125,10113.7158203125,20175.775390625,15845.298828125,-2066.29443359375,-5255.54052734375,6023.248046875,15324.751953125,11646.748046875,14547.5068359375,11380.513671875,1879.533203125,2214.114013671875,11206.4677734375,0.0,4793.802734375,8833.408203125,8563.201171875,7378.26025390625,12683.07421875,10999.8388671875,17140.70703125,-14467.2392578125,3530.979248046875,11321.7041015625,6912.54931640625,5212.625,4329.681640625,0.0,10683.5361328125
6478.62744140625,3481.705810546875,16187.0322265625,6701.1513671875,18529.892578125,7064.34228515625,9571.7119140625,14787.5146484375,6654.2626953125,9216.4677734375,10344.982421875,8296.171875,-3650.983154296875,0.0,12827.7138671875,13549.328125,3035.068603515625,3002.484619140625,5373.95458984375,6957.84912109375,5531.31103515625,12500.2861328125,9551.8427734375,24510.224609375,-290.87066650390625,1470.2479248046875,6314.9130859375,14940.8974609375,-6715.45654296875,2994.537353515625,19758.54296875,-10914.0078125,-4693.6669921875,3627.141357421875,12211.7998046875,12791.951171875,6999.1748046875,9896.7548828125,6422.20166015625,-0.0,6172.6572265625,28328.099609375,32138.82421875,10104.1796875,20164.6484375,15838.146484375,-2044.8367919921875,-5291.30322265625,5997.02197265625,15316.009765625,11630.8525390625,14534.791015625,11366.2080078125,1884.301513671875,2192.65625,11201.69921875,0.0,4754.861328125,8817.513671875,8556.048828125,7367.92919921875,12670.357421875,10989.5068359375,17131.962890625,-14482.3388671875,3523.031982421875,11305.0146484375,6921.29150390625,5192.7568359375,4338.42333984375,0.0,10685.1259765625
6490.548828125,3453.890625,16175.9052734375,6712.27783203125,18528.302734375,7068.31591796875,9571.7119140625,14786.720703125,6657.44140625,9217.2626953125,10343.392578125,8284.2509765625,-3640.651611328125,0.0,12830.8935546875,13549.328125,3033.47900390625,3003.279541015625,5373.15966796875,6960.2333984375,5530.51611328125,12505.0546875,9551.0478515625,24510.224609375,-297.2284851074219,1471.0426025390625,6314.11865234375,14942.486328125,-6713.072265625,2996.921630859375,19758.54296875,-10917.1865234375,-4692.87255859375,3633.4990234375,12210.2099609375,12795.130859375,6998.38037109375,9896.7548828125,6412.6650390625,-0.0,6168.68359375,28339.228515625,32137.234375,10106.5634765625,20167.033203125,15839.7353515625,-2044.0418701171875,-5344.5498046875,5985.8955078125,15318.3935546875,11634.826171875,14533.2021484375,11370.9765625,1836.6177978515625,2185.503662109375,11203.2890625,0.0,4730.224609375,8819.103515625,8560.021484375,7368.7236328125,12670.357421875,10989.5068359375,17134.34765625,-14485.5185546875,3519.852783203125,11310.5771484375,6924.47021484375,5199.1142578125,4347.9599609375,0.0,10693.0732421875
6469.0908203125,3419.717041015625,16144.1171875,6702.7412109375,18524.328125,7065.931640625,9569.3271484375,14778.7734375,6660.6201171875,9210.904296875,10333.0615234375,8259.6142578125,-3632.70458984375,0.0,12841.224609375,13542.9697265625,3031.8896484375,2998.510986328125,5369.1865234375,6957.05419921875,5529.7216796875,12505.8486328125,9547.07421875,24507.044921875,-317.8914489746094,1466.2742919921875,6310.93994140625,14934.5400390625,-6713.072265625,2987.384765625,19756.158203125,-10921.1611328125,-4700.02490234375,3634.293701171875,12208.62109375,12793.541015625,6994.40625,9893.576171875,6425.380859375,-0.0,6177.42529296875,28350.353515625,32135.646484375,10099.4111328125,20167.033203125,15833.3779296875,-2072.652099609375,-5436.73828125,5980.3330078125,15316.8037109375,11645.158203125,14526.84375,11360.6455078125,1808.80224609375,2183.9140625,11192.162109375,0.0,4704.79345703125,8831.0244140625,8555.2529296875,7361.57080078125,12666.384765625,10986.328125,17135.939453125,-14487.107421875,3507.13720703125,11320.1142578125,6914.93359375,5233.28759765625,4330.47607421875,0.0,10680.3583984375
6457.96435546875,3304.4814453125,16136.96484375,6719.4306640625,18539.4296875,7074.67431640625,9574.890625,14781.1572265625,6662.2099609375,9217.2626953125,10337.830078125,8265.177734375,-3622.372802734375,0.0,12834.072265625,13543.7646484375,3050.963134765625,3007.2529296875,5377.92822265625,6962.6171875,5544.8212890625,12519.359375,9555.81640625,24514.994140625,-330.6070861816406,1482.1688232421875,6313.32421875,14934.5400390625,-6700.35693359375,2998.510986328125,19768.873046875,-10898.11328125,-4692.07763671875,3650.1884765625,12222.130859375,12804.6669921875,6999.9697265625,9899.1396484375,6441.27490234375,-0.0,6213.98291015625,28361.478515625,32145.18359375,10104.9736328125,20171.0078125,15838.94140625,-2076.625732421875,-5397.796875,5981.12744140625,15320.7783203125,11638.0048828125,14529.228515625,11365.4140625,1813.5706787109375,2199.808837890625,11185.8056640625,0.0,4714.330078125,8827.0498046875,8556.8427734375,7375.8759765625,12675.921875,10992.6865234375,17140.70703125,-14475.9814453125,3516.674072265625,11310.5771484375,6953.875,5215.8037109375,4342.39697265625,0.0,10685.1259765625
6447.63330078125,3314.81298828125,16159.2158203125,6713.072265625,18538.6328125,7066.7265625,9576.4794921875,14771.62109375,6661.4150390625,9216.4677734375,10344.1875,8289.814453125,-3617.6044921875,0.0,12841.224609375,13536.6123046875,3055.7314453125,3006.458251953125,5377.1337890625,6963.41162109375,5543.23193359375,12516.1806640625,9556.611328125,24512.609375,-312.3283386230469,1471.0426025390625,6320.4765625,14923.4130859375,-6697.177734375,2993.74267578125,19771.2578125,-10892.55078125,-4684.13037109375,3658.1357421875,12221.3359375,12801.48828125,7002.353515625,9895.9609375,6406.30712890625,-0.0,6189.34619140625,28340.81640625,32148.361328125,10100.205078125,20173.390625,15835.76171875,-2059.141845703125,-5287.3291015625,5994.63818359375,15309.6513671875,11647.5419921875,14521.28125,11370.9765625,1858.8701171875,2202.98779296875,11177.857421875,0.0,4734.9931640625,8829.4345703125,8549.6904296875,7375.08154296875,12674.33203125,10990.3017578125,17147.064453125,-14479.955078125,3512.700439453125,11318.5244140625,6970.564453125,5205.47265625,4354.318359375,0.0,10697.046875
6468.2958984375,3485.6796875,16189.4169921875,6682.078125,18548.169921875,7061.16357421875,9582.8369140625,14774.7998046875,6670.95166015625,9223.6201171875,10346.572265625,8300.1455078125,-3611.246826171875,0.0,12849.966796875,13541.380859375,3054.936767578125,3009.63720703125,5381.107421875,6970.564453125,5548.79541015625,12509.0283203125,9560.5849609375,24511.814453125,-289.2812194824219,1465.4794921875,6318.88720703125,14921.029296875,-6690.8203125,2990.563720703125,19771.2578125,-10886.1923828125,-4667.44091796875,3645.420166015625,12225.310546875,12799.8994140625,7007.9169921875,9898.3447265625,6388.02880859375,-0.0,6194.11474609375,28325.716796875,32153.923828125,10101.0009765625,20178.953125,15838.146484375,-2052.783935546875,-5248.3876953125,5994.63818359375,15307.267578125,11657.0791015625,14526.0498046875,11374.15625,1905.7591552734375,2192.65625,11180.2412109375,0.0,4762.013671875,8841.35546875,8557.6376953125,7385.41259765625,12676.7158203125,10994.275390625,17159.78125,-14475.9814453125,3515.08447265625,11329.650390625,6947.517578125,5234.08251953125,4357.49658203125,0.0,10713.736328125
6490.548828125,3593.7626953125,16174.31640625,6656.646484375,18532.275390625,7058.779296875,9573.30078125,14777.18359375,6654.2626953125,9218.056640625,10345.7763671875,8297.7607421875,-3614.42578125,0.0,12824.53515625,13540.5859375,3046.19482421875,3004.86865234375,5374.74951171875,6959.4384765625,5544.8212890625,12501.080078125,9551.8427734375,24508.634765625,-276.5655517578125,1464.684814453125,6304.58203125,14923.4130859375,-6688.43603515625,2987.384765625,19766.48828125,-10881.423828125,-4669.03076171875,3620.783447265625,12217.3623046875,12794.3349609375,6997.58544921875,9893.576171875,6382.46533203125,-0.0,6190.935546875,28315.38671875,32138.03125,10100.205078125,20166.23828125,15834.1728515625,-2068.6787109375,-5259.513671875,5999.40625,15304.0888671875,11629.263671875,14526.0498046875,11377.3349609375,1935.9588623046875,2189.477294921875,11179.447265625,0.0,4773.14013671875,8813.5400390625,8558.4326171875,7390.97607421875,12669.5634765625,10989.5068359375,17139.912109375,-14475.1865234375,3515.08447265625,11301.8349609375,6952.28564453125,5185.60400390625,4355.11279296875,0.0,10697.841796875
6503.26416015625,3610.451904296875,16183.0576171875,6638.3681640625,18539.4296875,7069.11083984375,9584.4267578125,14789.8984375,6660.6201171875,9224.4150390625,10359.287109375,8308.8876953125,-3619.98876953125,0.0,12838.0458984375,13550.91796875,3052.552490234375,3012.021240234375,5385.0810546875,6967.3857421875,5548.79541015625,12508.2333984375,9560.5849609375,24518.171875,-259.0815124511719,1475.0162353515625,6330.01318359375,14936.1298828125,-6686.84619140625,2997.71630859375,19773.640625,-10879.0400390625,-4674.59326171875,3620.783447265625,12224.5146484375,12802.283203125,7007.9169921875,9903.11328125,6446.83837890625,-0.0,6198.08837890625,28326.51171875,32147.568359375,10109.7421875,20177.365234375,15843.7099609375,-2043.2471923828125,-5263.4873046875,6008.94287109375,15317.599609375,11645.158203125,14538.7646484375,11395.61328125,1953.44287109375,2194.24560546875,11185.8056640625,0.0,4782.6767578125,8821.4873046875,8568.763671875,7395.744140625,12677.5107421875,10999.0439453125,17143.884765625,-14468.8291015625,3524.621337890625,11317.7294921875,6963.41162109375,5182.4248046875,4360.67578125,0.0,10698.6357421875
6492.1376953125,3590.583740234375,16177.49609375,6652.67333984375,18550.5546875,7075.46875,9591.5791015625,14803.4091796875,6678.8994140625,9237.92578125,10364.0556640625,8317.6298828125,-3633.4990234375,0.0,12861.8876953125,13569.1953125,3054.936767578125,3019.96875,5393.0283203125,6982.4853515625,5555.15283203125,12515.3857421875,9568.5322265625,24525.32421875,-260.6709899902344,1478.989990234375,6341.13916015625,14949.6396484375,-6690.8203125,3002.484619140625,19778.41015625,-10879.0400390625,-4675.38818359375,3625.552001953125,12230.873046875,12808.640625,7018.248046875,9912.650390625,6474.65380859375,-0.0,6210.80419921875,28335.251953125,32157.8984375,10120.869140625,20190.080078125,15856.4248046875,-2026.557861328125,-5281.7666015625,6016.095703125,15323.9560546875,11667.4111328125,14554.66015625,11399.5869140625,1955.8270263671875,2205.371826171875,11200.9052734375,0.0,4800.16064453125,8856.4560546875,8584.658203125,7388.591796875,12687.8427734375,11010.169921875,17161.369140625,-14464.060546875,3534.952880859375,11341.572265625,6968.18017578125,5223.7509765625,4365.4443359375,0.0,10716.12109375
6479.421875,3563.56298828125,16194.978515625,6659.03076171875,18548.96484375,7080.23681640625,9593.9638671875,14812.9462890625,6685.2568359375,9243.48828125,10364.849609375,8317.6298828125,-3639.062255859375,0.0,12869.8349609375,13577.9384765625,3056.526123046875,3019.173828125,5394.61767578125,6988.04833984375,5555.94775390625,12516.9755859375,9567.7373046875,24528.50390625,-274.9761047363281,1478.1951904296875,6339.5498046875,14959.17578125,-6694.7939453125,3012.816162109375,19779.205078125,-10885.3974609375,-4662.67236328125,3629.525390625,12228.4892578125,12811.8203125,7019.04296875,9916.623046875,6415.84375,-0.0,6198.8828125,28338.431640625,32157.103515625,10126.431640625,20192.46484375,15861.1923828125,-2024.1737060546875,-5294.48193359375,6014.505859375,15329.5205078125,11675.357421875,14562.6064453125,11391.6396484375,1932.7799072265625,2205.371826171875,11213.6201171875,0.0,4813.6708984375,8862.0185546875,8594.1953125,7379.05517578125,12688.63671875,11013.3486328125,17165.341796875,-14466.4453125,3541.310546875,11348.724609375,6962.6171875,5249.97705078125,4362.26513671875,0.0,10721.68359375
6456.375,3515.87939453125,16187.0322265625,6649.494140625,18539.4296875,7068.31591796875,9588.400390625,14801.025390625,6682.078125,9233.951171875,10346.572265625,8301.7353515625,-3639.062255859375,0.0,12872.21875,13564.427734375,3044.605224609375,3008.842529296875,5386.67041015625,6981.69091796875,5547.20556640625,12507.4384765625,9558.9951171875,24518.966796875,-300.40740966796875,1464.684814453125,6339.5498046875,14947.2548828125,-6692.40966796875,2998.510986328125,19768.873046875,-10901.2919921875,-4670.6201171875,3622.372802734375,12218.158203125,12799.8994140625,7014.2744140625,9907.8818359375,6419.8173828125,-0.0,6192.525390625,28328.099609375,32149.951171875,10115.3056640625,20190.080078125,15852.451171875,-2044.0418701171875,-5311.1708984375,5997.02197265625,15318.3935546875,11677.7421875,14549.8916015625,11361.439453125,1856.4859619140625,2186.29833984375,11193.751953125,0.0,4789.8291015625,8858.83984375,8581.4794921875,7367.13427734375,12680.689453125,11006.9912109375,17161.369140625,-14478.3662109375,3525.416015625,11351.1083984375,6937.98046875,5261.10302734375,4346.37060546875,0.0,10709.7626953125
6467.5009765625,3483.29541015625,16183.0576171875,6674.92529296875,18537.044921875,7064.34228515625,9591.5791015625,14793.078125,6686.0517578125,9232.361328125,10336.240234375,8294.58203125,-3639.85693359375,0.0,12879.3720703125,13554.890625,3035.068603515625,3004.86865234375,5386.67041015625,6983.2802734375,5538.46337890625,12502.669921875,9557.40625,24515.787109375,-292.4601135253906,1461.505859375,6346.70263671875,14944.076171875,-6700.35693359375,2990.563720703125,19760.1328125,-10910.0341796875,-4687.30908203125,3621.578125,12214.18359375,12795.9248046875,7016.65869140625,9905.4970703125,6434.12255859375,-0.0,6184.578125,28324.921875,32152.3359375,10110.537109375,20196.4375,15850.8623046875,-2051.9892578125,-5317.529296875,6000.20068359375,15313.625,11685.689453125,14541.943359375,11353.4931640625,1846.94921875,2175.967041015625,11185.009765625,0.0,4749.2978515625,8850.8916015625,8574.326171875,7378.26025390625,12679.099609375,11008.580078125,17168.521484375,-14486.3125,3518.263671875,11358.2607421875,6933.21240234375,5283.35546875,4349.5498046875,0.0,10716.9150390625
6478.62744140625,3487.26904296875,16189.4169921875,6701.9462890625,18536.25,7062.75341796875,9581.248046875,14781.1572265625,6664.59423828125,9222.0302734375,10344.982421875,8289.01953125,-3641.4462890625,0.0,12849.171875,13544.5595703125,3033.47900390625,3000.895263671875,5379.51806640625,6965.7958984375,5537.6689453125,12501.080078125,9551.0478515625,24509.4296875,-274.9761047363281,1459.91650390625,6328.423828125,14940.1025390625,-6711.48291015625,2992.94775390625,19756.953125,-10920.365234375,-4684.92529296875,3627.93603515625,12211.0048828125,12794.3349609375,7004.73779296875,9895.9609375,6401.5390625,-0.0,6186.16748046875,28324.921875,32143.59375,10103.384765625,20181.337890625,15841.326171875,-2059.9365234375,-5329.4501953125,5995.4326171875,15313.625,11654.6943359375,14531.6123046875,11358.2607421875,1881.12255859375,2180.7353515625,11189.7783203125,0.0,4708.76708984375,8838.1767578125,8564.7900390625,7380.64453125,12674.33203125,10997.455078125,17145.474609375,-14485.5185546875,3521.4423828125,11327.2666015625,6914.93359375,5208.65087890625,4347.9599609375,0.0,10708.1728515625
6476.24365234375,3465.8115234375,16177.49609375,6740.09326171875,18548.96484375,7071.4951171875,9581.248046875,14791.48828125,6666.978515625,9226.798828125,10346.572265625,8291.4033203125,-3616.809814453125,0.0,12839.634765625,13554.890625,3049.37353515625,3013.61083984375,5386.67041015625,6968.97509765625,5551.9736328125,12516.1806640625,9558.201171875,24517.376953125,-277.36029052734375,1465.4794921875,6321.271484375,14939.30859375,-6701.9462890625,3004.86865234375,19772.84765625,-10916.392578125,-4663.46728515625,3652.57275390625,12224.5146484375,12806.255859375,7005.53271484375,9904.7021484375,6356.2392578125,-0.0,6209.21484375,28341.611328125,32145.9765625,10108.947265625,20177.365234375,15846.8876953125,-2081.394287109375,-5343.75537109375,5977.94873046875,15313.625,11645.158203125,14539.5595703125,11373.3603515625,1891.4541015625,2180.7353515625,11201.69921875,0.0,4741.3505859375,8846.9189453125,8575.1220703125,7379.05517578125,12679.89453125,11000.6328125,17142.294921875,-14475.1865234375,3521.4423828125,11317.7294921875,6944.33837890625,5190.37255859375,4354.318359375,0.0,10708.1728515625
6457.169921875,3461.837890625,16153.654296875,6670.15673828125,18538.6328125,7063.5478515625,9572.505859375,14787.5146484375,6665.388671875,9219.646484375,10338.6240234375,8285.0458984375,-3601.7099609375,0.0,12836.4560546875,13552.5068359375,3043.015625,3006.458251953125,5380.3125,6965.7958984375,5548.00048828125,12508.2333984375,9551.8427734375,24511.814453125,-287.6917419433594,1456.737548828125,6307.7607421875,14929.771484375,-6698.76708984375,2991.3583984375,19768.080078125,-10932.2861328125,-4663.46728515625,3646.21484375,12216.568359375,12797.5146484375,6998.38037109375,9899.1396484375,6330.01318359375,-0.0,6212.39306640625,28334.458984375,32140.416015625,10101.0009765625,20171.80078125,15841.326171875,-2082.983642578125,-5342.96044921875,5967.6171875,15304.8828125,11641.1845703125,14537.1748046875,11367.00390625,1872.380615234375,2159.277587890625,11193.751953125,0.0,4762.80810546875,8840.560546875,8571.1474609375,7352.8291015625,12672.7421875,10994.275390625,17140.70703125,-14480.75,3505.5478515625,11315.345703125,6961.02783203125,5199.9091796875,4338.42333984375,0.0,10693.8681640625
6467.5009765625,3453.095703125,16126.6328125,6633.599609375,18520.35546875,7046.8583984375,9563.763671875,14781.9521484375,6661.4150390625,9214.083984375,10334.6513671875,8273.125,-3616.809814453125,0.0,12838.8408203125,13547.73828125,3025.53173828125,2989.76904296875,5368.3916015625,6961.02783203125,5527.33740234375,12487.5703125,9538.3330078125,24499.09765625,-301.9968566894531,1444.0218505859375,6289.48193359375,14925.0029296875,-6711.48291015625,2977.84814453125,19749.005859375,-10932.2861328125,-4698.435546875,3621.578125,12199.083984375,12780.8251953125,6988.84326171875,9887.21875,6424.5859375,-0.0,6183.783203125,28310.6171875,32126.904296875,10090.6689453125,20167.033203125,15832.58203125,-2071.857421875,-5335.8076171875,5981.92236328125,15291.373046875,11642.7734375,14531.6123046875,11357.466796875,1859.6649169921875,2163.251220703125,11180.2412109375,0.0,4770.755859375,8838.1767578125,8564.7900390625,7344.88134765625,12658.4365234375,10987.1220703125,17138.322265625,-14492.6708984375,3495.21630859375,11319.3193359375,6943.5439453125,5221.36669921875,4322.52880859375,0.0,10691.4833984375
6463.52783203125,3460.248291015625,16132.1962890625,6614.5263671875,18516.3828125,7046.8583984375,9570.916015625,14784.3359375,6671.74658203125,9213.2880859375,10328.29296875,8261.998046875,-3644.62548828125,0.0,12863.4765625,13550.1220703125,3015.9951171875,2985.795166015625,5367.59716796875,6965.00146484375,5520.18505859375,12481.212890625,9537.537109375,24496.712890625,-317.8914489746094,1447.2008056640625,6322.06591796875,14931.361328125,-6721.01953125,2973.874267578125,19741.853515625,-10921.955078125,-4711.94580078125,3585.020751953125,12196.7001953125,12776.8515625,6995.99609375,9888.0126953125,6465.912109375,-0.0,6171.06787109375,28312.20703125,32130.87890625,10092.2587890625,20176.568359375,15834.966796875,-2064.704833984375,-5381.107421875,5992.25390625,15293.7578125,11668.205078125,14535.5859375,11351.9033203125,1854.101806640625,2188.6826171875,11169.1162109375,0.0,4758.0400390625,8855.66015625,8567.173828125,7353.6240234375,12659.232421875,10991.0966796875,17144.6796875,-14499.8232421875,3491.24267578125,11343.9560546875,6901.4228515625,5266.66650390625,4307.4287109375,0.0,10686.71484375
6461.9384765625,3453.890625,16132.990234375,6629.6259765625,18522.740234375,7060.369140625,9578.8642578125,14796.2568359375,6669.3623046875,9214.8779296875,10337.03515625,8271.53515625,-3658.930419921875,0.0,12858.7080078125,13560.4541015625,3024.737060546875,2998.510986328125,5377.1337890625,6966.5908203125,5530.51611328125,12494.7236328125,9548.6640625,24510.224609375,-294.0495910644531,1458.326904296875,6341.93408203125,14944.87109375,-6714.662109375,2981.82177734375,19752.978515625,-10909.240234375,-4700.02490234375,3599.325927734375,12207.03125,12790.3623046875,7003.94287109375,9899.1396484375,6417.43310546875,-0.0,6187.7568359375,28325.716796875,32141.208984375,10104.9736328125,20178.953125,15842.119140625,-2059.9365234375,-5388.259765625,5993.84326171875,15307.267578125,11665.0263671875,14547.5068359375,11350.314453125,1861.25439453125,2202.193115234375,11183.4208984375,0.0,4754.861328125,8845.3291015625,8583.068359375,7363.16064453125,12670.357421875,10996.6591796875,17147.859375,-14490.287109375,3503.16357421875,11337.59765625,6892.68115234375,5226.93017578125,4311.40283203125,0.0,10695.45703125
6482.60107421875,3453.095703125,16155.2431640625,6686.84619140625,18530.6875,7069.11083984375,9577.2744140625,14798.6416015625,6662.2099609375,9218.056640625,10344.982421875,8277.0986328125,-3635.88330078125,0.0,12837.2509765625,13561.2490234375,3038.247314453125,3005.66357421875,5381.107421875,6963.41162109375,5542.43701171875,12509.0283203125,9554.2265625,24516.58203125,-278.1549987792969,1468.658447265625,6328.423828125,14948.05078125,-6697.177734375,2977.84814453125,19765.6953125,-10909.240234375,-4684.13037109375,3624.757080078125,12216.568359375,12799.8994140625,7002.353515625,9902.318359375,6372.1337890625,-0.0,6197.2939453125,28340.81640625,32141.208984375,10109.7421875,20174.185546875,15844.5029296875,-2065.49951171875,-5332.62890625,5992.25390625,15315.21484375,11642.7734375,14548.3017578125,11364.619140625,1850.9229736328125,2188.6826171875,11188.189453125,0.0,4757.24560546875,8828.6396484375,8584.658203125,7358.39208984375,12676.7158203125,10997.455078125,17143.091796875,-14479.955078125,3505.5478515625,11315.345703125,6883.14453125,5180.041015625,4300.2763671875,0.0,10691.4833984375
6474.65380859375,3422.101318359375,16173.521484375,6660.6201171875,18515.5859375,7056.39501953125,9564.55859375,14783.5419921875,6657.44140625,9205.341796875,10325.908203125,8263.587890625,-3631.90966796875,0.0,12839.634765625,13546.943359375,3027.916015625,2992.153076171875,5369.1865234375,6956.25927734375,5528.9267578125,12497.107421875,9538.3330078125,24499.892578125,-303.5863342285156,1455.9427490234375,6311.73486328125,14932.9501953125,-6714.662109375,2965.132568359375,19753.775390625,-10925.1337890625,-4688.8984375,3619.194091796875,12201.46875,12784.798828125,6988.84326171875,9887.21875,6349.8818359375,-0.0,6177.42529296875,28323.33203125,32125.3125,10095.4375,20165.443359375,15829.4052734375,-2075.036376953125,-5324.681640625,5965.23291015625,15309.6513671875,11643.5693359375,14532.4072265625,11357.466796875,1824.6968994140625,2157.688232421875,11181.037109375,0.0,4761.21923828125,8824.666015625,8563.9951171875,7342.49755859375,12660.8212890625,10985.5341796875,17135.142578125,-14500.6181640625,3494.421630859375,11319.3193359375,6852.94482421875,5212.625,4270.87158203125,0.0,10676.3837890625
6465.912109375,3446.738037109375,16133.78515625,6670.15673828125,18509.23046875,7054.0107421875,9565.353515625,14779.5673828125,6654.2626953125,9209.3154296875,10327.498046875,8273.9189453125,-3643.035888671875,0.0,12843.6083984375,13545.353515625,3027.916015625,2991.3583984375,5367.59716796875,6954.669921875,5522.5693359375,12493.927734375,9537.537109375,24499.09765625,-311.5335998535156,1456.737548828125,6316.5029296875,14930.5654296875,-6721.814453125,2964.337646484375,19750.595703125,-10910.828125,-4708.76708984375,3614.42578125,12198.2890625,12783.2099609375,6990.4326171875,9884.833984375,6387.23388671875,-0.0,6162.3251953125,28319.359375,32126.904296875,10094.642578125,20165.443359375,15828.609375,-2068.6787109375,-5338.19189453125,5954.10693359375,15311.2412109375,11648.3369140625,14528.43359375,11351.9033203125,1852.5123291015625,2178.35107421875,11183.4208984375,0.0,4767.57666015625,8817.513671875,8558.4326171875,7360.7763671875,12660.8212890625,10984.73828125,17131.962890625,-14503.001953125,3498.395263671875,11324.087890625,6880.76025390625,5207.0615234375,4336.0390625,0.0,10677.1787109375
6451.60693359375,3468.990234375,16112.3271484375,6644.7255859375,18516.3828125,7051.62646484375,9566.1474609375,14777.9775390625,6659.03076171875,9214.8779296875,10332.2666015625,8263.587890625,-3646.21484375,0.0,12849.171875,13544.5595703125,3024.737060546875,2992.94775390625,5369.1865234375,6958.6435546875,5526.54248046875,12488.365234375,9539.921875,24498.3046875,-305.17578125,1452.763916015625,6314.9130859375,14929.771484375,-6713.8671875,2965.132568359375,19751.390625,-10924.3388671875,-4699.22998046875,3612.04150390625,12199.87890625,12781.6201171875,6992.81689453125,9886.423828125,6410.28076171875,-0.0,6167.888671875,28316.1796875,32132.46484375,10093.8486328125,20167.828125,15828.609375,-2071.857421875,-5393.0283203125,5973.974609375,15304.0888671875,11653.900390625,14526.84375,11354.287109375,1850.9229736328125,2191.861328125,11177.0625,0.0,4768.37158203125,8830.2294921875,8544.1279296875,7353.6240234375,12660.8212890625,10986.328125,17134.34765625,-14499.8232421875,3490.447998046875,11328.0615234375,6906.19140625,5226.13525390625,4363.06005859375,0.0,10685.1259765625
6457.96435546875,3476.142822265625,16166.3681640625,6665.388671875,18531.48046875,7057.18994140625,9580.453125,14785.130859375,6678.8994140625,9218.8515625,10333.85546875,8269.9462890625,-3641.4462890625,0.0,12870.62890625,13550.1220703125,3031.8896484375,3002.484619140625,5379.51806640625,6968.97509765625,5533.6953125,12496.3125,9549.458984375,24506.25,-292.4601135253906,1455.9427490234375,6330.01318359375,14933.7451171875,-6704.33056640625,2973.07958984375,19759.3359375,-10921.1611328125,-4692.07763671875,3624.757080078125,12211.0048828125,12791.1572265625,7005.53271484375,9892.78125,6458.75927734375,-0.0,6178.22021484375,28324.126953125,32145.18359375,10100.205078125,20183.720703125,15837.3505859375,-2065.49951171875,-5327.06591796875,5996.22705078125,15306.47265625,11676.947265625,14534.791015625,11371.771484375,1827.0810546875,2187.887939453125,11175.4736328125,0.0,4771.55078125,8849.3037109375,8556.8427734375,7359.9814453125,12668.7685546875,10997.455078125,17140.70703125,-14489.4912109375,3495.21630859375,11351.1083984375,6917.31787109375,5281.7666015625,4333.65478515625,0.0,10680.3583984375
6469.0908203125,3453.890625,16171.9326171875,6660.6201171875,18534.66015625,7055.6005859375,9574.095703125,14773.2099609375,6651.87841796875,9215.6728515625,10324.3193359375,8288.224609375,-3631.90966796875,0.0,12830.0986328125,13534.228515625,3036.657958984375,3002.484619140625,5374.74951171875,6953.875,5536.87451171875,12497.90234375,9550.25390625,24504.662109375,-297.2284851074219,1459.1217041015625,6322.06591796875,14925.0029296875,-6698.76708984375,2983.4111328125,19761.720703125,-10909.240234375,-4693.6669921875,3622.372802734375,12213.3896484375,12793.541015625,6997.58544921875,9888.0126953125,6460.3486328125,-0.0,6186.16748046875,28318.5625,32141.208984375,10094.642578125,20167.033203125,15833.3779296875,-2061.526123046875,-5259.513671875,5997.02197265625,15305.6787109375,11635.62109375,14521.28125,11375.7451171875,1800.060302734375,2168.814453125,11178.65234375,0.0,4750.0927734375,8798.4404296875,8554.458984375,7356.0078125,12667.1787109375,10988.7119140625,17127.1953125,-14495.0556640625,3511.111083984375,11307.3984375,6953.08056640625,5180.8359375,4362.26513671875,0.0,10678.7685546875
6465.1171875,3463.42724609375,16140.142578125,6657.44140625,18535.455078125,7056.39501953125,9575.6845703125,14771.62109375,6651.08349609375,9222.0302734375,10327.498046875,8291.4033203125,-3619.98876953125,0.0,12825.330078125,13535.0224609375,3039.042236328125,3005.66357421875,5377.92822265625,6960.2333984375,5541.642578125,12499.4912109375,9552.6376953125,24505.45703125,-303.5863342285156,1457.5322265625,6326.833984375,14922.619140625,-6701.1513671875,2987.384765625,19762.515625,-10909.240234375,-4692.07763671875,3621.578125,12216.568359375,12795.9248046875,7001.55859375,9890.3974609375,6442.06982421875,-0.0,6190.935546875,28315.38671875,32143.59375,10093.052734375,20169.416015625,15834.1728515625,-2060.731201171875,-5265.87158203125,5983.51123046875,15301.7041015625,11629.263671875,14521.28125,11366.2080078125,1858.075439453125,2179.9404296875,11183.4208984375,0.0,4744.52978515625,8797.6455078125,8552.07421875,7354.41845703125,12670.357421875,10991.890625,17133.5546875,-14503.796875,3515.08447265625,11303.4248046875,6973.74365234375,5150.63623046875,4371.8017578125,0.0,10693.0732421875
6431.73828125,3453.095703125,16134.5810546875,6654.2626953125,18522.740234375,7045.26904296875,9569.3271484375,14768.44140625,6655.85205078125,9218.8515625,10313.9873046875,8265.9716796875,-3635.88330078125,0.0,12833.27734375,13534.228515625,3025.53173828125,2997.71630859375,5373.15966796875,6961.822265625,5529.7216796875,12489.955078125,9543.8955078125,24498.3046875,-315.50726318359375,1443.2271728515625,6321.271484375,14911.4921875,-6719.4306640625,2967.5166015625,19750.595703125,-10931.4921875,-4703.99853515625,3608.862548828125,12203.8525390625,12785.59375,6995.99609375,9884.833984375,6424.5859375,-0.0,6175.041015625,28311.41015625,32134.849609375,10084.3115234375,20167.033203125,15833.3779296875,-2077.42041015625,-5331.03955078125,5958.875,15284.220703125,11637.2109375,14518.8974609375,11332.8291015625,1873.17529296875,2176.76171875,11165.1416015625,0.0,4727.04541015625,8819.8974609375,8559.2265625,7337.72900390625,12663.205078125,10990.3017578125,17134.34765625,-14526.0498046875,3493.626953125,11310.5771484375,6961.02783203125,5186.39892578125,4351.13916015625,0.0,10691.4833984375
6437.3017578125,3391.901611328125,16156.0380859375,6670.95166015625,18519.560546875,7050.83203125,9566.943359375,14775.59375,6659.82568359375,9220.4404296875,10302.861328125,8265.177734375,-3647.80419921875,0.0,12838.0458984375,13542.17578125,3024.737060546875,3000.100341796875,5373.15966796875,6963.41162109375,5529.7216796875,12497.107421875,9543.8955078125,24503.072265625,-325.8387145996094,1445.611328125,6311.73486328125,14922.619140625,-6722.60888671875,2970.695556640625,19753.775390625,-10939.4384765625,-4701.6142578125,3616.01513671875,12204.6474609375,12790.3623046875,6992.02197265625,9889.6025390625,6373.7236328125,-0.0,6176.63037109375,28320.947265625,32131.671875,10089.8740234375,20165.443359375,15837.3505859375,-2087.752197265625,-5354.88134765625,5960.46435546875,15290.578125,11641.1845703125,14526.0498046875,11325.6767578125,1869.20166015625,2166.43017578125,11168.3203125,0.0,4725.4560546875,8830.2294921875,8570.353515625,7329.7822265625,12664.794921875,10990.3017578125,17136.732421875,-14534.791015625,3489.6533203125,11315.345703125,6950.6962890625,5204.677734375,4351.13916015625,0.0,10688.3046875
6459.55419921875,3397.46484375,16179.8798828125,6689.23046875,18526.712890625,7060.369140625,9574.890625,14784.3359375,6670.15673828125,9225.208984375,10320.345703125,8273.9189453125,-3643.035888671875,0.0,12857.119140625,13550.1220703125,3034.27392578125,3007.2529296875,5381.90234375,6971.359375,5538.46337890625,12505.0546875,9551.8427734375,24511.01953125,-315.50726318359375,1451.9691162109375,6314.9130859375,14940.1025390625,-6719.4306640625,2977.053466796875,19762.515625,-10935.4658203125,-4690.48828125,3629.525390625,12213.3896484375,12797.5146484375,6998.38037109375,9896.7548828125,6346.70263671875,-0.0,6190.935546875,28324.921875,32138.03125,10101.794921875,20175.775390625,15842.119140625,-2077.42041015625,-5342.16552734375,5976.35888671875,15303.2939453125,11661.052734375,14533.99609375,11338.3935546875,1847.7440185546875,2179.9404296875,11181.037109375,0.0,4740.55615234375,8848.5078125,8568.763671875,7340.11328125,12670.357421875,10997.455078125,17141.5,-14516.5126953125,3492.03759765625,11336.8037109375,6947.517578125,5247.5927734375,4356.7021484375,0.0,10683.5361328125
6450.017578125,3405.411865234375,16157.626953125,6677.3095703125,18514.791015625,7042.08984375,9564.55859375,14766.8525390625,6668.56787109375,9213.2880859375,10325.1142578125,8243.7197265625,-3654.956787109375,0.0,12867.451171875,13531.048828125,3020.763427734375,2990.563720703125,5366.80224609375,6964.20654296875,5523.36376953125,12482.802734375,9537.537109375,24495.125,-305.97052001953125,1439.25341796875,6310.14501953125,14921.029296875,-6735.32470703125,2956.390380859375,19746.623046875,-10935.4658203125,-4703.20361328125,3617.6044921875,12198.2890625,12778.44140625,6988.04833984375,9880.8603515625,6364.1865234375,-0.0,6169.47802734375,28305.0546875,32126.109375,10084.3115234375,20168.623046875,15826.2255859375,-2082.18896484375,-5369.1865234375,5981.92236328125,15284.220703125,11671.3837890625,14514.9228515625,11339.1875,1797.676025390625,2180.7353515625,11163.552734375,0.0,4742.1455078125,8854.8662109375,8544.1279296875,7338.52392578125,12654.4638671875,10985.5341796875,17135.142578125,-14506.9765625,3472.964111328125,11349.5185546875,6930.828125,5295.27685546875,4332.0654296875,0.0,10670.8212890625
6451.60693359375,3420.511962890625,16151.26953125,6636.7783203125,18517.17578125,7032.55322265625,9555.0224609375,14753.341796875,6654.2626953125,9201.3671875,10333.85546875,8226.2353515625,-3671.64599609375,0.0,12850.76171875,13516.744140625,3013.61083984375,2984.2060546875,5358.85498046875,6952.28564453125,5519.39013671875,12473.265625,9529.5908203125,24484.0,-299.6126708984375,1430.511474609375,6308.5556640625,14904.33984375,-6733.7353515625,2943.6748046875,19739.46875,-10933.8759765625,-4695.2568359375,3597.736328125,12193.5205078125,12768.904296875,6980.89599609375,9870.529296875,6360.212890625,-0.0,6163.9150390625,28295.517578125,32121.341796875,10072.390625,20157.49609375,15815.8935546875,-2070.267822265625,-5358.060546875,5985.8955078125,15271.5048828125,11653.10546875,14503.796875,11357.466796875,1760.3238525390625,2178.35107421875,11150.04296875,0.0,4727.04541015625,8836.5869140625,8532.2060546875,7344.0869140625,12646.515625,10972.8173828125,17124.017578125,-14493.4658203125,3465.0166015625,11331.240234375,6899.83349609375,5260.30859375,4312.9921875,0.0,10664.462890625
6486.57470703125,3467.40087890625,16191.80078125,6671.74658203125,18548.169921875,7065.931640625,9573.30078125,14785.130859375,6649.494140625,9225.208984375,10368.82421875,8272.330078125,-3650.983154296875,0.0,12811.0244140625,13550.91796875,3053.347412109375,3016.789794921875,5384.28662109375,6961.822265625,5555.94775390625,12510.6171875,9557.40625,24514.994140625,-270.2077331542969,1460.711181640625,6318.88720703125,14933.7451171875,-6699.56201171875,2984.2060546875,19774.4375,-10901.2919921875,-4654.7255859375,3635.088623046875,12223.720703125,12804.6669921875,6999.1748046875,9899.1396484375,6354.64990234375,-0.0,6194.90966796875,28328.896484375,32143.59375,10105.76953125,20163.05859375,15842.9150390625,-2037.6842041015625,-5304.8134765625,6008.94287109375,15304.0888671875,11616.5478515625,14536.380859375,11387.666015625,1823.902099609375,2208.55078125,11181.8310546875,0.0,4774.7294921875,8800.82421875,8569.55859375,7370.31298828125,12675.1259765625,10991.890625,17133.5546875,-14457.703125,3499.190185546875,11289.1201171875,6933.21240234375,5147.45703125,4343.986328125,0.0,10693.8681640625
6465.1171875,3457.0693359375,16191.80078125,6664.59423828125,18552.14453125,7064.34228515625,9581.248046875,14788.3095703125,6660.6201171875,9231.5673828125,10360.08203125,8280.27734375,-3631.114990234375,0.0,12834.8662109375,13554.0966796875,3058.11572265625,3021.55810546875,5389.84912109375,6972.94873046875,5562.3056640625,12513.0009765625,9562.1748046875,24518.171875,-270.2077331542969,1457.5322265625,6324.4501953125,14935.333984375,-6693.20458984375,2980.232177734375,19779.205078125,-10898.9072265625,-4649.162109375,3639.062255859375,12228.4892578125,12806.255859375,7007.9169921875,9902.318359375,6413.4599609375,-0.0,6208.419921875,28322.5390625,32148.361328125,10107.3583984375,20173.390625,15846.8876953125,-2043.2471923828125,-5319.91357421875,6011.3271484375,15306.47265625,11641.9794921875,14538.7646484375,11361.439453125,1878.7384033203125,2207.756103515625,11180.2412109375,0.0,4774.7294921875,8815.12890625,8571.9423828125,7358.39208984375,12681.484375,10999.8388671875,17142.294921875,-14470.41796875,3492.832275390625,11316.140625,6944.33837890625,5187.193359375,4355.9072265625,0.0,10700.2255859375
6458.75927734375,3474.553466796875,16156.83203125,6641.546875,18562.474609375,7073.87939453125,9593.9638671875,14794.6669921875,6672.541015625,9245.078125,10362.4658203125,8291.4033203125,-3630.3203125,0.0,12847.5830078125,13558.8642578125,3062.089111328125,3031.8896484375,5400.9755859375,6986.45947265625,5572.63720703125,12518.5654296875,9573.30078125,24528.50390625,-263.8498840332031,1467.0689697265625,6335.57666015625,14942.486328125,-6692.40966796875,2980.232177734375,19787.15234375,-10885.3974609375,-4649.162109375,3639.85693359375,12242.0,12814.9990234375,7018.248046875,9912.650390625,6456.375,-0.0,6225.90380859375,28327.306640625,32159.48828125,10116.1005859375,20184.517578125,15858.0146484375,-2044.0418701171875,-5302.42919921875,6014.505859375,15315.21484375,11653.10546875,14545.123046875,11370.9765625,1904.169677734375,2214.90869140625,11183.4208984375,0.0,4754.06640625,8834.203125,8579.890625,7376.6708984375,12693.4052734375,11010.96484375,17162.1640625,-14467.2392578125,3496.010986328125,11327.2666015625,6937.98046875,5183.2197265625,4359.880859375,0.0,10721.68359375
6446.04345703125,3484.090087890625,16142.5263671875,6637.5732421875,18546.58203125,7061.95849609375,9579.658203125,14789.1044921875,6665.388671875,9232.361328125,10348.1611328125,8273.125,-3643.035888671875,0.0,12845.9931640625,13553.3017578125,3044.605224609375,3015.200439453125,5385.87548828125,6976.12744140625,5553.5634765625,12504.259765625,9558.201171875,24514.19921875,-281.33392333984375,1457.5322265625,6323.65576171875,14936.1298828125,-6707.50927734375,2959.5693359375,19768.873046875,-10902.8818359375,-4670.6201171875,3623.96240234375,12224.5146484375,12800.693359375,7003.94287109375,9899.1396484375,6466.70654296875,-0.0,6207.625,28315.38671875,32145.9765625,10105.76953125,20174.98046875,15846.8876953125,-2064.704833984375,-5317.529296875,5994.63818359375,15306.47265625,11652.310546875,14537.1748046875,11367.00390625,1864.433349609375,2195.835205078125,11167.5263671875,0.0,4725.4560546875,8834.998046875,8574.326171875,7367.92919921875,12678.3056640625,10999.0439453125,17153.421875,-14479.955078125,3480.9111328125,11327.2666015625,6910.16552734375,5207.8564453125,4328.88671875,0.0,10705.7890625
6464.32275390625,3507.931884765625,16167.1640625,6650.2890625,18541.8125,7062.75341796875,9574.890625,14792.283203125,6659.82568359375,9222.8251953125,10345.7763671875,8266.7666015625,-3635.088623046875,0.0,12843.6083984375,13558.0703125,3036.657958984375,3008.0478515625,5384.28662109375,6967.3857421875,5547.20556640625,12498.6962890625,9552.6376953125,24511.01953125,-305.97052001953125,1459.91650390625,6319.681640625,14940.1025390625,-6709.0986328125,2965.132568359375,19761.720703125,-10906.85546875,-4671.4150390625,3616.809814453125,12217.3623046875,12795.9248046875,6999.1748046875,9897.5498046875,6422.20166015625,-0.0,6199.677734375,28318.5625,32141.208984375,10107.3583984375,20170.2109375,15842.9150390625,-2063.91015625,-5339.78125,5986.6904296875,15308.0625,11648.3369140625,14541.943359375,11372.56640625,1857.28076171875,2191.066650390625,11172.294921875,0.0,4740.55615234375,8827.0498046875,8574.326171875,7360.7763671875,12672.7421875,10995.0703125,17143.091796875,-14480.75,3485.6796875,11321.7041015625,6905.39697265625,5218.18798828125,4317.76025390625,0.0,10692.279296875
6482.60107421875,3494.421630859375,16190.2099609375,6671.74658203125,18550.5546875,7078.6474609375,9585.2216796875,14803.4091796875,6661.4150390625,9229.9775390625,10356.9033203125,8278.6875,-3616.809814453125,0.0,12831.6875,13569.9912109375,3050.168212890625,3022.35302734375,5396.20751953125,6972.154296875,5558.33203125,12513.796875,9565.353515625,24525.32421875,-301.9968566894531,1476.605712890625,6329.21826171875,14949.6396484375,-6691.61474609375,2993.74267578125,19776.025390625,-10893.3447265625,-4661.0830078125,3633.4990234375,12230.873046875,12811.0244140625,7009.50634765625,9910.265625,6418.22802734375,-0.0,6208.419921875,28340.81640625,32150.74609375,10118.484375,20174.98046875,15850.0673828125,-2048.015625,-5350.11279296875,5991.458984375,15320.7783203125,11637.2109375,14553.8642578125,11392.4345703125,1882.7120361328125,2195.04052734375,11196.13671875,0.0,4806.5185546875,8813.5400390625,8581.4794921875,7371.107421875,12684.6630859375,11003.8115234375,17139.912109375,-14466.4453125,3507.13720703125,11311.3720703125,6928.44384765625,5185.60400390625,4340.8076171875,0.0,10702.6103515625
6494.52197265625,3476.142822265625,16178.2890625,6693.20458984375,18548.96484375,7072.2900390625,9581.248046875,14796.2568359375,6657.44140625,9229.18359375,10357.697265625,8269.9462890625,-3617.6044921875,0.0,12825.330078125,13562.8388671875,3049.37353515625,3020.763427734375,5393.0283203125,6968.97509765625,5555.15283203125,12513.796875,9562.1748046875,24522.146484375,-274.1813659667969,1467.8636474609375,6328.423828125,14941.6923828125,-6692.40966796875,2980.232177734375,19772.84765625,-10895.7294921875,-4666.646484375,3647.009521484375,12228.4892578125,12807.845703125,7007.1220703125,9905.4970703125,6374.51806640625,-0.0,6209.21484375,28339.228515625,32147.568359375,10111.33203125,20171.80078125,15846.09375,-2044.0418701171875,-5365.212890625,5988.27978515625,15308.0625,11630.05859375,14546.7119140625,11386.87109375,1875.5594482421875,2175.967041015625,11187.39453125,0.0,4818.439453125,8811.15625,8575.916015625,7367.13427734375,12682.2783203125,10999.8388671875,17137.52734375,-14468.8291015625,3497.6005859375,11303.4248046875,6957.05419921875,5176.8623046875,4351.13916015625,0.0,10702.6103515625
6519.953125,3492.03759765625,16196.5693359375,6664.59423828125,18563.271484375,7083.416015625,9598.732421875,14801.8193359375,6676.51513671875,9242.6943359375,10373.5927734375,8290.6083984375,-3621.578125,0.0,12854.7353515625,13566.017578125,3059.705078125,3031.8896484375,5408.12841796875,6984.0751953125,5571.04736328125,12525.7177734375,9577.2744140625,24534.06640625,-259.8762512207031,1477.400390625,6347.49755859375,14949.6396484375,-6690.025390625,2994.537353515625,19787.947265625,-10894.9345703125,-4647.57275390625,3644.62548828125,12244.3837890625,12819.7666015625,7023.0166015625,9917.4189453125,6380.0810546875,-0.0,6224.314453125,28351.1484375,32165.84375,10122.4580078125,20192.46484375,15854.8359375,-2017.8157958984375,-5333.423828125,6012.91650390625,15321.572265625,11659.462890625,14550.685546875,11397.2021484375,1891.4541015625,2179.145751953125,11196.9306640625,0.0,4805.7236328125,8836.5869140625,8573.5322265625,7387.00244140625,12696.583984375,11013.3486328125,17155.01171875,-14456.11328125,3515.87939453125,11333.625,6970.564453125,5215.00927734375,4383.72265625,0.0,10711.3525390625
6490.548828125,3459.45361328125,16216.4365234375,6696.3828125,18556.9140625,7077.8525390625,9601.1162109375,14795.462890625,6683.66748046875,9234.74609375,10369.6181640625,8295.376953125,-3622.372802734375,0.0,12876.9873046875,13559.6591796875,3056.526123046875,3030.300048828125,5408.9228515625,6984.86962890625,5565.484375,12520.154296875,9577.2744140625,24530.88671875,-256.69732666015625,1472.632080078125,6347.49755859375,14946.4609375,-6692.40966796875,2991.3583984375,19784.76953125,-10902.0869140625,-4652.34130859375,3654.162109375,12239.615234375,12817.3828125,7025.40087890625,9915.8291015625,6465.1171875,-0.0,6213.18798828125,28339.228515625,32167.435546875,10117.6904296875,20197.232421875,15850.8623046875,-2018.6107177734375,-5293.6875,6014.505859375,15316.009765625,11680.9208984375,14545.123046875,11395.61328125,1878.7384033203125,2206.96142578125,11192.9580078125,0.0,4793.00830078125,8863.6083984375,8565.5849609375,7385.41259765625,12696.583984375,11014.1435546875,17151.037109375,-14458.4970703125,3514.289794921875,11355.876953125,6967.3857421875,5257.92431640625,4376.5703125,0.0,10702.6103515625
6457.169921875,3414.154052734375,16191.005859375,6698.76708984375,18545.78515625,7063.5478515625,9588.400390625,14779.5673828125,6678.8994140625,9216.4677734375,10357.697265625,8271.53515625,-3637.472900390625,0.0,12871.4248046875,13542.17578125,3044.605224609375,3019.173828125,5395.41259765625,6970.564453125,5554.35791015625,12509.0283203125,9565.353515625,24514.994140625,-262.26043701171875,1457.5322265625,6322.86083984375,14928.9765625,-6701.1513671875,2974.669189453125,19772.052734375,-10920.365234375,-4668.23583984375,3649.393798828125,12228.4892578125,12803.8720703125,7011.890625,9901.5234375,6446.83837890625,-0.0,6202.8564453125,28324.126953125,32153.12890625,10102.58984375,20185.3125,15837.3505859375,-2035.300048828125,-5346.93408203125,6002.5849609375,15298.525390625,11674.5634765625,14526.84375,11377.3349609375,1848.5386962890625,2216.498046875,11175.4736328125,0.0,4765.9873046875,8865.9921875,8548.1005859375,7370.31298828125,12683.8681640625,11002.22265625,17132.759765625,-14469.6240234375,3492.832275390625,11348.724609375,6955.46484375,5264.2822265625,4346.37060546875,0.0,10674.0
6464.32275390625,3381.570068359375,16171.9326171875,6632.8046875,18542.607421875,7057.98486328125,9577.2744140625,14776.388671875,6659.82568359375,9208.51953125,10352.9287109375,8272.330078125,-3647.80419921875,0.0,12835.662109375,13540.5859375,3041.426513671875,3013.61083984375,5387.46484375,6956.25927734375,5553.5634765625,12499.4912109375,9558.201171875,24511.01953125,-267.82354736328125,1453.55859375,6314.9130859375,14927.3876953125,-6707.50927734375,2977.84814453125,19768.080078125,-10906.85546875,-4670.6201171875,3609.6572265625,12225.310546875,12797.5146484375,7000.76416015625,9898.3447265625,6426.97021484375,-0.0,6203.6513671875,28314.58984375,32143.59375,10099.4111328125,20171.0078125,15830.994140625,-2047.220947265625,-5342.96044921875,5997.81640625,15299.3203125,11640.3896484375,14524.4599609375,11363.029296875,1871.5858154296875,2208.55078125,11179.447265625,0.0,4765.9873046875,8831.0244140625,8548.1005859375,7370.31298828125,12679.099609375,10994.275390625,17118.453125,-14473.59765625,3494.421630859375,11312.9619140625,6970.564453125,5196.72998046875,4336.833984375,0.0,10664.462890625
6467.5009765625,3402.233154296875,16155.2431640625,6644.7255859375,18538.6328125,7053.21630859375,9573.30078125,14771.62109375,6658.23583984375,9201.3671875,10344.982421875,8270.740234375,-3637.472900390625,0.0,12842.01953125,13535.8173828125,3040.631591796875,3009.63720703125,5381.107421875,6951.49072265625,5549.58984375,12497.107421875,9553.4326171875,24507.841796875,-275.77081298828125,1449.5849609375,6310.93994140625,14923.4130859375,-6711.48291015625,2973.874267578125,19764.10546875,-10901.2919921875,-4684.13037109375,3610.451904296875,12222.130859375,12792.74609375,6997.58544921875,9893.576171875,6441.27490234375,-0.0,6204.4462890625,28310.6171875,32136.439453125,10095.4375,20171.0078125,15825.4296875,-2057.55224609375,-5307.19775390625,5986.6904296875,15293.7578125,11648.3369140625,14519.69140625,11346.33984375,1870.7911376953125,2197.424560546875,11177.857421875,0.0,4754.861328125,8831.0244140625,8542.5380859375,7358.39208984375,12673.537109375,10989.5068359375,17111.30078125,-14478.3662109375,3491.24267578125,11322.498046875,6952.28564453125,5212.625,4319.349609375,0.0,10654.9267578125
6452.40185546875,3481.705810546875,16144.1171875,6632.8046875,18521.943359375,7034.9375,9567.7373046875,14758.1103515625,6660.6201171875,9196.5986328125,10328.29296875,8246.1044921875,-3636.677978515625,0.0,12859.50390625,13522.3076171875,3026.326416015625,2994.537353515625,5371.57080078125,6952.28564453125,5534.490234375,12481.212890625,9542.3056640625,24494.330078125,-293.2548522949219,1428.9219970703125,6318.09228515625,14907.51953125,-6717.8408203125,2954.006103515625,19750.595703125,-10922.75,-4692.07763671875,3600.12060546875,12207.03125,12778.44140625,6992.02197265625,9880.06640625,6384.0546875,-0.0,6187.7568359375,28293.927734375,32129.287109375,10078.748046875,20171.0078125,15816.6884765625,-2071.062744140625,-5316.734375,5962.0537109375,15272.2998046875,11661.8466796875,14507.7705078125,11339.1875,1846.154541015625,2175.967041015625,11156.3994140625,0.0,4721.48291015625,8841.35546875,8531.4111328125,7335.3447265625,12660.8212890625,10983.1494140625,17120.04296875,-14495.849609375,3466.606201171875,11336.8037109375,6926.0595703125,5256.3349609375,4316.17138671875,0.0,10661.2841796875
6460.3486328125,3523.82666015625,16164.779296875,6643.93115234375,18527.5078125,7045.26904296875,9570.1220703125,14761.2890625,6648.69921875,9202.1630859375,10337.03515625,8254.845703125,-3634.293701171875,0.0,12827.7138671875,13523.896484375,3031.0947265625,3003.279541015625,5375.5439453125,6949.9013671875,5542.43701171875,12490.7490234375,9549.458984375,24498.3046875,-286.89703369140625,1439.25341796875,6318.88720703125,14911.4921875,-6707.50927734375,2956.390380859375,19757.748046875,-10910.0341796875,-4676.9775390625,3609.6572265625,12211.7998046875,12787.1826171875,6994.40625,9885.62890625,6389.6181640625,-0.0,6193.31982421875,28303.46484375,32134.056640625,10082.7216796875,20165.443359375,15821.45703125,-2050.39990234375,-5311.9658203125,5979.5380859375,15279.4521484375,11635.62109375,14510.154296875,11366.2080078125,1811.981201171875,2170.40380859375,11161.9638671875,0.0,4727.84033203125,8817.513671875,8538.5634765625,7352.0341796875,12666.384765625,10984.73828125,17120.04296875,-14487.90234375,3472.964111328125,11305.0146484375,6906.986328125,5191.16748046875,4328.09228515625,0.0,10676.3837890625
6465.1171875,3520.647705078125,16181.46875,6663.00439453125,18553.734375,7070.7001953125,9592.3740234375,14787.5146484375,6670.95166015625,9224.4150390625,10348.9560546875,8273.9189453125,-3623.167724609375,0.0,12844.4033203125,13550.91796875,3052.552490234375,3024.737060546875,5400.1806640625,6972.154296875,5563.89453125,12513.796875,9573.30078125,24522.939453125,-289.2812194824219,1464.684814453125,6339.5498046875,14936.923828125,-6692.40966796875,2975.4638671875,19778.41015625,-10898.9072265625,-4663.46728515625,3631.114990234375,12237.2314453125,12812.6142578125,7015.86376953125,9910.265625,6466.70654296875,-0.0,6220.3408203125,28331.279296875,32157.8984375,10110.537109375,20186.900390625,15845.298828125,-2028.1474609375,-5299.25,6004.1748046875,15305.6787109375,11650.7216796875,14537.970703125,11390.845703125,1834.233642578125,2189.477294921875,11181.037109375,0.0,4758.0400390625,8833.408203125,8567.173828125,7371.90234375,12691.8154296875,11010.169921875,17146.26953125,-14470.41796875,3492.03759765625,11321.7041015625,6914.93359375,5199.1142578125,4342.39697265625,0.0,10707.3779296875
6484.1904296875,3507.931884765625,16180.673828125,6670.15673828125,18567.244140625,7085.00537109375,9604.294921875,14808.97265625,6682.078125,9231.5673828125,10356.9033203125,8288.224609375,-3622.372802734375,0.0,12857.9140625,13572.375,3065.268310546875,3035.86328125,5412.896484375,6980.89599609375,5578.99462890625,12527.306640625,9586.8115234375,24539.62890625,-294.84429931640625,1476.605712890625,6353.06005859375,14955.9970703125,-6686.84619140625,2989.76904296875,19792.71484375,-10892.55078125,-4648.3671875,3642.2412109375,12249.9462890625,12826.125,7028.57958984375,9924.5712890625,6453.99072265625,-0.0,6242.59326171875,28343.99609375,32172.203125,10128.021484375,20197.232421875,15860.3994140625,-2032.915771484375,-5307.99267578125,6015.30078125,15323.9560546875,11665.0263671875,14558.6328125,11396.408203125,1916.090576171875,2213.319091796875,11192.9580078125,0.0,4781.08740234375,8849.3037109375,8591.8115234375,7388.591796875,12703.736328125,11021.296875,17146.26953125,-14460.0869140625,3505.5478515625,11336.8037109375,6945.13330078125,5219.77734375,4332.0654296875,0.0,10697.841796875
6501.6748046875,3507.13720703125,16171.13671875,6686.84619140625,18565.654296875,7083.416015625,9601.1162109375,14808.177734375,6678.8994140625,9232.361328125,10362.4658203125,8289.814453125,-3614.42578125,0.0,12858.7080078125,13573.169921875,3063.6787109375,3033.47900390625,5409.7177734375,6977.716796875,5578.19970703125,12523.333984375,9582.04296875,24537.244140625,-271.00244140625,1471.83740234375,6343.5234375,14955.203125,-6691.61474609375,2990.563720703125,19793.509765625,-10895.7294921875,-4648.3671875,3645.420166015625,12248.3564453125,12823.7412109375,7025.40087890625,9922.1865234375,6412.6650390625,-0.0,6237.0302734375,28338.431640625,32169.025390625,10127.2265625,20194.052734375,15857.2197265625,-2037.6842041015625,-5323.88671875,6008.94287109375,15323.162109375,11664.2314453125,14556.2490234375,11386.0771484375,1925.6273193359375,2223.650634765625,11194.546875,0.0,4775.52392578125,8843.7392578125,8586.2470703125,7390.18115234375,12700.5576171875,11017.322265625,17139.1171875,-14460.0869140625,3507.931884765625,11336.8037109375,6953.08056640625,5226.13525390625,4336.0390625,0.0,10679.5625
6503.26416015625,3487.26904296875,16181.46875,6697.177734375,18560.88671875,7085.00537109375,9601.1162109375,14808.97265625,6682.078125,9236.3359375,10364.849609375,8273.9189453125,-3600.915283203125,0.0,12864.2724609375,13572.375,3060.5,3033.47900390625,5407.33349609375,6980.10107421875,5575.81591796875,12526.51171875,9579.658203125,24537.244140625,-259.8762512207031,1476.605712890625,6339.5498046875,14959.17578125,-6689.23046875,2989.76904296875,19789.537109375,-10894.9345703125,-4647.57275390625,3643.83056640625,12244.3837890625,12822.9453125,7025.40087890625,9921.3916015625,6407.10205078125,-0.0,6234.64599609375,28347.173828125,32164.2578125,10128.021484375,20196.4375,15855.630859375,-2037.6842041015625,-5348.5234375,6004.1748046875,15324.751953125,11669.794921875,14558.6328125,11390.0498046875,1900.9908447265625,2217.292724609375,11196.13671875,0.0,4778.703125,8842.150390625,8580.6845703125,7382.23388671875,12699.763671875,11015.732421875,17139.1171875,-14464.85546875,3503.95849609375,11343.1611328125,6941.9541015625,5235.671875,4349.5498046875,0.0,10688.3046875
6485.7802734375,3452.301025390625,16190.2099609375,6708.3037109375,18568.833984375,7095.3369140625,9601.1162109375,14816.919921875,6674.130859375,9235.541015625,10371.2080078125,8281.8671875,-3591.37841796875,0.0,12845.1982421875,13581.912109375,3073.215576171875,3039.8369140625,5411.306640625,6977.716796875,5583.76318359375,12536.048828125,9585.2216796875,24542.80859375,-249.54476928710938,1486.9371337890625,6338.75537109375,14969.5078125,-6680.48876953125,2992.94775390625,19796.689453125,-10886.1923828125,-4633.26806640625,3655.75146484375,12251.5361328125,12830.0986328125,7026.990234375,9926.16015625,6411.87060546875,-0.0,6239.4140625,28359.890625,32167.435546875,10135.173828125,20191.669921875,15858.80859375,-2059.141845703125,-5331.03955078125,6006.55908203125,15335.876953125,11652.310546875,14567.375,11405.150390625,1870.7911376953125,2208.55078125,11204.87890625,0.0,4765.9873046875,8833.408203125,8589.4267578125,7379.05517578125,12705.326171875,11017.322265625,17138.322265625,-14457.703125,3510.316162109375,11323.29296875,6910.9599609375,5194.34619140625,4320.14453125,0.0,10693.8681640625
6470.68017578125,3444.353759765625,16189.4169921875,6721.01953125,18572.01171875,7092.95263671875,9601.91015625,14816.125,6678.8994140625,9240.3095703125,10362.4658203125,8289.814453125,-3616.01513671875,0.0,12850.76171875,13581.1162109375,3074.01025390625,3039.8369140625,5412.1015625,6983.2802734375,5583.76318359375,12535.2548828125,9585.2216796875,24540.423828125,-247.16058349609375,1486.1424560546875,6341.93408203125,14967.1240234375,-6683.66748046875,2995.33203125,19797.484375,-10883.80859375,-4628.49951171875,3674.824951171875,12251.5361328125,12828.509765625,7026.1953125,9926.16015625,6419.02294921875,-0.0,6243.3876953125,28355.916015625,32169.818359375,10134.37890625,20194.052734375,15862.783203125,-2079.010009765625,-5300.044921875,6017.68505859375,15337.466796875,11656.2841796875,14565.78515625,11396.408203125,1832.6441650390625,2205.371826171875,11200.1103515625,0.0,4761.21923828125,8838.970703125,8594.1953125,7364.75,12702.94140625,11018.912109375,17144.6796875,-14463.265625,3508.726806640625,11331.240234375,6945.13330078125,5223.7509765625,4343.19140625,0.0,10694.6630859375
6475.44873046875,3436.406494140625,16190.2099609375,6721.814453125,18556.9140625,7085.80029296875,9597.9375,14801.8193359375,6680.48876953125,9241.1044921875,10348.9560546875,8279.482421875,-3639.85693359375,0.0,12853.9404296875,13566.8115234375,3062.089111328125,3029.50537109375,5404.94921875,6983.2802734375,5572.63720703125,12526.51171875,9574.890625,24531.68359375,-259.0815124511719,1478.1951904296875,6351.470703125,14958.3818359375,-6695.58837890625,2982.616455078125,19784.76953125,-10894.1396484375,-4640.42041015625,3665.288330078125,12240.41015625,12818.97265625,7023.0166015625,9917.4189453125,6396.7705078125,-0.0,6226.6982421875,28347.173828125,32160.28125,10126.431640625,20194.052734375,15857.2197265625,-2064.704833984375,-5308.787109375,6000.20068359375,15331.109375,11658.6689453125,14553.0703125,11389.255859375,1830.2598876953125,2201.398193359375,11181.8310546875,0.0,4743.73486328125,8842.9453125,8577.505859375,7370.31298828125,12691.0205078125,11014.1435546875,17153.421875,-14472.0078125,3495.21630859375,11333.625,6934.00732421875,5240.4404296875,4369.41748046875,0.0,10704.994140625
6469.0908203125,3405.411865234375,16206.1064453125,6682.078125,18547.376953125,7087.3896484375,9591.5791015625,14791.48828125,6670.95166015625,9229.18359375,10354.5185546875,8264.3828125,-3643.83056640625,0.0,12842.814453125,13554.890625,3061.29443359375,3025.53173828125,5397.001953125,6971.359375,5567.07373046875,12525.7177734375,9568.5322265625,24528.50390625,-263.8498840332031,1476.605712890625,6345.11328125,14948.8447265625,-6697.177734375,2972.284912109375,19783.177734375,-10888.576171875,-4651.54638671875,3647.80419921875,12234.0517578125,12816.5888671875,7014.2744140625,9911.8544921875,6434.12255859375,-0.0,6221.93017578125,28359.09375,32154.720703125,10121.6630859375,20182.927734375,15850.8623046875,-2034.505126953125,-5379.51806640625,5997.81640625,15328.724609375,11647.5419921875,14538.7646484375,11388.4609375,1831.8494873046875,2195.04052734375,11173.884765625,0.0,4700.02490234375,8835.79296875,8572.7373046875,7387.00244140625,12686.2529296875,11008.580078125,17142.294921875,-14469.6240234375,3490.447998046875,11321.7041015625,6887.11767578125,5196.72998046875,4345.57568359375,0.0,10697.046875
6446.83837890625,3391.10693359375,16203.7216796875,6674.92529296875,18557.70703125,7080.23681640625,9591.5791015625,14789.8984375,6678.1044921875,9233.1572265625,10340.2138671875,8254.05078125,-3626.3466796875,0.0,12862.6826171875,13553.3017578125,3059.705078125,3023.1474609375,5395.41259765625,6976.92236328125,5565.484375,12522.5380859375,9567.7373046875,24524.53125,-282.9233703613281,1473.4267578125,6337.166015625,14939.30859375,-6701.1513671875,2972.284912109375,19781.58984375,-10886.986328125,-4653.1357421875,3645.420166015625,12233.2568359375,12814.2041015625,7015.86376953125,9910.265625,6477.8330078125,-0.0,6225.10888671875,28357.505859375,32157.103515625,10115.3056640625,20189.28515625,15851.65625,-2025.7633056640625,-5396.20751953125,6002.5849609375,15318.3935546875,11665.8212890625,14537.1748046875,11365.4140625,1799.2655029296875,2180.7353515625,11173.0888671875,0.0,4694.4619140625,8847.7138671875,8578.30078125,7376.6708984375,12683.8681640625,11010.96484375,17147.859375,-14476.7763671875,3484.090087890625,11341.572265625,6910.9599609375,5234.08251953125,4351.13916015625,0.0,10696.251953125
6425.380859375,3411.769775390625,16185.4423828125,6660.6201171875,18540.224609375,7059.57421875,9582.8369140625,14777.18359375,6682.87255859375,9229.18359375,10330.6767578125,8246.1044921875,-3616.01513671875,0.0,12871.4248046875,13540.5859375,3043.015625,3007.2529296875,5386.67041015625,6975.33251953125,5548.00048828125,12502.669921875,9555.0224609375,24510.224609375,-294.0495910644531,1458.326904296875,6325.2451171875,14922.619140625,-6709.0986328125,2961.953369140625,19764.900390625,-10903.67578125,-4671.4150390625,3633.4990234375,12219.7470703125,12798.3095703125,7007.1220703125,9899.1396484375,6458.75927734375,-0.0,6207.625,28329.69140625,32149.154296875,10099.4111328125,20186.900390625,15842.9150390625,-2025.7633056640625,-5346.93408203125,5995.4326171875,15300.91015625,11674.5634765625,14526.84375,11359.0556640625,1787.3446044921875,2181.530029296875,11161.16796875,0.0,4715.12451171875,8856.4560546875,8566.3798828125,7352.0341796875,12672.7421875,11003.8115234375,17151.83203125,-14490.287109375,3470.579833984375,11349.5185546875,6904.60205078125,5281.7666015625,4343.19140625,0.0,10693.8681640625
6435.71240234375,3478.527099609375,16163.1904296875,6666.978515625,18529.095703125,7064.34228515625,9569.3271484375,14782.74609375,6651.87841796875,9216.4677734375,10345.7763671875,8256.435546875,-3616.01513671875,0.0,12817.3828125,13545.353515625,3043.810546875,3007.2529296875,5381.107421875,6956.25927734375,5546.4111328125,12503.46484375,9549.458984375,24508.634765625,-274.9761047363281,1464.684814453125,6314.11865234375,14935.333984375,-6698.76708984375,2969.90087890625,19764.10546875,-10902.0869140625,-4673.798828125,3636.677978515625,12215.7734375,12797.5146484375,6995.99609375,9898.3447265625,6369.74951171875,-0.0,6203.6513671875,28325.716796875,32133.26171875,10102.58984375,20164.6484375,15836.5576171875,-2032.915771484375,-5311.9658203125,5976.35888671875,15309.6513671875,11622.9052734375,14531.6123046875,11357.466796875,1833.4388427734375,2196.6298828125,11173.0888671875,0.0,4734.1982421875,8807.1826171875,8567.9697265625,7354.41845703125,12669.5634765625,10991.890625,17123.22265625,-14479.955078125,3482.500732421875,11293.8876953125,6879.1708984375,5156.99365234375,4309.81298828125,0.0,10676.3837890625
6445.2490234375,3523.031982421875,16167.958984375,6664.59423828125,18527.5078125,7065.13720703125,9570.916015625,14789.8984375,6647.10986328125,9218.8515625,10350.544921875,8258.025390625,-3633.4990234375,0.0,12816.5888671875,13554.890625,3041.426513671875,3006.458251953125,5384.28662109375,6953.875,5544.8212890625,12501.8759765625,9549.458984375,24509.4296875,-274.1813659667969,1467.0689697265625,6318.09228515625,14938.513671875,-6701.9462890625,2962.748291015625,19762.515625,-10905.265625,-4674.59326171875,3628.730712890625,12212.59375,12797.5146484375,6995.99609375,9898.3447265625,6402.33349609375,-0.0,6190.935546875,28324.126953125,32131.671875,10104.9736328125,20163.85546875,15838.94140625,-2034.505126953125,-5327.8603515625,5965.23291015625,15311.2412109375,11622.111328125,14540.3544921875,11343.9560546875,1862.049072265625,2186.29833984375,11170.705078125,0.0,4755.65576171875,8798.4404296875,8584.658203125,7350.44482421875,12667.9736328125,10992.6865234375,17111.30078125,-14480.75,3482.500732421875,11296.2724609375,6908.57568359375,5139.509765625,4322.52880859375,0.0,10670.025390625
