-12347.6982421875,-13519.1279296875,-3840.128662109375,1498.858154296875,1554.4891357421875,15943.05078125,-1629.98828125,1818.3389892578125,9.5367431640625,5857.1494140625,-8066.4951171875,-7719.19873046875,-5164.146484375,3626.3466796875,318.6861572265625,-6194.90966796875,2854.6650390625,4291.5341796875,6527.90087890625,17639.794921875,5191.16748046875,11564.890625,3480.11669921875,16967.455078125,-5288.9189453125,-4256.56640625,-2062.32080078125,-2032.915771484375,-6700.35693359375,-247.955322265625,8533.0009765625,7208.98291015625,3170.967041015625,4319.349609375,1962.9796142578125,7638.13623046875,-445.8427429199219,20329.15625,-5804.69775390625,-0.0,-3968.080078125,10197.1630859375,-1411.43798828125,-947.3164672851562,2065.49951171875,9361.9033203125,-6120.205078125,3586.610107421875,-4116.69384765625,484.7844543457031,-1514.752685546875,10418.09765625,-7596.01611328125,-15075.20703125,-7477.6015625,-542.0048828125,-243.98167419433594,-7506.2119140625,-1990.795166015625,-2991.3583984375,-10678.7685546875,5400.1806640625,1962.1849365234375,1444.0218505859375,-6881.55517578125,783.6024169921875,0.0,-1657.0091552734375,0.0,-2476.374267578125,-0.0,1075.267822265625
-12386.6396484375,-13515.1552734375,-3887.017578125,1458.326904296875,1548.13134765625,15919.208984375,-1660.1881103515625,1786.5499267578125,-38.14697265625,5829.33447265625,-8141.2001953125,-7779.59814453125,-5187.193359375,3569.9208984375,274.9761047363281,-6225.10888671875,2818.107666015625,4261.3349609375,6496.111328125,17599.263671875,5163.3515625,11533.1015625,3454.685302734375,16938.05078125,-5250.77197265625,-4254.18212890625,-2096.493896484375,-2060.731201171875,-6738.50390625,-275.77081298828125,8501.2119140625,7169.24658203125,3133.61474609375,4285.1767578125,1939.9324951171875,7611.11572265625,-476.837158203125,20297.369140625,-5850.7919921875,-0.0,-3983.974365234375,10172.5263671875,-1431.3062744140625,-974.3372802734375,2029.73681640625,9330.11328125,-6167.09375,3550.052734375,-4137.357421875,472.863525390625,-1556.873291015625,10386.3076171875,-6029.60595703125,-15074.412109375,-7518.92724609375,-561.8731079101562,-278.1549987792969,-7538.79541015625,-2009.073974609375,-3015.9951171875,-10705.7890625,5371.57080078125,1926.422119140625,1396.338134765625,-6901.4228515625,712.0768432617188,0.0,-1703.8980712890625,0.0,-2514.521240234375,-0.0,1039.5050048828125
-12505.0546875,-13469.85546875,-3894.96484375,1437.6640625,1537.005126953125,15921.5927734375,-1653.0355224609375,1791.3182373046875,-11.126200675964355,5857.1494140625,-8163.4521484375,-7776.4189453125,-5195.935546875,3604.888916015625,280.5391845703125,-6229.08251953125,2810.955078125,4262.92431640625,6504.05859375,17629.46484375,5158.5830078125,11525.154296875,3458.658935546875,16941.228515625,-5229.314453125,-4234.31396484375,-2105.236083984375,-2058.346923828125,-6742.4775390625,-294.0495910644531,8496.443359375,7162.09423828125,3129.641357421875,4273.255859375,1936.753662109375,7610.3212890625,-469.6846008300781,20302.13671875,-5807.87646484375,-0.0,-3995.1005859375,10166.16796875,-1428.1273193359375,-972.747802734375,2042.4525146484375,9340.4453125,-6140.0732421875,3528.594970703125,-4122.25732421875,468.8898620605469,-1551.3101806640625,10393.4599609375,-4475.91162109375,-15083.94921875,-7521.3115234375,-567.4362182617188,-257.4920654296875,-7528.4638671875,-2002.716064453125,-3004.07421875,-10707.3779296875,5373.95458984375,1941.52197265625,1426.537841796875,-6898.244140625,697.771728515625,0.0,-1690.3876953125,0.0,-2488.29541015625,-0.0,1065.7310791015625
-12485.9814453125,-13349.8505859375,-3849.665283203125,1447.9954833984375,1543.3629150390625,15949.4072265625,-1622.0411376953125,1837.4124755859375,40.531158447265625,5908.01220703125,-8087.158203125,-7714.43017578125,-5170.50390625,3683.567138671875,318.6861572265625,-6170.27294921875,2845.12841796875,4295.5078125,6539.82177734375,17692.248046875,5189.57763671875,11556.1484375,3485.6796875,16976.9921875,-5184.80908203125,-4235.9033203125,-2098.878173828125,-2012.2528076171875,-6690.8203125,-272.5919189453125,8529.02734375,7194.677734375,3168.5830078125,4302.66064453125,1965.36376953125,7642.90478515625,-437.89544677734375,20341.873046875,-5781.650390625,-0.0,-3967.28515625,10190.009765625,-1412.2327880859375,-934.600830078125,2079.8046875,9388.923828125,-6141.66259765625,3533.36328125,-4077.752685546875,480.810791015625,-1514.752685546875,10444.3232421875,-3208.3193359375,-15047.390625,-7469.654296875,-572.20458984375,-218.5503692626953,-7481.5751953125,-1990.00048828125,-2960.364013671875,-10724.8623046875,5407.33349609375,1987.6163330078125,1479.78466796875,-6844.99755859375,765.3236083984375,0.0,-1644.29345703125,0.0,-2447.76416015625,-0.0,1103.083251953125
-12404.9189453125,-13289.451171875,-3847.28125,1477.400390625,1533.031494140625,15966.0966796875,-1607.7359619140625,1859.6649169921875,67.55193328857422,5950.1328125,-8044.24267578125,-7687.40966796875,-5129.97314453125,3709.79296875,348.09112548828125,-6155.1728515625,2863.4072265625,4310.60791015625,6557.3056640625,17718.47265625,5200.7041015625,11576.0166015625,3493.626953125,16995.271484375,-5154.60986328125,-4227.16162109375,-2057.55224609375,-1990.00048828125,-6655.0576171875,-212.9872589111328,8546.51171875,7209.77783203125,3182.09326171875,4322.52880859375,1972.516357421875,7659.59423828125,-424.38507080078125,20362.53515625,-5750.65625,-0.0,-3954.5693359375,10209.8779296875,-1424.1536865234375,-916.3220825195312,2104.44140625,9415.9443359375,-6121.79443359375,3564.357666015625,-4057.08935546875,491.14227294921875,-1486.9371337890625,10461.0126953125,-1817.5443115234375,-14986.9921875,-7434.68603515625,-518.957763671875,-201.0663299560547,-7440.2490234375,-1947.8797607421875,-2919.0380859375,-10721.68359375,5421.638671875,2009.86865234375,1514.752685546875,-6826.71875,807.4442749023438,0.0,-1595.8150634765625,0.0,-2395.31201171875,-0.0,1149.9722900390625
-12292.8623046875,-13278.3251953125,-3809.13427734375,1525.87890625,1595.020263671875,16027.2919921875,-1575.152099609375,1897.01708984375,93.7779769897461,5977.15380859375,-8005.30126953125,-7646.87890625,-5127.5888671875,3729.6611328125,347.29638671875,-6119.41015625,2907.912109375,4353.5234375,6593.068359375,17748.673828125,5246.00341796875,11622.111328125,3535.74755859375,17037.392578125,-5108.51513671875,-4136.5625,-2014.636962890625,-1954.2376708984375,-6679.69384765625,-158.15098571777344,8591.015625,7256.66650390625,3220.240234375,4373.3916015625,2017.021240234375,7704.09912109375,-390.21173095703125,20399.888671875,-5747.47705078125,-0.0,-3906.8857421875,10279.814453125,-1376.469970703125,-870.227783203125,2128.283203125,9450.912109375,-6061.39501953125,3609.6572265625,-4057.08935546875,576.17822265625,-1485.3477783203125,10495.185546875,-1221.4979248046875,-14897.1875,-7456.9384765625,-469.6846008300781,-212.19253540039062,-7404.486328125,-1929.60107421875,-2878.5068359375,-10627.90625,5460.58056640625,2042.4525146484375,1556.07861328125,-6841.818359375,832.8755493164062,0.0,-1567.204833984375,0.0,-2361.933349609375,-0.0,1181.7613525390625
-12246.767578125,-13326.8037109375,-3821.849853515625,1529.057861328125,1602.1728515625,16044.775390625,-1570.3836669921875,1913.7064208984375,101.72525787353516,5981.12744140625,-8015.6328125,-7633.3681640625,-5137.12548828125,3765.424072265625,335.3754577636719,-6111.462890625,2909.501220703125,4358.29150390625,6601.810546875,17759.00390625,5246.7978515625,11628.46875,3546.078857421875,17047.724609375,-5122.8203125,-4107.9521484375,-2032.915771484375,-1931.1904296875,-6669.3623046875,-205.03997802734375,8595.7841796875,7261.43505859375,3220.240234375,4377.365234375,2020.994873046875,7712.04638671875,-384.6486511230469,20413.3984375,-5753.8349609375,-0.0,-3906.8857421875,10288.5556640625,-1355.8070068359375,-852.7437744140625,2133.051513671875,9469.19140625,-6093.97900390625,3616.809814453125,-4119.873046875,596.8411865234375,-1499.65283203125,10513.46484375,-1804.033935546875,-14940.1025390625,-7446.60693359375,-558.6942138671875,-224.90818786621094,-7417.2021484375,-1930.395751953125,-2861.02294921875,-10615.9853515625,5468.52734375,2051.1943359375,1570.3836669921875,-6834.666015625,841.6175537109375,0.0,-1559.257568359375,0.0,-2357.959716796875,-0.0,1182.55615234375
-12307.9619140625,-13345.8779296875,-3841.718017578125,1549.720703125,1603.7623291015625,16068.6171875,-1569.5889892578125,1909.7327880859375,96.16216278076172,5975.564453125,-8108.61572265625,-7688.2041015625,-5165.73583984375,3749.529541015625,354.4489440917969,-6113.84716796875,2896.78564453125,4358.29150390625,6599.42626953125,17748.673828125,5238.85107421875,11629.263671875,3547.66845703125,17054.876953125,-5170.50390625,-4068.2158203125,-2038.4788818359375,-1911.322265625,-6681.28369140625,-233.65020751953125,8590.2216796875,7239.18310546875,3205.935302734375,4367.828125,2018.6107177734375,7718.404296875,-384.6486511230469,20411.810546875,-5780.06103515625,-0.0,-3923.574951171875,10292.5302734375,-1346.270263671875,-836.8492431640625,2130.66748046875,9455.6806640625,-6115.4365234375,3641.4462890625,-4075.368408203125,665.1878662109375,-1480.579345703125,10511.875,-2881.68603515625,-15002.88671875,-7461.70654296875,-523.7261352539062,-220.1398162841797,-7425.94384765625,-1931.1904296875,-2876.122802734375,-10691.4833984375,5469.322265625,2044.8367919921875,1560.846923828125,-6789.3662109375,790.7549438476562,0.0,-1556.07861328125,0.0,-2356.3701171875,-0.0,1186.52978515625
-12347.6982421875,-13333.95703125,-3818.6708984375,1555.283935546875,1616.47802734375,16077.3603515625,-1556.873291015625,1916.090576171875,97.75161743164062,5980.3330078125,-8068.0849609375,-7692.97265625,-5133.15185546875,3735.224365234375,382.26446533203125,-6103.515625,2900.759521484375,4369.41748046875,6608.16796875,17748.673828125,5246.00341796875,11635.62109375,3555.61572265625,17065.20703125,-5194.34619140625,-4100.7998046875,-2007.484375,-1906.5538330078125,-6688.43603515625,-208.21888732910156,8597.3740234375,7235.208984375,3210.70361328125,4372.5966796875,2027.3525390625,7730.3251953125,-371.13824462890625,20419.755859375,-5799.134765625,-0.0,-3918.806640625,10295.708984375,-1347.06494140625,-827.3125,2142.58837890625,9459.6552734375,-6065.36865234375,3647.009521484375,-3971.258544921875,664.3931274414062,-1450.3797607421875,10522.2060546875,-2481.142822265625,-15002.88671875,-7467.27001953125,-464.9162292480469,-205.03997802734375,-7402.10205078125,-1898.606689453125,-2879.3017578125,-10693.8681640625,5478.06396484375,2051.1943359375,1555.283935546875,-6783.80322265625,793.933837890625,0.0,-1564.8206787109375,0.0,-2366.701904296875,-0.0,1180.9666748046875
-12482.802734375,-13354.619140625,-3814.697265625,1490.910888671875,1561.6417236328125,15982.7861328125,-1601.3780517578125,1867.6121826171875,65.96247100830078,5946.9541015625,-8082.3896484375,-7668.33642578125,-5147.45703125,3701.051025390625,326.6334533691406,-6144.841796875,2862.612548828125,4328.88671875,6564.45849609375,17716.884765625,5215.00927734375,11582.375,3508.726806640625,17008.78125,-5186.39892578125,-4227.9560546875,-2052.783935546875,-1996.358154296875,-6674.130859375,-229.6765594482422,8556.048828125,7202.62548828125,3185.272216796875,4326.50244140625,1986.0267333984375,7670.720703125,-417.2325134277344,20372.8671875,-5800.72412109375,-0.0,-3933.111572265625,10211.4677734375,-1405.8748779296875,-899.6327514648438,2102.05712890625,9419.1240234375,-6095.568359375,3581.841796875,-4007.81640625,495.91064453125,-1506.805419921875,10469.75390625,-443.45855712890625,-15009.244140625,-7453.759765625,-531.6734619140625,-246.36587524414062,-7425.94384765625,-1935.1640625,-2913.47509765625,-10693.8681640625,5431.97021484375,2013.84228515625,1519.5211181640625,-6852.94482421875,819.3651733398438,0.0,-1594.2255859375,0.0,-2400.080322265625,-0.0,1143.6143798828125
-12502.669921875,-13387.998046875,-3852.049560546875,1447.9954833984375,1515.54736328125,15918.4130859375,-1638.7303466796875,1834.233642578125,40.531158447265625,5920.72802734375,-8114.97412109375,-7663.56787109375,-5146.662109375,3686.745849609375,300.40740966796875,-6168.68359375,2839.565185546875,4292.3291015625,6532.6689453125,17695.427734375,5184.0146484375,11546.611328125,3466.606201171875,16966.662109375,-5184.80908203125,-4270.87158203125,-2074.24169921875,-2044.0418701171875,-6687.64111328125,-246.36587524414062,8526.642578125,7187.525390625,3161.430419921875,4297.09765625,1947.8797607421875,7630.98388671875,-454.5847473144531,20337.900390625,-5757.80859375,-0.0,-3960.132568359375,10166.16796875,-1460.711181640625,-948.1112060546875,2071.062744140625,9391.3076171875,-6150.404296875,3535.74755859375,-4015.763671875,416.4377746582031,-1533.826171875,10435.5810546875,1714.2296142578125,-15008.44921875,-7466.47509765625,-509.4210510253906,-249.54476928710938,-7455.34912109375,-1982.847900390625,-2942.085205078125,-10711.3525390625,5397.001953125,1986.8214111328125,1498.0634765625,-6824.33447265625,809.03369140625,0.0,-1617.272705078125,0.0,-2423.92236328125,-0.0,1118.9779052734375
-12367.56640625,-13438.0654296875,-3879.0703125,1470.2479248046875,1521.110595703125,15963.712890625,-1620.4515380859375,1852.5123291015625,49.27317428588867,5929.47021484375,-8100.6689453125,-7677.078125,-5104.5419921875,3681.9775390625,338.55438232421875,-6140.86767578125,2845.12841796875,4301.8662109375,6546.17919921875,17704.962890625,5179.24658203125,11562.5068359375,3480.11669921875,16984.939453125,-5207.8564453125,-4220.0087890625,-2063.91015625,-1999.5372314453125,-6662.2099609375,-244.77639770507812,8533.0009765625,7195.47265625,3155.867431640625,4309.0185546875,1954.2376708984375,7650.85205078125,-435.5112609863281,20352.205078125,-5815.029296875,-0.0,-3987.153564453125,10203.5205078125,-1439.25341796875,-927.4482421875,2089.34130859375,9408.7919921875,-6140.0732421875,3561.9736328125,-4042.7841796875,506.2420959472656,-1498.0634765625,10457.8330078125,2900.759521484375,-14998.9130859375,-7441.8388671875,-508.62628173828125,-214.57672119140625,-7429.91796875,-1937.54833984375,-2930.958984375,-10693.8681640625,5408.9228515625,1999.5372314453125,1505.2159423828125,-6784.59765625,790.7549438476562,0.0,-1613.299072265625,0.0,-2418.359130859375,-0.0,1128.5146484375
-12324.650390625,-13472.2392578125,-3857.612548828125,1511.57373046875,1555.283935546875,15997.88671875,-1610.914794921875,1863.6385498046875,67.55193328857422,5947.74853515625,-8107.8212890625,-7729.5302734375,-5118.05224609375,3708.20361328125,332.1965637207031,-6135.3046875,2861.817626953125,4320.14453125,6557.3056640625,17724.037109375,5201.49853515625,11580.78515625,3498.395263671875,17002.423828125,-5155.40478515625,-4189.80908203125,-2063.91015625,-1984.437255859375,-6676.51513671875,-210.6030731201172,8546.51171875,7205.80419921875,3171.76171875,4327.29736328125,1973.3111572265625,7670.720703125,-424.38507080078125,20365.71484375,-5819.00244140625,-0.0,-3948.211669921875,10235.3095703125,-1417.0010986328125,-905.9906005859375,2098.08349609375,9422.302734375,-6124.17822265625,3601.7099609375,-4033.24755859375,534.0576171875,-1502.831787109375,10466.5751953125,3755.092529296875,-14992.5546875,-7457.7333984375,-503.85791015625,-219.3450927734375,-7414.81787109375,-1954.2376708984375,-2898.375244140625,-10691.4833984375,5423.22802734375,2011.4581298828125,1522.699951171875,-6806.0556640625,761.3499755859375,0.0,-1602.1728515625,0.0,-2401.669677734375,-0.0,1142.8197021484375
-12363.5927734375,-13461.11328125,-3837.744384765625,1489.3214111328125,1596.6097412109375,15966.892578125,-1609.325439453125,1846.154541015625,70.73084259033203,5946.9541015625,-8175.373046875,-7706.4833984375,-5153.0205078125,3712.17724609375,324.249267578125,-6169.47802734375,2864.201904296875,4318.55517578125,6553.33203125,17721.65234375,5215.00927734375,11570.4541015625,3503.16357421875,16989.70703125,-5095.7998046875,-4220.0087890625,-2059.9365234375,-2007.484375,-6735.32470703125,-226.49765014648438,8545.7158203125,7204.21435546875,3182.887939453125,4320.939453125,1966.9532470703125,7654.82568359375,-425.1798095703125,20356.177734375,-5782.4453125,-0.0,-3906.091064453125,10206.69921875,-1404.285400390625,-927.4482421875,2096.493896484375,9410.380859375,-6105.89990234375,3578.662841796875,-3995.1005859375,489.55279541015625,-1508.3948974609375,10444.3232421875,3285.407958984375,-15014.0126953125,-7514.15869140625,-525.3156127929688,-239.2133026123047,-7460.912109375,-1953.44287109375,-2910.296142578125,-10707.3779296875,5418.45947265625,2005.8948974609375,1521.9052734375,-6873.607421875,762.939453125,0.0,-1610.1201171875,0.0,-2407.23291015625,-0.0,1139.640869140625
-12399.35546875,-13411.83984375,-3856.81787109375,1474.2215576171875,1589.4571533203125,15940.666015625,-1610.1201171875,1849.3333740234375,70.73084259033203,5947.74853515625,-8148.3525390625,-7685.8203125,-5172.09375,3720.12451171875,309.1494140625,-6171.8623046875,2854.6650390625,4310.60791015625,6550.94775390625,17722.44921875,5205.47265625,11562.5068359375,3501.57421875,16984.14453125,-5203.08837890625,-4231.134765625,-2059.9365234375,-2002.716064453125,-6759.16650390625,-228.8818359375,8538.5634765625,7198.65185546875,3174.14599609375,4314.58154296875,1944.7008056640625,7644.49462890625,-427.5639953613281,20352.205078125,-5784.82958984375,-0.0,-3925.164794921875,10193.984375,-1405.0802001953125,-933.0113525390625,2095.69921875,9409.5869140625,-6136.89404296875,3562.768310546875,-4003.8427734375,497.5001220703125,-1522.699951171875,10446.7080078125,630.2197875976562,-15021.9599609375,-7538.00048828125,-519.7525024414062,-251.13424682617188,-7487.9326171875,-1954.2376708984375,-2915.064453125,-10705.7890625,5410.51220703125,2004.3055419921875,1521.110595703125,-6874.40234375,778.039306640625,0.0,-1615.6832275390625,0.0,-2411.20654296875,-0.0,1136.4619140625
-12384.255859375,-13372.103515625,-3877.480712890625,1473.4267578125,1556.873291015625,15953.3828125,-1610.914794921875,1862.049072265625,77.8833999633789,5962.8486328125,-8095.10498046875,-7672.31005859375,-5170.50390625,3736.01904296875,318.6861572265625,-6146.43115234375,2844.333740234375,4306.63427734375,6552.53759765625,17735.958984375,5187.193359375,11559.3271484375,3496.010986328125,16988.912109375,-5283.35546875,-4208.087890625,-2067.089111328125,-1993.9739990234375,-6714.662109375,-247.955322265625,8530.6171875,7187.525390625,3157.45654296875,4308.2236328125,1933.57470703125,7646.083984375,-427.5639953613281,20359.357421875,-5840.46044921875,-0.0,-3972.053466796875,10204.3154296875,-1414.616943359375,-923.474609375,2098.878173828125,9423.0966796875,-6149.60986328125,3561.178955078125,-4044.3740234375,507.8315734863281,-1516.3421630859375,10464.19140625,-3358.523193359375,-15036.265625,-7494.291015625,-556.3099975585938,-252.72369384765625,-7474.42236328125,-1954.2376708984375,-2902.348876953125,-10709.7626953125,5408.12841796875,2009.86865234375,1541.7734375,-6817.9765625,803.4705810546875,0.0,-1600.5833740234375,0.0,-2389.748779296875,-0.0,1158.71435546875
-12404.1240234375,-13376.0771484375,-3852.049560546875,1487.73193359375,1516.3421630859375,15983.58203125,-1618.0673828125,1867.6121826171875,73.90975952148438,5962.8486328125,-8092.72119140625,-7708.07275390625,-5172.09375,3738.4033203125,312.3283386230469,-6130.53662109375,2849.896728515625,4305.83935546875,6549.3583984375,17739.13671875,5184.80908203125,11567.275390625,3484.885009765625,16995.271484375,-5230.90380859375,-4145.30419921875,-2092.5205078125,-1978.874267578125,-6661.4150390625,-265.4393615722656,8533.0009765625,7192.29345703125,3163.019775390625,4314.58154296875,1921.65380859375,7654.03125,-435.5112609863281,20361.7421875,-5834.8974609375,-0.0,-3983.1796875,10231.3359375,-1432.8956298828125,-909.1694946289062,2094.10986328125,9426.2763671875,-6105.89990234375,3573.89453125,-4108.7470703125,545.978515625,-1521.9052734375,10475.318359375,-5993.84326171875,-15038.6494140625,-7442.63330078125,-595.251708984375,-250.33950805664062,-7473.62744140625,-1951.8533935546875,-2907.1171875,-10695.45703125,5408.12841796875,2007.484375,1545.7471923828125,-6828.30810546875,772.4761962890625,0.0,-1604.5570068359375,0.0,-2384.185791015625,-0.0,1166.66162109375
-12427.9658203125,-13401.5087890625,-3849.665283203125,1506.0106201171875,1525.0841064453125,16000.2705078125,-1606.146484375,1873.17529296875,81.85704803466797,5964.43798828125,-8103.05322265625,-7772.44580078125,-5134.7412109375,3739.197998046875,334.58074951171875,-6119.41015625,2862.612548828125,4317.76025390625,6558.10009765625,17739.13671875,5192.7568359375,11582.375,3494.421630859375,17005.6015625,-5184.80908203125,-4115.8994140625,-2075.8310546875,-1974.9005126953125,-6659.03076171875,-251.13424682617188,8543.33203125,7201.0361328125,3169.377685546875,4328.09228515625,1931.1904296875,7666.74658203125,-424.38507080078125,20370.484375,-5794.3662109375,-0.0,-3980.0009765625,10259.1513671875,-1420.179931640625,-899.6327514648438,2106.03076171875,9431.044921875,-6121.79443359375,3591.37841796875,-4100.7998046875,553.131103515625,-1501.2423095703125,10480.880859375,-6285.5087890625,-15036.265625,-7437.86474609375,-557.104736328125,-217.75563049316406,-7457.7333984375,-1927.2169189453125,-2903.938232421875,-10700.2255859375,5417.6650390625,2013.84228515625,1541.7734375,-6827.51318359375,756.5816040039062,0.0,-1605.351806640625,0.0,-2392.927978515625,-0.0,1160.3037109375
-12331.0087890625,-13459.5234375,-3844.10205078125,1500.4476318359375,1542.5682373046875,15982.7861328125,-1596.6097412109375,1868.4068603515625,92.98324584960938,5972.38525390625,-8071.26318359375,-7704.8935546875,-5136.3310546875,3757.476806640625,344.11749267578125,-6148.81494140625,2875.328125,4324.9130859375,6568.431640625,17748.673828125,5202.29345703125,11583.9638671875,3507.13720703125,17007.193359375,-5200.7041015625,-4206.49853515625,-2062.32080078125,-1992.3846435546875,-6678.1044921875,-220.1398162841797,8552.07421875,7217.72509765625,3180.50390625,4336.0390625,1943.1114501953125,7668.33642578125,-413.2588806152344,20373.662109375,-5768.14013671875,-0.0,-3976.82177734375,10236.1044921875,-1405.0802001953125,-909.9642333984375,2118.74658203125,9432.6337890625,-6105.10498046875,3586.610107421875,-4076.957763671875,513.3946533203125,-1492.500244140625,10468.1650390625,-5540.052734375,-15006.859375,-7455.34912109375,-584.12548828125,-229.6765594482422,-7457.7333984375,-1908.9381103515625,-2890.427734375,-10694.6630859375,5424.8173828125,2024.9683837890625,1556.07861328125,-6834.666015625,801.08642578125,0.0,-1591.046630859375,0.0,-2392.927978515625,-0.0,1162.6878662109375
-12322.2666015625,-13531.048828125,-3853.638916015625,1501.2423095703125,1529.8525390625,15961.328125,-1601.3780517578125,1868.4068603515625,89.80432891845703,5972.38525390625,-8059.34228515625,-7712.04638671875,-5139.509765625,3739.992919921875,352.8594970703125,-6140.86767578125,2863.4072265625,4313.787109375,6562.07421875,17747.87890625,5189.57763671875,11568.8642578125,3498.395263671875,16997.65625,-5264.2822265625,-4228.75048828125,-2063.91015625,-1986.0267333984375,-6672.541015625,-207.42416381835938,8539.359375,7208.1884765625,3170.17236328125,4324.9130859375,1932.7799072265625,7652.44140625,-417.2325134277344,20368.099609375,-5817.4130859375,-0.0,-3997.484619140625,10202.7255859375,-1411.43798828125,-915.52734375,2118.74658203125,9431.8388671875,-6092.3896484375,3588.994384765625,-4088.083740234375,500.67901611328125,-1482.1688232421875,10471.34375,-5698.9990234375,-15004.4755859375,-7448.9912109375,-547.5679931640625,-234.44493103027344,-7458.52783203125,-1900.9908447265625,-2889.63330078125,-10716.9150390625,5416.0751953125,2023.3790283203125,1549.720703125,-6841.818359375,809.8284301757812,0.0,-1593.430908203125,0.0,-2378.622802734375,-0.0,1172.224609375
-12380.2822265625,-13500.849609375,-3871.123046875,1518.726318359375,1542.5682373046875,15979.6083984375,-1607.7359619140625,1869.20166015625,88.21487426757812,5973.974609375,-8130.8681640625,-7739.06689453125,-5168.1201171875,3745.555908203125,330.6070861816406,-6117.02587890625,2861.02294921875,4313.787109375,6558.89501953125,17747.083984375,5192.7568359375,11572.837890625,3495.21630859375,17000.833984375,-5222.9560546875,-4169.94091796875,-2073.447021484375,-1978.07958984375,-6693.20458984375,-199.4768829345703,8538.5634765625,7199.4462890625,3166.993408203125,4328.09228515625,1935.9588623046875,7654.82568359375,-422.0008850097656,20369.6875,-5819.79736328125,-0.0,-3974.437744140625,10231.3359375,-1413.0274658203125,-908.374755859375,2107.6201171875,9432.6337890625,-6153.58349609375,3607.273193359375,-4080.93115234375,526.1103515625,-1506.0106201171875,10476.9072265625,-7350.44482421875,-15048.98046875,-7470.44873046875,-491.9369812011719,-243.18695068359375,-7444.22314453125,-1951.8533935546875,-2893.60693359375,-10716.9150390625,5416.0751953125,2018.6107177734375,1545.7471923828125,-6834.666015625,787.5760498046875,0.0,-1607.7359619140625,0.0,-2381.801513671875,-0.0,1173.0194091796875
-12392.998046875,-13375.2822265625,-3870.328125,1490.1160888671875,1557.6680908203125,15985.9658203125,-1601.3780517578125,1871.5858154296875,92.18851470947266,5975.564453125,-8134.04736328125,-7696.94677734375,-5160.1728515625,3748.734619140625,335.3754577636719,-6131.3310546875,2856.254638671875,4316.17138671875,6562.86865234375,17750.263671875,5195.140625,11575.2216796875,3501.57421875,17004.013671875,-5225.34033203125,-4185.041015625,-2061.526123046875,-1982.0531005859375,-6694.7939453125,-224.90818786621094,8538.5634765625,7194.677734375,3165.404052734375,4324.9130859375,1939.1378173828125,7659.59423828125,-415.64306640625,20372.072265625,-5828.53955078125,-0.0,-3963.311767578125,10236.1044921875,-1405.8748779296875,-904.401123046875,2112.388671875,9433.4287109375,-6140.0732421875,3575.484130859375,-4069.80517578125,535.6470947265625,-1500.4476318359375,10476.1123046875,-8962.154296875,-15077.5908203125,-7471.2431640625,-493.5264587402344,-240.00804138183594,-7458.52783203125,-1938.343017578125,-2891.22265625,-10719.298828125,5420.84375,2021.78955078125,1551.3101806640625,-6834.666015625,785.986572265625,0.0,-1595.020263671875,0.0,-2378.622802734375,-0.0,1176.9930419921875
-12354.8505859375,-13308.525390625,-3867.944091796875,1459.1217041015625,1571.97314453125,15962.9189453125,-1596.6097412109375,1862.049072265625,86.62541961669922,5958.875,-8075.2373046875,-7661.97802734375,-5131.5625,3731.250732421875,355.2436828613281,-6149.60986328125,2853.07568359375,4313.787109375,6560.484375,17736.75390625,5195.140625,11564.890625,3506.342529296875,16996.064453125,-5222.16162109375,-4234.31396484375,-2038.4788818359375,-1996.358154296875,-6697.97265625,-273.3866271972656,8535.384765625,7195.47265625,3163.019775390625,4313.787109375,1942.316650390625,7650.85205078125,-412.4641418457031,20365.71484375,-5822.9765625,-0.0,-3962.516845703125,10213.8515625,-1393.9539794921875,-917.9114990234375,2113.97802734375,9422.302734375,-6109.0791015625,3546.078857421875,-4042.7841796875,501.4737243652344,-1478.989990234375,10464.986328125,-9566.1474609375,-15039.4443359375,-7476.01171875,-518.957763671875,-215.37144470214844,-7476.806640625,-1924.8326416015625,-2915.064453125,-10711.3525390625,5418.45947265625,2015.431640625,1533.826171875,-6850.560546875,794.7285766601562,0.0,-1604.5570068359375,0.0,-2413.590576171875,-0.0,1144.4091796875
-12341.33984375,-13321.240234375,-3857.612548828125,1467.0689697265625,1581.5098876953125,15962.9189453125,-1593.430908203125,1862.049072265625,86.62541961669922,5962.0537109375,-8061.7265625,-7654.03125,-5129.1787109375,3731.250732421875,356.0384216308594,-6152.78857421875,2851.486328125,4313.787109375,6561.279296875,17739.13671875,5199.9091796875,11561.7109375,3508.726806640625,16997.65625,-5157.78857421875,-4250.20849609375,-2028.1474609375,-1993.1793212890625,-6712.27783203125,-262.26043701171875,8535.384765625,7194.677734375,3170.17236328125,4310.60791015625,1949.46923828125,7648.4677734375,-408.4905090332031,20368.099609375,-5830.12890625,-0.0,-3953.77490234375,10200.3408203125,-1385.2119140625,-914.7326049804688,2114.772705078125,9421.5078125,-6096.36328125,3557.999755859375,-4025.300537109375,501.4737243652344,-1480.579345703125,10465.78125,-10179.6787109375,-15014.8076171875,-7492.701171875,-526.1103515625,-204.24525451660156,-7478.39599609375,-1931.9852294921875,-2919.8330078125,-10706.583984375,5419.25439453125,2016.2265625,1534.620849609375,-6848.17626953125,805.06005859375,0.0,-1598.993896484375,0.0,-2407.23291015625,-0.0,1148.3828125
-12351.671875,-13349.8505859375,-3874.302001953125,1478.989990234375,1557.6680908203125,15960.53515625,-1602.9676513671875,1858.075439453125,78.67813110351562,5957.28564453125,-8053.77978515625,-7685.8203125,-5145.07275390625,3724.09814453125,357.62786865234375,-6155.1728515625,2845.923095703125,4306.63427734375,6556.5107421875,17733.57421875,5187.193359375,11554.55859375,3498.395263671875,16992.88671875,-5207.0615234375,-4208.087890625,-2054.37353515625,-1997.94775390625,-6666.18359375,-240.00804138183594,8524.2587890625,7196.267578125,3158.25146484375,4306.63427734375,1933.57470703125,7641.3154296875,-416.4377746582031,20363.330078125,-5815.029296875,-0.0,-3982.38525390625,10183.65234375,-1405.0802001953125,-919.5009765625,2109.209716796875,9418.328125,-6114.6416015625,3569.9208984375,-4076.957763671875,510.21575927734375,-1478.1951904296875,10462.6015625,-10862.3505859375,-15015.6025390625,-7445.017578125,-509.4210510253906,-214.57672119140625,-7475.21728515625,-1926.422119140625,-2918.243408203125,-10712.146484375,5411.306640625,2013.0474853515625,1528.2630615234375,-6820.36083984375,797.9075317382812,0.0,-1602.1728515625,0.0,-2408.822265625,-0.0,1145.9986572265625
-12350.08203125,-13364.951171875,-3851.254638671875,1514.752685546875,1544.1575927734375,15997.0908203125,-1596.6097412109375,1872.380615234375,82.65177154541016,5962.0537109375,-8038.68017578125,-7722.3779296875,-5141.89404296875,3724.892822265625,356.8331298828125,-6148.81494140625,2861.817626953125,4318.55517578125,6566.0478515625,17740.7265625,5192.7568359375,11577.6064453125,3503.95849609375,17010.37109375,-5187.193359375,-4130.20458984375,-2055.168212890625,-1978.07958984375,-6649.494140625,-205.03997802734375,8540.1533203125,7205.80419921875,3170.17236328125,4324.9130859375,1936.753662109375,7664.3623046875,-411.6694030761719,20378.431640625,-5817.4130859375,-0.0,-3976.027099609375,10236.8994140625,-1402.696044921875,-895.6591186523438,2117.156982421875,9431.8388671875,-6096.36328125,3605.68359375,-4068.2158203125,557.104736328125,-1478.989990234375,10474.5224609375,-10015.96484375,-14985.40234375,-7428.328125,-450.6111145019531,-218.5503692626953,-7466.47509765625,-1919.26953125,-2895.990966796875,-10710.556640625,5423.22802734375,2020.994873046875,1529.8525390625,-6793.34033203125,763.7341918945312,0.0,-1589.4571533203125,0.0,-2396.106689453125,-0.0,1151.561767578125
-12445.4501953125,-13391.9716796875,-3870.328125,1509.984375,1551.3101806640625,15987.5546875,-1591.84130859375,1872.380615234375,84.2412338256836,5966.02783203125,-8091.13232421875,-7688.2041015625,-5129.97314453125,3724.09814453125,375.1119079589844,-6141.66259765625,2857.843994140625,4318.55517578125,6568.431640625,17742.314453125,5191.16748046875,11572.837890625,3507.931884765625,17007.986328125,-5197.52490234375,-4165.17236328125,-2033.71044921875,-1978.874267578125,-6683.66748046875,-215.37144470214844,8540.9482421875,7197.06201171875,3166.19873046875,4319.349609375,1938.343017578125,7662.77294921875,-406.1063232421875,20378.431640625,-5783.23974609375,-0.0,-3976.027099609375,10231.3359375,-1393.1593017578125,-899.6327514648438,2120.3359375,9429.455078125,-6123.3837890625,3598.531005859375,-4046.758056640625,531.6734619140625,-1460.711181640625,10477.7021484375,-8200.8046875,-14971.892578125,-7461.70654296875,-523.7261352539062,-193.11904907226562,-7463.29638671875,-1916.8853759765625,-2904.73291015625,-10721.68359375,5425.61181640625,2020.994873046875,1533.826171875,-6809.234375,802.6759033203125,0.0,-1588.6624755859375,0.0,-2388.9541015625,-0.0,1159.509033203125
-12439.091796875,-13403.09765625,-3835.3603515625,1483.75830078125,1600.5833740234375,15973.2490234375,-1579.125732421875,1876.354248046875,93.7779769897461,5973.974609375,-8093.51611328125,-7650.85205078125,-5114.87353515625,3740.78759765625,385.443359375,-6123.3837890625,2864.201904296875,4329.681640625,6577.173828125,17751.05859375,5212.625,11573.6318359375,3526.210693359375,17011.166015625,-5142.68896484375,-4229.54541015625,-2009.86865234375,-1976.489990234375,-6680.48876953125,-228.0871124267578,8548.8955078125,7199.4462890625,3182.887939453125,4319.349609375,1959.80078125,7662.77294921875,-393.3906555175781,20382.404296875,-5780.06103515625,-0.0,-3936.290771484375,10205.109375,-1367.7279052734375,-902.8117065429688,2127.48828125,9434.2236328125,-6088.41552734375,3572.304931640625,-4041.19482421875,523.7261352539062,-1450.3797607421875,10487.2392578125,-6624.857421875,-14994.9384765625,-7459.322265625,-542.0048828125,-186.76121520996094,-7452.96484375,-1920.8590087890625,-2911.0908203125,-10715.3251953125,5434.3544921875,2029.73681640625,1542.5682373046875,-6845.79248046875,831.2861328125,0.0,-1587.86767578125,0.0,-2388.9541015625,-0.0,1166.66162109375
-12362.7978515625,-13382.4345703125,-3821.05517578125,1471.0426025390625,1593.430908203125,15974.044921875,-1577.5362548828125,1880.327880859375,86.62541961669922,5970.7958984375,-8096.69482421875,-7642.1103515625,-5125.20458984375,3715.356201171875,388.6222839355469,-6117.82080078125,2865.791259765625,4332.0654296875,6578.763671875,17745.494140625,5213.41943359375,11576.0166015625,3527.00537109375,17012.75390625,-5187.98828125,-4235.10888671875,-2029.73681640625,-1970.132080078125,-6663.00439453125,-235.2396697998047,8550.484375,7204.21435546875,3183.6826171875,4321.73388671875,1959.80078125,7665.9521484375,-391.80120849609375,20384.7890625,-5831.71826171875,-0.0,-3945.03271484375,10198.751953125,-1366.9332275390625,-901.2222290039062,2130.66748046875,9437.4013671875,-6071.7265625,3560.384033203125,-4138.9462890625,526.1103515625,-1447.9954833984375,10492.8017578125,-5681.5146484375,-15010.0390625,-7443.42822265625,-526.905029296875,-195.50323486328125,-7439.45458984375,-1873.969970703125,-2919.8330078125,-10708.9677734375,5434.3544921875,2028.942138671875,1531.4420166015625,-6836.25537109375,840.0281372070312,0.0,-1591.84130859375,0.0,-2388.9541015625,-0.0,1165.8668212890625
-12338.1611328125,-13370.513671875,-3828.207763671875,1479.78466796875,1578.3310546875,15978.8134765625,-1591.84130859375,1877.943603515625,79.47286224365234,5962.8486328125,-8095.900390625,-7676.283203125,-5132.35693359375,3715.356201171875,334.58074951171875,-6123.3837890625,2861.02294921875,4322.52880859375,6569.2265625,17738.341796875,5203.08837890625,11573.6318359375,3515.87939453125,17007.986328125,-5227.724609375,-4203.3193359375,-2050.39990234375,-1973.3111572265625,-6654.2626953125,-229.6765594482422,8544.1279296875,7203.419921875,3176.530029296875,4319.349609375,1951.8533935546875,7662.77294921875,-408.4905090332031,20378.431640625,-5844.43408203125,-0.0,-3962.516845703125,10213.8515625,-1376.469970703125,-904.401123046875,2113.183349609375,9434.2236328125,-6074.1103515625,3570.715576171875,-4129.40966796875,527.6997680664062,-1499.65283203125,10489.623046875,-4736.58251953125,-15008.44921875,-7434.68603515625,-517.3682861328125,-205.83470153808594,-7446.60693359375,-1923.2431640625,-2908.70654296875,-10708.9677734375,5427.20166015625,2018.6107177734375,1519.5211181640625,-6819.56640625,801.08642578125,0.0,-1608.5306396484375,0.0,-2401.669677734375,-0.0,1151.561767578125
-12385.8447265625,-13410.2509765625,-3856.81787109375,1504.4212646484375,1550.5155029296875,15985.169921875,-1595.8150634765625,1869.20166015625,85.8306884765625,5974.76953125,-8098.28466796875,-7709.662109375,-5160.1728515625,3737.608642578125,342.52801513671875,-6144.046875,2864.201904296875,4322.52880859375,6566.8427734375,17748.673828125,5199.1142578125,11579.990234375,3513.4951171875,17007.193359375,-5241.2353515625,-4175.50439453125,-2045.63134765625,-1980.4637451171875,-6670.95166015625,-205.03997802734375,8546.51171875,7209.77783203125,3174.14599609375,4326.50244140625,1947.0850830078125,7665.9521484375,-410.87469482421875,20376.83984375,-5806.287109375,-0.0,-3975.232666015625,10228.1572265625,-1378.059326171875,-905.1958618164062,2110.799072265625,9429.455078125,-6105.89990234375,3595.35205078125,-4122.25732421875,528.4945068359375,-1491.70556640625,10474.5224609375,-4294.71337890625,-14982.2236328125,-7449.78564453125,-503.85791015625,-206.6294403076172,-7443.42822265625,-1966.1585693359375,-2895.990966796875,-10718.5048828125,5426.40673828125,2018.6107177734375,1535.4156494140625,-6827.51318359375,773.2709350585938,0.0,-1594.2255859375,0.0,-2373.8544921875,-0.0,1169.0457763671875
-12415.25,-13424.5556640625,-3848.075927734375,1530.647216796875,1569.5889892578125,16013.7802734375,-1582.3045654296875,1886.6856689453125,85.8306884765625,5967.6171875,-8052.18994140625,-7700.919921875,-5138.71533203125,3742.376953125,378.2908020019531,-6113.84716796875,2885.659423828125,4342.39697265625,6578.763671875,17747.083984375,5217.3935546875,11603.83203125,3525.416015625,17025.470703125,-5179.24658203125,-4120.66796875,-2017.8157958984375,-1961.3902587890625,-6690.8203125,-190.73486328125,8564.7900390625,7226.46728515625,3193.219482421875,4351.93408203125,1962.1849365234375,7685.8203125,-397.3642883300781,20391.146484375,-5764.16650390625,-0.0,-3945.827392578125,10264.7138671875,-1376.469970703125,-881.35400390625,2122.719970703125,9441.3759765625,-6101.92626953125,3617.6044921875,-4038.810791015625,561.078369140625,-1455.9427490234375,10497.5703125,-4791.41845703125,-14975.865234375,-7469.654296875,-492.73175048828125,-212.19253540039062,-7448.9912109375,-1940.727294921875,-2893.60693359375,-10704.2001953125,5439.12255859375,2026.557861328125,1535.4156494140625,-6833.07666015625,791.5496826171875,0.0,-1585.4835205078125,0.0,-2392.927978515625,-0.0,1151.561767578125
-12451.8076171875,-13438.861328125,-3847.28125,1483.75830078125,1579.92041015625,15988.349609375,-1598.19921875,1853.30712890625,69.93611907958984,5945.3642578125,-8118.15283203125,-7718.404296875,-5122.8203125,3708.20361328125,340.9385681152344,-6157.55712890625,2859.433349609375,4323.32373046875,6555.7158203125,17722.44921875,5208.65087890625,11577.6064453125,3507.931884765625,17001.62890625,-5139.509765625,-4158.02001953125,-2036.8892822265625,-1997.153076171875,-6763.14013671875,-269.4129943847656,8542.5380859375,7196.267578125,3177.324951171875,4324.9130859375,1950.263916015625,7659.59423828125,-412.4641418457031,20364.126953125,-5821.38671875,-0.0,-3929.13818359375,10232.92578125,-1386.8013916015625,-910.7589721679688,2107.6201171875,9411.17578125,-6121.79443359375,3570.715576171875,-3979.2060546875,527.6997680664062,-1492.500244140625,10458.62890625,-5789.59814453125,-15052.955078125,-7542.76904296875,-576.9729614257812,-245.57113647460938,-7473.62744140625,-1920.8590087890625,-2915.064453125,-10727.24609375,5419.25439453125,2004.3055419921875,1509.1895751953125,-6873.607421875,778.8340454101562,0.0,-1605.351806640625,0.0,-2405.6435546875,-0.0,1129.309326171875
-12357.2353515625,-13428.5283203125,-3839.333740234375,1494.0897216796875,1560.05224609375,16008.21875,-1617.272705078125,1861.25439453125,58.80991744995117,5938.2119140625,-8187.2939453125,-7742.24609375,-5160.96728515625,3712.17724609375,303.5863342285156,-6150.404296875,2857.04931640625,4315.37646484375,6545.384765625,17723.2421875,5202.29345703125,11578.400390625,3492.03759765625,17004.013671875,-5150.63623046875,-4154.8408203125,-2094.904541015625,-1974.1058349609375,-6734.52978515625,-255.10787963867188,8537.76953125,7196.267578125,3174.14599609375,4323.32373046875,1939.1378173828125,7661.97802734375,-433.1270751953125,20361.7421875,-5837.28173828125,-0.0,-3926.75390625,10244.0517578125,-1420.179931640625,-898.8380126953125,2087.752197265625,9413.5595703125,-6126.5625,3581.841796875,-4020.5322265625,552.3363647460938,-1528.2630615234375,10472.138671875,-5233.28759765625,-15040.23828125,-7514.15869140625,-558.6942138671875,-249.54476928710938,-7470.44873046875,-1962.9796142578125,-2916.65380859375,-10720.888671875,5412.1015625,1997.94775390625,1513.9580078125,-6880.76025390625,761.3499755859375,0.0,-1614.8885498046875,0.0,-2414.385498046875,-0.0,1130.8988037109375
-12331.8037109375,-13459.5234375,-3890.196533203125,1486.1424560546875,1488.5267333984375,16012.9873046875,-1643.498779296875,1862.049072265625,54.836273193359375,5934.23828125,-8127.689453125,-7780.39306640625,-5169.70947265625,3706.6142578125,287.6917419433594,-6140.86767578125,2837.975830078125,4292.3291015625,6531.07958984375,17717.6796875,5162.55712890625,11564.095703125,3458.658935546875,16996.861328125,-5252.361328125,-4196.1669921875,-2108.414794921875,-1956.621826171875,-6698.76708984375,-252.72369384765625,8517.9013671875,7178.783203125,3143.151611328125,4308.2236328125,1901.7855224609375,7654.82568359375,-460.1478576660156,20356.177734375,-5842.05029296875,-0.0,-4008.611083984375,10234.515625,-1484.552978515625,-892.480224609375,2074.24169921875,9408.7919921875,-6127.357421875,3573.89453125,-4088.878662109375,568.23095703125,-1544.952392578125,10479.291015625,-2733.866455078125,-15049.775390625,-7479.19091796875,-565.8467407226562,-261.4656982421875,-7464.8857421875,-1972.516357421875,-2926.190673828125,-10743.1416015625,5393.8232421875,1990.00048828125,1512.3685302734375,-6856.91845703125,719.2293701171875,0.0,-1615.6832275390625,0.0,-2419.948486328125,-0.0,1133.282958984375
-12360.4130859375,-13455.5498046875,-3941.85400390625,1444.816650390625,1444.0218505859375,15946.2294921875,-1671.314208984375,1825.4915771484375,45.299530029296875,5934.23828125,-8119.7421875,-7715.22509765625,-5180.041015625,3724.892822265625,239.2133026123047,-6179.0146484375,2804.59716796875,4260.5400390625,6507.23779296875,17704.962890625,5121.23095703125,11524.359375,3429.25390625,16957.91796875,-5278.58740234375,-4268.4873046875,-2131.462158203125,-2017.021240234375,-6698.76708984375,-259.8762512207031,8485.3173828125,7150.17333984375,3104.2099609375,4272.4609375,1868.4068603515625,7615.88427734375,-487.16864013671875,20325.978515625,-5884.96533203125,-0.0,-4074.573486328125,10173.3203125,-1509.984375,-941.75341796875,2048.015625,9385.7451171875,-6185.373046875,3535.74755859375,-4133.38330078125,460.1478576660156,-1593.430908203125,10438.759765625,38.14697265625,-15052.1591796875,-7478.39599609375,-565.052001953125,-305.17578125,-7474.42236328125,-2042.4525146484375,-2957.97998046875,-10784.466796875,5362.82861328125,1970.132080078125,1513.1632080078125,-6858.5078125,745.4554443359375,0.0,-1628.39892578125,0.0,-2419.15380859375,-0.0,1135.667236328125
-12348.4921875,-13402.302734375,-3911.654052734375,1450.3797607421875,1481.3741455078125,15920.00390625,-1653.0355224609375,1829.4652099609375,42.91534423828125,5908.80712890625,-8101.46337890625,-7658.0048828125,-5179.24658203125,3708.99853515625,274.9761047363281,-6169.47802734375,2817.31298828125,4270.07666015625,6515.18505859375,17693.837890625,5143.4833984375,11525.9482421875,3448.327392578125,16957.91796875,-5230.90380859375,-4274.84521484375,-2110.00439453125,-2032.1209716796875,-6690.025390625,-275.77081298828125,8497.23828125,7164.478515625,3123.283447265625,4279.61328125,1886.6856689453125,7615.88427734375,-468.8898620605469,20331.541015625,-5858.7392578125,-0.0,-4031.658203125,10162.9892578125,-1478.1951904296875,-948.1112060546875,2059.9365234375,9386.5390625,-6164.70947265625,3542.10546875,-4116.69384765625,433.92181396484375,-1558.4627685546875,10446.7080078125,2310.276123046875,-15034.67578125,-7468.859375,-542.7996215820312,-281.33392333984375,-7455.34912109375,-2006.6898193359375,-2963.54296875,-10770.95703125,5373.15966796875,1972.516357421875,1496.473876953125,-6876.78662109375,793.933837890625,0.0,-1648.26708984375,0.0,-2458.095458984375,-0.0,1108.6463623046875
-12404.1240234375,-13414.2236328125,-3890.196533203125,1473.4267578125,1516.3421630859375,15972.4560546875,-1626.0146484375,1848.5386962890625,59.604644775390625,5943.775390625,-8096.69482421875,-7691.38330078125,-5116.462890625,3707.408935546875,332.1965637207031,-6171.8623046875,2836.386474609375,4294.71337890625,6538.232421875,17720.857421875,5167.32568359375,11557.73828125,3474.553466796875,16983.3515625,-5213.41943359375,-4239.08251953125,-2070.267822265625,-2010.663330078125,-6697.97265625,-271.79718017578125,8518.6962890625,7173.22021484375,3145.53564453125,4303.45556640625,1912.116943359375,7646.87890625,-440.2796325683594,20352.205078125,-5832.51318359375,-0.0,-4001.458740234375,10228.951171875,-1443.2271728515625,-923.474609375,2087.752197265625,9411.17578125,-6132.1259765625,3561.178955078125,-4107.1572265625,545.978515625,-1501.2423095703125,10456.244140625,4208.8828125,-15068.0546875,-7476.806640625,-615.1199340820312,-241.5974884033203,-7443.42822265625,-1960.5953369140625,-2904.73291015625,-10755.8564453125,5396.20751953125,1997.153076171875,1517.136962890625,-6872.81298828125,782.012939453125,0.0,-1606.941162109375,0.0,-2399.28564453125,-0.0,1153.9459228515625
-12431.14453125,-13402.302734375,-3898.9384765625,1490.910888671875,1537.005126953125,16017.755859375,-1604.5570068359375,1860.459716796875,80.26758575439453,5999.40625,-8111.0,-7739.06689453125,-5117.2578125,3718.53515625,344.11749267578125,-6140.86767578125,2845.923095703125,4310.60791015625,6555.7158203125,17755.03125,5176.0673828125,11580.78515625,3492.832275390625,17001.62890625,-5295.27685546875,-4179.4775390625,-2031.3262939453125,-1989.20556640625,-6696.3828125,-263.8498840332031,8533.0009765625,7182.7568359375,3151.8935546875,4318.55517578125,1928.0115966796875,7669.130859375,-419.61669921875,20365.71484375,-5826.9501953125,-0.0,-4003.0478515625,10272.662109375,-1412.2327880859375,-910.7589721679688,2110.00439453125,9430.2490234375,-6157.55712890625,3579.45751953125,-4123.8466796875,588.8939208984375,-1487.73193359375,10467.3701171875,4843.87060546875,-15033.0859375,-7472.8330078125,-601.6095581054688,-240.80276489257812,-7425.94384765625,-1927.2169189453125,-2867.380859375,-10732.8095703125,5410.51220703125,2018.6107177734375,1539.3892822265625,-6844.20263671875,751.0185546875,0.0,-1582.3045654296875,0.0,-2350.012451171875,-0.0,1206.39794921875
-12433.529296875,-13389.587890625,-3887.017578125,1463.0953369140625,1545.7471923828125,15992.3232421875,-1614.8885498046875,1859.6649169921875,91.39379119873047,6032.78515625,-8151.53125,-7720.78857421875,-5205.47265625,3727.277099609375,307.5599670410156,-6157.55712890625,2839.565185546875,4303.45556640625,6550.1533203125,17782.052734375,5177.65673828125,11568.0693359375,3489.6533203125,16993.681640625,-5296.86572265625,-4235.9033203125,-2062.32080078125,-2006.6898193359375,-6719.4306640625,-270.2077331542969,8525.0537109375,7178.783203125,3149.509521484375,4305.83935546875,1928.8062744140625,7654.82568359375,-429.94818115234375,20361.7421875,-5861.12353515625,-0.0,-3982.38525390625,10230.541015625,-1413.0274658203125,-923.474609375,2102.05712890625,9440.5810546875,-6150.404296875,3551.64208984375,-4125.4365234375,535.6470947265625,-1525.0841064453125,10463.3974609375,3532.568603515625,-15033.880859375,-7499.05908203125,-569.0256958007812,-265.4393615722656,-7460.1171875,-1966.1585693359375,-2860.228271484375,-10739.1669921875,5403.35986328125,2022.584228515625,1545.7471923828125,-6848.17626953125,753.4027099609375,0.0,-1609.325439453125,0.0,-2357.959716796875,-0.0,1204.0137939453125
-12413.6611328125,-13374.48828125,-3856.023193359375,1456.737548828125,1569.5889892578125,15931.9248046875,-1609.325439453125,1860.459716796875,100.13580322265625,6047.08984375,-8171.39892578125,-7647.67333984375,-5189.57763671875,3734.4296875,308.3547058105469,-6151.994140625,2843.5390625,4305.04443359375,6555.7158203125,17793.974609375,5193.5517578125,11550.5859375,3496.805908203125,16984.14453125,-5192.7568359375,-4228.75048828125,-2079.8046875,-2010.663330078125,-6711.48291015625,-247.955322265625,8525.8486328125,7186.73095703125,3166.19873046875,4299.48193359375,1940.727294921875,7635.75244140625,-424.38507080078125,20362.53515625,-5828.53955078125,-0.0,-3948.211669921875,10156.6318359375,-1401.9012451171875,-939.3692016601562,2108.414794921875,9447.7333984375,-6129.74169921875,3545.2841796875,-4092.0576171875,475.2477111816406,-1525.0841064453125,10466.5751953125,702.5401000976562,-15013.2177734375,-7493.49609375,-514.984130859375,-258.28680419921875,-7469.654296875,-1953.44287109375,-2857.843994140625,-10739.962890625,5404.94921875,2027.3525390625,1537.005126953125,-6859.302734375,793.933837890625,0.0,-1605.351806640625,0.0,-2364.317626953125,-0.0,1186.52978515625
-12433.529296875,-13380.8447265625,-3862.380859375,1499.65283203125,1575.94677734375,15944.6396484375,-1611.7095947265625,1854.101806640625,77.8833999633789,5986.6904296875,-8104.64208984375,-7689.7939453125,-5143.4833984375,3715.356201171875,334.58074951171875,-6156.7626953125,2850.691650390625,4306.63427734375,6550.1533203125,17747.083984375,5194.34619140625,11562.5068359375,3496.010986328125,16987.32421875,-5144.27783203125,-4127.8203125,-2054.37353515625,-2001.92138671875,-6699.56201171875,-201.0663299560547,8533.794921875,7193.08837890625,3169.377685546875,4312.197265625,1940.727294921875,7642.1103515625,-425.9745178222656,20359.357421875,-5806.287109375,-0.0,-3961.721923828125,10199.546875,-1409.8485107421875,-933.0113525390625,2098.878173828125,9424.6865234375,-6114.6416015625,3588.19970703125,-4013.379638671875,483.9897155761719,-1502.037109375,10461.8076171875,-1571.97314453125,-14992.5546875,-7479.98583984375,-449.02166748046875,-216.96090698242188,-7464.0908203125,-1968.5428466796875,-2899.964599609375,-10740.7568359375,5406.53857421875,2011.4581298828125,1482.963623046875,-6850.560546875,777.2445678710938,0.0,-1617.272705078125,0.0,-2396.106689453125,-0.0,1109.441162109375
-12402.5341796875,-13385.61328125,-3840.92333984375,1518.726318359375,1575.152099609375,15990.734375,-1603.7623291015625,1855.6912841796875,61.19409942626953,5932.64892578125,-8071.26318359375,-7704.8935546875,-5122.8203125,3693.103759765625,374.3171691894531,-6149.60986328125,2864.201904296875,4319.349609375,6553.33203125,17708.9375,5203.08837890625,11583.1689453125,3500.779296875,17003.216796875,-5102.95263671875,-4080.13671875,-2029.73681640625,-1985.2320556640625,-6686.84619140625,-246.36587524414062,8547.3056640625,7198.65185546875,3181.298583984375,4330.47607421875,1945.49560546875,7664.3623046875,-418.0272521972656,20365.71484375,-5791.1875,-0.0,-3950.595947265625,10252.79296875,-1411.43798828125,-912.3484497070312,2102.851806640625,9408.7919921875,-6083.6474609375,3606.478515625,-3970.464111328125,529.2892456054688,-1463.0953369140625,10467.3701171875,-1747.608154296875,-14998.1181640625,-7468.06494140625,-518.957763671875,-189.14540100097656,-7453.759765625,-1939.9324951171875,-2938.906494140625,-10732.0146484375,5416.0751953125,2002.716064453125,1471.83740234375,-6831.4873046875,785.1918334960938,0.0,-1630.7830810546875,0.0,-2435.84326171875,-0.0,1082.42041015625
-12431.14453125,-13415.0185546875,-3856.81787109375,1475.0162353515625,1540.18408203125,15957.35546875,-1627.6041259765625,1823.107421875,34.96805953979492,5866.6865234375,-8120.53662109375,-7714.43017578125,-5135.5361328125,3697.8720703125,347.29638671875,-6182.98876953125,2843.5390625,4297.89208984375,6527.10595703125,17656.484375,5184.0146484375,11556.943359375,3477.732421875,16975.40234375,-5137.12548828125,-4157.22509765625,-2067.8837890625,-2016.2265625,-6701.9462890625,-263.05517578125,8523.4638671875,7176.3994140625,3159.8408203125,4307.4287109375,1924.0379638671875,7639.72607421875,-443.45855712890625,20335.515625,-5787.2138671875,-0.0,-3964.106201171875,10217.0302734375,-1434.485107421875,-940.9586791992188,2078.21533203125,9369.0556640625,-6108.2841796875,3561.9736328125,-4049.142333984375,490.3475646972656,-1486.9371337890625,10433.9912109375,-813.00732421875,-15021.9599609375,-7480.7802734375,-544.3890991210938,-228.0871124267578,-7477.6015625,-1953.44287109375,-2987.384765625,-10741.5517578125,5390.64404296875,1968.5428466796875,1508.3948974609375,-6857.71337890625,775.6550903320312,0.0,-1637.9356689453125,0.0,-2457.30078125,-0.0,1112.6199951171875
-12413.6611328125,-13427.734375,-3893.37548828125,1436.8692626953125,1499.65283203125,15906.4921875,-1660.1881103515625,1796.88134765625,23.84185791015625,5869.0703125,-8129.279296875,-7715.22509765625,-5201.49853515625,3702.640625,275.77081298828125,-6205.24072265625,2816.51806640625,4266.10302734375,6501.6748046875,17653.306640625,5152.2255859375,11521.9755859375,3444.353759765625,16943.61328125,-5235.671875,-4272.4609375,-2122.719970703125,-2052.783935546875,-6701.1513671875,-243.98167419433594,8494.0595703125,7158.12060546875,3128.846435546875,4278.0244140625,1893.8382568359375,7603.16845703125,-476.837158203125,20306.90625,-5815.029296875,-0.0,-4004.63720703125,10154.2470703125,-1472.632080078125,-976.721435546875,2051.1943359375,9353.1611328125,-6127.357421875,3523.031982421875,-4154.8408203125,441.8691101074219,-1556.873291015625,10404.5869140625,-967.1846923828125,-15056.1328125,-7479.19091796875,-518.1630249023438,-293.2548522949219,-7491.90673828125,-1980.4637451171875,-2979.4375,-10733.6044921875,5361.23876953125,1949.46923828125,1501.2423095703125,-6864.07080078125,768.5025634765625,0.0,-1638.7303466796875,0.0,-2460.479736328125,-0.0,1107.0570068359375
-12377.8984375,-13427.734375,-3914.0380859375,1420.179931640625,1498.858154296875,15892.1875,-1668.13525390625,1793.7025146484375,28.6102294921875,5886.5546875,-8163.4521484375,-7700.919921875,-5199.1142578125,3711.382568359375,240.80276489257812,-6210.80419921875,2802.212890625,4257.36083984375,6497.701171875,17666.021484375,5144.27783203125,11510.0546875,3438.79052734375,16934.87109375,-5292.892578125,-4316.17138671875,-2130.66748046875,-2061.526123046875,-6717.04638671875,-246.36587524414062,8483.7275390625,7143.8154296875,3116.130859375,4265.30859375,1886.6856689453125,7591.24755859375,-483.1949768066406,20304.521484375,-5898.4755859375,-0.0,-4014.96875,10133.583984375,-1475.81103515625,-987.84765625,2044.0418701171875,9357.134765625,-6167.09375,3510.316162109375,-4149.2783203125,420.41143798828125,-1592.6361083984375,10399.818359375,-2934.137939453125,-15068.8486328125,-7497.46923828125,-546.7732543945312,-301.2021484375,-7507.80126953125,-2020.2000732421875,-2962.748291015625,-10766.1884765625,5355.67626953125,1950.263916015625,1496.473876953125,-6872.81298828125,759.7605590820312,0.0,-1638.7303466796875,0.0,-2441.40625,-0.0,1110.23583984375
-12377.8984375,-13442.0390625,-3918.806640625,1447.9954833984375,1490.1160888671875,15935.8974609375,-1648.26708984375,1827.0810546875,44.50480270385742,5902.44921875,-8139.6103515625,-7682.6416015625,-5169.70947265625,3728.072021484375,271.79718017578125,-6171.8623046875,2814.9287109375,4273.255859375,6517.56884765625,17684.30078125,5147.45703125,11534.6904296875,3455.47998046875,16961.892578125,-5294.48193359375,-4259.7451171875,-2112.388671875,-2020.2000732421875,-6701.9462890625,-267.82354736328125,8498.828125,7154.94140625,3123.283447265625,4283.5869140625,1897.01708984375,7615.88427734375,-464.1214904785156,20331.541015625,-5892.91259765625,-0.0,-4028.47900390625,10174.115234375,-1459.91650390625,-950.4954223632812,2062.32080078125,9384.1552734375,-6183.783203125,3537.337158203125,-4155.6357421875,486.3739013671875,-1563.2310791015625,10438.759765625,-5314.35009765625,-15057.72265625,-7480.7802734375,-545.978515625,-274.1813659667969,-7491.11181640625,-2012.2528076171875,-2946.853515625,-10773.3408203125,5375.5439453125,1971.7216796875,1514.752685546875,-6852.94482421875,769.2973022460938,0.0,-1629.193603515625,0.0,-2431.074951171875,-0.0,1118.18310546875
-12415.25,-13504.0283203125,-3898.9384765625,1475.81103515625,1497.2686767578125,15956.560546875,-1637.140869140625,1837.4124755859375,48.47844314575195,5897.6806640625,-8113.38427734375,-7709.662109375,-5162.55712890625,3721.714111328125,297.2284851074219,-6157.55712890625,2823.670654296875,4282.79248046875,6525.5166015625,17686.685546875,5156.19921875,11548.99609375,3465.0166015625,16973.01953125,-5238.05615234375,-4214.44580078125,-2099.673095703125,-2003.5107421875,-6688.43603515625,-272.5919189453125,8508.3642578125,7160.5048828125,3135.204345703125,4295.5078125,1905.7591552734375,7628.599609375,-453.7900390625,20341.873046875,-5875.4287109375,-0.0,-4022.916259765625,10203.5205078125,-1444.0218505859375,-935.3955688476562,2073.447021484375,9391.3076171875,-6136.89404296875,3564.357666015625,-4196.9619140625,505.4473876953125,-1537.7998046875,10453.064453125,-6740.09326171875,-15052.955078125,-7466.47509765625,-526.1103515625,-259.0815124511719,-7479.19091796875,-1984.437255859375,-2948.443115234375,-10771.7509765625,5385.0810546875,1978.07958984375,1522.699951171875,-6846.5869140625,767.7078247070312,0.0,-1634.7567138671875,0.0,-2440.611572265625,-0.0,1125.335693359375
-12443.8603515625,-13510.38671875,-3890.196533203125,1459.1217041015625,1536.21044921875,15936.693359375,-1631.577880859375,1816.74951171875,47.6837158203125,5905.62841796875,-8140.40478515625,-7739.86181640625,-5169.70947265625,3710.587646484375,323.45452880859375,-6196.4990234375,2821.286376953125,4280.408203125,6521.54296875,17688.2734375,5165.73583984375,11536.2802734375,3471.37451171875,16961.09765625,-5213.41943359375,-4231.9296875,-2078.21533203125,-2032.915771484375,-6713.8671875,-271.00244140625,8502.80078125,7158.12060546875,3138.383056640625,4286.76611328125,1913.7064208984375,7616.6787109375,-449.8163757324219,20331.541015625,-5848.40771484375,-0.0,-3991.126953125,10181.267578125,-1426.537841796875,-956.8532104492188,2075.036376953125,9377.796875,-6148.0205078125,3550.052734375,-4099.21044921875,473.6582336425781,-1511.57373046875,10423.66015625,-8165.83642578125,-15062.4912109375,-7492.701171875,-529.2892456054688,-240.00804138183594,-7517.337890625,-1970.927001953125,-2952.416748046875,-10768.5732421875,5379.51806640625,1974.1058349609375,1506.0106201171875,-6892.68115234375,744.6607055664062,0.0,-1625.219970703125,0.0,-2423.92236328125,-0.0,1130.8988037109375
-12463.728515625,-13417.4033203125,-3904.501708984375,1455.1480712890625,1514.752685546875,15929.541015625,-1636.34619140625,1819.1337890625,42.1206169128418,5924.70166015625,-8133.251953125,-7716.814453125,-5165.73583984375,3684.36181640625,324.249267578125,-6190.935546875,2818.90234375,4272.4609375,6519.953125,17693.04296875,5155.40478515625,11529.1279296875,3466.606201171875,16957.125,-5256.3349609375,-4243.8505859375,-2087.752197265625,-2036.0947265625,-6721.01953125,-246.36587524414062,8498.828125,7161.29931640625,3132.025390625,4282.79248046875,1906.5538330078125,7611.91015625,-452.99530029296875,20328.36328125,-5833.3076171875,-0.0,-4015.763671875,10171.7314453125,-1433.6904296875,-960.0321655273438,2074.24169921875,9381.771484375,-6172.6572265625,3547.66845703125,-4095.236328125,472.06878662109375,-1511.57373046875,10425.25,-9353.1611328125,-15045.8017578125,-7499.853515625,-533.2628784179688,-245.57113647460938,-7541.1796875,-1963.7744140625,-2951.6220703125,-10765.3935546875,5374.74951171875,1977.28466796875,1482.963623046875,-6890.296875,754.9921875,0.0,-1635.551513671875,0.0,-2419.15380859375,-0.0,1122.15673828125
-12465.3173828125,-13420.58203125,-3924.369873046875,1431.3062744140625,1455.9427490234375,15918.4130859375,-1669.724853515625,1808.007568359375,17.48402976989746,5913.57568359375,-8126.89501953125,-7741.451171875,-5189.57763671875,3650.1884765625,276.5655517578125,-6186.9619140625,2798.239501953125,4245.43994140625,6496.90625,17679.533203125,5125.20458984375,11510.8486328125,3426.86962890625,16938.05078125,-5295.27685546875,-4256.56640625,-2123.514892578125,-2047.220947265625,-6718.6357421875,-289.2812194824219,8476.5751953125,7139.841796875,3108.978271484375,4262.92431640625,1870.7911376953125,7594.4267578125,-488.7580871582031,20309.2890625,-5864.30224609375,-0.0,-4055.5,10168.552734375,-1489.3214111328125,-974.3372802734375,2044.8367919921875,9371.439453125,-6184.578125,3522.237060546875,-4111.13134765625,460.9425964355469,-1558.4627685546875,10422.0703125,-8943.0810546875,-15068.0546875,-7497.46923828125,-598.4306640625,-289.2812194824219,-7534.82177734375,-2012.2528076171875,-2968.311279296875,-10793.208984375,5348.5234375,1956.621826171875,1467.0689697265625,-6888.70751953125,736.71337890625,0.0,-1659.393310546875,0.0,-2446.96923828125,-0.0,1099.9044189453125
-12382.6669921875,-13433.296875,-3909.269775390625,1427.33251953125,1473.4267578125,15920.796875,-1675.287841796875,1804.82861328125,16.689300537109375,5914.3701171875,-8118.947265625,-7745.4248046875,-5184.0146484375,3646.21484375,247.16058349609375,-6202.8564453125,2805.39208984375,4251.00341796875,6492.9326171875,17681.12109375,5134.7412109375,11516.412109375,3426.074951171875,16938.05078125,-5253.95068359375,-4262.92431640625,-2117.156982421875,-2048.015625,-6724.19873046875,-294.84429931640625,8482.138671875,7146.19970703125,3118.51513671875,4266.8974609375,1873.17529296875,7596.01611328125,-491.9369812011719,20306.90625,-5861.12353515625,-0.0,-4026.889892578125,10172.5263671875,-1495.67919921875,-974.3372802734375,2037.6842041015625,9370.64453125,-6136.89404296875,3515.08447265625,-4076.162841796875,460.9425964355469,-1587.86767578125,10414.91796875,-7452.96484375,-15067.259765625,-7502.23779296875,-623.0671997070312,-301.9968566894531,-7517.337890625,-2034.505126953125,-2950.827392578125,-10764.5986328125,5346.93408203125,1954.2376708984375,1475.81103515625,-6918.1123046875,717.639892578125,0.0,-1644.29345703125,0.0,-2433.458984375,-0.0,1102.28857421875
-12353.2607421875,-13465.0869140625,-3886.222900390625,1429.7166748046875,1512.3685302734375,15922.3876953125,-1668.9300537109375,1791.3182373046875,4.76837158203125,5890.5283203125,-8122.9208984375,-7774.03515625,-5171.298828125,3623.96240234375,269.4129943847656,-6220.3408203125,2809.365478515625,4258.15576171875,6493.72705078125,17664.431640625,5149.04638671875,11517.20703125,3438.79052734375,16936.4609375,-5214.21435546875,-4244.6455078125,-2102.851806640625,-2053.57861328125,-6728.96728515625,-279.7444763183594,8486.9072265625,7150.96826171875,3128.846435546875,4267.6923828125,1889.8646240234375,7598.39990234375,-483.1949768066406,20302.931640625,-5861.12353515625,-0.0,-3998.279541015625,10153.453125,-1470.2479248046875,-975.9266967773438,2037.6842041015625,9353.1611328125,-6098.7470703125,3518.263671875,-4068.2158203125,483.9897155761719,-1564.02587890625,10399.818359375,-6059.80517578125,-15060.107421875,-7507.00634765625,-591.278076171875,-251.928955078125,-7530.84814453125,-2032.1209716796875,-2978.642822265625,-10759.830078125,5351.7021484375,1944.7008056640625,1455.9427490234375,-6947.517578125,685.8507690429688,0.0,-1664.9564208984375,0.0,-2474.784912109375,-0.0,1068.115234375
-12423.197265625,-13511.1806640625,-3964.90087890625,1420.179931640625,1471.83740234375,15915.2353515625,-1681.645751953125,1789.728759765625,-2.384185791015625,5892.91259765625,-8197.625,-7759.72998046875,-5206.26708984375,3631.90966796875,267.02880859375,-6226.6982421875,2777.576416015625,4237.4931640625,6484.1904296875,17661.25390625,5112.4892578125,11498.1337890625,3419.717041015625,16926.923828125,-5311.9658203125,-4247.82421875,-2129.87255859375,-2054.37353515625,-6752.01416015625,-302.7915954589844,8462.26953125,7115.99951171875,3084.341796875,4243.8505859375,1862.8438720703125,7584.8896484375,-496.7053527832031,20294.984375,-5931.0595703125,-0.0,-4061.857666015625,10137.5576171875,-1490.910888671875,-979.900390625,2032.1209716796875,9351.5712890625,-6221.1357421875,3509.521484375,-4142.12548828125,476.04241943359375,-1568.794189453125,10400.61328125,-5455.01708984375,-15077.5908203125,-7534.02734375,-574.5887451171875,-273.3866271972656,-7537.2060546875,-2018.6107177734375,-2982.616455078125,-10805.1298828125,5337.39697265625,1936.753662109375,1455.1480712890625,-6902.2177734375,706.5137329101562,0.0,-1662.572265625,0.0,-2463.65869140625,-0.0,1082.42041015625
-12447.0400390625,-13474.6240234375,-3941.85400390625,1462.3006591796875,1490.910888671875,15931.9248046875,-1655.419677734375,1822.312744140625,27.02077293395996,5899.2705078125,-8165.0419921875,-7722.3779296875,-5168.1201171875,3672.440673828125,301.2021484375,-6179.0146484375,2804.59716796875,4261.3349609375,6509.6220703125,17674.763671875,5137.12548828125,11526.744140625,3445.943115234375,16951.560546875,-5292.09765625,-4251.79833984375,-2110.00439453125,-2018.6107177734375,-6707.50927734375,-244.77639770507812,8488.49609375,7141.43115234375,3108.978271484375,4274.84521484375,1887.4803466796875,7607.93701171875,-471.2740478515625,20321.2109375,-5905.62841796875,-0.0,-4041.98974609375,10172.5263671875,-1470.2479248046875,-954.4690551757812,2057.55224609375,9378.5927734375,-6206.83056640625,3551.64208984375,-4142.919921875,469.6846008300781,-1533.031494140625,10436.3759765625,-4934.4697265625,-15050.5703125,-7487.9326171875,-518.957763671875,-272.5919189453125,-7510.97998046875,-1996.358154296875,-2964.337646484375,-10781.2880859375,5362.82861328125,1964.569091796875,1468.658447265625,-6844.99755859375,767.7078247070312,0.0,-1644.29345703125,0.0,-2454.916748046875,-0.0,1081.6256103515625
-12490.7490234375,-13484.16015625,-3900.52783203125,1463.0953369140625,1480.579345703125,15927.9501953125,-1655.419677734375,1816.74951171875,34.96805953979492,5880.197265625,-8125.30517578125,-7718.404296875,-5137.12548828125,3707.408935546875,305.17578125,-6177.42529296875,2818.90234375,4264.513671875,6508.8271484375,17663.63671875,5148.251953125,11531.5126953125,3446.738037109375,16949.177734375,-5230.90380859375,-4241.46630859375,-2108.414794921875,-2033.71044921875,-6697.97265625,-238.4185791015625,8498.0322265625,7154.94140625,3129.641357421875,4285.97119140625,1892.248779296875,7608.73193359375,-469.6846008300781,20318.03125,-5873.8388671875,-0.0,-4013.379638671875,10181.267578125,-1471.83740234375,-961.62158203125,2059.141845703125,9373.82421875,-6166.29931640625,3549.258056640625,-4123.8466796875,451.4058532714844,-1529.057861328125,10428.4287109375,-4786.650390625,-15070.4384765625,-7479.19091796875,-537.2365112304688,-251.13424682617188,-7486.34326171875,-1997.153076171875,-2962.748291015625,-10750.2939453125,5362.82861328125,1963.7744140625,1504.4212646484375,-6860.8916015625,769.2973022460938,0.0,-1624.42529296875,0.0,-2456.506103515625,-0.0,1090.36767578125
-12470.8818359375,-13524.69140625,-3885.42822265625,1437.6640625,1491.70556640625,15916.82421875,-1663.366943359375,1797.676025390625,25.43131446838379,5867.4814453125,-8126.099609375,-7718.404296875,-5165.73583984375,3705.8193359375,286.102294921875,-6213.98291015625,2810.955078125,4254.18212890625,6497.701171875,17657.279296875,5148.251953125,11518.001953125,3440.380126953125,16935.66796875,-5214.21435546875,-4247.82421875,-2115.5673828125,-2055.168212890625,-6729.76171875,-282.9233703613281,8487.701171875,7148.583984375,3128.0517578125,4275.64013671875,1887.4803466796875,7596.01611328125,-478.4266052246094,20303.7265625,-5886.5546875,-0.0,-3996.690185546875,10164.578125,-1471.0426025390625,-975.1319580078125,2050.39990234375,9355.544921875,-6142.45751953125,3525.416015625,-4113.51513671875,457.763671875,-1548.13134765625,10407.765625,-5512.2373046875,-15118.1220703125,-7508.595703125,-552.3363647460938,-255.90261840820312,-7510.97998046875,-1993.1793212890625,-2988.179443359375,-10766.9833984375,5351.7021484375,1948.674560546875,1506.0106201171875,-6922.880859375,746.2501220703125,0.0,-1637.9356689453125,0.0,-2464.453369140625,-0.0,1096.7254638671875
-12447.0400390625,-13432.5029296875,-3875.891357421875,1473.4267578125,1521.9052734375,15944.6396484375,-1632.37255859375,1833.4388427734375,46.88898849487305,5904.83349609375,-8148.3525390625,-7682.6416015625,-5155.40478515625,3737.608642578125,321.0703430175781,-6175.041015625,2835.591552734375,4282.79248046875,6527.10595703125,17697.015625,5171.298828125,11545.0224609375,3468.990234375,16964.27734375,-5211.830078125,-4227.16162109375,-2089.34130859375,-2015.431640625,-6714.662109375,-259.8762512207031,8510.7490234375,7177.1943359375,3150.30419921875,4300.2763671875,1914.501220703125,7623.8310546875,-447.43218994140625,20336.30859375,-5851.5869140625,-0.0,-3979.2060546875,10191.599609375,-1440.843017578125,-940.9586791992188,2082.983642578125,9389.7177734375,-6124.97314453125,3561.9736328125,-4091.2626953125,493.5264587402344,-1513.1632080078125,10442.7333984375,-6375.31298828125,-15070.4384765625,-7493.49609375,-524.5208740234375,-236.82911682128906,-7480.7802734375,-1930.395751953125,-2943.6748046875,-10746.3193359375,5380.3125,1978.874267578125,1540.978759765625,-6876.78662109375,768.5025634765625,0.0,-1610.914794921875,0.0,-2429.4853515625,-0.0,1133.282958984375
-12475.6494140625,-13418.197265625,-3883.838623046875,1482.1688232421875,1516.3421630859375,15961.328125,-1615.6832275390625,1852.5123291015625,73.11502838134766,5955.6962890625,-8125.30517578125,-7677.078125,-5165.73583984375,3716.945556640625,356.8331298828125,-6150.404296875,2844.333740234375,4290.73974609375,6543.794921875,17724.83203125,5172.09375,11556.1484375,3478.527099609375,16980.171875,-5240.4404296875,-4217.62451171875,-2077.42041015625,-1996.358154296875,-6684.4619140625,-243.98167419433594,8521.8740234375,7188.3203125,3155.867431640625,4309.81298828125,1917.68017578125,7636.546875,-430.7428894042969,20353.794921875,-5813.43994140625,-0.0,-3995.8955078125,10204.3154296875,-1432.8956298828125,-925.8588256835938,2110.00439453125,9415.1494140625,-6140.0732421875,3570.715576171875,-4103.978515625,513.3946533203125,-1478.1951904296875,10464.986328125,-6062.984375,-15013.2177734375,-7464.0908203125,-520.5472412109375,-236.03439331054688,-7461.70654296875,-1882.7120361328125,-2924.601318359375,-10738.373046875,5391.43896484375,2003.5107421875,1563.2310791015625,-6829.8974609375,778.8340454101562,0.0,-1602.1728515625,0.0,-2394.51708984375,-0.0,1172.224609375
-12417.6337890625,-13375.2822265625,-3879.864990234375,1474.2215576171875,1521.110595703125,15974.83984375,-1621.246337890625,1873.17529296875,88.21487426757812,5978.7431640625,-8096.69482421875,-7677.078125,-5161.76220703125,3759.861083984375,333.7860107421875,-6111.462890625,2849.896728515625,4296.302734375,6548.5634765625,17751.05859375,5176.0673828125,11560.9169921875,3481.705810546875,16990.50390625,-5225.34033203125,-4189.0146484375,-2082.18896484375,-1974.9005126953125,-6682.87255859375,-238.4185791015625,8527.4384765625,7193.88330078125,3159.8408203125,4311.40283203125,1922.448486328125,7646.083984375,-435.5112609863281,20364.919921875,-5818.2080078125,-0.0,-3997.484619140625,10215.44140625,-1434.485107421875,-915.52734375,2098.878173828125,9438.197265625,-6144.841796875,3561.178955078125,-4092.0576171875,532.4681396484375,-1502.831787109375,10492.0068359375,-4541.0791015625,-14986.197265625,-7464.0908203125,-510.21575927734375,-232.85548400878906,-7437.86474609375,-1990.795166015625,-2912.680419921875,-10740.7568359375,5396.20751953125,2013.0474853515625,1572.767822265625,-6837.0498046875,781.2182006835938,0.0,-1605.351806640625,0.0,-2392.133056640625,-0.0,1179.377197265625
-12365.9775390625,-13328.392578125,-3869.533447265625,1486.9371337890625,1555.283935546875,15990.734375,-1597.404541015625,1881.12255859375,91.39379119873047,5995.4326171875,-8075.2373046875,-7658.7998046875,-5125.99951171875,3763.834716796875,375.1119079589844,-6133.71533203125,2865.791259765625,4316.9658203125,6562.86865234375,17755.03125,5196.72998046875,11578.400390625,3502.368896484375,17004.80859375,-5186.39892578125,-4162.78857421875,-2042.4525146484375,-1975.6953125,-6655.0576171875,-221.72927856445312,8543.33203125,7208.98291015625,3174.14599609375,4326.50244140625,1945.49560546875,7661.97802734375,-412.4641418457031,20375.251953125,-5808.67138671875,-0.0,-3971.258544921875,10233.7197265625,-1404.285400390625,-905.9906005859375,2113.97802734375,9447.7333984375,-6109.0791015625,3575.484130859375,-4047.552490234375,533.2628784179688,-1462.3006591796875,10493.595703125,-2667.90380859375,-14975.0712890625,-7434.68603515625,-499.08953857421875,-181.1981201171875,-7426.73876953125,-1962.1849365234375,-2894.401611328125,-10704.2001953125,5414.48583984375,2022.584228515625,1565.6153564453125,-6841.818359375,811.4179077148438,0.0,-1567.99951171875,0.0,-2355.57568359375,-0.0,1186.52978515625
-12445.4501953125,-13360.9775390625,-3858.4072265625,1486.1424560546875,1561.6417236328125,15990.734375,-1598.19921875,1863.6385498046875,74.7044906616211,5963.6435546875,-8068.0849609375,-7676.283203125,-5140.3046875,3716.15087890625,375.9066162109375,-6145.63623046875,2861.02294921875,4310.60791015625,6554.92138671875,17724.83203125,5198.31982421875,11574.427734375,3499.190185546875,16996.861328125,-5176.0673828125,-4174.70947265625,-2036.8892822265625,-1984.437255859375,-6671.74658203125,-232.85548400878906,8540.9482421875,7198.65185546875,3173.351318359375,4321.73388671875,1946.2904052734375,7658.0048828125,-414.0535888671875,20363.330078125,-5812.64501953125,-0.0,-3960.132568359375,10229.7470703125,-1401.9012451171875,-913.1431884765625,2113.183349609375,9422.302734375,-6095.568359375,3576.27880859375,-4042.7841796875,506.2420959472656,-1459.91650390625,10472.93359375,-1733.3031005859375,-14990.1708984375,-7447.4013671875,-542.7996215820312,-206.6294403076172,-7433.89111328125,-1910.527587890625,-2909.501220703125,-10708.9677734375,5408.9228515625,2007.484375,1525.0841064453125,-6865.66015625,805.8547973632812,0.0,-1587.072998046875,0.0,-2384.185791015625,-0.0,1143.6143798828125
-12399.35546875,-13398.330078125,-3908.475341796875,1450.3797607421875,1518.726318359375,15954.17578125,-1644.29345703125,1822.312744140625,62.78356170654297,5915.1650390625,-8118.15283203125,-7726.35107421875,-5195.140625,3742.376953125,286.89703369140625,-6190.935546875,2818.90234375,4271.666015625,6512.80078125,17700.1953125,5154.60986328125,11534.6904296875,3457.864013671875,16957.125,-5258.71875,-4224.77734375,-2090.13623046875,-2020.994873046875,-6751.21923828125,-257.4920654296875,8501.2119140625,7153.35205078125,3128.846435546875,4280.408203125,1904.169677734375,7618.2685546875,-459.3531188964844,20325.18359375,-5865.89208984375,-0.0,-4004.63720703125,10192.39453125,-1444.0218505859375,-952.8795776367188,2071.857421875,9380.181640625,-6144.046875,3539.72119140625,-4124.6416015625,452.2005615234375,-1547.3365478515625,10429.22265625,-1513.9580078125,-15034.67578125,-7526.87451171875,-579.357177734375,-303.5863342285156,-7481.5751953125,-1972.516357421875,-2957.18505859375,-10771.7509765625,5369.1865234375,1974.1058349609375,1521.9052734375,-6894.2705078125,759.7605590820312,0.0,-1630.7830810546875,0.0,-2449.353515625,-0.0,1098.31494140625
-12416.83984375,-13401.5087890625,-3925.164794921875,1455.1480712890625,1525.0841064453125,15933.513671875,-1645.088134765625,1825.4915771484375,77.08867645263672,5937.41748046875,-8153.91552734375,-7724.76171875,-5227.724609375,3760.65576171875,278.9497375488281,-6188.55126953125,2808.57080078125,4266.8974609375,6512.00634765625,17719.26953125,5146.662109375,11525.9482421875,3457.0693359375,16953.150390625,-5301.63427734375,-4235.10888671875,-2099.673095703125,-2022.584228515625,-6756.78271484375,-251.928955078125,8492.4697265625,7144.60986328125,3118.51513671875,4272.4609375,1900.9908447265625,7608.73193359375,-459.3531188964844,20323.595703125,-5888.14404296875,-0.0,-4003.0478515625,10170.9365234375,-1441.6376953125,-956.8532104492188,2072.652099609375,9388.923828125,-6161.53076171875,3544.489501953125,-4164.3779296875,459.3531188964844,-1554.4891357421875,10433.197265625,-1762.7080078125,-15032.291015625,-7534.02734375,-553.9258422851562,-295.6390380859375,-7486.34326171875,-1982.0531005859375,-2942.085205078125,-10770.95703125,5364.41796875,1979.6688232421875,1529.057861328125,-6926.8544921875,746.2501220703125,0.0,-1640.31982421875,0.0,-2443.79052734375,-0.0,1106.26220703125
-12493.927734375,-13416.607421875,-3916.42236328125,1444.816650390625,1550.5155029296875,15920.00390625,-1647.472412109375,1819.1337890625,65.96247100830078,5935.82763671875,-8212.7255859375,-7722.3779296875,-5242.82470703125,3739.992919921875,275.77081298828125,-6197.2939453125,2805.39208984375,4264.513671875,6508.0322265625,17712.1171875,5156.19921875,11523.564453125,3458.658935546875,16947.587890625,-5240.4404296875,-4224.77734375,-2116.3623046875,-2032.915771484375,-6781.41943359375,-279.7444763183594,8493.2646484375,7146.994140625,3126.462158203125,4272.4609375,1910.527587890625,7603.96337890625,-463.3267822265625,20318.03125,-5879.40234375,-0.0,-3978.4111328125,10171.7314453125,-1433.6904296875,-963.2110595703125,2065.49951171875,9385.7451171875,-6183.783203125,3534.952880859375,-4138.9462890625,498.2948303222656,-1555.283935546875,10422.8662109375,-3444.353759765625,-15043.41796875,-7561.84228515625,-552.3363647460938,-304.38104248046875,-7508.595703125,-1995.5634765625,-2942.085205078125,-10779.6982421875,5362.82861328125,1973.3111572265625,1498.0634765625,-6963.41162109375,726.3819580078125,0.0,-1650.6513671875,0.0,-2442.200927734375,-0.0,1102.28857421875
-12451.0126953125,-13417.4033203125,-3931.5224609375,1472.632080078125,1515.54736328125,15958.150390625,-1644.29345703125,1839.796630859375,50.067901611328125,5935.033203125,-8169.01513671875,-7719.19873046875,-5207.8564453125,3736.813720703125,272.5919189453125,-6167.09375,2814.9287109375,4273.255859375,6519.953125,17701.783203125,5150.63623046875,11542.6376953125,3459.45361328125,16967.455078125,-5333.423828125,-4185.041015625,-2141.79345703125,-2008.279052734375,-6731.3515625,-265.4393615722656,8503.5966796875,7158.9150390625,3124.872802734375,4290.73974609375,1904.9644775390625,7622.2421875,-460.1478576660156,20337.10546875,-5884.17041015625,-0.0,-4025.300537109375,10204.3154296875,-1442.432373046875,-936.1903076171875,2066.29443359375,9400.8447265625,-6189.34619140625,3562.768310546875,-4150.86767578125,549.9522094726562,-1561.6417236328125,10449.091796875,-6744.86181640625,-15037.0595703125,-7510.97998046875,-501.4737243652344,-298.0232238769531,-7507.00634765625,-1987.6163330078125,-2926.190673828125,-10762.21484375,5373.95458984375,1978.07958984375,1506.0106201171875,-6903.80712890625,744.6607055664062,0.0,-1619.6568603515625,0.0,-2418.359130859375,-0.0,1119.7725830078125
-12407.302734375,-13383.2294921875,-3894.96484375,1491.70556640625,1506.805419921875,15974.044921875,-1636.34619140625,1855.6912841796875,47.6837158203125,5939.0068359375,-8124.5107421875,-7682.6416015625,-5156.99365234375,3722.5087890625,301.2021484375,-6141.66259765625,2839.565185546875,4291.5341796875,6532.6689453125,17699.400390625,5166.53076171875,11560.9169921875,3465.0166015625,16983.3515625,-5230.10888671875,-4181.06689453125,-2117.156982421875,-1986.8214111328125,-6690.025390625,-235.2396697998047,8524.2587890625,7181.16748046875,3146.33056640625,4310.60791015625,1913.7064208984375,7638.93115234375,-451.4058532714844,20350.615234375,-5855.560546875,-0.0,-4014.174072265625,10218.6201171875,-1453.55859375,-921.0904541015625,2074.24169921875,9411.970703125,-6122.5888671875,3579.45751953125,-4094.44189453125,533.2628784179688,-1534.620849609375,10470.5498046875,-9368.2607421875,-15014.8076171875,-7468.06494140625,-487.9633483886719,-257.4920654296875,-7484.75390625,-1974.9005126953125,-2918.243408203125,-10723.2734375,5386.67041015625,1985.2320556640625,1513.9580078125,-6850.560546875,782.012939453125,0.0,-1602.9676513671875,0.0,-2401.669677734375,-0.0,1130.8988037109375
-12394.587890625,-13375.2822265625,-3880.659912109375,1481.3741455078125,1502.831787109375,15967.6875,-1629.193603515625,1859.6649169921875,54.836273193359375,5953.31201171875,-8088.748046875,-7676.283203125,-5129.1787109375,3716.15087890625,343.32275390625,-6135.3046875,2846.7177734375,4297.09765625,6538.232421875,17704.16796875,5174.47802734375,11565.685546875,3468.195556640625,16988.119140625,-5189.57763671875,-4204.1142578125,-2082.18896484375,-1982.847900390625,-6682.87255859375,-229.6765594482422,8528.232421875,7185.14111328125,3155.072509765625,4313.787109375,1918.474853515625,7642.1103515625,-445.8427429199219,20355.3828125,-5833.3076171875,-0.0,-3993.51123046875,10214.646484375,-1459.1217041015625,-919.5009765625,2084.572998046875,9416.7392578125,-6130.53662109375,3565.947265625,-4064.241943359375,510.21575927734375,-1494.884521484375,10472.93359375,-9462.0390625,-15010.833984375,-7463.29638671875,-515.7788696289062,-221.72927856445312,-7463.29638671875,-1956.621826171875,-2910.296142578125,-10715.3251953125,5392.2333984375,1991.58984375,1525.87890625,-6841.818359375,800.2916870117188,0.0,-1593.430908203125,0.0,-2388.9541015625,-0.0,1152.3564453125
-12381.0771484375,-13373.6923828125,-3864.76513671875,1511.57373046875,1530.647216796875,15998.681640625,-1603.7623291015625,1885.09619140625,61.98883056640625,5983.51123046875,-8068.87890625,-7682.6416015625,-5098.978515625,3719.329833984375,375.1119079589844,-6107.4892578125,2868.175537109375,4320.939453125,6561.279296875,17724.83203125,5195.140625,11591.9111328125,3495.21630859375,17012.75390625,-5176.0673828125,-4158.02001953125,-2063.115478515625,-1959.006103515625,-6670.95166015625,-201.0663299560547,8549.6904296875,7201.0361328125,3174.14599609375,4336.833984375,1943.9061279296875,7669.130859375,-418.82196044921875,20379.224609375,-5807.87646484375,-0.0,-3976.027099609375,10246.4365234375,-1424.9483642578125,-891.6854858398438,2105.236083984375,9443.759765625,-6113.84716796875,3597.736328125,-4054.705078125,542.7996215820312,-1459.91650390625,10498.3642578125,-8179.34716796875,-14989.3759765625,-7451.37548828125,-499.08953857421875,-197.0926971435547,-7431.50732421875,-1935.9588623046875,-2877.712158203125,-10698.6357421875,5416.0751953125,2015.431640625,1541.7734375,-6821.9501953125,809.03369140625,0.0,-1571.178466796875,0.0,-2366.701904296875,-0.0,1174.60888671875
-12416.83984375,-13392.765625,-3879.0703125,1513.1632080078125,1525.0841064453125,15999.4755859375,-1612.50439453125,1876.354248046875,58.80991744995117,5985.10107421875,-8114.1787109375,-7665.1572265625,-5136.3310546875,3716.945556640625,353.65423583984375,-6132.1259765625,2859.433349609375,4315.37646484375,6554.92138671875,17725.626953125,5184.80908203125,11584.7587890625,3490.447998046875,17007.193359375,-5194.34619140625,-4150.07275390625,-2074.24169921875,-1965.36376953125,-6691.61474609375,-190.73486328125,8542.5380859375,7198.65185546875,3162.22509765625,4330.47607421875,1938.343017578125,7665.9521484375,-425.9745178222656,20372.8671875,-5811.0556640625,-0.0,-3984.769287109375,10244.8466796875,-1428.1273193359375,-897.2485961914062,2098.878173828125,9442.9658203125,-6105.89990234375,3604.09423828125,-4074.573486328125,549.157470703125,-1478.989990234375,10486.443359375,-7823.30810546875,-14986.197265625,-7470.44873046875,-476.04241943359375,-222.5240020751953,-7456.9384765625,-1945.49560546875,-2876.91748046875,-10701.8154296875,5410.51220703125,2009.86865234375,1535.4156494140625,-6833.07666015625,805.8547973632812,0.0,-1569.5889892578125,0.0,-2360.343994140625,-0.0,1169.0457763671875
-12474.060546875,-13435.681640625,-3887.017578125,1473.4267578125,1509.984375,15981.197265625,-1627.6041259765625,1868.4068603515625,59.604644775390625,5976.35888671875,-8135.63623046875,-7641.3154296875,-5166.53076171875,3724.09814453125,305.17578125,-6128.15234375,2839.565185546875,4297.09765625,6541.4111328125,17724.037109375,5170.50390625,11563.30078125,3476.142822265625,16992.091796875,-5221.36669921875,-4209.67724609375,-2095.69921875,-1970.927001953125,-6697.97265625,-233.65020751953125,8522.669921875,7177.98876953125,3148.71484375,4308.2236328125,1922.448486328125,7646.083984375,-443.45855712890625,20362.53515625,-5846.818359375,-0.0,-3997.484619140625,10213.8515625,-1444.0218505859375,-909.9642333984375,2085.367919921875,9438.9912109375,-6124.17822265625,3563.56298828125,-4089.673583984375,539.6207275390625,-1526.6737060546875,10479.291015625,-9106.794921875,-15007.6552734375,-7476.806640625,-508.62628173828125,-251.13424682617188,-7472.0380859375,-1971.7216796875,-2884.86474609375,-10737.578125,5395.41259765625,2001.92138671875,1529.8525390625,-6832.28173828125,810.6231689453125,0.0,-1587.072998046875,0.0,-2358.75439453125,-0.0,1160.3037109375
-12464.5234375,-13448.3974609375,-3875.0966796875,1481.3741455078125,1518.726318359375,15983.58203125,-1623.6304931640625,1877.14892578125,69.93611907958984,5975.564453125,-8139.6103515625,-7641.3154296875,-5137.12548828125,3751.118896484375,299.6126708984375,-6105.10498046875,2847.512451171875,4302.66064453125,6547.76904296875,17733.57421875,5178.45166015625,11570.4541015625,3481.705810546875,16997.65625,-5229.314453125,-4208.087890625,-2094.904541015625,-1962.9796142578125,-6688.43603515625,-216.96090698242188,8528.232421875,7182.7568359375,3155.867431640625,4316.17138671875,1928.8062744140625,7650.05712890625,-437.89544677734375,20369.6875,-5846.0234375,-0.0,-3986.358642578125,10217.826171875,-1437.6640625,-905.1958618164062,2089.34130859375,9446.14453125,-6151.19921875,3570.715576171875,-4094.44189453125,536.4417724609375,-1533.031494140625,10492.8017578125,-10743.1416015625,-15013.2177734375,-7466.47509765625,-502.26849365234375,-243.98167419433594,-7456.14404296875,-1977.28466796875,-2877.712158203125,-10732.8095703125,5400.9755859375,2007.484375,1567.204833984375,-6839.43408203125,816.9810180664062,0.0,-1588.6624755859375,0.0,-2365.906982421875,-0.0,1167.456298828125
-12494.7236328125,-13492.9013671875,-3843.3076171875,1504.4212646484375,1533.031494140625,15978.8134765625,-1622.0411376953125,1853.30712890625,61.98883056640625,5950.1328125,-8153.91552734375,-7668.33642578125,-5131.5625,3737.608642578125,319.48089599609375,-6151.994140625,2853.07568359375,4305.83935546875,6543.00048828125,17713.705078125,5188.783203125,11574.427734375,3484.090087890625,16989.70703125,-5201.49853515625,-4182.65673828125,-2098.08349609375,-1994.768798828125,-6707.50927734375,-216.1661834716797,8533.0009765625,7186.73095703125,3164.609130859375,4324.1181640625,1934.369384765625,7647.67333984375,-437.1007385253906,20354.58984375,-5863.5078125,-0.0,-3964.90087890625,10227.3623046875,-1428.1273193359375,-921.8851928710938,2089.34130859375,9418.328125,-6115.4365234375,3592.17333984375,-4162.78857421875,512.5999755859375,-1516.3421630859375,10461.0126953125,-11178.65234375,-15036.265625,-7483.958984375,-513.3946533203125,-253.5184326171875,-7466.47509765625,-1950.263916015625,-2907.1171875,-10696.251953125,5399.3857421875,1995.5634765625,1571.178466796875,-6896.65478515625,793.13916015625,0.0,-1584.6888427734375,0.0,-2380.212158203125,-0.0,1162.6878662109375
-12458.1650390625,-13532.638671875,-3877.480712890625,1493.2950439453125,1533.826171875,15956.560546875,-1633.9620361328125,1826.286376953125,43.7100715637207,5916.75439453125,-8123.71533203125,-7700.125,-5184.0146484375,3713.766845703125,309.94415283203125,-6178.22021484375,2837.975830078125,4289.150390625,6524.7216796875,17681.91796875,5172.88818359375,11556.943359375,3473.7587890625,16970.634765625,-5222.16162109375,-4200.140625,-2106.03076171875,-2016.2265625,-6713.072265625,-242.39222717285156,8517.1064453125,7178.783203125,3146.33056640625,4305.04443359375,1922.448486328125,7630.189453125,-448.2269287109375,20333.130859375,-5873.04443359375,-0.0,-3991.921875,10208.2890625,-1426.537841796875,-942.548095703125,2075.8310546875,9388.923828125,-6123.3837890625,3584.225830078125,-4170.73583984375,494.3211669921875,-1524.2894287109375,10432.40234375,-11604.626953125,-15052.955078125,-7491.90673828125,-532.4681396484375,-274.9761047363281,-7488.7275390625,-1958.211181640625,-2937.31689453125,-10697.841796875,5384.28662109375,1973.3111572265625,1537.005126953125,-6896.65478515625,763.7341918945312,0.0,-1595.020263671875,0.0,-2396.106689453125,-0.0,1151.561767578125
-12441.4755859375,-13466.67578125,-3876.68603515625,1506.0106201171875,1557.6680908203125,15974.83984375,-1620.4515380859375,1839.001953125,53.2468147277832,5923.1123046875,-8132.45751953125,-7684.23095703125,-5181.63037109375,3719.329833984375,320.275634765625,-6157.55712890625,2849.896728515625,4305.04443359375,6536.642578125,17689.86328125,5183.2197265625,11569.6591796875,3492.03759765625,16984.939453125,-5226.13525390625,-4169.14599609375,-2086.16259765625,-2001.92138671875,-6715.45654296875,-241.5974884033203,8528.232421875,7189.115234375,3155.072509765625,4316.9658203125,1938.343017578125,7644.49462890625,-433.1270751953125,20346.640625,-5858.7392578125,-0.0,-3987.947998046875,10225.7724609375,-1401.1064453125,-926.653564453125,2085.367919921875,9396.87109375,-6104.310546875,3598.531005859375,-4082.52099609375,517.3682861328125,-1511.57373046875,10445.912109375,-12485.9814453125,-15047.390625,-7496.6748046875,-524.5208740234375,-259.8762512207031,-7472.8330078125,-1964.569091796875,-2939.701171875,-10724.0673828125,5399.3857421875,1983.642578125,1516.3421630859375,-6874.40234375,782.012939453125,0.0,-1609.325439453125,0.0,-2426.306396484375,-0.0,1122.9515380859375
-12446.244140625,-13463.4970703125,-3859.2021484375,1513.9580078125,1541.7734375,15983.58203125,-1617.272705078125,1853.30712890625,61.98883056640625,5942.18603515625,-8142.7890625,-7678.66748046875,-5160.96728515625,3739.992919921875,316.3019714355469,-6151.19921875,2855.4599609375,4309.0185546875,6542.2060546875,17706.552734375,5190.37255859375,11577.6064453125,3491.24267578125,16992.88671875,-5220.57177734375,-4161.99365234375,-2084.572998046875,-1989.20556640625,-6693.20458984375,-230.47129821777344,8537.76953125,7189.90966796875,3165.404052734375,4324.1181640625,1942.316650390625,7651.64697265625,-433.92181396484375,20355.3828125,-5836.48681640625,-0.0,-3978.4111328125,10234.515625,-1411.43798828125,-915.52734375,2089.34130859375,9414.35546875,-6111.462890625,3603.29931640625,-4065.036865234375,521.3419799804688,-1516.3421630859375,10462.6015625,-11953.5126953125,-15043.41796875,-7472.0380859375,-501.4737243652344,-244.77639770507812,-7471.2431640625,-1969.33740234375,-2925.39599609375,-10743.1416015625,5403.35986328125,1993.1793212890625,1530.647216796875,-6849.765625,786.7813110351562,0.0,-1590.251953125,0.0,-2408.027587890625,-0.0,1140.435546875
-12452.6025390625,-13437.271484375,-3875.891357421875,1491.70556640625,1526.6737060546875,15967.6875,-1626.0146484375,1846.94921875,61.98883056640625,5945.3642578125,-8116.56298828125,-7676.283203125,-5145.07275390625,3738.4033203125,321.0703430175781,-6163.9150390625,2849.896728515625,4300.2763671875,6534.25830078125,17711.3203125,5184.80908203125,11566.4794921875,3475.34814453125,16984.14453125,-5202.29345703125,-4216.03515625,-2064.704833984375,-1998.7423095703125,-6713.072265625,-219.3450927734375,8530.6171875,7187.525390625,3159.046142578125,4314.58154296875,1928.0115966796875,7641.3154296875,-442.663818359375,20349.025390625,-5791.98193359375,-0.0,-3973.642822265625,10211.4677734375,-1441.6376953125,-925.0640869140625,2084.572998046875,9413.5595703125,-6112.25732421875,3580.25244140625,-4001.458740234375,514.984130859375,-1513.1632080078125,10455.44921875,-10501.5439453125,-15028.3173828125,-7492.701171875,-490.3475646972656,-244.77639770507812,-7469.654296875,-1959.006103515625,-2917.44873046875,-10728.8359375,5392.2333984375,1989.20556640625,1544.1575927734375,-6880.76025390625,782.012939453125,0.0,-1588.6624755859375,0.0,-2398.490966796875,-0.0,1142.0250244140625
-12427.9658203125,-13377.666015625,-3876.68603515625,1474.2215576171875,1540.18408203125,15969.2763671875,-1618.0673828125,1843.7703857421875,63.578285217285156,5942.98046875,-8106.2314453125,-7683.43603515625,-5124.41015625,3736.01904296875,340.9385681152344,-6163.1201171875,2848.307373046875,4305.83935546875,6539.02685546875,17708.9375,5188.783203125,11566.4794921875,3483.29541015625,16984.939453125,-5194.34619140625,-4212.0615234375,-2049.605224609375,-1995.5634765625,-6711.48291015625,-219.3450927734375,8533.0009765625,7184.3466796875,3160.6357421875,4311.40283203125,1935.1640625,7644.49462890625,-434.716552734375,20349.025390625,-5829.33447265625,-0.0,-3965.69580078125,10210.6728515625,-1428.1273193359375,-925.0640869140625,2092.5205078125,9410.380859375,-6092.3896484375,3561.9736328125,-4010.995361328125,522.13671875,-1494.884521484375,10449.091796875,-9578.068359375,-15015.6025390625,-7491.90673828125,-493.5264587402344,-223.31874084472656,-7467.27001953125,-1939.1378173828125,-2925.39599609375,-10720.09375,5395.41259765625,1990.795166015625,1550.5155029296875,-6884.73388671875,786.7813110351562,0.0,-1589.4571533203125,0.0,-2399.28564453125,-0.0,1136.4619140625
-12364.3876953125,-13422.171875,-3875.0966796875,1503.62646484375,1531.4420166015625,15992.3232421875,-1611.7095947265625,1853.30712890625,63.578285217285156,5939.0068359375,-8096.69482421875,-7696.15185546875,-5153.81494140625,3733.635009765625,367.9593505859375,-6155.1728515625,2857.843994140625,4312.9921875,6546.17919921875,17704.962890625,5189.57763671875,11580.78515625,3489.6533203125,16995.271484375,-5218.18798828125,-4158.02001953125,-2059.9365234375,-1982.847900390625,-6687.64111328125,-201.0663299560547,8544.1279296875,7194.677734375,3164.609130859375,4324.9130859375,1939.1378173828125,7656.41552734375,-428.35870361328125,20357.767578125,-5849.20263671875,-0.0,-3976.82177734375,10240.8720703125,-1423.35888671875,-910.7589721679688,2098.878173828125,9415.1494140625,-6139.2783203125,3590.583740234375,-4071.39453125,542.7996215820312,-1470.2479248046875,10461.0126953125,-9474.75390625,-15001.296875,-7465.6806640625,-528.4945068359375,-213.78199768066406,-7475.21728515625,-1924.8326416015625,-2929.36962890625,-10681.15234375,5402.56494140625,1995.5634765625,1543.3629150390625,-6852.94482421875,797.11279296875,0.0,-1587.86767578125,0.0,-2404.053955078125,-0.0,1137.256591796875
-12393.7919921875,-13422.9658203125,-3893.37548828125,1515.54736328125,1513.9580078125,15984.376953125,-1634.7567138671875,1838.207275390625,56.42573165893555,5919.138671875,-8101.46337890625,-7731.91455078125,-5173.68310546875,3731.250732421875,313.91778564453125,-6167.09375,2845.923095703125,4297.09765625,6528.69580078125,17691.453125,5172.09375,11568.8642578125,3472.169189453125,16982.5546875,-5223.7509765625,-4150.07275390625,-2081.394287109375,-1993.9739990234375,-6725.7880859375,-230.47129821777344,8527.4384765625,7183.5517578125,3149.509521484375,4313.787109375,1920.0643310546875,7642.90478515625,-449.8163757324219,20342.66796875,-5819.00244140625,-0.0,-3998.279541015625,10236.1044921875,-1441.6376953125,-925.8588256835938,2075.8310546875,9397.666015625,-6145.63623046875,3604.888916015625,-4080.13671875,534.8523559570312,-1521.110595703125,10445.912109375,-9225.208984375,-15026.728515625,-7504.6220703125,-561.8731079101562,-263.8498840332031,-7489.5224609375,-1974.9005126953125,-2950.827392578125,-10704.994140625,5386.67041015625,1977.28466796875,1545.7471923828125,-6873.607421875,750.2238159179688,0.0,-1608.5306396484375,0.0,-2423.92236328125,-0.0,1136.4619140625
-12365.181640625,-13341.109375,-3906.091064453125,1492.500244140625,1513.1632080078125,15971.66015625,-1642.7039794921875,1830.2598876953125,50.86262893676758,5923.90673828125,-8119.7421875,-7722.3779296875,-5181.63037109375,3730.4560546875,292.4601135253906,-6168.68359375,2835.591552734375,4287.56103515625,6521.54296875,17693.04296875,5163.3515625,11558.533203125,3465.8115234375,16972.22265625,-5240.4404296875,-4150.07275390625,-2087.752197265625,-2011.4581298828125,-6728.17236328125,-251.928955078125,8517.9013671875,7172.42578125,3139.97265625,4301.8662109375,1914.501220703125,7634.1630859375,-454.5847473144531,20333.92578125,-5823.77099609375,-0.0,-4007.81640625,10225.7724609375,-1444.816650390625,-938.574462890625,2070.267822265625,9392.1025390625,-6134.51025390625,3582.636474609375,-4087.289306640625,517.3682861328125,-1542.5682373046875,10437.1708984375,-8562.4052734375,-15021.9599609375,-7507.80126953125,-526.1103515625,-273.3866271972656,-7479.19091796875,-1976.489990234375,-2946.05908203125,-10744.73046875,5378.72314453125,1974.1058349609375,1537.7998046875,-6893.47607421875,740.6870727539062,0.0,-1620.4515380859375,0.0,-2430.280029296875,-0.0,1126.1304931640625
-12371.5400390625,-13317.267578125,-3925.959228515625,1462.3006591796875,1529.8525390625,15972.4560546875,-1622.8358154296875,1840.5914306640625,62.78356170654297,5940.59619140625,-8087.95263671875,-7686.615234375,-5195.935546875,3732.04541015625,335.3754577636719,-6163.9150390625,2830.8232421875,4293.91845703125,6534.25830078125,17708.9375,5163.3515625,11559.3271484375,3480.11669921875,16980.171875,-5284.150390625,-4162.78857421875,-2068.6787109375,-2003.5107421875,-6697.177734375,-257.4920654296875,8517.9013671875,7161.29931640625,3132.025390625,4297.89208984375,1924.0379638671875,7640.5205078125,-436.3059997558594,20343.462890625,-5870.66015625,-0.0,-4010.995361328125,10222.5947265625,-1420.9747314453125,-928.2429809570312,2089.34130859375,9404.818359375,-6161.53076171875,3549.258056640625,-4146.09912109375,519.7525024414062,-1501.2423095703125,10445.912109375,-8411.4072265625,-15007.6552734375,-7475.21728515625,-496.7053527832031,-247.16058349609375,-7469.654296875,-1939.9324951171875,-2921.42236328125,-10749.4990234375,5389.84912109375,1990.00048828125,1545.7471923828125,-6872.81298828125,769.2973022460938,0.0,-1595.020263671875,0.0,-2407.23291015625,-0.0,1138.0513916015625
-12393.7919921875,-13339.51953125,-3905.29638671875,1464.684814453125,1551.3101806640625,15974.83984375,-1604.5570068359375,1850.128173828125,68.3466567993164,5939.8017578125,-8095.10498046875,-7665.9521484375,-5138.71533203125,3733.635009765625,372.72772216796875,-6157.55712890625,2834.796875,4301.0712890625,6546.17919921875,17711.3203125,5176.8623046875,11561.7109375,3495.21630859375,16988.912109375,-5251.56640625,-4200.935546875,-2037.6842041015625,-1993.9739990234375,-6681.28369140625,-247.955322265625,8525.8486328125,7163.68359375,3140.767333984375,4301.8662109375,1939.1378173828125,7642.90478515625,-418.82196044921875,20352.205078125,-5894.501953125,-0.0,-3987.947998046875,10215.44140625,-1394.7486572265625,-921.8851928710938,2103.646484375,9414.35546875,-6152.78857421875,3550.847412109375,-4118.28369140625,526.905029296875,-1463.0953369140625,10454.654296875,-9071.8271484375,-14999.70703125,-7459.322265625,-500.67901611328125,-202.65579223632812,-7476.01171875,-1926.422119140625,-2917.44873046875,-10746.3193359375,5400.1806640625,1997.153076171875,1538.5946044921875,-6859.302734375,783.6024169921875,0.0,-1593.430908203125,0.0,-2409.6171875,-0.0,1134.07763671875
-12411.2763671875,-13358.5927734375,-3880.659912109375,1480.579345703125,1559.257568359375,15978.8134765625,-1589.4571533203125,1856.4859619140625,67.55193328857422,5956.4912109375,-8118.15283203125,-7638.93115234375,-5118.8466796875,3729.6611328125,386.23809814453125,-6141.66259765625,2846.7177734375,4311.40283203125,6558.10009765625,17718.47265625,5191.16748046875,11572.04296875,3507.931884765625,16998.44921875,-5222.9560546875,-4227.16162109375,-2032.915771484375,-1978.874267578125,-6669.3623046875,-205.83470153808594,8535.384765625,7172.42578125,3154.27783203125,4311.40283203125,1951.0587158203125,7651.64697265625,-404.516845703125,20361.7421875,-5869.865234375,-0.0,-3972.848388671875,10210.6728515625,-1378.059326171875,-914.7326049804688,2115.5673828125,9420.712890625,-6127.357421875,3568.33154296875,-4091.2626953125,521.3419799804688,-1447.9954833984375,10463.3974609375,-8378.8232421875,-14979.8388671875,-7448.1962890625,-482.4002685546875,-192.32432556152344,-7453.759765625,-1876.354248046875,-2919.0380859375,-10740.7568359375,5413.69091796875,2005.8948974609375,1543.3629150390625,-6834.666015625,805.8547973632812,0.0,-1593.430908203125,0.0,-2398.490966796875,-0.0,1148.3828125
-12443.0654296875,-13399.9189453125,-3902.912109375,1476.605712890625,1513.1632080078125,15961.328125,-1612.50439453125,1851.7176513671875,69.93611907958984,5958.875,-8109.41015625,-7648.4677734375,-5109.31005859375,3700.25634765625,367.9593505859375,-6150.404296875,2831.6181640625,4295.5078125,6544.58984375,17721.65234375,5168.9150390625,11555.3544921875,3482.500732421875,16984.14453125,-5206.26708984375,-4221.59814453125,-2059.9365234375,-1986.0267333984375,-6679.69384765625,-197.88742065429688,8517.9013671875,7157.32568359375,3135.9990234375,4297.89208984375,1923.2431640625,7636.546875,-428.35870361328125,20349.8203125,-5857.1494140625,-0.0,-3999.074462890625,10194.7783203125,-1425.7431640625,-927.4482421875,2101.262451171875,9417.5341796875,-6132.1259765625,3565.15234375,-4083.3154296875,503.0632019042969,-1468.658447265625,10459.4228515625,-6047.08984375,-14986.197265625,-7458.52783203125,-496.7053527832031,-203.4505157470703,-7450.58056640625,-1908.1434326171875,-2932.548583984375,-10739.962890625,5397.001953125,2000.3319091796875,1540.978759765625,-6845.79248046875,810.6231689453125,0.0,-1624.42529296875,0.0,-2412.7958984375,-0.0,1142.8197021484375
-12470.8818359375,-13444.423828125,-3914.0380859375,1463.0953369140625,1475.0162353515625,15949.4072265625,-1644.29345703125,1848.5386962890625,71.52557373046875,5970.0009765625,-8124.5107421875,-7669.130859375,-5141.89404296875,3724.892822265625,302.7915954589844,-6140.0732421875,2816.51806640625,4275.64013671875,6527.10595703125,17737.546875,5145.86767578125,11540.25390625,3452.301025390625,16969.83984375,-5225.34033203125,-4243.0556640625,-2102.05712890625,-1997.153076171875,-6705.919921875,-228.0871124267578,8502.0068359375,7146.19970703125,3120.1044921875,4281.20263671875,1897.01708984375,7623.03662109375,-460.9425964355469,20340.28515625,-5871.45458984375,-0.0,-4026.889892578125,10183.65234375,-1476.605712890625,-936.1903076171875,2071.062744140625,9419.91796875,-6136.09912109375,3551.64208984375,-4091.2626953125,503.85791015625,-1533.826171875,10457.8330078125,-3354.54931640625,-15006.859375,-7483.958984375,-504.6526794433594,-259.8762512207031,-7443.42822265625,-2021.78955078125,-2919.8330078125,-10749.4990234375,5375.5439453125,1993.9739990234375,1553.6943359375,-6878.3759765625,788.3707885742188,0.0,-1619.6568603515625,0.0,-2412.00146484375,-0.0,1145.9986572265625
-12452.6025390625,-13432.5029296875,-3908.475341796875,1459.1217041015625,1496.473876953125,15957.35546875,-1644.29345703125,1838.207275390625,65.96247100830078,5965.23291015625,-8102.2578125,-7685.8203125,-5187.193359375,3724.892822265625,267.02880859375,-6166.29931640625,2820.49169921875,4279.61328125,6525.5166015625,17731.189453125,5153.81494140625,11542.6376953125,3457.864013671875,16968.25,-5276.203125,-4227.9560546875,-2106.03076171875,-2006.6898193359375,-6708.3037109375,-250.33950805664062,8505.98046875,7154.146484375,3127.257080078125,4285.1767578125,1906.5538330078125,7628.599609375,-461.7373046875,20337.900390625,-5860.32861328125,-0.0,-4017.35302734375,10189.2158203125,-1463.89013671875,-936.9849853515625,2068.6787109375,9410.380859375,-6148.81494140625,3546.873779296875,-4101.59423828125,515.7788696289062,-1567.99951171875,10441.1435546875,-1508.3948974609375,-15024.3447265625,-7485.54833984375,-563.4625854492188,-289.2812194824219,-7454.55419921875,-2010.663330078125,-2919.8330078125,-10748.7041015625,5377.92822265625,1990.00048828125,1531.4420166015625,-6883.14453125,778.8340454101562,0.0,-1605.351806640625,0.0,-2406.438232421875,-0.0,1134.07763671875
-12443.0654296875,-13420.58203125,-3903.706787109375,1467.0689697265625,1527.4683837890625,15978.8134765625,-1640.31982421875,1835.0283203125,50.86262893676758,5920.72802734375,-8126.89501953125,-7731.11962890625,-5212.625,3716.945556640625,278.9497375488281,-6169.47802734375,2824.465576171875,4287.56103515625,6526.3115234375,17693.04296875,5163.3515625,11550.5859375,3467.40087890625,16975.40234375,-5230.10888671875,-4193.78271484375,-2098.08349609375,-1995.5634765625,-6728.96728515625,-244.77639770507812,8512.337890625,7156.53076171875,3132.025390625,4292.3291015625,1919.26953125,7638.13623046875,-456.96893310546875,20339.48828125,-5862.712890625,-0.0,-3995.8955078125,10208.2890625,-1449.5849609375,-927.4482421875,2067.8837890625,9397.666015625,-6161.53076171875,3555.61572265625,-4089.673583984375,558.6942138671875,-1555.283935546875,10442.7333984375,-290.075927734375,-15029.9072265625,-7507.00634765625,-603.198974609375,-290.075927734375,-7459.322265625,-1982.847900390625,-2950.827392578125,-10758.240234375,5383.49169921875,1978.07958984375,1498.858154296875,-6891.091796875,754.9921875,0.0,-1626.0146484375,0.0,-2435.84326171875,-0.0,1098.31494140625
-12444.6552734375,-13431.7080078125,-3910.064697265625,1473.4267578125,1544.952392578125,15985.169921875,-1641.9093017578125,1820.72314453125,35.762786865234375,5877.01806640625,-8138.81591796875,-7760.52490234375,-5178.45166015625,3716.945556640625,299.6126708984375,-6191.73046875,2824.465576171875,4285.97119140625,6519.15869140625,17651.716796875,5167.32568359375,11552.1748046875,3470.579833984375,16972.22265625,-5188.783203125,-4185.041015625,-2085.367919921875,-2001.92138671875,-6748.04052734375,-217.75563049316406,8510.7490234375,7157.32568359375,3129.641357421875,4292.3291015625,1924.0379638671875,7638.13623046875,-456.96893310546875,20329.15625,-5847.61279296875,-0.0,-3990.33203125,10217.0302734375,-1440.843017578125,-930.627197265625,2063.91015625,9372.234375,-6143.251953125,3562.768310546875,-4076.162841796875,577.7677001953125,-1534.620849609375,10428.4287109375,367.16461181640625,-15009.244140625,-7524.490234375,-516.5736083984375,-272.5919189453125,-7484.75390625,-1975.6953125,-2977.053466796875,-10756.65234375,5381.107421875,1962.9796142578125,1484.552978515625,-6937.98046875,717.639892578125,0.0,-1633.9620361328125,0.0,-2454.916748046875,-0.0,1076.0625
-12465.3173828125,-13431.7080078125,-3923.574951171875,1430.511474609375,1517.136962890625,15948.6142578125,-1652.24072265625,1802.4444580078125,32.5838737487793,5896.88623046875,-8140.40478515625,-7708.07275390625,-5172.88818359375,3701.845947265625,292.4601135253906,-6213.18798828125,2803.0078125,4267.6923828125,6506.44287109375,17663.63671875,5149.84130859375,11529.9228515625,3453.890625,16949.97265625,-5213.41943359375,-4242.26123046875,-2097.288818359375,-2034.505126953125,-6728.96728515625,-266.23406982421875,8492.4697265625,7134.27880859375,3113.74658203125,4270.07666015625,1904.9644775390625,7613.5,-468.09515380859375,20314.05859375,-5891.3232421875,-0.0,-4014.174072265625,10181.267578125,-1457.5322265625,-960.0321655273438,2056.757568359375,9366.671875,-6151.19921875,3516.674072265625,-4114.3095703125,503.85791015625,-1542.5682373046875,10402.9970703125,112.8514633178711,-15048.1865234375,-7509.39013671875,-517.3682861328125,-260.6709899902344,-7499.853515625,-1982.0531005859375,-2969.10595703125,-10774.9296875,5363.623046875,1959.006103515625,1490.910888671875,-6919.7021484375,739.892333984375,0.0,-1636.34619140625,0.0,-2446.96923828125,-0.0,1090.36767578125
-12488.365234375,-13433.296875,-3916.42236328125,1428.9219970703125,1483.75830078125,15922.3876953125,-1652.24072265625,1808.007568359375,33.37860107421875,5915.9599609375,-8132.45751953125,-7679.46240234375,-5158.5830078125,3689.925048828125,298.8179626464844,-6198.8828125,2804.59716796875,4264.513671875,6509.6220703125,17681.12109375,5145.86767578125,11526.744140625,3446.738037109375,16947.587890625,-5211.03515625,-4247.82421875,-2104.44140625,-2039.2735595703125,-6714.662109375,-261.4656982421875,8494.0595703125,7135.8681640625,3114.541259765625,4270.07666015625,1897.8118896484375,7604.7578125,-467.3004150390625,20315.646484375,-5872.24951171875,-0.0,-4019.7373046875,10169.3466796875,-1465.4794921875,-968.774169921875,2059.141845703125,9377.796875,-6155.1728515625,3515.87939453125,-4126.23095703125,441.8691101074219,-1537.7998046875,10408.560546875,-1847.7440185546875,-15060.9013671875,-7495.08544921875,-476.837158203125,-250.33950805664062,-7486.34326171875,-1985.2320556640625,-2950.827392578125,-10769.3671875,5362.03369140625,1964.569091796875,1506.805419921875,-6910.9599609375,769.2973022460938,0.0,-1622.8358154296875,0.0,-2423.92236328125,-0.0,1115.7989501953125
-12517.76953125,-13438.861328125,-3924.369873046875,1439.25341796875,1471.83740234375,15914.4404296875,-1659.393310546875,1809.5970458984375,32.5838737487793,5916.75439453125,-8151.53125,-7696.15185546875,-5186.39892578125,3694.693359375,294.0495910644531,-6186.16748046875,2799.828857421875,4258.15576171875,6507.23779296875,17682.7109375,5136.3310546875,11520.3857421875,3438.79052734375,16943.61328125,-5254.74560546875,-4245.43994140625,-2118.74658203125,-2036.8892822265625,-6723.40380859375,-261.4656982421875,8485.3173828125,7131.89453125,3108.18359375,4265.30859375,1889.8646240234375,7598.39990234375,-475.2477111816406,20312.466796875,-5885.759765625,-0.0,-4034.837158203125,10162.1943359375,-1475.0162353515625,-971.1583251953125,2051.1943359375,9378.5927734375,-6178.22021484375,3526.210693359375,-4148.4833984375,442.663818359375,-1541.7734375,10412.5341796875,-3984.769287109375,-15057.72265625,-7503.03271484375,-501.4737243652344,-266.23406982421875,-7495.8798828125,-2001.92138671875,-2948.443115234375,-10770.162109375,5354.08642578125,1962.1849365234375,1509.984375,-6901.4228515625,757.3763427734375,0.0,-1616.47802734375,0.0,-2421.5380859375,-0.0,1116.59375
-12458.1650390625,-13435.681640625,-3929.93310546875,1447.9954833984375,1471.83740234375,15922.3876953125,-1664.16162109375,1802.4444580078125,28.6102294921875,5912.78076171875,-8146.7626953125,-7722.3779296875,-5191.9619140625,3701.051025390625,286.89703369140625,-6195.7041015625,2799.0341796875,4253.3876953125,6500.8798828125,17677.1484375,5132.35693359375,11517.20703125,3438.79052734375,16939.640625,-5277.79248046875,-4244.6455078125,-2122.719970703125,-2037.6842041015625,-6721.01953125,-261.4656982421875,8481.34375,7133.48388671875,3105.004638671875,4264.513671875,1886.6856689453125,7597.60546875,-480.810791015625,20308.494140625,-5906.4228515625,-0.0,-4040.400146484375,10163.7841796875,-1475.81103515625,-971.9530639648438,2047.220947265625,9372.234375,-6179.0146484375,3538.1318359375,-4152.45654296875,462.53204345703125,-1550.5155029296875,10405.380859375,-4376.5703125,-15055.3388671875,-7499.853515625,-524.5208740234375,-273.3866271972656,-7497.46923828125,-2002.716064453125,-2954.80078125,-10770.95703125,5350.90771484375,1956.621826171875,1503.62646484375,-6887.91259765625,743.0712280273438,0.0,-1627.6041259765625,0.0,-2431.074951171875,-0.0,1107.0570068359375
-12438.296875,-13430.1181640625,-3925.164794921875,1467.8636474609375,1492.500244140625,15939.87109375,-1648.26708984375,1818.3389892578125,34.96805953979492,5918.34423828125,-8171.39892578125,-7733.50390625,-5176.8623046875,3704.22998046875,313.91778564453125,-6180.6044921875,2810.160400390625,4266.8974609375,6512.00634765625,17688.2734375,5145.07275390625,11529.1279296875,3452.301025390625,16953.150390625,-5280.9716796875,-4215.240234375,-2100.4677734375,-2020.994873046875,-6701.1513671875,-232.0607452392578,8494.853515625,7142.2255859375,3116.130859375,4277.2294921875,1901.7855224609375,7611.91015625,-464.1214904785156,20318.826171875,-5908.01220703125,-0.0,-4018.9423828125,10185.2421875,-1453.55859375,-955.2637939453125,2062.32080078125,9384.1552734375,-6174.24609375,3557.999755859375,-4123.05224609375,486.3739013671875,-1521.9052734375,10424.455078125,-3324.349609375,-15048.1865234375,-7481.5751953125,-510.21575927734375,-263.05517578125,-7488.7275390625,-1971.7216796875,-2964.337646484375,-10759.0361328125,5363.623046875,1968.5428466796875,1502.037109375,-6867.25,750.2238159179688,0.0,-1657.0091552734375,0.0,-2454.916748046875,-0.0,1103.8780517578125
-12453.396484375,-13431.7080078125,-3918.01220703125,1476.605712890625,1528.2630615234375,15951.7919921875,-1629.193603515625,1837.4124755859375,54.836273193359375,5959.66943359375,-8216.6982421875,-7727.14599609375,-5157.78857421875,3693.103759765625,352.06475830078125,-6151.994140625,2818.90234375,4283.5869140625,6528.69580078125,17718.47265625,5164.94140625,11541.84375,3469.784912109375,16966.662109375,-5238.05615234375,-4205.70361328125,-2072.652099609375,-2001.92138671875,-6714.662109375,-226.49765014648438,8509.1591796875,7145.40478515625,3128.0517578125,4285.97119140625,1921.65380859375,7625.4208984375,-445.0480041503906,20335.515625,-5892.1181640625,-0.0,-3982.38525390625,10194.7783203125,-1427.33251953125,-938.574462890625,2080.599609375,9404.0234375,-6183.783203125,3565.947265625,-4092.0576171875,485.57916259765625,-1482.963623046875,10445.912109375,-2760.092529296875,-15038.6494140625,-7495.8798828125,-516.5736083984375,-236.03439331054688,-7476.01171875,-1953.44287109375,-2953.21142578125,-10758.240234375,5377.92822265625,1987.6163330078125,1509.984375,-6868.04443359375,747.0448608398438,0.0,-1665.7510986328125,0.0,-2441.40625,-0.0,1126.9251708984375
-12474.060546875,-13472.2392578125,-3936.290771484375,1439.25341796875,1496.473876953125,15932.71875,-1649.8565673828125,1827.0810546875,50.86262893676758,5992.25390625,-8187.2939453125,-7723.96728515625,-5195.140625,3699.461669921875,303.5863342285156,-6175.8359375,2799.0341796875,4264.513671875,6515.18505859375,17735.162109375,5141.099609375,11523.564453125,3448.327392578125,16949.177734375,-5268.255859375,-4227.16162109375,-2105.236083984375,-2026.557861328125,-6729.76171875,-295.6390380859375,8489.291015625,7125.53662109375,3106.593994140625,4263.71923828125,1899.4013671875,7606.34765625,-466.50567626953125,20323.595703125,-5905.62841796875,-0.0,-4026.889892578125,10170.9365234375,-1452.763916015625,-957.64794921875,2065.49951171875,9408.7919921875,-6182.98876953125,3524.621337890625,-4122.25732421875,452.2005615234375,-1531.4420166015625,10427.6337890625,-3733.635009765625,-15066.46484375,-7509.39013671875,-566.6414794921875,-266.23406982421875,-7499.853515625,-1986.8214111328125,-2930.958984375,-10778.109375,5362.03369140625,1985.2320556640625,1506.805419921875,-6893.47607421875,723.2030029296875,0.0,-1635.551513671875,0.0,-2417.564453125,-0.0,1130.10400390625
-12489.955078125,-13481.7763671875,-3908.475341796875,1454.353271484375,1490.1160888671875,15967.6875,-1641.1146240234375,1842.180908203125,65.1677474975586,5994.63818359375,-8118.947265625,-7719.19873046875,-5180.041015625,3708.20361328125,283.7181091308594,-6166.29931640625,2818.107666015625,4279.61328125,6527.90087890625,17746.291015625,5152.2255859375,11543.43359375,3458.658935546875,16969.83984375,-5241.2353515625,-4186.63037109375,-2106.82568359375,-2004.3055419921875,-6713.072265625,-301.2021484375,8505.98046875,7145.40478515625,3123.283447265625,4285.1767578125,1908.9381103515625,7627.01025390625,-456.96893310546875,20340.28515625,-5875.4287109375,-0.0,-4024.505615234375,10201.9306640625,-1448.7901611328125,-932.2166748046875,2079.010009765625,9422.302734375,-6128.94677734375,3541.310546875,-4137.357421875,517.3682861328125,-1551.3101806640625,10441.1435546875,-5751.451171875,-15068.8486328125,-7491.11181640625,-539.6207275390625,-274.1813659667969,-7506.2119140625,-1961.3902587890625,-2907.1171875,-10759.830078125,5374.74951171875,1998.7423095703125,1507.6002197265625,-6887.11767578125,731.945068359375,0.0,-1629.193603515625,0.0,-2403.25927734375,-0.0,1111.030517578125
-12547.9697265625,-13442.833984375,-3859.996826171875,1498.0634765625,1542.5682373046875,16015.37109375,-1606.941162109375,1864.433349609375,85.03595733642578,5968.412109375,-8100.6689453125,-7712.04638671875,-5133.15185546875,3747.93994140625,336.9649353027344,-6126.5625,2857.04931640625,4313.787109375,6556.5107421875,17739.13671875,5193.5517578125,11583.9638671875,3496.805908203125,17003.216796875,-5187.193359375,-4143.71484375,-2054.37353515625,-1966.1585693359375,-6683.66748046875,-250.33950805664062,8541.7431640625,7181.16748046875,3164.609130859375,4324.1181640625,1947.8797607421875,7663.56787109375,-422.7956237792969,20366.509765625,-5825.36083984375,-0.0,-3964.106201171875,10255.177734375,-1401.1064453125,-897.2485961914062,2104.44140625,9431.044921875,-6097.15771484375,3584.225830078125,-4147.6884765625,561.8731079101562,-1498.0634765625,10468.1650390625,-7584.8896484375,-15028.3173828125,-7460.912109375,-532.4681396484375,-226.49765014648438,-7479.19091796875,-1939.1378173828125,-2900.759521484375,-10719.298828125,5409.7177734375,2013.0474853515625,1535.4156494140625,-6906.19140625,755.786865234375,0.0,-1614.09375,0.0,-2406.438232421875,-0.0,1107.0570068359375
-12536.048828125,-13434.88671875,-3871.917724609375,1481.3741455078125,1563.2310791015625,15985.169921875,-1606.146484375,1828.6705322265625,62.78356170654297,5918.34423828125,-8163.4521484375,-7696.94677734375,-5122.8203125,3728.86669921875,375.9066162109375,-6186.16748046875,2845.923095703125,4301.0712890625,6542.2060546875,17700.1953125,5187.193359375,11566.4794921875,3494.421630859375,16978.58203125,-5183.2197265625,-4190.603515625,-2036.0947265625,-2016.2265625,-6702.7412109375,-261.4656982421875,8529.822265625,7169.24658203125,3155.867431640625,4310.60791015625,1945.49560546875,7641.3154296875,-422.7956237792969,20341.873046875,-5821.38671875,-0.0,-3967.28515625,10230.541015625,-1383.62255859375,-936.1903076171875,2098.08349609375,9396.076171875,-6131.3310546875,3569.126220703125,-4185.83544921875,495.91064453125,-1459.1217041015625,10423.66015625,-8796.8515625,-15037.0595703125,-7481.5751953125,-597.6359252929688,-194.70851135253906,-7497.46923828125,-1922.448486328125,-2934.9326171875,-10737.578125,5396.20751953125,1990.795166015625,1529.057861328125,-6909.37060546875,754.1974487304688,0.0,-1606.941162109375,0.0,-2423.12744140625,-0.0,1101.493896484375
-12428.7607421875,-13474.6240234375,-3906.091064453125,1457.5322265625,1544.1575927734375,15941.4619140625,-1619.6568603515625,1801.649658203125,42.1206169128418,5902.44921875,-8175.373046875,-7688.2041015625,-5158.5830078125,3697.8720703125,361.60150146484375,-6225.90380859375,2818.90234375,4278.0244140625,6524.7216796875,17672.380859375,5160.96728515625,11533.896484375,3481.705810546875,16953.9453125,-5257.92431640625,-4223.982421875,-2060.731201171875,-2044.8367919921875,-6723.40380859375,-290.075927734375,8505.185546875,7146.19970703125,3128.0517578125,4283.5869140625,1924.8326416015625,7610.3212890625,-436.3059997558594,20318.826171875,-5894.501953125,-0.0,-4011.789794921875,10182.857421875,-1386.0067138671875,-968.774169921875,2080.599609375,9373.82421875,-6160.736328125,3548.463134765625,-4145.30419921875,457.763671875,-1475.81103515625,10396.6396484375,-9761.6513671875,-15061.6962890625,-7502.23779296875,-592.0728149414062,-208.21888732910156,-7507.00634765625,-1943.1114501953125,-2961.15869140625,-10770.162109375,5376.3388671875,1972.516357421875,1497.2686767578125,-6896.65478515625,764.5289306640625,0.0,-1607.7359619140625,0.0,-2420.7431640625,-0.0,1123.7462158203125
-12427.1708984375,-13443.62890625,-3906.8857421875,1461.505859375,1524.2894287109375,15931.1298828125,-1632.37255859375,1820.72314453125,34.96805953979492,5926.291015625,-8139.6103515625,-7697.7412109375,-5161.76220703125,3675.619873046875,330.6070861816406,-6179.0146484375,2814.1337890625,4273.255859375,6521.54296875,17676.353515625,5156.19921875,11531.5126953125,3472.964111328125,16955.533203125,-5260.30859375,-4212.0615234375,-2100.4677734375,-2020.2000732421875,-6709.0986328125,-275.77081298828125,8501.2119140625,7144.60986328125,3124.872802734375,4279.61328125,1919.26953125,7608.73193359375,-449.02166748046875,20323.595703125,-5892.91259765625,-0.0,-4014.96875,10178.8837890625,-1398.7222900390625,-958.4426879882812,2067.089111328125,9390.513671875,-6141.66259765625,3551.64208984375,-4101.59423828125,499.8843078613281,-1506.805419921875,10424.455078125,-9620.984375,-15064.080078125,-7487.9326171875,-553.9258422851562,-235.2396697998047,-7499.853515625,-1998.7423095703125,-2941.29052734375,-10773.3408203125,5373.15966796875,1972.516357421875,1458.326904296875,-6886.3232421875,766.1183471679688,0.0,-1616.47802734375,0.0,-2409.6171875,-0.0,1121.362060546875
