-11627.673828125,-13258.45703125,-4433.79052734375,1059.373291015625,1078.44677734375,15414.5556640625,-2195.04052734375,1234.2135009765625,-240.00804138183594,5710.125,-8389.9501953125,-7924.2392578125,-5218.98291015625,3970.464111328125,153.3826141357422,-6728.96728515625,2240.340087890625,3632.70458984375,5941.39111328125,17197.927734375,4571.27880859375,10966.4599609375,2801.418212890625,16366.6396484375,-5170.50390625,-4717.5087890625,-2559.026123046875,-2423.12744140625,-6756.78271484375,-348.09112548828125,7879.73388671875,6656.646484375,2619.425537109375,3739.992919921875,1263.618408203125,7051.62646484375,-1008.5106201171875,19772.84765625,-6279.9453125,-0.0,-4405.1806640625,9673.4365234375,-2034.505126953125,-1538.5946044921875,1644.29345703125,8858.044921875,-6402.33349609375,3138.383056640625,-4570.484375,-34.1733283996582,-1684.0299072265625,9833.1767578125,-17837.68359375,-14398.09765625,-7526.07958984375,-807.4442749023438,-172.4561004638672,-7658.0048828125,-1974.9005126953125,-3480.11669921875,-10182.857421875,4702.4091796875,1489.3214111328125,1438.458740234375,-7270.9716796875,519.7525024414062,0.0,-1780.1920166015625,0.0,-2689.361572265625,-0.0,975.9266967773438
-11557.73828125,-13229.052734375,-4438.55908203125,1068.115234375,1079.241455078125,15424.8876953125,-2190.27197265625,1241.3660888671875,-236.03439331054688,5714.8935546875,-8363.7236328125,-7908.34423828125,-5215.8037109375,3972.053466796875,153.3826141357422,-6724.19873046875,2252.260986328125,3642.2412109375,5950.1328125,17201.900390625,4577.63671875,10980.765625,2809.365478515625,16375.3837890625,-5175.2724609375,-4698.435546875,-2556.641845703125,-2415.974853515625,-6758.3720703125,-344.9122009277344,7889.27099609375,6674.130859375,2626.578125,3754.2978515625,1271.5657958984375,7060.369140625,-1003.7421875,19781.58984375,-6233.85107421875,-0.0,-4408.359375,9688.537109375,-2030.5316162109375,-1531.4420166015625,1650.6513671875,8862.8134765625,-6409.486328125,3147.919921875,-4572.8681640625,-33.37860107421875,-1684.8245849609375,9836.3564453125,-19341.310546875,-14390.1513671875,-7527.66943359375,-789.960205078125,-166.09828186035156,-7646.87890625,-1971.7216796875,-3471.37451171875,-10170.142578125,4707.97216796875,1495.67919921875,1432.8956298828125,-7249.51416015625,529.2892456054688,0.0,-1763.502685546875,0.0,-2676.64599609375,-0.0,975.9266967773438
-11525.9482421875,-13220.310546875,-4429.8173828125,1067.3204345703125,1083.215087890625,15424.8876953125,-2186.29833984375,1247.723876953125,-234.44493103027344,5716.482421875,-8344.650390625,-7901.986328125,-5197.52490234375,3963.311767578125,150.99842834472656,-6708.3037109375,2253.850341796875,3643.83056640625,5952.51708984375,17201.900390625,4580.81591796875,10980.765625,2810.955078125,16378.560546875,-5150.63623046875,-4727.04541015625,-2556.641845703125,-2409.6171875,-6755.193359375,-338.55438232421875,7890.8603515625,6676.51513671875,2629.7568359375,3754.2978515625,1273.949951171875,7063.5478515625,-1001.3580322265625,19784.76953125,-6227.4931640625,-0.0,-4399.61767578125,9682.1787109375,-2028.942138671875,-1527.4683837890625,1653.0355224609375,8868.376953125,-6386.43896484375,3146.33056640625,-4574.45751953125,-20.66294288635254,-1689.593017578125,9844.302734375,-18708.705078125,-14368.693359375,-7522.10595703125,-772.4761962890625,-162.9193572998047,-7619.06298828125,-1968.5428466796875,-3466.606201171875,-10183.65234375,4711.94580078125,1499.65283203125,1441.6376953125,-7243.951171875,544.3890991210938,0.0,-1751.581787109375,0.0,-2661.5458984375,-0.0,985.4635009765625
-11533.1015625,-13237.7939453125,-4447.30126953125,1053.81005859375,1072.0888671875,15408.9931640625,-2197.424560546875,1237.3924560546875,-240.80276489257812,5700.58837890625,-8364.5185546875,-7919.470703125,-5215.00927734375,3950.595947265625,139.8722381591797,-6720.22509765625,2238.75048828125,3629.525390625,5941.39111328125,17191.568359375,4569.689453125,10964.8701171875,2800.62353515625,16365.8466796875,-5162.55712890625,-4751.68212890625,-2566.973388671875,-2421.5380859375,-6762.345703125,-349.6805725097656,7876.5556640625,6657.44140625,2613.067626953125,3736.813720703125,1261.2342529296875,7052.42138671875,-1012.4841918945312,19772.84765625,-6260.8720703125,-0.0,-4412.3330078125,9662.310546875,-2039.2735595703125,-1540.18408203125,1642.7039794921875,8854.8662109375,-6404.7177734375,3134.40966796875,-4583.99462890625,-31.789142608642578,-1700.71923828125,9835.560546875,-16567.70703125,-14358.361328125,-7530.84814453125,-793.13916015625,-174.04556274414062,-7619.85791015625,-1968.5428466796875,-3488.8583984375,-10201.9306640625,4701.6142578125,1488.5267333984375,1444.0218505859375,-7244.74560546875,533.2628784179688,0.0,-1766.681640625,0.0,-2681.414306640625,-0.0,971.9530639648438
-11545.0224609375,-13275.146484375,-4460.0166015625,1060.16796875,1073.6783447265625,15412.1708984375,-2197.424560546875,1236.59765625,-240.80276489257812,5687.078125,-8344.650390625,-7918.67529296875,-5240.4404296875,3952.18505859375,140.66696166992188,-6720.22509765625,2236.3662109375,3631.114990234375,5942.18603515625,17186.005859375,4566.5107421875,10964.8701171875,2799.0341796875,16365.8466796875,-5179.24658203125,-4738.96630859375,-2562.205078125,-2421.5380859375,-6763.93505859375,-357.62786865234375,7874.9658203125,6655.85205078125,2609.888671875,3738.4033203125,1259.6448974609375,7052.42138671875,-1011.6895141601562,19772.052734375,-6260.0771484375,-0.0,-4417.896484375,9666.283203125,-2037.6842041015625,-1537.7998046875,1642.7039794921875,8850.09765625,-6426.17578125,3141.562255859375,-4568.89501953125,-30.994415283203125,-1699.9244384765625,9835.560546875,-14949.6396484375,-14362.3349609375,-7531.64306640625,-797.9075317382812,-173.25083923339844,-7625.4208984375,-1969.33740234375,-3507.13720703125,-10208.2890625,4700.8193359375,1485.3477783203125,1440.843017578125,-7249.51416015625,524.5208740234375,0.0,-1779.3973388671875,0.0,-2700.48779296875,-0.0,964.800537109375
-11535.4853515625,-13300.578125,-4470.34814453125,1068.115234375,1072.0888671875,15420.9140625,-2192.65625,1242.95556640625,-236.82911682128906,5698.9990234375,-8335.11328125,-7909.93408203125,-5230.10888671875,3953.77490234375,147.81951904296875,-6709.8935546875,2238.75048828125,3635.088623046875,5948.54345703125,17194.748046875,4564.12646484375,10969.638671875,2803.0078125,16372.9990234375,-5184.80908203125,-4724.6611328125,-2559.026123046875,-2412.7958984375,-6756.78271484375,-344.9122009277344,7880.5283203125,6660.6201171875,2610.683349609375,3746.3505859375,1263.618408203125,7057.98486328125,-1006.1264038085938,19779.205078125,-6254.51416015625,-0.0,-4421.86962890625,9678.2041015625,-2034.505126953125,-1529.8525390625,1648.26708984375,8861.224609375,-6438.0966796875,3148.71484375,-4566.5107421875,-22.25240135192871,-1693.566650390625,9843.5087890625,-15020.3701171875,-14374.255859375,-7526.07958984375,-781.2182006835938,-172.4561004638672,-7627.01025390625,-1968.5428466796875,-3485.6796875,-10198.751953125,4707.97216796875,1493.2950439453125,1446.406005859375,-7245.54052734375,530.8787231445312,0.0,-1773.834228515625,0.0,-2689.361572265625,-0.0,973.5425415039062
-11543.43359375,-13267.994140625,-4478.2958984375,1060.16796875,1065.7310791015625,15423.2978515625,-2195.04052734375,1245.3397216796875,-230.47129821777344,5711.71435546875,-8361.33984375,-7907.5498046875,-5230.10888671875,3963.311767578125,140.66696166992188,-6711.48291015625,2234.77685546875,3636.677978515625,5950.1328125,17205.873046875,4562.53662109375,10968.8447265625,2802.212890625,16375.3837890625,-5183.2197265625,-4724.6611328125,-2567.76806640625,-2410.411865234375,-6752.01416015625,-341.7333068847656,7879.73388671875,6657.44140625,2607.504638671875,3743.96630859375,1260.4395751953125,7058.779296875,-1007.7158203125,19783.974609375,-6256.103515625,-0.0,-4425.048828125,9678.2041015625,-2040.068359375,-1529.057861328125,1648.26708984375,8866.787109375,-6442.06982421875,3139.177978515625,-4580.81591796875,-27.815500259399414,-1697.540283203125,9843.5087890625,-16346.7734375,-14385.3828125,-7520.51708984375,-783.6024169921875,-186.76121520996094,-7627.80517578125,-1964.569091796875,-3471.37451171875,-10193.984375,4707.177734375,1496.473876953125,1459.91650390625,-7227.26220703125,538.03125,0.0,-1765.09228515625,0.0,-2675.056396484375,-0.0,987.84765625
-11571.248046875,-13261.6357421875,-4481.474609375,1060.16796875,1056.989013671875,15419.32421875,-2202.98779296875,1243.750244140625,-234.44493103027344,5713.30419921875,-8373.2607421875,-7917.08642578125,-5233.28759765625,3962.516845703125,123.9776611328125,-6715.45654296875,2229.213623046875,3627.141357421875,5942.98046875,17204.28515625,4557.7685546875,10964.8701171875,2793.47119140625,16369.8193359375,-5188.783203125,-4727.04541015625,-2582.0732421875,-2412.00146484375,-6763.93505859375,-349.6805725097656,7870.99169921875,6650.2890625,2600.35205078125,3736.813720703125,1252.4923095703125,7052.42138671875,-1015.6631469726562,19780.0,-6269.61376953125,-0.0,-4431.40673828125,9675.8203125,-2050.39990234375,-1532.2366943359375,1641.9093017578125,8866.787109375,-6437.3017578125,3139.177978515625,-4595.91552734375,-29.404958724975586,-1714.2296142578125,9841.9189453125,-18460.75,-14393.330078125,-7531.64306640625,-805.8547973632812,-198.68214416503906,-7646.083984375,-1973.3111572265625,-3480.9111328125,-10197.95703125,4701.6142578125,1494.0897216796875,1459.91650390625,-7243.951171875,530.8787231445312,0.0,-1771.4500732421875,0.0,-2679.0302734375,-0.0,990.2318725585938
-11602.2421875,-13258.45703125,-4476.7060546875,1071.294189453125,1060.16796875,15424.0927734375,-2200.603515625,1248.5185546875,-232.85548400878906,5715.68798828125,-8366.1083984375,-7917.08642578125,-5235.671875,3964.90087890625,131.13021850585938,-6709.8935546875,2231.597900390625,3626.3466796875,5943.775390625,17208.2578125,4560.15234375,10969.638671875,2795.060302734375,16372.2041015625,-5193.5517578125,-4715.12451171875,-2576.51025390625,-2405.6435546875,-6766.3193359375,-351.2700500488281,7871.787109375,6651.08349609375,2601.94140625,3739.992919921875,1252.4923095703125,7054.8056640625,-1014.868408203125,19780.0,-6270.40869140625,-0.0,-4430.6123046875,9683.7685546875,-2048.015625,-1529.8525390625,1642.7039794921875,8868.376953125,-6430.94384765625,3150.30419921875,-4591.94189453125,-20.66294288635254,-1706.2822265625,9845.892578125,-20477.771484375,-14393.330078125,-7534.82177734375,-798.7022705078125,-187.5559539794922,-7649.2626953125,-1973.3111572265625,-3481.705810546875,-10201.9306640625,4702.4091796875,1495.67919921875,1459.91650390625,-7267.79296875,529.2892456054688,0.0,-1778.6025390625,0.0,-2682.208984375,-0.0,989.4371337890625
-11601.4482421875,-13269.583984375,-4476.7060546875,1076.857177734375,1056.1943359375,15417.7353515625,-2204.5771484375,1242.95556640625,-241.5974884033203,5701.38330078125,-8385.181640625,-7920.26513671875,-5226.13525390625,3956.95361328125,132.7196807861328,-6709.0986328125,2229.213623046875,3624.757080078125,5937.41748046875,17195.54296875,4558.5634765625,10964.8701171875,2791.0869140625,16365.05078125,-5189.57763671875,-4720.68798828125,-2579.68896484375,-2415.18017578125,-6767.90869140625,-362.396240234375,7869.40283203125,6649.494140625,2601.146728515625,3736.01904296875,1249.3133544921875,7048.4482421875,-1018.8421020507812,19774.4375,-6268.0244140625,-0.0,-4431.40673828125,9679.7939453125,-2049.605224609375,-1536.21044921875,1637.140869140625,8861.224609375,-6435.71240234375,3155.072509765625,-4592.73681640625,-29.404958724975586,-1704.69287109375,9842.712890625,-22228.55859375,-14403.6611328125,-7537.2060546875,-793.933837890625,-174.04556274414062,-7640.5205078125,-1977.28466796875,-3486.474365234375,-10206.69921875,4697.64111328125,1485.3477783203125,1440.0482177734375,-7269.38232421875,527.6997680664062,0.0,-1788.139404296875,0.0,-2694.1298828125,-0.0,971.1583251953125
-11590.3212890625,-13246.5361328125,-4462.40087890625,1064.936279296875,1061.7574462890625,15415.3505859375,-2204.5771484375,1238.9818115234375,-247.16058349609375,5689.46240234375,-8413.7919921875,-7925.03369140625,-5214.21435546875,3948.211669921875,137.48805236816406,-6717.04638671875,2229.213623046875,3625.552001953125,5936.62255859375,17184.416015625,4561.7421875,10964.076171875,2791.881591796875,16365.05078125,-5167.32568359375,-4727.84033203125,-2573.3310546875,-2419.948486328125,-6777.4453125,-370.3435363769531,7868.607421875,6649.494140625,2605.9150390625,3733.635009765625,1254.081787109375,7046.8583984375,-1018.8421020507812,19772.052734375,-6268.0244140625,-0.0,-4421.86962890625,9676.615234375,-2047.220947265625,-1538.5946044921875,1638.7303466796875,8858.044921875,-6425.380859375,3141.562255859375,-4589.5576171875,-35.762786865234375,-1699.9244384765625,9839.53515625,-22673.607421875,-14404.4560546875,-7546.74267578125,-799.4969482421875,-174.04556274414062,-7648.4677734375,-1976.489990234375,-3485.6796875,-10213.0576171875,4696.05126953125,1482.963623046875,1424.9483642578125,-7259.05078125,521.3419799804688,0.0,-1782.576171875,0.0,-2697.308837890625,-0.0,960.0321655273438
-11578.400390625,-13247.3310546875,-4460.0166015625,1045.86279296875,1057.78369140625,15408.9931640625,-2206.96142578125,1235.802978515625,-247.955322265625,5689.46240234375,-8420.1494140625,-7933.77587890625,-5220.57177734375,3949.801025390625,136.6933135986328,-6724.19873046875,2222.06103515625,3620.783447265625,5931.0595703125,17183.623046875,4554.58984375,10957.7177734375,2787.907958984375,16359.4873046875,-5180.041015625,-4725.4560546875,-2577.304931640625,-2424.717041015625,-6771.88232421875,-367.16461181640625,7864.63427734375,6639.95751953125,2600.35205078125,3726.482421875,1248.5185546875,7043.6796875,-1022.0209350585938,19768.873046875,-6306.17138671875,-0.0,-4423.45947265625,9673.4365234375,-2050.39990234375,-1544.1575927734375,1635.551513671875,8854.8662109375,-6415.04931640625,3122.48876953125,-4592.73681640625,-44.50480270385742,-1702.30859375,9834.7666015625,-22016.3671875,-14403.6611328125,-7541.1796875,-809.03369140625,-186.76121520996094,-7658.7998046875,-1973.3111572265625,-3493.626953125,-10232.92578125,4690.48828125,1478.989990234375,1430.511474609375,-7260.640625,514.1893920898438,0.0,-1784.165771484375,0.0,-2699.69287109375,-0.0,965.59521484375
-11572.04296875,-13271.1728515625,-4448.095703125,1055.3995361328125,1072.0888671875,15416.1455078125,-2199.013916015625,1246.1343994140625,-237.6238555908203,5707.74072265625,-8435.2490234375,-7933.77587890625,-5226.13525390625,3955.3642578125,147.02479553222656,-6706.71484375,2229.213623046875,3627.141357421875,5940.59619140625,17200.3125,4564.12646484375,10964.076171875,2796.64990234375,16366.6396484375,-5161.76220703125,-4721.48291015625,-2566.178466796875,-2411.20654296875,-6763.93505859375,-358.422607421875,7870.197265625,6641.546875,2608.29931640625,3734.4296875,1255.671142578125,7052.42138671875,-1012.4841918945312,19776.025390625,-6282.32958984375,-0.0,-4408.359375,9676.615234375,-2039.2735595703125,-1535.4156494140625,1645.088134765625,8866.787109375,-6417.43310546875,3133.61474609375,-4580.02099609375,-46.88898849487305,-1691.9771728515625,9846.6875,-20719.369140625,-14402.8662109375,-7532.43798828125,-817.7757568359375,-175.63502502441406,-7639.72607421875,-1955.8270263671875,-3481.705810546875,-10225.7724609375,4698.435546875,1491.70556640625,1433.6904296875,-7274.94580078125,515.7788696289062,0.0,-1786.5499267578125,0.0,-2698.103759765625,-0.0,968.774169921875
-11583.1689453125,-13288.6572265625,-4442.533203125,1064.936279296875,1075.267822265625,15420.9140625,-2191.066650390625,1254.87646484375,-218.5503692626953,5743.50341796875,-8422.5341796875,-7932.98046875,-5215.8037109375,3958.543212890625,156.56153869628906,-6714.662109375,2234.77685546875,3630.3203125,5950.927734375,17231.306640625,4567.30517578125,10968.048828125,2803.0078125,16373.79296875,-5163.3515625,-4729.4296875,-2561.41015625,-2401.669677734375,-6759.96142578125,-367.16461181640625,7875.76025390625,6649.494140625,2611.47802734375,3739.992919921875,1260.4395751953125,7057.18994140625,-1003.7421875,19783.974609375,-6274.38232421875,-0.0,-4408.359375,9675.8203125,-2032.1209716796875,-1527.4683837890625,1657.8038330078125,8878.7080078125,-6404.7177734375,3143.9462890625,-4572.0732421875,-30.994415283203125,-1684.8245849609375,9849.0712890625,-19876.95703125,-14416.376953125,-7530.84814453125,-812.212646484375,-167.68772888183594,-7650.85205078125,-1948.674560546875,-3472.169189453125,-10211.4677734375,4705.587890625,1507.6002197265625,1445.611328125,-7278.12451171875,522.13671875,0.0,-1788.93408203125,0.0,-2683.798583984375,-0.0,987.0529174804688
-11665.8212890625,-13302.1669921875,-4442.533203125,1074.4730224609375,1075.267822265625,15430.4501953125,-2188.6826171875,1262.029052734375,-214.57672119140625,5745.8876953125,-8406.638671875,-7925.828125,-5212.625,3961.721923828125,154.17735290527344,-6709.0986328125,2236.3662109375,3632.70458984375,5954.10693359375,17235.279296875,4569.689453125,10971.228515625,2804.59716796875,16380.1513671875,-5164.94140625,-4723.86669921875,-2566.178466796875,-2396.9013671875,-6761.55078125,-372.72772216796875,7878.14404296875,6649.494140625,2613.067626953125,3740.78759765625,1262.029052734375,7061.16357421875,-1003.7421875,19790.330078125,-6244.9775390625,-0.0,-4405.9755859375,9682.97265625,-2033.71044921875,-1517.931640625,1657.0091552734375,8884.2705078125,-6364.1865234375,3154.27783203125,-4574.45751953125,-15.09984302520752,-1687.208740234375,9857.8134765625,-19628.20703125,-14433.8603515625,-7530.84814453125,-797.9075317382812,-170.07191467285156,-7650.05712890625,-1960.5953369140625,-3461.043212890625,-10217.0302734375,4707.97216796875,1509.984375,1447.2008056640625,-7267.79296875,526.1103515625,0.0,-1775.4237060546875,0.0,-2669.493408203125,-0.0,986.2581787109375
-11691.2529296875,-13322.830078125,-4445.71142578125,1070.4993896484375,1076.857177734375,15421.7080078125,-2192.65625,1249.3133544921875,-221.72927856445312,5721.2509765625,-8384.38671875,-7931.3916015625,-5229.314453125,3963.311767578125,153.3826141357422,-6699.56201171875,2235.571533203125,3631.114990234375,5947.74853515625,17217.794921875,4569.689453125,10967.2548828125,2800.62353515625,16373.79296875,-5157.78857421875,-4727.04541015625,-2565.3837890625,-2409.6171875,-6772.6767578125,-381.4697265625,7875.76025390625,6646.31494140625,2613.8623046875,3737.608642578125,1260.4395751953125,7054.8056640625,-1006.921142578125,19783.974609375,-6231.466796875,-0.0,-4402.79638671875,9679.7939453125,-2034.505126953125,-1528.2630615234375,1651.446044921875,8873.1455078125,-6391.20703125,3147.919921875,-4573.6630859375,-29.404958724975586,-1685.619384765625,9850.6611328125,-19886.494140625,-14440.21875,-7541.1796875,-808.239013671875,-172.4561004638672,-7638.13623046875,-1959.80078125,-3472.964111328125,-10230.541015625,4702.4091796875,1499.65283203125,1453.55859375,-7254.28271484375,517.3682861328125,0.0,-1772.2447509765625,0.0,-2663.135498046875,-0.0,989.4371337890625
-11615.7529296875,-13303.7568359375,-4460.0166015625,1044.2734375,1065.7310791015625,15404.224609375,-2209.345458984375,1226.2662353515625,-252.72369384765625,5669.59375,-8355.7763671875,-7935.36474609375,-5254.74560546875,3949.801025390625,129.54075622558594,-6717.8408203125,2228.4189453125,3618.3994140625,5929.47021484375,17170.90625,4557.7685546875,10957.7177734375,2787.11328125,16356.3095703125,-5180.8359375,-4738.96630859375,-2578.099609375,-2423.92236328125,-6771.087890625,-395.77484130859375,7862.25048828125,6647.10986328125,2604.325439453125,3730.4560546875,1249.3133544921875,7040.50048828125,-1024.4051513671875,19763.310546875,-6259.28271484375,-0.0,-4418.69091796875,9663.10546875,-2048.810302734375,-1547.3365478515625,1630.7830810546875,8840.560546875,-6441.27490234375,3120.1044921875,-4580.02099609375,-50.86262893676758,-1708.66650390625,9829.203125,-20426.115234375,-14437.8349609375,-7539.59033203125,-815.3915405273438,-189.9401397705078,-7631.77880859375,-1978.874267578125,-3523.82666015625,-10233.7197265625,4687.30908203125,1470.2479248046875,1417.7957763671875,-7252.693359375,517.3682861328125,0.0,-1784.165771484375,0.0,-2704.46142578125,-0.0,951.2901611328125
-11568.0693359375,-13317.267578125,-4463.99072265625,1041.094482421875,1056.1943359375,15405.0185546875,-2217.292724609375,1219.1136474609375,-267.82354736328125,5645.751953125,-8352.59765625,-7932.18603515625,-5250.77197265625,3938.6748046875,121.59347534179688,-6738.50390625,2226.82958984375,3615.22021484375,5923.1123046875,17144.6796875,4555.38427734375,10956.923828125,2782.3447265625,16350.74609375,-5196.72998046875,-4732.60888671875,-2582.867919921875,-2431.074951171875,-6775.06103515625,-393.3906555175781,7859.8662109375,6650.2890625,2602.736328125,3728.072021484375,1243.750244140625,7036.52734375,-1031.5577392578125,19757.748046875,-6273.587890625,-0.0,-4429.8173828125,9664.6943359375,-2055.962890625,-1551.3101806640625,1621.246337890625,8827.0498046875,-6436.5068359375,3117.720458984375,-4593.53125,-51.6573600769043,-1717.4085693359375,9822.05078125,-21444.955078125,-14423.529296875,-7545.1533203125,-814.5968017578125,-193.9137725830078,-7654.03125,-1992.3846435546875,-3536.542236328125,-10220.2099609375,4681.74609375,1459.1217041015625,1393.9539794921875,-7256.66650390625,516.5736083984375,0.0,-1784.165771484375,0.0,-2716.38232421875,-0.0,929.0377197265625
-11618.931640625,-13272.7626953125,-4478.2958984375,1037.91552734375,1056.1943359375,15405.0185546875,-2212.5244140625,1223.882080078125,-259.8762512207031,5660.85205078125,-8352.59765625,-7938.54443359375,-5231.69873046875,3940.26416015625,143.8458709716797,-6739.29833984375,2222.855712890625,3612.04150390625,5926.291015625,17155.8046875,4551.41064453125,10954.5390625,2783.139404296875,16352.3349609375,-5199.9091796875,-4732.60888671875,-2574.920654296875,-2431.074951171875,-6771.88232421875,-383.0591735839844,7857.48193359375,6647.90478515625,2597.173095703125,3724.09814453125,1244.544921875,7036.52734375,-1024.4051513671875,19760.1328125,-6266.43505859375,-0.0,-4434.58544921875,9666.283203125,-2052.783935546875,-1549.720703125,1627.6041259765625,8834.203125,-6442.86474609375,3116.130859375,-4593.53125,-52.45208740234375,-1697.540283203125,9821.255859375,-22250.017578125,-14414.787109375,-7540.384765625,-824.9282836914062,-169.27719116210938,-7665.1572265625,-1979.6688232421875,-3517.46875,-10214.646484375,4682.541015625,1466.2742919921875,1406.669677734375,-7261.43505859375,511.80523681640625,0.0,-1787.3446044921875,0.0,-2703.666748046875,-0.0,946.521728515625
-11590.3212890625,-13237.0,-4475.91162109375,1045.068115234375,1061.7574462890625,15401.0458984375,-2206.16650390625,1227.0609130859375,-253.5184326171875,5676.74658203125,-8345.4443359375,-7939.3388671875,-5221.36669921875,3941.05908203125,157.35626220703125,-6734.52978515625,2222.06103515625,3615.22021484375,5931.8544921875,17170.111328125,4553.0,10952.94921875,2787.907958984375,16353.1298828125,-5191.16748046875,-4745.32470703125,-2565.3837890625,-2429.4853515625,-6765.5244140625,-376.70135498046875,7858.2763671875,6640.75244140625,2596.37841796875,3721.714111328125,1246.92919921875,7037.32177734375,-1020.4315185546875,19764.10546875,-6258.48779296875,-0.0,-4431.40673828125,9659.130859375,-2045.63134765625,-1549.720703125,1634.7567138671875,8844.53515625,-6424.5859375,3124.872802734375,-4583.2001953125,-50.067901611328125,-1684.0299072265625,9825.2294921875,-21867.751953125,-14413.197265625,-7532.43798828125,-818.5704345703125,-149.4089813232422,-7665.1572265625,-1967.7479248046875,-3497.6005859375,-10228.1572265625,4685.7197265625,1474.2215576171875,1416.206298828125,-7251.10400390625,507.036865234375,0.0,-1784.96044921875,0.0,-2700.48779296875,-0.0,956.0584716796875
-11601.4482421875,-13237.7939453125,-4478.2958984375,1053.81005859375,1060.16796875,15401.0458984375,-2210.934814453125,1223.0872802734375,-256.69732666015625,5682.3095703125,-8356.5712890625,-7935.36474609375,-5229.314453125,3938.6748046875,142.2564239501953,-6737.708984375,2218.08740234375,3613.631103515625,5928.67529296875,17174.87890625,4548.2314453125,10951.359375,2784.72900390625,16352.3349609375,-5191.16748046875,-4734.9931640625,-2571.74169921875,-2431.86962890625,-6771.087890625,-381.4697265625,7856.6865234375,6630.4208984375,2592.404541015625,3717.740234375,1243.750244140625,7037.32177734375,-1023.6104736328125,19761.720703125,-6286.30322265625,-0.0,-4431.40673828125,9659.9267578125,-2050.39990234375,-1550.5155029296875,1631.577880859375,8842.150390625,-6437.3017578125,3132.025390625,-4587.96826171875,-48.47844314575195,-1695.9508056640625,9821.255859375,-20157.49609375,-14416.376953125,-7538.79541015625,-819.3651733398438,-171.661376953125,-7657.2099609375,-1978.07958984375,-3499.98486328125,-10243.2568359375,4684.92529296875,1472.632080078125,1416.206298828125,-7257.46142578125,507.036865234375,0.0,-1788.139404296875,0.0,-2698.8984375,-0.0,948.9059448242188
-11614.1630859375,-13277.5302734375,-4481.474609375,1058.5784912109375,1051.4259033203125,15395.482421875,-2219.677001953125,1218.3189697265625,-259.0815124511719,5675.1572265625,-8390.744140625,-7941.72265625,-5229.314453125,3938.6748046875,125.56712341308594,-6728.17236328125,2210.934814453125,3607.273193359375,5921.5224609375,17170.111328125,4542.6689453125,10945.796875,2775.98681640625,16345.9775390625,-5195.140625,-4730.224609375,-2584.45751953125,-2435.84326171875,-6777.4453125,-393.3906555175781,7851.1240234375,6626.447265625,2586.841552734375,3713.766845703125,1235.802978515625,7030.1689453125,-1033.94189453125,19755.36328125,-6312.529296875,-0.0,-4436.1748046875,9657.5419921875,-2059.9365234375,-1556.07861328125,1623.6304931640625,8834.203125,-6450.81201171875,3137.58837890625,-4599.88916015625,-54.04154586791992,-1712.64013671875,9818.0771484375,-18937.587890625,-14425.1181640625,-7547.537109375,-847.9754028320312,-187.5559539794922,-7648.4677734375,-1990.00048828125,-3512.700439453125,-10249.6142578125,4677.7724609375,1465.4794921875,1409.0538330078125,-7271.7666015625,505.4473876953125,0.0,-1804.033935546875,0.0,-2713.998046875,-0.0,934.600830078125
-11603.83203125,-13288.6572265625,-4468.75927734375,1056.989013671875,1053.015380859375,15389.125,-2222.06103515625,1212.755859375,-260.6709899902344,5656.08349609375,-8418.5595703125,-7944.10693359375,-5238.05615234375,3946.622314453125,120.00402069091797,-6738.50390625,2213.319091796875,3607.273193359375,5918.34423828125,17157.396484375,4546.64208984375,10944.20703125,2774.397705078125,16341.208984375,-5182.4248046875,-4746.9140625,-2587.63623046875,-2438.227294921875,-6779.82958984375,-391.80120849609375,7851.91845703125,6628.03662109375,2591.60986328125,3715.356201171875,1235.802978515625,7026.990234375,-1035.5313720703125,19749.798828125,-6312.529296875,-0.0,-4429.8173828125,9651.978515625,-2059.9365234375,-1560.846923828125,1621.246337890625,8825.4609375,-6422.20166015625,3137.58837890625,-4599.09423828125,-59.604644775390625,-1719.792724609375,9810.1298828125,-19500.255859375,-14428.2978515625,-7549.126953125,-842.4122924804688,-195.50323486328125,-7650.05712890625,-1989.20556640625,-3519.852783203125,-10250.4091796875,4675.38818359375,1459.1217041015625,1406.669677734375,-7269.38232421875,506.2420959472656,0.0,-1804.033935546875,0.0,-2720.35595703125,-0.0,937.7797241210938
-11630.05859375,-13293.42578125,-4472.732421875,1045.86279296875,1051.4259033203125,15383.5615234375,-2221.2666015625,1206.39794921875,-256.69732666015625,5655.28857421875,-8421.73828125,-7953.6435546875,-5222.9560546875,3951.390625,129.54075622558594,-6759.16650390625,2211.729736328125,3605.68359375,5916.75439453125,17159.78125,4545.05322265625,10939.4384765625,2773.602783203125,16338.8251953125,-5181.63037109375,-4762.80810546875,-2587.63623046875,-2449.353515625,-6777.4453125,-395.77484130859375,7850.32958984375,6629.6259765625,2589.225830078125,3713.766845703125,1234.2135009765625,7019.837890625,-1033.94189453125,19745.826171875,-6295.04541015625,-0.0,-4431.40673828125,9644.03125,-2061.526123046875,-1569.5889892578125,1623.6304931640625,8823.0771484375,-6423.79150390625,3124.078125,-4603.06787109375,-69.14138793945312,-1709.461181640625,9799.7978515625,-20890.236328125,-14451.3447265625,-7545.9482421875,-832.8755493164062,-187.5559539794922,-7677.078125,-1978.874267578125,-3522.237060546875,-10251.9990234375,4672.20947265625,1459.91650390625,1406.669677734375,-7264.6142578125,495.1159362792969,0.0,-1792.90771484375,0.0,-2713.203369140625,-0.0,947.3164672851562
-11628.46875,-13345.8779296875,-4494.98486328125,1023.6104736328125,1032.3524169921875,15377.998046875,-2226.82958984375,1204.0137939453125,-260.6709899902344,5658.4677734375,-8413.7919921875,-7963.1806640625,-5228.51953125,3943.443359375,118.41455841064453,-6754.3984375,2202.98779296875,3594.5576171875,5910.396484375,17159.78125,4530.748046875,10929.90234375,2763.271240234375,16331.6728515625,-5213.41943359375,-4777.11328125,-2595.583740234375,-2451.737548828125,-6788.57177734375,-402.9273986816406,7839.9970703125,6622.47314453125,2578.099609375,3705.024658203125,1222.2926025390625,7011.890625,-1040.2998046875,19742.646484375,-6284.7138671875,-0.0,-4450.47998046875,9635.2890625,-2071.062744140625,-1575.152099609375,1619.6568603515625,8820.693359375,-6461.1435546875,3100.236083984375,-4621.34716796875,-69.93611907958984,-1718.9979248046875,9800.59375,-22602.876953125,-14452.9345703125,-7557.869140625,-832.080810546875,-185.96649169921875,-7695.35693359375,-1982.847900390625,-3527.00537109375,-10259.9462890625,4664.26220703125,1455.9427490234375,1410.6431884765625,-7282.09814453125,486.3739013671875,0.0,-1803.2392578125,0.0,-2715.587646484375,-0.0,946.521728515625
-11607.0107421875,-13324.419921875,-4499.75341796875,1018.04736328125,1031.5577392578125,15375.6142578125,-2230.00830078125,1204.80859375,-268.6182556152344,5649.7255859375,-8386.771484375,-7968.7431640625,-5261.89794921875,3913.24365234375,109.67254638671875,-6748.04052734375,2200.603515625,3592.17333984375,5906.4228515625,17150.244140625,4526.77392578125,10926.7236328125,2758.5029296875,16329.2880859375,-5225.34033203125,-4781.08740234375,-2597.173095703125,-2446.96923828125,-6788.57177734375,-402.1326599121094,7833.64013671875,6623.26806640625,2574.1259765625,3701.051025390625,1219.9083251953125,7008.71142578125,-1045.068115234375,19739.46875,-6280.740234375,-0.0,-4456.04345703125,9631.31640625,-2073.447021484375,-1573.5626220703125,1612.50439453125,8819.8974609375,-6463.52783203125,3098.64697265625,-4611.81005859375,-75.49921417236328,-1727.739990234375,9803.771484375,-24489.560546875,-14430.6826171875,-7555.48486328125,-836.0545043945312,-202.65579223632812,-7701.71484375,-1993.1793212890625,-3538.92626953125,-10252.79296875,4661.8779296875,1451.9691162109375,1388.390869140625,-7286.07177734375,480.810791015625,0.0,-1821.5179443359375,0.0,-2736.250732421875,-0.0,929.0377197265625
-11625.2900390625,-13283.09375,-4503.72705078125,1016.4578857421875,1029.1734619140625,15362.103515625,-2238.75048828125,1193.682373046875,-286.102294921875,5634.6259765625,-8382.0029296875,-7981.45947265625,-5262.69287109375,3884.63330078125,113.64618682861328,-6758.3720703125,2192.65625,3582.636474609375,5897.6806640625,17132.759765625,4520.416015625,10917.9814453125,2752.14501953125,16318.1630859375,-5224.5458984375,-4788.23974609375,-2599.55712890625,-2460.479736328125,-6783.0087890625,-406.1063232421875,7825.6923828125,6614.5263671875,2567.76806640625,3695.488037109375,1212.755859375,6999.9697265625,-1053.015380859375,19728.341796875,-6296.634765625,-0.0,-4457.63232421875,9620.984375,-2078.21533203125,-1587.072998046875,1601.3780517578125,8808.7724609375,-6448.427734375,3097.057373046875,-4609.42578125,-100.13580322265625,-1724.56103515625,9793.4404296875,-25827.884765625,-14437.0390625,-7552.3056640625,-869.43310546875,-196.29795837402344,-7699.33056640625,-2001.92138671875,-3541.310546875,-10259.9462890625,4653.1357421875,1440.0482177734375,1363.7542724609375,-7297.19775390625,473.6582336425781,0.0,-1836.6177978515625,0.0,-2752.93994140625,-0.0,905.1958618164062
-11622.9052734375,-13281.5048828125,-4495.779296875,1015.6631469726562,1025.199951171875,15359.7197265625,-2244.3134765625,1184.1456298828125,-294.84429931640625,5635.42041015625,-8393.1279296875,-8000.533203125,-5242.82470703125,3872.71240234375,115.23564910888672,-6780.62451171875,2190.27197265625,3577.0732421875,5892.91259765625,17124.017578125,4519.62158203125,10913.212890625,2747.376708984375,16313.39453125,-5212.625,-4789.8291015625,-2608.29931640625,-2468.427001953125,-6794.134765625,-403.7221374511719,7821.71923828125,6608.16796875,2567.76806640625,3689.925048828125,1207.9874267578125,6995.99609375,-1059.373291015625,19722.779296875,-6312.529296875,-0.0,-4456.837890625,9617.0107421875,-2085.367919921875,-1591.84130859375,1595.8150634765625,8798.4404296875,-6444.4541015625,3094.673095703125,-4626.115234375,-85.03595733642578,-1722.9715576171875,9779.9296875,-24978.318359375,-14450.5498046875,-7561.84228515625,-875.7908935546875,-189.14540100097656,-7708.86767578125,-2008.279052734375,-3545.2841796875,-10265.509765625,4647.57275390625,1432.1009521484375,1355.8070068359375,-7300.376953125,474.4529724121094,0.0,-1834.233642578125,0.0,-2745.787353515625,-0.0,905.1958618164062
-11639.5947265625,-13305.3466796875,-4492.60107421875,1014.868408203125,1025.199951171875,15360.5146484375,-2246.69775390625,1184.1456298828125,-298.8179626464844,5632.24169921875,-8397.1025390625,-8005.30126953125,-5239.6455078125,3863.175537109375,116.82510375976562,-6785.392578125,2191.066650390625,3579.45751953125,5890.5283203125,17121.6328125,4519.62158203125,10913.212890625,2747.376708984375,16313.39453125,-5200.7041015625,-4784.26611328125,-2609.888671875,-2469.221923828125,-6798.90283203125,-427.5639953613281,7825.6923828125,6609.7578125,2567.76806640625,3688.33544921875,1208.7822265625,6998.38037109375,-1061.7574462890625,19720.396484375,-6302.9921875,-0.0,-4454.4541015625,9622.57421875,-2087.752197265625,-1591.046630859375,1591.84130859375,8795.26171875,-6456.375,3092.2890625,-4630.0888671875,-89.80432891845703,-1724.56103515625,9777.5458984375,-22266.70703125,-14458.4970703125,-7567.40576171875,-878.9698486328125,-188.35067749023438,-7710.45703125,-2017.8157958984375,-3546.873779296875,-10265.509765625,4646.7783203125,1430.511474609375,1348.6544189453125,-7294.01904296875,471.2740478515625,0.0,-1826.286376953125,0.0,-2746.58203125,-0.0,903.6064453125
-11688.8681640625,-13302.9619140625,-4487.83251953125,1015.6631469726562,1033.147216796875,15366.0771484375,-2238.75048828125,1190.50341796875,-297.2284851074219,5638.599609375,-8409.8173828125,-7973.51171875,-5245.208984375,3867.944091796875,116.82510375976562,-6773.4716796875,2196.6298828125,3587.405029296875,5896.88623046875,17125.607421875,4525.9794921875,10921.1611328125,2754.529296875,16320.546875,-5204.677734375,-4780.29248046875,-2597.173095703125,-2471.60595703125,-6773.4716796875,-441.0743713378906,7833.64013671875,6615.32080078125,2573.3310546875,3695.488037109375,1215.934814453125,7006.3271484375,-1053.81005859375,19726.75390625,-6288.68701171875,-0.0,-4451.27490234375,9628.931640625,-2076.625732421875,-1587.86767578125,1598.19921875,8803.2080078125,-6453.1962890625,3094.673095703125,-4611.01513671875,-87.4201431274414,-1722.9715576171875,9783.1083984375,-19549.52734375,-14459.2919921875,-7540.384765625,-863.8699951171875,-189.14540100097656,-7681.0517578125,-2009.86865234375,-3550.847412109375,-10261.53515625,4654.7255859375,1436.8692626953125,1356.6016845703125,-7286.86669921875,468.8898620605469,0.0,-1820.72314453125,0.0,-2741.813720703125,-0.0,911.5537109375
-11658.6689453125,-13291.8359375,-4494.98486328125,1027.5841064453125,1032.3524169921875,15372.435546875,-2236.3662109375,1201.629638671875,-282.9233703613281,5652.10986328125,-8431.275390625,-7961.5908203125,-5231.69873046875,3891.785888671875,108.08309173583984,-6759.96142578125,2198.21923828125,3589.7890625,5904.83349609375,17140.70703125,4525.9794921875,10925.1337890625,2758.5029296875,16326.904296875,-5218.18798828125,-4768.37158203125,-2597.9677734375,-2456.506103515625,-6763.14013671875,-429.1534423828125,7835.22900390625,6614.5263671875,2570.947021484375,3700.25634765625,1219.9083251953125,7011.095703125,-1049.8365478515625,19735.494140625,-6289.48193359375,-0.0,-4453.6591796875,9636.0849609375,-2075.8310546875,-1579.92041015625,1605.351806640625,8813.5400390625,-6462.73291015625,3105.004638671875,-4610.22021484375,-80.26758575439453,-1732.50830078125,9796.619140625,-17566.681640625,-14464.85546875,-7528.4638671875,-840.0281372070312,-193.11904907226562,-7670.720703125,-2005.8948974609375,-3537.337158203125,-10256.767578125,4659.494140625,1446.406005859375,1383.62255859375,-7282.09814453125,476.04241943359375,0.0,-1815.954833984375,0.0,-2733.866455078125,-0.0,926.653564453125
-11662.642578125,-13291.041015625,-4475.91162109375,1044.2734375,1046.6575927734375,15391.5087890625,-2219.677001953125,1221.4979248046875,-253.5184326171875,5685.48828125,-8415.3818359375,-7947.28564453125,-5225.34033203125,3941.05908203125,112.05673217773438,-6734.52978515625,2212.5244140625,3607.273193359375,5924.70166015625,17177.263671875,4546.64208984375,10944.20703125,2775.98681640625,16346.7734375,-5193.5517578125,-4753.271484375,-2592.404541015625,-2432.6640625,-6771.88232421875,-398.1590270996094,7852.71337890625,6628.03662109375,2586.046875,3716.15087890625,1237.3924560546875,7031.7587890625,-1033.147216796875,19756.158203125,-6305.37646484375,-0.0,-4433.79052734375,9654.3623046875,-2063.115478515625,-1558.4627685546875,1624.42529296875,8836.5869140625,-6435.71240234375,3120.899169921875,-4607.0419921875,-57.220458984375,-1726.1505126953125,9814.8984375,-15811.125,-14441.013671875,-7539.59033203125,-820.159912109375,-192.32432556152344,-7650.05712890625,-1994.768798828125,-3499.190185546875,-10240.078125,4676.9775390625,1471.0426025390625,1424.9483642578125,-7267.79296875,492.73175048828125,0.0,-1792.1129150390625,0.0,-2703.666748046875,-0.0,961.62158203125
-11657.0791015625,-13320.4462890625,-4456.837890625,1052.220703125,1069.7047119140625,15400.25,-2199.013916015625,1234.2135009765625,-233.65020751953125,5701.38330078125,-8374.8505859375,-7940.13330078125,-5232.4931640625,3963.311767578125,135.10386657714844,-6726.5830078125,2230.00830078125,3625.552001953125,5941.39111328125,17193.953125,4564.9208984375,10956.923828125,2793.47119140625,16359.4873046875,-5164.94140625,-4748.50341796875,-2565.3837890625,-2428.690673828125,-6765.5244140625,-379.8802795410156,7869.40283203125,6648.69921875,2606.709716796875,3731.250732421875,1255.671142578125,7045.26904296875,-1012.4841918945312,19771.2578125,-6248.951171875,-0.0,-4413.9228515625,9660.720703125,-2041.65771484375,-1547.3365478515625,1644.29345703125,8853.2763671875,-6406.30712890625,3129.641357421875,-4582.4052734375,-50.86262893676758,-1700.71923828125,9826.0244140625,-14195.4423828125,-14412.4033203125,-7534.02734375,-820.159912109375,-179.60865783691406,-7626.21533203125,-1970.132080078125,-3484.090087890625,-10224.978515625,4692.07763671875,1489.3214111328125,1434.485107421875,-7255.8720703125,504.6526794433594,0.0,-1775.4237060546875,0.0,-2688.56689453125,-0.0,971.9530639648438
-11653.900390625,-13331.572265625,-4460.8115234375,1038.710205078125,1072.883544921875,15394.6875,-2199.013916015625,1227.855712890625,-238.4185791015625,5694.23046875,-8360.544921875,-7944.10693359375,-5242.02978515625,3956.1591796875,141.46168518066406,-6732.14599609375,2224.4453125,3622.372802734375,5937.41748046875,17187.595703125,4560.15234375,10952.94921875,2793.47119140625,16354.71875,-5164.94140625,-4749.2978515625,-2557.436767578125,-2431.86962890625,-6761.55078125,-379.8802795410156,7863.83935546875,6643.13671875,2601.94140625,3724.892822265625,1252.4923095703125,7040.50048828125,-1013.2789306640625,19767.28515625,-6240.208984375,-0.0,-4414.71728515625,9651.978515625,-2037.6842041015625,-1551.3101806640625,1643.498779296875,8847.7138671875,-6427.7646484375,3116.925537109375,-4568.89501953125,-50.86262893676758,-1695.1561279296875,9819.6669921875,-12384.255859375,-14414.787109375,-7528.4638671875,-817.7757568359375,-172.4561004638672,-7632.57373046875,-1966.1585693359375,-3493.626953125,-10233.7197265625,4688.10400390625,1486.1424560546875,1418.590576171875,-7284.482421875,500.67901611328125,0.0,-1787.3446044921875,0.0,-2697.308837890625,-0.0,958.4426879882812
-11634.0322265625,-13324.419921875,-4479.88525390625,1032.3524169921875,1054.6048583984375,15387.53515625,-2209.345458984375,1219.1136474609375,-247.16058349609375,5680.7197265625,-8382.0029296875,-7950.46533203125,-5218.18798828125,3936.290771484375,141.46168518066406,-6743.2724609375,2210.934814453125,3612.04150390625,5927.880859375,17175.673828125,4544.25830078125,10941.8232421875,2780.75537109375,16346.7734375,-5190.37255859375,-4759.6298828125,-2577.304931640625,-2438.227294921875,-6773.4716796875,-387.8275451660156,7852.71337890625,6629.6259765625,2585.251953125,3711.382568359375,1239.776611328125,7031.7587890625,-1022.815673828125,19756.158203125,-6281.53466796875,-0.0,-4435.38037109375,9641.6474609375,-2052.783935546875,-1560.05224609375,1637.140869140625,8837.3818359375,-6441.27490234375,3111.362548828125,-4594.326171875,-61.98883056640625,-1696.7454833984375,9813.30859375,-10805.1298828125,-14432.271484375,-7543.56396484375,-820.159912109375,-172.4561004638672,-7644.49462890625,-1960.5953369140625,-3506.342529296875,-10260.7412109375,4677.7724609375,1475.81103515625,1397.9276123046875,-7288.4560546875,492.73175048828125,0.0,-1800.060302734375,0.0,-2710.8193359375,-0.0,944.1375732421875
-11620.521484375,-13326.8037109375,-4487.83251953125,1026.789306640625,1046.6575927734375,15381.97265625,-2218.88232421875,1211.1663818359375,-251.928955078125,5669.59375,-8405.8447265625,-7963.97509765625,-5239.6455078125,3916.42236328125,133.514404296875,-6748.8349609375,2203.7822265625,3606.478515625,5919.93310546875,17164.548828125,4539.48974609375,10935.4658203125,2772.80810546875,16338.8251953125,-5194.34619140625,-4769.16650390625,-2586.841552734375,-2445.3798828125,-6790.1611328125,-398.1590270996094,7845.56103515625,6623.26806640625,2578.099609375,3707.408935546875,1232.6240234375,7026.1953125,-1033.147216796875,19748.2109375,-6295.83984375,-0.0,-4440.943359375,9636.87890625,-2061.526123046875,-1567.99951171875,1629.193603515625,8827.845703125,-6440.48046875,3105.004638671875,-4603.06787109375,-85.03595733642578,-1704.69287109375,9806.9501953125,-9330.9091796875,-14447.37109375,-7558.6640625,-843.20703125,-175.63502502441406,-7654.03125,-1968.5428466796875,-3521.4423828125,-10272.662109375,4672.20947265625,1465.4794921875,1381.23828125,-7282.09814453125,483.1949768066406,0.0,-1816.74951171875,0.0,-2726.7138671875,-0.0,932.2166748046875
-11615.7529296875,-13317.267578125,-4477.5009765625,1029.96826171875,1056.1943359375,15391.5087890625,-2216.498046875,1217.524169921875,-253.5184326171875,5680.7197265625,-8412.2021484375,-7958.412109375,-5256.3349609375,3922.780517578125,129.54075622558594,-6740.88818359375,2213.319091796875,3612.836181640625,5922.3173828125,17166.93359375,4548.2314453125,10945.796875,2779.166015625,16346.7734375,-5181.63037109375,-4755.65576171875,-2579.68896484375,-2435.84326171875,-6776.65087890625,-393.3906555175781,7855.09765625,6631.21533203125,2587.63623046875,3715.356201171875,1240.5714111328125,7034.9375,-1029.96826171875,19755.36328125,-6286.30322265625,-0.0,-4431.40673828125,9647.2099609375,-2055.168212890625,-1558.4627685546875,1628.39892578125,8833.408203125,-6442.06982421875,3108.978271484375,-4585.583984375,-57.220458984375,-1708.66650390625,9814.103515625,-7394.15478515625,-14446.576171875,-7545.1533203125,-837.6439208984375,-176.42974853515625,-7642.1103515625,-1983.642578125,-3515.87939453125,-10253.5888671875,4678.5673828125,1467.8636474609375,1396.338134765625,-7270.17724609375,492.73175048828125,0.0,-1809.5970458984375,0.0,-2718.766357421875,-0.0,941.75341796875
-11626.8798828125,-13305.3466796875,-4459.22216796875,1041.88916015625,1072.883544921875,15405.0185546875,-2207.756103515625,1230.2398681640625,-258.28680419921875,5688.66748046875,-8423.328125,-7951.259765625,-5222.9560546875,3911.654052734375,137.48805236816406,-6717.8408203125,2224.4453125,3624.757080078125,5931.8544921875,17171.701171875,4563.33154296875,10957.7177734375,2791.0869140625,16358.6943359375,-5149.04638671875,-4744.52978515625,-2569.357666015625,-2417.564453125,-6760.755859375,-382.26446533203125,7867.81298828125,6641.546875,2602.736328125,3725.687744140625,1253.2869873046875,7048.4482421875,-1021.2262573242188,19766.48828125,-6273.587890625,-0.0,-4409.94873046875,9659.130859375,-2045.63134765625,-1543.3629150390625,1633.167236328125,8845.3291015625,-6420.6123046875,3121.69384765625,-4576.04736328125,-34.1733283996582,-1700.71923828125,9829.203125,-4989.30615234375,-14434.6552734375,-7529.2587890625,-813.8020629882812,-166.89300537109375,-7611.11572265625,-1986.8214111328125,-3503.16357421875,-10237.693359375,4690.48828125,1476.605712890625,1405.8748779296875,-7255.0771484375,504.6526794433594,0.0,-1803.2392578125,0.0,-2707.640380859375,-0.0,955.2637939453125
-11682.5107421875,-13311.7041015625,-4446.50634765625,1045.068115234375,1068.115234375,15408.1982421875,-2212.5244140625,1231.829345703125,-264.6446228027344,5677.541015625,-8436.0439453125,-7959.20654296875,-5211.830078125,3915.6279296875,132.7196807861328,-6721.01953125,2225.239990234375,3623.167724609375,5929.47021484375,17166.93359375,4560.947265625,10956.1279296875,2786.318603515625,16359.4873046875,-5147.45703125,-4736.58251953125,-2580.483642578125,-2416.769775390625,-6771.087890625,-386.23809814453125,7863.83935546875,6637.5732421875,2603.53076171875,3723.303466796875,1248.5185546875,7047.6533203125,-1025.99462890625,19765.6953125,-6271.998046875,-0.0,-4406.77001953125,9660.720703125,-2052.783935546875,-1540.978759765625,1627.6041259765625,8842.9453125,-6396.7705078125,3124.872802734375,-4594.326171875,-28.6102294921875,-1707.871826171875,9829.998046875,-3425.2802734375,-14441.013671875,-7540.384765625,-809.03369140625,-178.81393432617188,-7619.85791015625,-1986.0267333984375,-3505.5478515625,-10263.919921875,4687.30908203125,1474.2215576171875,1410.6431884765625,-7266.998046875,501.4737243652344,0.0,-1805.6234130859375,0.0,-2713.203369140625,-0.0,956.8532104492188
-11698.4052734375,-13327.5986328125,-4442.533203125,1060.16796875,1068.115234375,15418.529296875,-2201.398193359375,1236.59765625,-243.18695068359375,5698.2041015625,-8374.0546875,-7950.46533203125,-5207.0615234375,3949.801025390625,152.587890625,-6730.556640625,2233.982177734375,3629.525390625,5940.59619140625,17186.80078125,4564.12646484375,10964.8701171875,2791.881591796875,16366.6396484375,-5167.32568359375,-4719.0986328125,-2571.74169921875,-2416.769775390625,-6772.6767578125,-388.6222839355469,7870.197265625,6647.90478515625,2612.27294921875,3730.4560546875,1254.87646484375,7056.39501953125,-1013.2789306640625,19773.640625,-6249.74560546875,-0.0,-4409.94873046875,9673.4365234375,-2045.63134765625,-1537.005126953125,1641.1146240234375,8853.2763671875,-6402.33349609375,3139.177978515625,-4596.7099609375,-34.1733283996582,-1687.208740234375,9830.7919921875,-3261.566162109375,-14437.0390625,-7541.1796875,-807.4442749023438,-163.71409606933594,-7627.80517578125,-1969.33740234375,-3495.21630859375,-10273.45703125,4694.4619140625,1486.9371337890625,1437.6640625,-7281.30322265625,506.2420959472656,0.0,-1777.01318359375,0.0,-2689.361572265625,-0.0,984.668701171875
-11657.8740234375,-13336.3408203125,-4440.943359375,1092.7518310546875,1091.162353515625,15443.166015625,-2168.814453125,1263.618408203125,-214.57672119140625,5729.9931640625,-8322.3984375,-7913.9072265625,-5198.31982421875,3972.848388671875,205.03997802734375,-6701.1513671875,2258.61865234375,3654.162109375,5970.0009765625,17213.025390625,4585.583984375,10991.890625,2820.49169921875,16393.662109375,-5167.32568359375,-4693.6669921875,-2532.00537109375,-2390.543701171875,-6750.4248046875,-378.2908020019531,7894.83349609375,6673.3359375,2631.346435546875,3759.861083984375,1278.7183837890625,7080.23681640625,-981.4898071289062,19801.458984375,-6230.67236328125,-0.0,-4398.02783203125,9704.4306640625,-2013.84228515625,-1512.3685302734375,1675.287841796875,8882.681640625,-6399.94970703125,3170.967041015625,-4555.38427734375,-12.715657234191895,-1633.9620361328125,9860.1982421875,-3883.838623046875,-14421.1455078125,-7518.92724609375,-797.11279296875,-120.79874420166016,-7605.552734375,-1936.753662109375,-3476.9375,-10210.6728515625,4720.68798828125,1517.136962890625,1462.3006591796875,-7245.54052734375,538.8259887695312,0.0,-1744.42919921875,0.0,-2656.777587890625,-0.0,1007.7158203125
-11616.5478515625,-13302.1669921875,-4440.14892578125,1097.520263671875,1095.135986328125,15447.9345703125,-2164.8408203125,1270.77099609375,-210.6030731201172,5726.01953125,-8333.5234375,-7914.70263671875,-5207.0615234375,3964.90087890625,201.0663299560547,-6675.72021484375,2263.386962890625,3658.1357421875,5972.38525390625,17211.4375,4589.5576171875,10996.6591796875,2822.8759765625,16398.4296875,-5165.73583984375,-4684.13037109375,-2525.6474609375,-2379.41748046875,-6746.45068359375,-358.422607421875,7900.3974609375,6681.28369140625,2633.730712890625,3768.60302734375,1281.897216796875,7085.00537109375,-978.3109130859375,19806.2265625,-6232.26171875,-0.0,-4398.02783203125,9713.1728515625,-2009.86865234375,-1506.0106201171875,1680.8509521484375,8887.4501953125,-6384.849609375,3174.94091796875,-4548.2314453125,-17.48402976989746,-1637.140869140625,9874.5029296875,-4727.84033203125,-14413.9931640625,-7513.3642578125,-793.13916015625,-121.59347534179688,-7585.68408203125,-1929.60107421875,-3483.29541015625,-10191.599609375,4724.6611328125,1520.3157958984375,1461.505859375,-7230.4404296875,545.183837890625,0.0,-1746.8134765625,0.0,-2660.75146484375,-0.0,1003.7421875
-11590.3212890625,-13240.9736328125,-4441.73828125,1075.267822265625,1083.215087890625,15433.62890625,-2183.9140625,1257.2606201171875,-220.93455505371094,5718.86669921875,-8364.5185546875,-7920.26513671875,-5234.08251953125,3976.027099609375,147.81951904296875,-6687.64111328125,2250.67138671875,3645.420166015625,5957.28564453125,17204.28515625,4581.6103515625,10983.9443359375,2808.57080078125,16382.5361328125,-5156.99365234375,-4691.28271484375,-2555.052490234375,-2395.31201171875,-6764.72998046875,-360.0120544433594,7887.68115234375,6668.56787109375,2623.39892578125,3755.092529296875,1269.181640625,7071.4951171875,-998.1790771484375,19791.921875,-6263.255859375,-0.0,-4399.61767578125,9698.0732421875,-2028.1474609375,-1518.726318359375,1662.572265625,8881.88671875,-6374.51806640625,3152.688232421875,-4564.9208984375,-27.02077293395996,-1690.3876953125,9857.8134765625,-6390.41259765625,-14409.224609375,-7532.43798828125,-811.4179077148438,-174.8402862548828,-7605.552734375,-1953.44287109375,-3468.990234375,-10216.236328125,4711.94580078125,1507.6002197265625,1456.737548828125,-7247.9248046875,531.6734619140625,0.0,-1751.581787109375,0.0,-2667.90380859375,-0.0,996.5896606445312
-11622.9052734375,-13234.615234375,-4472.732421875,1045.068115234375,1060.16796875,15409.787109375,-2199.808837890625,1235.802978515625,-236.03439331054688,5705.3564453125,-8379.6181640625,-7932.18603515625,-5228.51953125,3958.543212890625,127.95130920410156,-6730.556640625,2226.82958984375,3622.372802734375,5938.2119140625,17190.775390625,4559.35791015625,10960.896484375,2790.2919921875,16363.462890625,-5191.16748046875,-4724.6611328125,-2575.71533203125,-2424.717041015625,-6773.4716796875,-381.4697265625,7866.22314453125,6643.93115234375,2600.35205078125,3729.6611328125,1246.1343994140625,7048.4482421875,-1014.868408203125,19772.052734375,-6271.20361328125,-0.0,-4425.84375,9672.6416015625,-2048.015625,-1541.7734375,1647.472412109375,8865.9921875,-6415.84375,3122.48876953125,-4591.14697265625,-38.94169998168945,-1710.2559814453125,9828.408203125,-8378.8232421875,-14415.58203125,-7541.1796875,-828.107177734375,-193.11904907226562,-7632.57373046875,-1958.211181640625,-3473.7587890625,-10248.025390625,4692.87255859375,1490.910888671875,1441.6376953125,-7273.35595703125,516.5736083984375,0.0,-1761.1185302734375,0.0,-2670.2880859375,-0.0,986.2581787109375
-11641.1845703125,-13252.89453125,-4476.7060546875,1036.3260498046875,1061.7574462890625,15408.9931640625,-2199.808837890625,1238.1871337890625,-233.65020751953125,5705.3564453125,-8360.544921875,-7936.16015625,-5224.5458984375,3951.390625,136.6933135986328,-6728.17236328125,2226.034912109375,3623.167724609375,5941.39111328125,17193.158203125,4554.58984375,10959.3076171875,2791.0869140625,16363.462890625,-5193.5517578125,-4738.171875,-2570.15234375,-2421.5380859375,-6769.49853515625,-391.0064697265625,7866.22314453125,6645.5205078125,2601.146728515625,3728.072021484375,1246.1343994140625,7046.06396484375,-1013.2789306640625,19774.4375,-6265.64013671875,-0.0,-4428.22802734375,9666.283203125,-2045.63134765625,-1541.7734375,1646.6776123046875,8867.5810546875,-6448.427734375,3113.74658203125,-4589.5576171875,-39.73643112182617,-1701.513916015625,9831.587890625,-8973.28125,-14410.0185546875,-7534.82177734375,-832.8755493164062,-178.81393432617188,-7627.80517578125,-1963.7744140625,-3477.732421875,-10255.177734375,4693.6669921875,1492.500244140625,1436.8692626953125,-7266.20361328125,516.5736083984375,0.0,-1769.06591796875,0.0,-2682.208984375,-0.0,980.6951293945312
-11628.46875,-13264.8154296875,-4472.732421875,1042.6839599609375,1062.5521240234375,15405.0185546875,-2197.424560546875,1238.1871337890625,-232.0607452392578,5707.74072265625,-8342.265625,-7936.95458984375,-5234.08251953125,3951.390625,143.0511474609375,-6724.19873046875,2226.82958984375,3624.757080078125,5940.59619140625,17196.3359375,4557.7685546875,10956.1279296875,2790.2919921875,16363.462890625,-5187.98828125,-4754.861328125,-2568.562744140625,-2419.15380859375,-6771.087890625,-383.0591735839844,7867.81298828125,6650.2890625,2603.53076171875,3726.482421875,1248.5185546875,7046.06396484375,-1013.2789306640625,19776.8203125,-6262.46142578125,-0.0,-4426.63818359375,9655.9521484375,-2044.0418701171875,-1543.3629150390625,1649.061767578125,8869.1708984375,-6452.40185546875,3121.69384765625,-4584.7890625,-47.6837158203125,-1694.361328125,9833.1767578125,-8347.8291015625,-14404.4560546875,-7537.2060546875,-811.4179077148438,-176.42974853515625,-7623.03662109375,-1970.132080078125,-3481.705810546875,-10262.330078125,4692.87255859375,1494.0897216796875,1440.0482177734375,-7264.6142578125,512.5999755859375,0.0,-1771.4500732421875,0.0,-2687.77197265625,-0.0,978.3109130859375
-11615.7529296875,-13286.2734375,-4482.26953125,1047.4522705078125,1058.5784912109375,15404.224609375,-2202.98779296875,1236.59765625,-234.44493103027344,5706.1513671875,-8363.7236328125,-7940.13330078125,-5239.6455078125,3950.595947265625,138.28277587890625,-6721.814453125,2224.4453125,3619.98876953125,5938.2119140625,17197.1328125,4554.58984375,10952.94921875,2785.523681640625,16361.078125,-5186.39892578125,-4753.271484375,-2572.536376953125,-2419.15380859375,-6773.4716796875,-380.67498779296875,7862.25048828125,6646.31494140625,2596.37841796875,3722.5087890625,1244.544921875,7043.6796875,-1016.4578857421875,19773.640625,-6256.8984375,-0.0,-4431.40673828125,9655.9521484375,-2047.220947265625,-1544.1575927734375,1645.088134765625,8865.9921875,-6450.81201171875,3128.0517578125,-4586.37841796875,-43.7100715637207,-1697.540283203125,9833.1767578125,-8597.3740234375,-14418.76171875,-7541.974609375,-798.7022705078125,-179.60865783691406,-7629.39453125,-1972.516357421875,-3489.6533203125,-10265.509765625,4691.28271484375,1491.70556640625,1437.6640625,-7266.20361328125,507.8315734863281,0.0,-1775.4237060546875,0.0,-2688.56689453125,-0.0,978.3109130859375
-11650.7216796875,-13289.451171875,-4475.11669921875,1054.6048583984375,1063.346923828125,15409.787109375,-2198.21923828125,1247.723876953125,-232.85548400878906,5709.330078125,-8379.6181640625,-7934.5703125,-5235.671875,3955.3642578125,143.8458709716797,-6707.50927734375,2226.82958984375,3624.757080078125,5943.775390625,17201.900390625,4554.58984375,10956.1279296875,2790.2919921875,16366.6396484375,-5186.39892578125,-4747.708984375,-2569.357666015625,-2408.027587890625,-6771.087890625,-374.3171691894531,7866.22314453125,6643.93115234375,2599.55712890625,3725.687744140625,1250.108154296875,7047.6533203125,-1010.894775390625,19780.794921875,-6284.7138671875,-0.0,-4428.22802734375,9661.515625,-2043.2471923828125,-1537.005126953125,1648.26708984375,8874.734375,-6434.12255859375,3135.9990234375,-4583.99462890625,-40.531158447265625,-1691.9771728515625,9847.4814453125,-10414.123046875,-14425.9140625,-7537.2060546875,-795.5233154296875,-178.81393432617188,-7640.5205078125,-1966.9532470703125,-3488.8583984375,-10262.330078125,4693.6669921875,1496.473876953125,1440.843017578125,-7265.4091796875,513.3946533203125,0.0,-1771.4500732421875,0.0,-2690.951171875,-0.0,981.4898071289062
-11695.2255859375,-13281.5048828125,-4476.7060546875,1057.78369140625,1061.7574462890625,15406.6083984375,-2200.603515625,1244.544921875,-240.00804138183594,5695.81982421875,-8406.638671875,-7937.7490234375,-5226.93017578125,3946.622314453125,147.02479553222656,-6715.45654296875,2222.855712890625,3623.167724609375,5940.59619140625,17187.595703125,4553.794921875,10956.1279296875,2787.11328125,16363.462890625,-5181.63037109375,-4748.50341796875,-2569.357666015625,-2409.6171875,-6775.06103515625,-375.9066162109375,7863.83935546875,6639.95751953125,2597.173095703125,3724.892822265625,1248.5185546875,7044.47412109375,-1014.07373046875,19776.025390625,-6277.56103515625,-0.0,-4425.048828125,9663.10546875,-2045.63134765625,-1540.18408203125,1643.498779296875,8871.5556640625,-6446.04345703125,3137.58837890625,-4586.37841796875,-39.73643112182617,-1691.1824951171875,9840.3291015625,-13027.19140625,-14427.5029296875,-7541.1796875,-802.6759033203125,-179.60865783691406,-7650.85205078125,-1969.33740234375,-3484.090087890625,-10262.330078125,4690.48828125,1490.1160888671875,1430.511474609375,-7288.4560546875,510.21575927734375,0.0,-1773.0394287109375,0.0,-2694.1298828125,-0.0,971.9530639648438
-11671.3837890625,-13279.1201171875,-4478.2958984375,1049.041748046875,1050.6312255859375,15396.27734375,-2209.345458984375,1227.0609130859375,-247.16058349609375,5691.84619140625,-8405.8447265625,-7948.0810546875,-5222.16162109375,3941.85400390625,132.7196807861328,-6731.3515625,2215.703369140625,3612.836181640625,5931.8544921875,17178.853515625,4546.64208984375,10949.7705078125,2780.75537109375,16353.92578125,-5192.7568359375,-4756.45068359375,-2582.0732421875,-2431.074951171875,-6776.65087890625,-385.443359375,7856.6865234375,6631.21533203125,2593.199462890625,3716.945556640625,1238.9818115234375,7033.34814453125,-1023.6104736328125,19763.310546875,-6291.8662109375,-0.0,-4432.201171875,9656.7470703125,-2054.37353515625,-1552.899658203125,1634.7567138671875,8854.0712890625,-6453.1962890625,3127.257080078125,-4600.68359375,-51.6573600769043,-1707.0770263671875,9821.255859375,-15962.9189453125,-14434.6552734375,-7543.56396484375,-816.186279296875,-181.1981201171875,-7657.2099609375,-1974.1058349609375,-3497.6005859375,-10259.9462890625,4680.95166015625,1478.989990234375,1426.537841796875,-7281.30322265625,502.26849365234375,0.0,-1777.807861328125,0.0,-2693.335205078125,-0.0,967.9794311523438
-11618.931640625,-13288.6572265625,-4476.7060546875,1040.2998046875,1046.6575927734375,15396.27734375,-2212.5244140625,1224.6767578125,-244.77639770507812,5700.58837890625,-8385.9755859375,-7950.46533203125,-5233.28759765625,3945.03271484375,126.36184692382812,-6738.50390625,2215.703369140625,3610.451904296875,5929.47021484375,17186.005859375,4546.64208984375,10945.796875,2777.576416015625,16351.5419921875,-5195.935546875,-4753.271484375,-2586.841552734375,-2433.458984375,-6783.80322265625,-390.21173095703125,7854.30224609375,6639.16259765625,2591.60986328125,3714.5615234375,1234.2135009765625,7030.1689453125,-1025.199951171875,19763.310546875,-6279.150390625,-0.0,-4436.1748046875,9651.18359375,-2057.55224609375,-1555.283935546875,1632.37255859375,8854.0712890625,-6421.4072265625,3120.899169921875,-4603.06787109375,-51.6573600769043,-1713.434814453125,9817.2822265625,-18723.806640625,-14429.0927734375,-7549.92138671875,-819.3651733398438,-187.5559539794922,-7673.10498046875,-1976.489990234375,-3492.03759765625,-10262.330078125,4679.36181640625,1478.989990234375,1428.9219970703125,-7278.91943359375,503.85791015625,0.0,-1781.781494140625,0.0,-2690.951171875,-0.0,973.5425415039062
-11622.9052734375,-13294.2197265625,-4471.9375,1042.6839599609375,1056.1943359375,15402.634765625,-2206.16650390625,1231.829345703125,-240.00804138183594,5709.330078125,-8384.38671875,-7951.259765625,-5244.4140625,3949.801025390625,136.6933135986328,-6733.7353515625,2222.06103515625,3619.194091796875,5935.033203125,17192.36328125,4555.38427734375,10950.5654296875,2783.934326171875,16356.3095703125,-5182.4248046875,-4746.9140625,-2574.920654296875,-2426.306396484375,-6779.03515625,-388.6222839355469,7859.8662109375,6647.10986328125,2598.762451171875,3720.91943359375,1241.3660888671875,7035.732421875,-1018.04736328125,19770.46484375,-6260.0771484375,-0.0,-4426.63818359375,9655.158203125,-2049.605224609375,-1551.3101806640625,1640.31982421875,8862.0185546875,-6429.35400390625,3123.283447265625,-4590.3525390625,-47.6837158203125,-1701.513916015625,9822.05078125,-20331.541015625,-14421.939453125,-7546.74267578125,-816.9810180664062,-185.17176818847656,-7661.18359375,-1970.132080078125,-3487.26904296875,-10263.125,4684.13037109375,1486.1424560546875,1431.3062744140625,-7273.35595703125,500.67901611328125,0.0,-1777.807861328125,0.0,-2686.1826171875,-0.0,979.900390625
-11649.1318359375,-13298.1943359375,-4480.68017578125,1034.736572265625,1055.3995361328125,15401.0458984375,-2206.96142578125,1231.03466796875,-243.18695068359375,5702.177734375,-8382.0029296875,-7956.02783203125,-5233.28759765625,3943.443359375,137.48805236816406,-6729.76171875,2218.08740234375,3618.3994140625,5934.23828125,17185.2109375,4549.8212890625,10948.181640625,2780.75537109375,16355.5146484375,-5188.783203125,-4750.0927734375,-2574.1259765625,-2426.306396484375,-6771.087890625,-391.80120849609375,7857.48193359375,6639.16259765625,2596.37841796875,3715.356201171875,1238.1871337890625,7034.9375,-1018.8421020507812,19769.66796875,-6275.9716796875,-0.0,-4430.6123046875,9654.3623046875,-2051.1943359375,-1551.3101806640625,1636.34619140625,8860.4287109375,-6445.2490234375,3113.74658203125,-4589.5576171875,-50.86262893676758,-1701.513916015625,9823.6396484375,-19756.953125,-14428.2978515625,-7540.384765625,-822.5440673828125,-176.42974853515625,-7653.236328125,-1974.1058349609375,-3492.03759765625,-10272.662109375,4683.3359375,1482.1688232421875,1416.206298828125,-7267.79296875,497.5001220703125,0.0,-1781.781494140625,0.0,-2690.951171875,-0.0,967.1846923828125
-11648.3369140625,-13302.9619140625,-4485.4482421875,1030.7630615234375,1050.6312255859375,15397.8662109375,-2209.345458984375,1231.03466796875,-245.57113647460938,5702.177734375,-8377.234375,-7949.669921875,-5230.90380859375,3935.495849609375,133.514404296875,-6726.5830078125,2214.114013671875,3615.22021484375,5934.23828125,17184.416015625,4545.05322265625,10946.591796875,2776.78173828125,16353.1298828125,-5195.935546875,-4750.0927734375,-2577.304931640625,-2426.306396484375,-6775.06103515625,-394.1853942871094,7854.30224609375,6631.21533203125,2589.225830078125,3712.971923828125,1235.00830078125,7034.9375,-1022.815673828125,19766.48828125,-6291.8662109375,-0.0,-4437.7646484375,9652.7734375,-2055.962890625,-1551.3101806640625,1634.7567138671875,8859.634765625,-6447.63330078125,3108.978271484375,-4596.7099609375,-51.6573600769043,-1705.487548828125,9824.435546875,-18942.35546875,-14434.6552734375,-7544.35888671875,-824.133544921875,-174.8402862548828,-7652.44140625,-1981.2584228515625,-3489.6533203125,-10275.0458984375,4681.74609375,1480.579345703125,1407.46435546875,-7270.9716796875,499.8843078613281,0.0,-1784.165771484375,0.0,-2691.745849609375,-0.0,964.800537109375
-11673.767578125,-13324.419921875,-4501.3427734375,1031.5577392578125,1037.120849609375,15389.125,-2220.4716796875,1220.703125,-254.31314086914062,5692.640625,-8386.771484375,-7960.79638671875,-5244.4140625,3918.806640625,128.74603271484375,-6739.29833984375,2199.808837890625,3604.09423828125,5923.90673828125,17174.0859375,4533.1318359375,10936.259765625,2768.039794921875,16342.0048828125,-5216.5986328125,-4753.271484375,-2586.841552734375,-2436.637939453125,-6782.2138671875,-406.1063232421875,7843.97119140625,6620.8837890625,2576.51025390625,3703.435302734375,1224.6767578125,7026.990234375,-1033.147216796875,19756.158203125,-6301.40283203125,-0.0,-4452.8642578125,9644.826171875,-2066.29443359375,-1560.05224609375,1625.219970703125,8847.7138671875,-6464.32275390625,3110.56787109375,-4611.81005859375,-58.01518630981445,-1710.2559814453125,9813.30859375,-18364.587890625,-14449.755859375,-7549.92138671875,-833.6702880859375,-185.17176818847656,-7664.3623046875,-1988.410888671875,-3507.13720703125,-10284.5830078125,4671.4150390625,1471.0426025390625,1391.5697021484375,-7283.6875,492.73175048828125,0.0,-1805.6234130859375,0.0,-2713.203369140625,-0.0,948.9059448242188
-11722.2470703125,-13351.4404296875,-4505.31640625,1028.3787841796875,1031.5577392578125,15385.9453125,-2229.213623046875,1214.3453369140625,-262.26043701171875,5683.89892578125,-8397.1025390625,-7967.94873046875,-5246.00341796875,3908.475341796875,118.41455841064453,-6752.01416015625,2192.65625,3594.5576171875,5915.9599609375,17164.548828125,4525.9794921875,10929.107421875,2760.88720703125,16337.236328125,-5219.77734375,-4759.6298828125,-2595.583740234375,-2444.585205078125,-6782.2138671875,-414.84832763671875,7835.22900390625,6610.55224609375,2569.357666015625,3697.8720703125,1218.3189697265625,7019.837890625,-1041.094482421875,19750.595703125,-6314.11865234375,-0.0,-4458.42724609375,9642.44140625,-2073.447021484375,-1567.99951171875,1615.6832275390625,8839.7666015625,-6468.2958984375,3105.004638671875,-4637.2412109375,-64.37301635742188,-1718.9979248046875,9807.74609375,-18358.23046875,-14464.060546875,-7549.92138671875,-839.2333984375,-193.9137725830078,-7679.46240234375,-1993.9739990234375,-3518.263671875,-10296.50390625,4664.26220703125,1462.3006591796875,1386.0067138671875,-7288.4560546875,479.2213439941406,0.0,-1815.16015625,0.0,-2720.35595703125,-0.0,942.548095703125
-11709.53125,-13338.724609375,-4494.98486328125,1027.5841064453125,1049.041748046875,15397.072265625,-2217.292724609375,1227.0609130859375,-255.90261840820312,5683.89892578125,-8397.1025390625,-7956.02783203125,-5242.82470703125,3924.369873046875,128.74603271484375,-6736.9140625,2205.371826171875,3605.68359375,5926.291015625,17168.521484375,4535.51611328125,10940.234375,2772.80810546875,16346.7734375,-5203.8828125,-4754.06640625,-2584.45751953125,-2431.86962890625,-6779.82958984375,-403.7221374511719,7844.765625,6621.6787109375,2579.68896484375,3709.79296875,1229.445068359375,7029.37451171875,-1029.96826171875,19760.1328125,-6278.35595703125,-0.0,-4444.9169921875,9653.568359375,-2058.346923828125,-1556.07861328125,1625.219970703125,8847.7138671875,-6457.169921875,3104.2099609375,-4616.57861328125,-53.2468147277832,-1707.0770263671875,9822.05078125,-18876.39453125,-14469.6240234375,-7547.537109375,-828.9019165039062,-186.76121520996094,-7666.74658203125,-1989.20556640625,-3510.316162109375,-10286.171875,4675.38818359375,1471.83740234375,1420.9747314453125,-7282.09814453125,491.14227294921875,0.0,-1796.88134765625,0.0,-2698.8984375,-0.0,964.800537109375
-11672.9736328125,-13333.95703125,-4493.3955078125,1029.1734619140625,1053.81005859375,15395.482421875,-2214.90869140625,1223.0872802734375,-254.31314086914062,5670.388671875,-8400.28125,-7958.412109375,-5240.4404296875,3937.880126953125,138.28277587890625,-6733.7353515625,2206.16650390625,3606.478515625,5924.70166015625,17165.341796875,4537.10546875,10941.0283203125,2774.397705078125,16346.7734375,-5200.7041015625,-4753.271484375,-2580.483642578125,-2431.074951171875,-6783.80322265625,-398.1590270996094,7847.14990234375,6624.857421875,2581.278564453125,3709.79296875,1231.03466796875,7029.37451171875,-1028.3787841796875,19756.953125,-6289.48193359375,-0.0,-4444.1220703125,9654.3623046875,-2054.37353515625,-1558.4627685546875,1627.6041259765625,8843.7392578125,-6451.60693359375,3105.79931640625,-4594.326171875,-57.220458984375,-1699.9244384765625,9818.0771484375,-19070.306640625,-14465.6494140625,-7550.71630859375,-835.259765625,-178.81393432617188,-7664.3623046875,-1986.0267333984375,-3518.263671875,-10281.4033203125,4675.38818359375,1469.4532470703125,1430.511474609375,-7282.09814453125,494.3211669921875,0.0,-1796.88134765625,0.0,-2711.614013671875,-0.0,956.8532104492188
-11672.9736328125,-13345.8779296875,-4498.16357421875,1021.2262573242188,1041.88916015625,15385.1513671875,-2227.624267578125,1211.1663818359375,-259.8762512207031,5666.41455078125,-8420.1494140625,-7971.12744140625,-5253.15625,3931.5224609375,128.74603271484375,-6744.06689453125,2192.65625,3596.146728515625,5914.3701171875,17161.369140625,4526.77392578125,10928.3134765625,2761.681884765625,16334.8525390625,-5209.44580078125,-4762.013671875,-2595.583740234375,-2439.02197265625,-6792.54541015625,-410.87469482421875,7834.4345703125,6612.14208984375,2569.357666015625,3696.28271484375,1219.9083251953125,7015.0693359375,-1038.710205078125,19746.623046875,-6310.93994140625,-0.0,-4453.6591796875,9641.6474609375,-2065.49951171875,-1568.794189453125,1618.0673828125,8832.6142578125,-6455.580078125,3098.64697265625,-4608.63134765625,-61.19409942626953,-1709.461181640625,9806.9501953125,-18487.771484375,-14457.703125,-7560.2529296875,-849.5648803710938,-189.9401397705078,-7680.25732421875,-1991.58984375,-3531.77392578125,-10286.966796875,4661.8779296875,1458.326904296875,1413.0274658203125,-7291.63525390625,480.0160827636719,0.0,-1815.954833984375,0.0,-2735.455810546875,-0.0,938.574462890625
-11684.89453125,-13387.203125,-4500.5478515625,1022.0209350585938,1035.5313720703125,15379.587890625,-2227.624267578125,1206.39794921875,-259.8762512207031,5679.92529296875,-8413.7919921875,-7972.71728515625,-5250.77197265625,3926.75390625,128.74603271484375,-6763.14013671875,2191.861328125,3590.583740234375,5911.19140625,17169.31640625,4522.80029296875,10925.1337890625,2757.708251953125,16331.6728515625,-5204.677734375,-4767.57666015625,-2592.404541015625,-2448.558837890625,-6794.9296875,-414.84832763671875,7832.8447265625,6614.5263671875,2565.3837890625,3696.28271484375,1215.934814453125,7011.095703125,-1040.2998046875,19744.23828125,-6301.40283203125,-0.0,-4452.8642578125,9635.2890625,-2074.24169921875,-1572.767822265625,1617.272705078125,8834.203125,-6436.5068359375,3100.236083984375,-4602.2734375,-66.7572021484375,-1707.871826171875,9798.208984375,-18192.92578125,-14453.728515625,-7561.84228515625,-851.9490356445312,-190.73486328125,-7682.6416015625,-1990.795166015625,-3516.674072265625,-10288.5556640625,4656.31494140625,1459.91650390625,1418.590576171875,-7297.99267578125,480.810791015625,0.0,-1813.5706787109375,0.0,-2721.945556640625,-0.0,948.9059448242188
-11691.2529296875,-13372.8984375,-4493.3955078125,1022.815673828125,1040.2998046875,15382.7666015625,-2219.677001953125,1215.1400146484375,-247.16058349609375,5702.97265625,-8401.87109375,-7963.97509765625,-5242.02978515625,3932.317138671875,137.48805236816406,-6749.6298828125,2199.808837890625,3596.146728515625,5921.5224609375,17189.98046875,4529.953125,10932.2861328125,2765.655517578125,16338.8251953125,-5191.9619140625,-4767.57666015625,-2578.894287109375,-2447.76416015625,-6786.1875,-408.4905090332031,7841.5869140625,6620.0888671875,2574.920654296875,3704.22998046875,1222.2926025390625,7019.04296875,-1033.94189453125,19750.595703125,-6306.96630859375,-0.0,-4445.71142578125,9638.46875,-2069.47314453125,-1567.204833984375,1629.193603515625,8847.7138671875,-6430.94384765625,3104.2099609375,-4589.5576171875,-71.52557373046875,-1699.1297607421875,9806.9501953125,-17617.544921875,-14452.9345703125,-7553.8955078125,-845.5912475585938,-181.1981201171875,-7669.92578125,-1978.07958984375,-3499.190185546875,-10302.06640625,4664.26220703125,1472.632080078125,1434.485107421875,-7297.19775390625,489.55279541015625,0.0,-1804.82861328125,0.0,-2706.845458984375,-0.0,968.774169921875
-11682.5107421875,-13284.68359375,-4477.5009765625,1036.3260498046875,1053.81005859375,15401.0458984375,-2204.5771484375,1235.00830078125,-232.0607452392578,5725.22509765625,-8408.228515625,-7949.669921875,-5225.34033203125,3949.801025390625,139.8722381591797,-6724.19873046875,2214.90869140625,3615.22021484375,5937.41748046875,17210.642578125,4549.0263671875,10948.9755859375,2783.139404296875,16356.3095703125,-5177.65673828125,-4752.47705078125,-2572.536376953125,-2427.10107421875,-6767.1142578125,-391.80120849609375,7856.6865234375,6633.599609375,2592.404541015625,3716.945556640625,1238.9818115234375,7038.1162109375,-1018.8421020507812,19770.46484375,-6284.7138671875,-0.0,-4429.0224609375,9652.7734375,-2056.757568359375,-1548.13134765625,1645.8829345703125,8865.9921875,-6415.04931640625,3116.925537109375,-4587.17333984375,-64.37301635742188,-1698.3350830078125,9829.203125,-15249.251953125,-14440.21875,-7535.6162109375,-824.133544921875,-174.8402862548828,-7645.2890625,-1960.5953369140625,-3490.447998046875,-10297.298828125,4683.3359375,1491.70556640625,1446.406005859375,-7284.482421875,500.67901611328125,0.0,-1792.1129150390625,0.0,-2693.335205078125,-0.0,986.2581787109375
-11670.58984375,-13260.046875,-4463.99072265625,1040.2998046875,1057.78369140625,15405.814453125,-2203.7822265625,1235.00830078125,-235.2396697998047,5707.74072265625,-8401.87109375,-7946.4912109375,-5204.677734375,3941.85400390625,144.64060974121094,-6724.19873046875,2218.88232421875,3621.578125,5937.41748046875,17196.3359375,4555.38427734375,10953.744140625,2785.523681640625,16359.4873046875,-5169.70947265625,-4743.73486328125,-2579.68896484375,-2418.359130859375,-6763.93505859375,-387.8275451660156,7861.455078125,6637.5732421875,2594.788818359375,3720.91943359375,1242.95556640625,7043.6796875,-1016.4578857421875,19770.46484375,-6274.38232421875,-0.0,-4421.0751953125,9658.3369140625,-2055.962890625,-1543.3629150390625,1645.8829345703125,8862.8134765625,-6408.69140625,3119.3095703125,-4595.12109375,-58.80991744995117,-1692.77197265625,9830.7919921875,-11403.560546875,-14433.8603515625,-7532.43798828125,-820.9546508789062,-165.3035430908203,-7630.189453125,-1955.8270263671875,-3502.368896484375,-10287.76171875,4688.10400390625,1489.3214111328125,1423.35888671875,-7283.6875,507.036865234375,0.0,-1791.3182373046875,0.0,-2703.666748046875,-0.0,964.0057983398438
-11663.4365234375,-13271.1728515625,-4456.837890625,1063.346923828125,1064.1416015625,15416.939453125,-2200.603515625,1242.1607666015625,-240.00804138183594,5695.02490234375,-8381.20703125,-7937.7490234375,-5203.8828125,3941.85400390625,146.2300567626953,-6710.68798828125,2233.1875,3631.90966796875,5942.98046875,17180.443359375,4563.33154296875,10964.8701171875,2792.67626953125,16368.23046875,-5163.3515625,-4728.63525390625,-2573.3310546875,-2409.6171875,-6756.78271484375,-379.0855407714844,7871.787109375,6651.87841796875,2607.504638671875,3734.4296875,1254.87646484375,7054.0107421875,-1013.2789306640625,19776.8203125,-6259.28271484375,-0.0,-4414.71728515625,9671.0517578125,-2049.605224609375,-1533.826171875,1643.498779296875,8863.6083984375,-6417.43310546875,3140.767333984375,-4591.14697265625,-45.299530029296875,-1691.1824951171875,9840.3291015625,-8324.7822265625,-14429.88671875,-7525.28515625,-825.7230224609375,-158.9457244873047,-7614.29443359375,-1971.7216796875,-3489.6533203125,-10271.8671875,4696.05126953125,1489.3214111328125,1414.616943359375,-7254.28271484375,519.7525024414062,0.0,-1776.2183837890625,0.0,-2694.924560546875,-0.0,958.4426879882812
-11719.0673828125,-13294.2197265625,-4448.890625,1069.7047119140625,1067.3204345703125,15420.119140625,-2199.808837890625,1238.9818115234375,-240.80276489257812,5694.23046875,-8406.638671875,-7939.3388671875,-5180.8359375,3945.827392578125,154.17735290527344,-6719.4306640625,2235.571533203125,3631.90966796875,5943.775390625,17176.470703125,4564.12646484375,10967.2548828125,2795.060302734375,16369.0244140625,-5153.81494140625,-4724.6611328125,-2566.178466796875,-2415.18017578125,-6754.3984375,-380.67498779296875,7875.76025390625,6650.2890625,2612.27294921875,3736.813720703125,1255.671142578125,7056.39501953125,-1012.4841918945312,19776.8203125,-6263.255859375,-0.0,-4409.94873046875,9677.41015625,-2047.220947265625,-1533.826171875,1643.498779296875,8859.634765625,-6419.02294921875,3148.71484375,-4589.5576171875,-28.6102294921875,-1684.0299072265625,9830.7919921875,-6673.3359375,-14437.8349609375,-7521.3115234375,-823.3388061523438,-146.2300567626953,-7622.2421875,-1968.5428466796875,-3492.03759765625,-10282.19921875,4697.64111328125,1489.3214111328125,1422.564208984375,-7251.8984375,523.7261352539062,0.0,-1770.6552734375,0.0,-2689.361572265625,-0.0,968.774169921875
-11773.109375,-13316.4716796875,-4459.22216796875,1060.962646484375,1063.346923828125,15415.3505859375,-2205.371826171875,1238.1871337890625,-246.36587524414062,5684.69384765625,-8442.40234375,-7941.72265625,-5183.2197265625,3937.085693359375,147.81951904296875,-6713.072265625,2226.82958984375,3623.167724609375,5939.0068359375,17169.31640625,4558.5634765625,10958.5126953125,2787.11328125,16363.462890625,-5147.45703125,-4727.84033203125,-2570.947021484375,-2415.18017578125,-6760.755859375,-398.1590270996094,7867.81298828125,6643.13671875,2602.736328125,3728.072021484375,1246.1343994140625,7050.03759765625,-1016.4578857421875,19771.2578125,-6256.8984375,-0.0,-4413.9228515625,9670.2578125,-2051.9892578125,-1539.3892822265625,1638.7303466796875,8858.83984375,-6423.79150390625,3139.177978515625,-4595.91552734375,-34.96805953979492,-1688.0035400390625,9833.1767578125,-6086.03125,-14450.5498046875,-7529.2587890625,-817.7757568359375,-154.97207641601562,-7615.88427734375,-1967.7479248046875,-3497.6005859375,-10290.9404296875,4691.28271484375,1482.1688232421875,1413.8221435546875,-7262.22998046875,517.3682861328125,0.0,-1793.7025146484375,0.0,-2702.8720703125,-0.0,953.67431640625
-11746.8837890625,-13372.8984375,-4459.22216796875,1056.989013671875,1066.5257568359375,15405.0185546875,-2202.98779296875,1235.802978515625,-241.5974884033203,5696.61474609375,-8409.0234375,-7937.7490234375,-5218.98291015625,3943.443359375,150.20370483398438,-6721.814453125,2222.855712890625,3619.194091796875,5939.8017578125,17177.263671875,4560.947265625,10956.923828125,2786.318603515625,16359.4873046875,-5150.63623046875,-4732.60888671875,-2564.58935546875,-2419.948486328125,-6755.193359375,-401.33795166015625,7867.81298828125,6638.3681640625,2600.35205078125,3724.892822265625,1245.3397216796875,7046.8583984375,-1015.6631469726562,19770.46484375,-6259.28271484375,-0.0,-4413.9228515625,9665.4892578125,-2048.015625,-1547.3365478515625,1642.7039794921875,8862.8134765625,-6417.43310546875,3135.204345703125,-4583.99462890625,-51.6573600769043,-1685.619384765625,9829.998046875,-6330.80810546875,-14454.5244140625,-7522.90087890625,-814.5968017578125,-164.50881958007812,-7616.6787109375,-1966.9532470703125,-3492.832275390625,-10291.7353515625,4688.10400390625,1485.3477783203125,1411.43798828125,-7259.845703125,516.5736083984375,0.0,-1781.781494140625,0.0,-2698.8984375,-0.0,952.0848388671875
-11732.578125,-13344.2880859375,-4462.40087890625,1049.041748046875,1065.7310791015625,15396.27734375,-2202.98779296875,1228.650390625,-238.4185791015625,5697.4091796875,-8371.6708984375,-7941.72265625,-5237.26123046875,3952.18505859375,151.7931671142578,-6733.7353515625,2219.677001953125,3616.809814453125,5939.0068359375,17179.646484375,4556.17919921875,10953.744140625,2783.934326171875,16353.1298828125,-5187.193359375,-4742.1455078125,-2562.999755859375,-2429.4853515625,-6744.06689453125,-396.569580078125,7862.25048828125,6635.98388671875,2597.9677734375,3721.714111328125,1245.3397216796875,7040.50048828125,-1017.2525634765625,19764.900390625,-6260.8720703125,-0.0,-4422.66455078125,9659.130859375,-2047.220947265625,-1553.6943359375,1644.29345703125,8857.25,-6418.22802734375,3128.0517578125,-4567.30517578125,-56.42573165893555,-1684.0299072265625,9823.6396484375,-7956.02783203125,-14441.8076171875,-7512.5693359375,-817.7757568359375,-172.4561004638672,-7642.90478515625,-1964.569091796875,-3496.805908203125,-10293.32421875,4684.92529296875,1486.9371337890625,1425.7431640625,-7261.43505859375,513.3946533203125,0.0,-1767.4764404296875,0.0,-2684.59326171875,-0.0,972.747802734375
-11777.0830078125,-13306.935546875,-4475.11669921875,1041.88916015625,1050.6312255859375,15393.8935546875,-2209.345458984375,1227.855712890625,-241.5974884033203,5689.46240234375,-8342.265625,-7945.69677734375,-5225.34033203125,3949.006591796875,135.89859008789062,-6723.40380859375,2214.90869140625,3613.631103515625,5933.443359375,17175.673828125,4546.64208984375,10947.38671875,2776.78173828125,16351.5419921875,-5203.08837890625,-4746.9140625,-2578.099609375,-2427.10107421875,-6762.345703125,-397.3642883300781,7856.6865234375,6630.4208984375,2591.60986328125,3717.740234375,1235.00830078125,7034.9375,-1024.4051513671875,19762.515625,-6258.48779296875,-0.0,-4434.58544921875,9655.9521484375,-2059.9365234375,-1554.4891357421875,1637.9356689453125,8854.8662109375,-6441.27490234375,3120.1044921875,-4592.73681640625,-42.91534423828125,-1701.513916015625,9825.2294921875,-9651.18359375,-14439.423828125,-7530.84814453125,-824.133544921875,-181.9928436279297,-7642.90478515625,-1966.9532470703125,-3500.779296875,-10294.9140625,4680.15673828125,1481.3741455078125,1434.485107421875,-7258.25634765625,507.036865234375,0.0,-1776.2183837890625,0.0,-2690.951171875,-0.0,983.0792846679688
-11694.431640625,-13298.1943359375,-4481.474609375,1044.2734375,1049.8365478515625,15398.6611328125,-2204.5771484375,1237.3924560546875,-232.0607452392578,5712.50927734375,-8332.7294921875,-7947.28564453125,-5241.2353515625,3971.258544921875,140.66696166992188,-6724.19873046875,2214.114013671875,3617.6044921875,5938.2119140625,17195.54296875,4541.8740234375,10946.591796875,2779.166015625,16356.3095703125,-5201.49853515625,-4745.32470703125,-2578.099609375,-2420.7431640625,-6772.6767578125,-390.21173095703125,7857.48193359375,6632.8046875,2589.225830078125,3716.15087890625,1235.00830078125,7036.52734375,-1018.04736328125,19768.873046875,-6272.79296875,-0.0,-4439.35400390625,9656.7470703125,-2057.55224609375,-1548.926025390625,1645.088134765625,8868.376953125,-6447.63330078125,3122.48876953125,-4595.12109375,-42.91534423828125,-1695.1561279296875,9832.3818359375,-9864.1708984375,-14439.423828125,-7538.79541015625,-832.080810546875,-180.4033966064453,-7638.93115234375,-1956.621826171875,-3481.705810546875,-10297.298828125,4684.92529296875,1490.1160888671875,1463.0953369140625,-7265.4091796875,502.26849365234375,0.0,-1780.98681640625,0.0,-2683.798583984375,-0.0,995.000244140625
-11681.7158203125,-13310.9091796875,-4483.06396484375,1052.220703125,1055.3995361328125,15405.0185546875,-2198.21923828125,1243.750244140625,-222.5240020751953,5729.9931640625,-8343.85546875,-7950.46533203125,-5237.26123046875,3980.0009765625,154.97207641601562,-6715.45654296875,2218.08740234375,3620.783447265625,5946.1591796875,17213.025390625,4547.43701171875,10952.94921875,2784.72900390625,16361.078125,-5192.7568359375,-4723.86669921875,-2573.3310546875,-2414.385498046875,-6771.087890625,-379.0855407714844,7859.8662109375,6635.98388671875,2590.0205078125,3721.714111328125,1241.3660888671875,7042.884765625,-1010.894775390625,19777.6171875,-6252.92431640625,-0.0,-4437.7646484375,9669.462890625,-2049.605224609375,-1541.7734375,1656.21435546875,8877.9130859375,-6430.14892578125,3131.230712890625,-4589.5576171875,-45.299530029296875,-1680.8509521484375,9840.3291015625,-9226.0048828125,-14441.8076171875,-7537.2060546875,-821.7493896484375,-173.25083923339844,-7635.75244140625,-1943.1114501953125,-3471.37451171875,-10298.0927734375,4692.07763671875,1500.4476318359375,1474.2215576171875,-7282.892578125,505.4473876953125,0.0,-1782.576171875,0.0,-2675.85107421875,-0.0,999.7686157226562
-11714.298828125,-13350.646484375,-4487.03759765625,1040.2998046875,1046.6575927734375,15393.8935546875,-2209.345458984375,1228.650390625,-235.2396697998047,5695.81982421875,-8381.20703125,-7952.849609375,-5240.4404296875,3952.97998046875,142.2564239501953,-6727.37744140625,2206.96142578125,3606.478515625,5932.64892578125,17185.2109375,4541.0791015625,10945.0029296875,2775.1923828125,16347.56640625,-5193.5517578125,-4731.01953125,-2581.278564453125,-2428.690673828125,-6770.29296875,-398.1590270996094,7850.32958984375,6627.24169921875,2581.278564453125,3712.971923828125,1231.03466796875,7030.9638671875,-1023.6104736328125,19763.310546875,-6277.56103515625,-0.0,-4444.1220703125,9659.9267578125,-2061.526123046875,-1552.899658203125,1642.7039794921875,8858.044921875,-6452.40185546875,3119.3095703125,-4600.68359375,-56.42573165893555,-1696.7454833984375,9826.8193359375,-9923.775390625,-14459.2919921875,-7539.59033203125,-824.133544921875,-177.22447204589844,-7655.62060546875,-1966.9532470703125,-3498.395263671875,-10305.2451171875,4679.36181640625,1482.963623046875,1431.3062744140625,-7273.35595703125,502.26849365234375,0.0,-1780.1920166015625,0.0,-2695.719482421875,-0.0,961.62158203125
-11633.2373046875,-13371.30859375,-4499.75341796875,1023.6104736328125,1034.736572265625,15374.0244140625,-2228.4189453125,1210.37158203125,-258.28680419921875,5656.08349609375,-8400.28125,-7963.1806640625,-5254.74560546875,3933.111572265625,116.82510375976562,-6742.4775390625,2192.65625,3589.7890625,5916.75439453125,17149.44921875,4526.77392578125,10926.7236328125,2760.092529296875,16330.876953125,-5199.9091796875,-4769.16650390625,-2593.199462890625,-2443.79052734375,-6774.2666015625,-421.2061462402344,7833.64013671875,6618.5,2570.15234375,3695.488037109375,1215.934814453125,7012.68505859375,-1041.094482421875,19745.826171875,-6303.787109375,-0.0,-4453.6591796875,9635.2890625,-2076.625732421875,-1572.767822265625,1621.246337890625,8831.818359375,-6462.73291015625,3101.82568359375,-4606.2470703125,-72.32030487060547,-1721.382080078125,9808.5400390625,-12393.7919921875,-14477.5703125,-7542.76904296875,-835.259765625,-186.76121520996094,-7673.10498046875,-1996.358154296875,-3538.1318359375,-10325.908203125,4660.28857421875,1462.3006591796875,1397.1328125,-7274.94580078125,487.9633483886719,0.0,-1788.93408203125,0.0,-2717.17724609375,-0.0,935.3955688476562
-11595.08984375,-13341.109375,-4495.779296875,1021.2262573242188,1040.2998046875,15375.6142578125,-2227.624267578125,1210.37158203125,-267.82354736328125,5656.08349609375,-8392.333984375,-7964.7705078125,-5244.4140625,3909.269775390625,123.9776611328125,-6732.9404296875,2194.24560546875,3589.7890625,5918.34423828125,17143.091796875,4527.56884765625,10925.9287109375,2760.092529296875,16333.26171875,-5188.783203125,-4777.908203125,-2589.225830078125,-2442.200927734375,-6771.087890625,-417.2325134277344,7832.05029296875,6619.29443359375,2571.74169921875,3693.8984375,1217.524169921875,7011.095703125,-1040.2998046875,19747.416015625,-6314.9130859375,-0.0,-4448.095703125,9629.7265625,-2071.062744140625,-1572.767822265625,1620.4515380859375,8831.818359375,-6440.48046875,3099.44140625,-4597.5048828125,-72.32030487060547,-1713.434814453125,9811.71875,-15683.173828125,-14479.955078125,-7539.59033203125,-832.8755493164062,-182.78758239746094,-7675.48876953125,-1990.00048828125,-3547.66845703125,-10311.603515625,4660.28857421875,1460.711181640625,1389.9803466796875,-7272.5615234375,487.9633483886719,0.0,-1800.060302734375,0.0,-2725.124267578125,-0.0,935.3955688476562
-11639.5947265625,-13309.3193359375,-4500.5478515625,1020.4315185546875,1037.120849609375,15381.1767578125,-2228.4189453125,1213.550537109375,-271.79718017578125,5660.05712890625,-8389.9501953125,-7965.56494140625,-5238.05615234375,3914.8330078125,128.74603271484375,-6732.9404296875,2191.066650390625,3591.37841796875,5916.75439453125,17143.884765625,4525.1845703125,10926.7236328125,2759.297607421875,16335.6455078125,-5193.5517578125,-4771.55078125,-2589.225830078125,-2434.253662109375,-6770.29296875,-412.4641418457031,7829.666015625,6613.7314453125,2568.562744140625,3691.51416015625,1213.550537109375,7012.68505859375,-1040.2998046875,19750.595703125,-6303.787109375,-0.0,-4453.6591796875,9632.1103515625,-2071.857421875,-1567.204833984375,1618.8621826171875,8834.203125,-6447.63330078125,3098.64697265625,-4603.86279296875,-61.98883056640625,-1709.461181640625,9813.30859375,-19037.72265625,-14472.0078125,-7540.384765625,-828.107177734375,-181.1981201171875,-7688.2041015625,-1989.20556640625,-3538.1318359375,-10315.5771484375,4660.28857421875,1459.91650390625,1393.1593017578125,-7271.7666015625,491.9369812011719,0.0,-1807.212890625,0.0,-2726.7138671875,-0.0,936.9849853515625
-11678.5361328125,-13304.55078125,-4507.70068359375,1024.4051513671875,1035.5313720703125,15382.7666015625,-2222.06103515625,1212.755859375,-263.8498840332031,5673.5673828125,-8393.1279296875,-7963.97509765625,-5238.05615234375,3923.574951171875,139.8722381591797,-6746.45068359375,2189.477294921875,3592.968017578125,5920.72802734375,17155.8046875,4522.80029296875,10925.9287109375,2764.06591796875,16336.44140625,-5204.677734375,-4765.1923828125,-2586.841552734375,-2442.200927734375,-6769.49853515625,-417.2325134277344,7831.255859375,6610.55224609375,2565.3837890625,3690.7197265625,1216.7294921875,7012.68505859375,-1033.94189453125,19750.595703125,-6306.96630859375,-0.0,-4458.42724609375,9632.9052734375,-2068.6787109375,-1567.99951171875,1624.42529296875,8838.1767578125,-6457.169921875,3103.415283203125,-4605.4521484375,-59.604644775390625,-1700.71923828125,9807.74609375,-22098.22265625,-14468.8291015625,-7538.79541015625,-832.080810546875,-174.04556274414062,-7678.66748046875,-1985.2320556640625,-3515.87939453125,-10325.908203125,4663.46728515625,1463.89013671875,1406.669677734375,-7270.9716796875,489.55279541015625,0.0,-1789.728759765625,0.0,-2708.43505859375,-0.0,948.1112060546875
-11689.6630859375,-13322.0361328125,-4508.4951171875,1025.199951171875,1035.5313720703125,15379.587890625,-2222.06103515625,1207.1927490234375,-259.8762512207031,5673.5673828125,-8398.6923828125,-7965.56494140625,-5226.13525390625,3921.985595703125,143.8458709716797,-6766.3193359375,2185.503662109375,3588.994384765625,5919.138671875,17158.189453125,4523.59521484375,10924.3388671875,2761.681884765625,16333.26171875,-5207.8564453125,-4765.9873046875,-2584.45751953125,-2451.737548828125,-6771.88232421875,-424.38507080078125,7829.666015625,6606.57861328125,2560.615478515625,3689.130126953125,1215.934814453125,7011.095703125,-1035.5313720703125,19745.826171875,-6320.4765625,-0.0,-4460.0166015625,9631.31640625,-2067.8837890625,-1573.5626220703125,1624.42529296875,8835.79296875,-6451.60693359375,3101.82568359375,-4605.4521484375,-63.578285217285156,-1696.7454833984375,9797.4140625,-24267.83203125,-14467.2392578125,-7539.59033203125,-832.8755493164062,-166.09828186035156,-7697.7412109375,-1988.410888671875,-3513.4951171875,-10332.2666015625,4661.8779296875,1463.0953369140625,1403.49072265625,-7275.740234375,482.4002685546875,0.0,-1790.5235595703125,0.0,-2706.845458984375,-0.0,943.3428344726562
-11697.6103515625,-13350.646484375,-4522.00537109375,1017.2525634765625,1025.199951171875,15369.255859375,-2232.392578125,1196.0665283203125,-264.6446228027344,5664.8251953125,-8406.638671875,-7973.51171875,-5226.13525390625,3918.01220703125,129.54075622558594,-6775.06103515625,2175.967041015625,3578.662841796875,5908.80712890625,17150.244140625,4512.46875,10914.802734375,2751.350341796875,16325.3154296875,-5218.98291015625,-4774.7294921875,-2594.788818359375,-2462.864013671875,-6775.06103515625,-431.5376281738281,7817.7451171875,6600.22119140625,2549.4892578125,3681.182861328125,1204.80859375,7000.76416015625,-1045.068115234375,19735.494140625,-6323.65576171875,-0.0,-4467.96435546875,9623.3681640625,-2079.010009765625,-1583.099365234375,1618.0673828125,8824.666015625,-6473.859375,3093.87841796875,-4617.373046875,-73.90975952148438,-1707.871826171875,9786.2880859375,-24894.873046875,-14467.2392578125,-7542.76904296875,-841.6175537109375,-169.27719116210938,-7707.27783203125,-1993.1793212890625,-3524.621337890625,-10340.2138671875,4652.34130859375,1454.353271484375,1384.417236328125,-7282.09814453125,475.2477111816406,0.0,-1805.6234130859375,0.0,-2725.124267578125,-0.0,925.0640869140625
-11717.478515625,-13396.740234375,-4534.72119140625,1001.3580322265625,1010.1000366210938,15353.3623046875,-2247.492431640625,1180.1719970703125,-275.77081298828125,5656.8779296875,-8434.455078125,-7992.5849609375,-5246.00341796875,3906.8857421875,104.9041748046875,-6786.98193359375,2162.45654296875,3564.357666015625,5894.501953125,17139.912109375,4497.369140625,10901.2919921875,2735.455810546875,16307.8310546875,-5225.34033203125,-4789.8291015625,-2613.067626953125,-2481.142822265625,-6789.3662109375,-432.3323669433594,7801.8505859375,6588.30029296875,2535.18408203125,3666.877685546875,1188.1192626953125,6985.66455078125,-1060.962646484375,19719.6015625,-6319.681640625,-0.0,-4481.474609375,9609.8583984375,-2095.69921875,-1599.7886962890625,1602.1728515625,8810.361328125,-6490.548828125,3079.573486328125,-4636.4462890625,-95.367431640625,-1734.8924560546875,9770.3935546875,-24948.12109375,-14470.41796875,-7560.2529296875,-865.45947265625,-190.73486328125,-7716.02001953125,-2004.3055419921875,-3538.92626953125,-10348.9560546875,4634.857421875,1441.6376953125,1378.059326171875,-7316.271484375,464.1214904785156,0.0,-1822.312744140625,0.0,-2738.634765625,-0.0,916.3220825195312
-11740.525390625,-13395.9453125,-4529.158203125,993.4107055664062,1009.3053588867188,15348.59375,-2250.67138671875,1182.55615234375,-272.5919189453125,5667.20947265625,-8444.7861328125,-8001.32763671875,-5256.3349609375,3897.34912109375,97.75161743164062,-6781.41943359375,2155.303955078125,3561.178955078125,5893.70703125,17151.83203125,4493.3955078125,10894.9345703125,2731.482177734375,16303.857421875,-5225.34033203125,-4800.16064453125,-2616.24658203125,-2477.1689453125,-6799.69775390625,-432.3323669433594,7798.671875,6578.763671875,2534.389404296875,3658.930419921875,1186.52978515625,6980.10107421875,-1062.5521240234375,19719.6015625,-6356.2392578125,-0.0,-4480.68017578125,9605.08984375,-2098.878173828125,-1600.5833740234375,1600.5833740234375,8814.3349609375,-6482.60107421875,3073.215576171875,-4634.857421875,-102.51998901367188,-1742.0450439453125,9775.9560546875,-24909.97265625,-14477.5703125,-7569.7900390625,-874.2014770507812,-203.4505157470703,-7720.78857421875,-2006.6898193359375,-3540.515869140625,-10368.82421875,4631.67822265625,1442.432373046875,1386.8013916015625,-7327.39794921875,463.3267822265625,0.0,-1831.8494873046875,0.0,-2742.6083984375,-0.0,925.8588256835938
-11746.0888671875,-13396.740234375,-4535.51611328125,988.642333984375,1006.1264038085938,15347.00390625,-2249.081787109375,1185.735107421875,-262.26043701171875,5679.13037109375,-8424.123046875,-8003.7119140625,-5263.4873046875,3915.6279296875,105.69890594482422,-6775.85595703125,2152.125,3557.999755859375,5896.09130859375,17165.341796875,4489.421875,10890.166015625,2730.6875,16304.6513671875,-5236.466796875,-4804.13427734375,-2613.067626953125,-2474.784912109375,-6802.876953125,-440.2796325683594,7795.49267578125,6574.78955078125,2531.210693359375,3654.162109375,1184.9403076171875,6978.51171875,-1062.5521240234375,19721.984375,-6345.11328125,-0.0,-4487.83251953125,9600.3212890625,-2099.673095703125,-1599.7886962890625,1606.941162109375,8820.693359375,-6489.75390625,3070.03662109375,-4633.26806640625,-101.72525787353516,-1732.50830078125,9779.1357421875,-25831.857421875,-14483.9287109375,-7572.96875,-877.38037109375,-197.0926971435547,-7726.35107421875,-1996.358154296875,-3535.74755859375,-10380.7451171875,4630.8837890625,1446.406005859375,1397.1328125,-7311.5029296875,452.2005615234375,0.0,-1838.207275390625,0.0,-2744.19775390625,-0.0,928.2429809570312
-11740.525390625,-13375.2822265625,-4534.72119140625,997.3843994140625,1007.7158203125,15354.951171875,-2245.1083984375,1193.682373046875,-269.4129943847656,5675.95166015625,-8397.896484375,-7991.791015625,-5258.71875,3909.269775390625,107.28836059570312,-6759.96142578125,2158.48291015625,3561.9736328125,5899.2705078125,17162.958984375,4498.16357421875,10896.5234375,2737.04541015625,16311.0107421875,-5241.2353515625,-4793.802734375,-2612.27294921875,-2462.864013671875,-6796.51904296875,-439.48492431640625,7800.26123046875,6581.1474609375,2535.18408203125,3660.519775390625,1188.9139404296875,6986.45947265625,-1059.373291015625,19728.341796875,-6326.03955078125,-0.0,-4487.03759765625,9607.474609375,-2093.315185546875,-1592.6361083984375,1607.7359619140625,8823.8720703125,-6485.7802734375,3074.01025390625,-4631.67822265625,-96.16216278076172,-1729.3294677734375,9791.8505859375,-26801.427734375,-14480.75,-7565.021484375,-872.6119995117188,-192.32432556152344,-7718.404296875,-2002.716064453125,-3540.515869140625,-10369.6181640625,4637.2412109375,1447.2008056640625,1395.54345703125,-7302.76123046875,457.763671875,0.0,-1834.233642578125,0.0,-2741.01904296875,-0.0,923.474609375
-11730.98828125,-13354.619140625,-4528.36376953125,993.4107055664062,1014.868408203125,15362.8984375,-2241.134765625,1197.656005859375,-278.9497375488281,5654.49365234375,-8400.28125,-7983.04833984375,-5256.3349609375,3893.37548828125,112.05673217773438,-6751.21923828125,2167.224853515625,3569.9208984375,5901.65478515625,17141.5,4505.31640625,10904.4716796875,2741.813720703125,16318.9560546875,-5235.671875,-4785.85595703125,-2607.504638671875,-2454.916748046875,-6788.57177734375,-433.92181396484375,7806.619140625,6587.50537109375,2542.336669921875,3665.288330078125,1196.861328125,6992.81689453125,-1056.1943359375,19733.111328125,-6321.271484375,-0.0,-4479.88525390625,9613.8310546875,-2090.13623046875,-1584.6888427734375,1608.5306396484375,8822.2822265625,-6480.216796875,3067.65234375,-4626.90966796875,-85.8306884765625,-1723.766357421875,9800.59375,-26803.8125,-14484.72265625,-7557.07421875,-856.7174072265625,-190.73486328125,-7701.71484375,-2004.3055419921875,-3540.515869140625,-10358.4931640625,4642.8046875,1445.611328125,1381.23828125,-7297.19775390625,472.06878662109375,0.0,-1821.5179443359375,0.0,-2741.01904296875,-0.0,921.0904541015625
-11742.9091796875,-13347.466796875,-4518.8271484375,995.794921875,1019.6367797851562,15360.5146484375,-2245.903076171875,1184.1456298828125,-292.4601135253906,5639.39404296875,-8403.4609375,-7985.4326171875,-5254.74560546875,3877.480712890625,112.8514633178711,-6782.2138671875,2169.609130859375,3569.9208984375,5897.6806640625,17120.04296875,4506.111328125,10903.67578125,2739.429443359375,16314.1884765625,-5226.93017578125,-4774.7294921875,-2605.9150390625,-2470.0166015625,-6787.77685546875,-430.7428894042969,7809.00341796875,6590.6845703125,2547.10498046875,3666.0830078125,1197.656005859375,6990.4326171875,-1058.5784912109375,19725.1640625,-6331.6025390625,-0.0,-4472.732421875,9614.626953125,-2092.5205078125,-1593.430908203125,1600.5833740234375,8809.56640625,-6472.26953125,3074.01025390625,-4622.1416015625,-87.4201431274414,-1724.56103515625,9779.1357421875,-26225.248046875,-14488.697265625,-7554.68994140625,-857.5121459960938,-185.96649169921875,-7704.09912109375,-2006.6898193359375,-3533.36328125,-10356.9033203125,4639.62548828125,1436.0745849609375,1359.7806396484375,-7293.22412109375,464.9162292480469,0.0,-1811.981201171875,0.0,-2729.09814453125,-0.0,918.7062377929688
-11735.7568359375,-13332.3671875,-4506.90625,1009.3053588867188,1026.789306640625,15368.4619140625,-2242.72412109375,1192.0928955078125,-296.43377685546875,5647.34130859375,-8395.5126953125,-7971.9228515625,-5249.97705078125,3882.2490234375,109.67254638671875,-6768.70361328125,2179.145751953125,3578.662841796875,5901.65478515625,17121.6328125,4514.85302734375,10913.212890625,2746.58203125,16321.3408203125,-5214.21435546875,-4772.34521484375,-2601.146728515625,-2462.0693359375,-6784.59765625,-422.7956237792969,7819.3349609375,6599.42626953125,2556.641845703125,3673.235595703125,1205.603271484375,6996.79052734375,-1055.3995361328125,19733.111328125,-6317.29736328125,-0.0,-4463.99072265625,9624.9580078125,-2086.16259765625,-1584.6888427734375,1601.3780517578125,8815.9248046875,-6458.75927734375,3087.5205078125,-4617.373046875,-81.06231689453125,-1727.739990234375,9787.876953125,-25835.037109375,-14478.3662109375,-7552.3056640625,-848.7701416015625,-181.9928436279297,-7693.767578125,-2009.073974609375,-3528.594970703125,-10348.9560546875,4646.7783203125,1440.0482177734375,1370.112060546875,-7286.07177734375,476.04241943359375,0.0,-1800.85498046875,0.0,-2721.150634765625,-0.0,925.8588256835938
-11716.68359375,-13321.240234375,-4501.3427734375,1020.4315185546875,1035.5313720703125,15382.7666015625,-2230.00830078125,1206.39794921875,-275.77081298828125,5671.97802734375,-8383.591796875,-7961.5908203125,-5248.3876953125,3915.6279296875,121.59347534179688,-6746.45068359375,2190.27197265625,3590.583740234375,5912.78076171875,17145.474609375,4524.3896484375,10926.7236328125,2758.5029296875,16332.4677734375,-5205.47265625,-4758.8349609375,-2593.199462890625,-2446.174560546875,-6782.2138671875,-415.64306640625,7832.8447265625,6608.962890625,2566.178466796875,3685.951171875,1215.934814453125,7011.095703125,-1043.4786376953125,19745.826171875,-6299.01904296875,-0.0,-4457.63232421875,9640.0576171875,-2074.24169921875,-1571.97314453125,1616.47802734375,8833.408203125,-6449.22265625,3097.057373046875,-4606.2470703125,-69.14138793945312,-1715.8189697265625,9805.361328125,-24269.421875,-14470.41796875,-7551.51123046875,-844.0017700195312,-177.22447204589844,-7671.51513671875,-1995.5634765625,-3516.674072265625,-10335.4453125,4660.28857421875,1457.5322265625,1408.259033203125,-7279.7138671875,494.3211669921875,0.0,-1783.3709716796875,0.0,-2703.666748046875,-0.0,954.4690551757812
-11686.484375,-13314.087890625,-4481.474609375,1042.6839599609375,1056.989013671875,15399.4560546875,-2208.55078125,1228.650390625,-247.955322265625,5696.61474609375,-8371.6708984375,-7942.51708984375,-5234.876953125,3945.03271484375,144.64060974121094,-6723.40380859375,2207.756103515625,3608.862548828125,5935.033203125,17171.701171875,4545.05322265625,10943.4130859375,2777.576416015625,16353.1298828125,-5183.2197265625,-4748.50341796875,-2576.51025390625,-2423.92236328125,-6770.29296875,-397.3642883300781,7850.32958984375,6628.83154296875,2587.63623046875,3703.435302734375,1236.59765625,7030.1689453125,-1022.0209350585938,19766.48828125,-6279.9453125,-0.0,-4436.9697265625,9653.568359375,-2055.168212890625,-1550.5155029296875,1640.31982421875,8854.8662109375,-6411.07568359375,3121.69384765625,-4586.37841796875,-50.86262893676758,-1694.361328125,9828.408203125,-20929.97265625,-14449.755859375,-7538.79541015625,-827.3125,-160.53517150878906,-7637.341796875,-1973.3111572265625,-3499.98486328125,-10317.9619140625,4680.95166015625,1479.78466796875,1436.0745849609375,-7270.17724609375,513.3946533203125,0.0,-1765.886962890625,0.0,-2683.798583984375,-0.0,980.6951293945312
-11680.9208984375,-13319.6513671875,-4471.14306640625,1049.8365478515625,1064.936279296875,15407.4033203125,-2202.193115234375,1238.9818115234375,-240.80276489257812,5708.53564453125,-8373.2607421875,-7931.3916015625,-5209.44580078125,3954.5693359375,144.64060974121094,-6714.662109375,2215.703369140625,3617.6044921875,5943.775390625,17184.416015625,4554.58984375,10952.1552734375,2785.523681640625,16361.8720703125,-5172.88818359375,-4745.32470703125,-2573.3310546875,-2415.18017578125,-6758.3720703125,-385.443359375,7859.8662109375,6635.98388671875,2595.583740234375,3712.17724609375,1242.95556640625,7042.08984375,-1015.6631469726562,19776.025390625,-6275.9716796875,-0.0,-4428.22802734375,9660.720703125,-2051.1943359375,-1541.7734375,1648.26708984375,8864.40234375,-6419.02294921875,3129.641357421875,-4585.583984375,-41.32588577270508,-1693.566650390625,9836.3564453125,-16555.78515625,-14435.4501953125,-7526.87451171875,-809.8284301757812,-158.9457244873047,-7615.88427734375,-1963.7744140625,-3480.11669921875,-10313.193359375,4689.693359375,1488.5267333984375,1443.2271728515625,-7262.22998046875,524.5208740234375,0.0,-1757.1448974609375,0.0,-2675.056396484375,-0.0,989.4371337890625
-11712.7099609375,-13316.4716796875,-4467.16943359375,1050.6312255859375,1068.9100341796875,15415.3505859375,-2197.424560546875,1243.750244140625,-234.44493103027344,5718.86669921875,-8408.228515625,-7926.62353515625,-5199.1142578125,3960.132568359375,143.8458709716797,-6707.50927734375,2220.4716796875,3623.96240234375,5950.927734375,17193.953125,4558.5634765625,10959.3076171875,2791.0869140625,16369.0244140625,-5160.96728515625,-4734.9931640625,-2574.920654296875,-2406.438232421875,-6755.98779296875,-381.4697265625,7866.22314453125,6638.3681640625,2598.762451171875,3716.945556640625,1247.723876953125,7050.83203125,-1011.6895141601562,19781.58984375,-6276.76611328125,-0.0,-4424.25390625,9667.873046875,-2048.015625,-1533.031494140625,1653.8302001953125,8872.349609375,-6426.97021484375,3130.43603515625,-4591.14697265625,-27.815500259399414,-1693.566650390625,9841.9189453125,-12976.3291015625,-14428.2978515625,-7523.6953125,-799.4969482421875,-162.9193572998047,-7608.73193359375,-1955.0323486328125,-3471.37451171875,-10311.603515625,4694.4619140625,1496.473876953125,1453.55859375,-7264.6142578125,530.083984375,0.0,-1750.787109375,0.0,-2666.314453125,-0.0,998.1790771484375
-11761.1884765625,-13318.8564453125,-4439.35400390625,1072.0888671875,1088.7781982421875,15431.2451171875,-2179.9404296875,1258.85009765625,-216.96090698242188,5733.966796875,-8414.5859375,-7913.11279296875,-5196.72998046875,3978.4111328125,170.07191467285156,-6693.20458984375,2235.571533203125,3642.2412109375,5968.412109375,17209.84765625,4575.25244140625,10974.4072265625,2809.365478515625,16384.125,-5141.099609375,-4718.3037109375,-2552.668212890625,-2393.72265625,-6743.2724609375,-374.3171691894531,7880.5283203125,6651.08349609375,2614.6572265625,3729.6611328125,1264.4132080078125,7066.7265625,-992.6160278320312,19796.689453125,-6248.15625,-0.0,-4405.1806640625,9682.1787109375,-2028.942138671875,-1518.726318359375,1671.314208984375,8888.244140625,-6380.0810546875,3153.483154296875,-4572.0732421875,-8.74201488494873,-1668.13525390625,9857.8134765625,-10389.4873046875,-14421.1455078125,-7511.7744140625,-788.3707885742188,-144.64060974121094,-7588.86328125,-1941.52197265625,-3456.274658203125,-10306.041015625,4711.1513671875,1514.752685546875,1471.0426025390625,-7258.25634765625,542.7996215820312,0.0,-1740.45556640625,0.0,-2651.214599609375,-0.0,1013.2789306640625
-11756.419921875,-13326.0087890625,-4441.73828125,1071.294189453125,1084.8045654296875,15426.4765625,-2180.7353515625,1255.671142578125,-219.3450927734375,5729.9931640625,-8379.6181640625,-7920.26513671875,-5203.08837890625,3968.87451171875,175.63502502441406,-6697.97265625,2231.597900390625,3636.677978515625,5964.43798828125,17205.873046875,4570.484375,10973.6123046875,2806.186767578125,16380.1513671875,-5153.81494140625,-4715.91943359375,-2547.10498046875,-2397.6962890625,-6752.01416015625,-379.0855407714844,7876.5556640625,6649.494140625,2609.093994140625,3725.687744140625,1261.2342529296875,7063.5478515625,-994.2054443359375,19794.306640625,-6240.208984375,-0.0,-4411.53857421875,9679.7939453125,-2029.73681640625,-1521.9052734375,1669.724853515625,8883.4765625,-6388.8232421875,3151.098876953125,-4571.27880859375,-14.30511474609375,-1660.1881103515625,9855.4296875,-8350.212890625,-14429.0927734375,-7518.92724609375,-796.3180541992188,-131.92494201660156,-7592.04248046875,-1938.343017578125,-3464.221923828125,-10311.603515625,4709.56201171875,1511.57373046875,1461.505859375,-7258.25634765625,530.083984375,0.0,-1746.018798828125,0.0,-2657.572509765625,-0.0,1007.7158203125
-11708.736328125,-13330.77734375,-4467.16943359375,1053.015380859375,1059.373291015625,15405.814453125,-2202.193115234375,1237.3924560546875,-232.85548400878906,5714.0986328125,-8374.0546875,-7940.13330078125,-5194.34619140625,3959.337646484375,145.43533325195312,-6717.04638671875,2211.729736328125,3616.809814453125,5946.1591796875,17192.36328125,4549.0263671875,10953.744140625,2786.318603515625,16361.8720703125,-5175.2724609375,-4734.9931640625,-2574.920654296875,-2418.359130859375,-6760.755859375,-394.9801025390625,7857.48193359375,6629.6259765625,2589.225830078125,3706.6142578125,1242.1607666015625,7042.884765625,-1016.4578857421875,19774.4375,-6270.40869140625,-0.0,-4433.79052734375,9659.9267578125,-2050.39990234375,-1542.5682373046875,1652.24072265625,8865.197265625,-6414.2548828125,3132.025390625,-4618.16796875,-39.73643112182617,-1691.9771728515625,9836.3564453125,-7205.00927734375,-14449.755859375,-7529.2587890625,-814.5968017578125,-150.20370483398438,-7615.08935546875,-1955.8270263671875,-3488.063720703125,-10329.0869140625,4690.48828125,1494.884521484375,1447.9954833984375,-7265.4091796875,511.80523681640625,0.0,-1763.502685546875,0.0,-2675.056396484375,-0.0,992.6160278320312
-11680.9208984375,-13326.8037109375,-4466.375,1058.5784912109375,1067.3204345703125,15408.1982421875,-2196.6298828125,1242.1607666015625,-226.49765014648438,5718.072265625,-8380.4130859375,-7937.7490234375,-5215.00927734375,3964.90087890625,152.587890625,-6710.68798828125,2212.5244140625,3619.194091796875,5949.33837890625,17197.927734375,4552.20556640625,10954.5390625,2791.0869140625,16364.255859375,-5180.8359375,-4734.1982421875,-2568.562744140625,-2413.590576171875,-6756.78271484375,-388.6222839355469,7859.07080078125,6629.6259765625,2591.60986328125,3708.99853515625,1246.92919921875,7044.47412109375,-1010.894775390625,19779.205078125,-6271.998046875,-0.0,-4431.40673828125,9660.720703125,-2044.0418701171875,-1540.18408203125,1656.21435546875,8872.349609375,-6413.4599609375,3138.383056640625,-4601.478515625,-38.94169998168945,-1686.4140625,9841.125,-7101.69482421875,-14451.3447265625,-7526.07958984375,-806.6495361328125,-162.1246337890625,-7619.06298828125,-1959.80078125,-3484.885009765625,-10326.703125,4692.87255859375,1499.65283203125,1455.1480712890625,-7260.640625,519.7525024414062,0.0,-1763.502685546875,0.0,-2679.0302734375,-0.0,991.8212890625
-11699.19921875,-13326.0087890625,-4466.375,1059.373291015625,1078.44677734375,15412.966796875,-2191.861328125,1245.3397216796875,-225.7029266357422,5715.68798828125,-8381.20703125,-7931.3916015625,-5236.466796875,3959.337646484375,162.9193572998047,-6705.919921875,2216.498046875,3622.372802734375,5953.31201171875,17196.3359375,4556.97412109375,10959.3076171875,2797.444580078125,16368.23046875,-5182.4248046875,-4732.60888671875,-2557.436767578125,-2405.6435546875,-6755.193359375,-383.8539123535156,7863.044921875,6636.7783203125,2596.37841796875,3712.971923828125,1250.108154296875,7049.24267578125,-1005.3316650390625,19783.177734375,-6267.2294921875,-0.0,-4425.048828125,9665.4892578125,-2034.505126953125,-1535.4156494140625,1660.9827880859375,8875.529296875,-6427.7646484375,3137.58837890625,-4571.27880859375,-33.37860107421875,-1674.4931640625,9847.4814453125,-7011.890625,-14456.11328125,-7523.6953125,-805.06005859375,-157.35626220703125,-7613.5,-1956.621826171875,-3470.579833984375,-10319.55078125,4699.22998046875,1502.037109375,1449.5849609375,-7257.46142578125,526.905029296875,0.0,-1772.2447509765625,0.0,-2683.003662109375,-0.0,983.8739624023438
-11696.021484375,-13333.95703125,-4466.375,1056.1943359375,1080.0361328125,15416.1455078125,-2191.066650390625,1246.1343994140625,-224.11346435546875,5723.63525390625,-8373.2607421875,-7930.59619140625,-5233.28759765625,3964.106201171875,155.7667999267578,-6696.3828125,2223.650634765625,3627.93603515625,5955.6962890625,17201.10546875,4560.947265625,10964.076171875,2798.239501953125,16369.8193359375,-5171.298828125,-4726.2509765625,-2557.436767578125,-2400.080322265625,-6752.80908203125,-381.4697265625,7868.607421875,6644.7255859375,2601.146728515625,3718.53515625,1253.2869873046875,7053.21630859375,-1002.1527709960938,19783.974609375,-6264.05078125,-0.0,-4421.0751953125,9671.0517578125,-2033.71044921875,-1530.647216796875,1661.7774658203125,8873.1455078125,-6428.5595703125,3133.61474609375,-4568.10009765625,-27.02077293395996,-1682.4404296875,9848.27734375,-5338.98681640625,-14454.5244140625,-7519.72216796875,-805.06005859375,-157.35626220703125,-7596.81103515625,-1951.0587158203125,-3480.9111328125,-10313.9873046875,4702.4091796875,1506.0106201171875,1456.737548828125,-7256.66650390625,530.083984375,0.0,-1773.834228515625,0.0,-2677.440673828125,-0.0,991.8212890625
-11694.431640625,-13401.5087890625,-4459.22216796875,1060.16796875,1076.0625,15413.7607421875,-2190.27197265625,1248.5185546875,-224.90818786621094,5721.2509765625,-8364.5185546875,-7936.16015625,-5218.18798828125,3951.390625,157.35626220703125,-6690.8203125,2225.239990234375,3630.3203125,5955.6962890625,17200.3125,4563.33154296875,10964.8701171875,2795.855224609375,16370.615234375,-5151.4306640625,-4728.63525390625,-2559.026123046875,-2402.464599609375,-6752.80908203125,-385.443359375,7868.607421875,6647.10986328125,2603.53076171875,3717.740234375,1254.081787109375,7054.0107421875,-1002.9474487304688,19784.76953125,-6267.2294921875,-0.0,-4416.30712890625,9670.2578125,-2040.068359375,-1532.2366943359375,1660.1881103515625,8874.734375,-6420.6123046875,3140.767333984375,-4564.9208984375,-37.35224533081055,-1680.0562744140625,9853.83984375,-3116.130859375,-14456.11328125,-7522.10595703125,-817.7757568359375,-151.7931671142578,-7594.4267578125,-1943.9061279296875,-3493.626953125,-10317.166015625,4702.4091796875,1505.2159423828125,1450.3797607421875,-7269.38232421875,522.931396484375,0.0,-1767.4764404296875,0.0,-2683.003662109375,-0.0,987.84765625
-11696.021484375,-13430.1181640625,-4462.40087890625,1062.5521240234375,1067.3204345703125,15408.1982421875,-2195.835205078125,1246.92919921875,-228.8818359375,5712.50927734375,-8354.9814453125,-7939.3388671875,-5207.0615234375,3951.390625,155.7667999267578,-6703.53564453125,2221.2666015625,3625.552001953125,5950.1328125,17197.927734375,4556.97412109375,10961.69140625,2788.70263671875,16366.6396484375,-5158.5830078125,-4735.7880859375,-2564.58935546875,-2406.438232421875,-6748.8349609375,-390.21173095703125,7865.4287109375,6645.5205078125,2600.35205078125,3715.356201171875,1246.1343994140625,7048.4482421875,-1010.894775390625,19783.177734375,-6264.84521484375,-0.0,-4420.2802734375,9666.283203125,-2051.1943359375,-1538.5946044921875,1655.419677734375,8874.734375,-6419.02294921875,3143.151611328125,-4569.689453125,-47.6837158203125,-1680.8509521484375,9852.25,-2313.454833984375,-14464.85546875,-7517.337890625,-829.6966552734375,-142.2564239501953,-7607.93701171875,-1955.8270263671875,-3479.32177734375,-10326.703125,4698.435546875,1499.65283203125,1444.0218505859375,-7269.38232421875,512.5999755859375,0.0,-1761.1185302734375,0.0,-2682.208984375,-0.0,983.0792846679688
-11632.4423828125,-13328.392578125,-4473.52734375,1072.883544921875,1070.4993896484375,15413.7607421875,-2194.24560546875,1249.3133544921875,-225.7029266357422,5725.22509765625,-8353.392578125,-7935.36474609375,-5226.93017578125,3954.5693359375,155.7667999267578,-6706.71484375,2223.650634765625,3627.93603515625,5953.31201171875,17201.10546875,4556.17919921875,10964.8701171875,2791.0869140625,16369.0244140625,-5163.3515625,-4723.86669921875,-2561.41015625,-2404.053955078125,-6754.3984375,-373.5224304199219,7869.40283203125,6647.10986328125,2599.55712890625,3717.740234375,1246.92919921875,7050.03759765625,-1008.5106201171875,19786.357421875,-6253.71923828125,-0.0,-4418.69091796875,9671.0517578125,-2043.2471923828125,-1535.4156494140625,1660.1881103515625,8881.091796875,-6410.28076171875,3151.8935546875,-4567.30517578125,-37.35224533081055,-1680.8509521484375,9848.27734375,-3196.3984375,-14454.5244140625,-7522.10595703125,-822.5440673828125,-151.7931671142578,-7603.16845703125,-1947.8797607421875,-3459.45361328125,-10317.9619140625,4700.02490234375,1506.0106201171875,1451.1744384765625,-7253.48828125,522.931396484375,0.0,-1748.4029541015625,0.0,-2652.00927734375,-0.0,998.973876953125
-11665.0263671875,-13269.583984375,-4480.68017578125,1062.5521240234375,1058.5784912109375,15407.4033203125,-2202.193115234375,1240.5714111328125,-229.6765594482422,5722.0458984375,-8349.4189453125,-7945.69677734375,-5230.10888671875,3950.595947265625,141.46168518066406,-6713.072265625,2211.729736328125,3616.01513671875,5946.9541015625,17197.1328125,4548.2314453125,10952.94921875,2783.139404296875,16361.078125,-5176.0673828125,-4727.04541015625,-2574.1259765625,-2415.18017578125,-6765.5244140625,-386.23809814453125,7858.2763671875,6632.8046875,2590.0205078125,3705.8193359375,1237.3924560546875,7040.50048828125,-1015.6631469726562,19777.6171875,-6266.43505859375,-0.0,-4430.6123046875,9663.10546875,-2054.37353515625,-1543.3629150390625,1653.0355224609375,8872.349609375,-6433.328125,3140.767333984375,-4584.7890625,-39.73643112182617,-1694.361328125,9840.3291015625,-4460.0166015625,-14452.1396484375,-7532.43798828125,-826.5177612304688,-170.8666534423828,-7622.2421875,-1957.41650390625,-3473.7587890625,-10315.5771484375,4691.28271484375,1498.858154296875,1446.406005859375,-7256.66650390625,516.5736083984375,0.0,-1756.3502197265625,0.0,-2663.135498046875,-0.0,994.2054443359375
-11693.63671875,-13281.5048828125,-4477.5009765625,1049.041748046875,1054.6048583984375,15402.634765625,-2210.14013671875,1236.59765625,-232.0607452392578,5713.30419921875,-8366.1083984375,-7953.6435546875,-5241.2353515625,3946.622314453125,131.13021850585938,-6720.22509765625,2204.5771484375,3610.451904296875,5942.98046875,17190.775390625,4543.46337890625,10947.38671875,2776.78173828125,16356.3095703125,-5183.2197265625,-4732.60888671875,-2576.51025390625,-2420.7431640625,-6759.96142578125,-399.74847412109375,7852.71337890625,6625.65234375,2585.251953125,3700.25634765625,1231.829345703125,7036.52734375,-1022.0209350585938,19772.84765625,-6269.61376953125,-0.0,-4436.1748046875,9658.3369140625,-2060.731201171875,-1547.3365478515625,1646.6776123046875,8865.9921875,-6438.89111328125,3126.462158203125,-4586.37841796875,-41.32588577270508,-1704.69287109375,9836.3564453125,-5694.23046875,-14450.5498046875,-7527.66943359375,-817.7757568359375,-182.78758239746094,-7625.4208984375,-1978.07958984375,-3485.6796875,-10325.1142578125,4683.3359375,1492.500244140625,1440.843017578125,-7258.25634765625,513.3946533203125,0.0,-1776.2183837890625,0.0,-2694.924560546875,-0.0,986.2581787109375
