-12413.6611328125,-15103.8173828125,-5228.51953125,-526.905029296875,187.5559539794922,12326.240234375,-4390.0810546875,-1320.8388671875,-1259.6448974609375,5285.73974609375,-7751.78271484375,-10275.0458984375,-4418.69091796875,4477.5009765625,-62.78356170654297,-8341.4716796875,-424.38507080078125,413.2588806152344,3310.83935546875,14326.572265625,2522.468505859375,8212.7255859375,-472.863525390625,13225.873046875,-3453.095703125,-5873.04443359375,-4010.995361328125,-3610.451904296875,-6711.48291015625,-2213.319091796875,5038.57958984375,3909.269775390625,443.45855712890625,1168.2509765625,-1920.0643310546875,4486.24267578125,-3192.4248046875,16566.119140625,-5961.25927734375,-0.0,-6105.10498046875,6479.421875,-4874.865234375,-4444.1220703125,373.5224304199219,6302.19775390625,-6445.2490234375,1487.73193359375,-5717.27734375,-2386.570068359375,-1926.422119140625,7357.59716796875,4229.54541015625,-14951.2294921875,-7247.1298828125,-1078.44677734375,678.6982421875,-8100.6689453125,-1962.9796142578125,-4121.46240234375,-12838.0458984375,1617.272705078125,-476.04241943359375,1142.8197021484375,-8685.5888671875,-1740.45556640625,0.0,-2066.29443359375,0.0,-3271.10302734375,-0.0,922.679931640625
-12382.6669921875,-15126.8642578125,-5228.51953125,-551.5416259765625,181.1981201171875,12312.7294921875,-4397.2333984375,-1332.7598876953125,-1264.4132080078125,5260.30859375,-7777.2138671875,-10284.5830078125,-4427.43310546875,4485.4482421875,-61.19409942626953,-8347.8291015625,-436.3059997558594,404.516845703125,3301.302734375,14317.830078125,2516.110595703125,8201.599609375,-480.810791015625,13213.1572265625,-3454.685302734375,-5885.759765625,-4014.96875,-3629.525390625,-6724.19873046875,-2228.4189453125,5027.453125,3896.55419921875,432.3323669433594,1157.9195556640625,-1928.8062744140625,4471.9375,-3197.98779296875,16555.78515625,-6003.3798828125,-0.0,-6105.89990234375,6465.1171875,-4882.017578125,-4458.42724609375,367.16461181640625,6287.892578125,-6436.5068359375,1465.4794921875,-5723.63525390625,-2402.464599609375,-1926.422119140625,7342.49755859375,2678.2353515625,-14973.4814453125,-7263.02490234375,-1103.083251953125,675.519287109375,-8102.2578125,-1961.3902587890625,-4146.09912109375,-12849.171875,1606.146484375,-487.16864013671875,1169.0457763671875,-8684.7939453125,-1759.529052734375,0.0,-2079.8046875,0.0,-3293.355224609375,-0.0,940.1639404296875
-12376.30859375,-15082.359375,-5218.98291015625,-540.4154663085938,193.9137725830078,12320.677734375,-4386.90185546875,-1322.4283447265625,-1258.0552978515625,5281.7666015625,-7777.2138671875,-10282.19921875,-4407.564453125,4485.4482421875,-37.35224533081055,-8333.5234375,-429.94818115234375,414.0535888671875,3310.04443359375,14329.7509765625,2527.23681640625,8209.5458984375,-471.2740478515625,13222.6943359375,-3430.048583984375,-5880.197265625,-3995.8955078125,-3616.809814453125,-6705.12548828125,-2221.2666015625,5035.400390625,3907.680419921875,442.663818359375,1167.456298828125,-1919.26953125,4481.474609375,-3186.86181640625,16565.322265625,-5995.4326171875,-0.0,-6091.5947265625,6469.0908203125,-4868.50732421875,-4448.095703125,378.2908020019531,6296.634765625,-6434.91748046875,1474.2215576171875,-5706.1513671875,-2396.106689453125,-1904.169677734375,7355.21337890625,1991.58984375,-14963.150390625,-7243.951171875,-1118.9779052734375,696.9769897460938,-8104.64208984375,-1941.52197265625,-4142.919921875,-12826.125,1610.914794921875,-480.0160827636719,1164.2774658203125,-8679.23046875,-1749.992431640625,0.0,-2083.7783203125,0.0,-3288.5869140625,-0.0,942.548095703125
-12426.3759765625,-15065.669921875,-5212.625,-546.7732543945312,205.03997802734375,12331.8037109375,-4369.41748046875,-1310.5074462890625,-1242.95556640625,5303.22412109375,-7782.77734375,-10270.2783203125,-4390.87548828125,4487.83251953125,-4.76837158203125,-8308.8876953125,-417.2325134277344,425.9745178222656,3325.14453125,14344.0556640625,2534.389404296875,8220.6728515625,-457.763671875,13234.615234375,-3409.3857421875,-5859.53369140625,-3979.2060546875,-3600.12060546875,-6685.2568359375,-2233.982177734375,5046.5263671875,3922.780517578125,452.2005615234375,1176.9930419921875,-1909.7327880859375,4494.1904296875,-3170.17236328125,16581.216796875,-5948.54345703125,-0.0,-6090.00537109375,6486.57470703125,-4853.4072265625,-4434.58544921875,397.3642883300781,6311.73486328125,-6428.5595703125,1464.684814453125,-5695.02490234375,-2404.053955078125,-1873.17529296875,7369.51806640625,2550.2841796875,-14945.666015625,-7222.49365234375,-1132.48828125,721.6135864257812,-8085.568359375,-1908.1434326171875,-4123.8466796875,-12818.97265625,1623.6304931640625,-460.9425964355469,1171.429931640625,-8668.8994140625,-1735.687255859375,0.0,-2071.062744140625,0.0,-3275.07666015625,-0.0,950.4954223632812
-12383.4609375,-15190.4423828125,-5226.93017578125,-573.7940673828125,198.68214416503906,12334.982421875,-4372.5966796875,-1313.6864013671875,-1241.3660888671875,5298.45556640625,-7776.4189453125,-10272.662109375,-4390.0810546875,4481.474609375,-9.5367431640625,-8320.80859375,-419.61669921875,420.41143798828125,3322.76025390625,14340.8779296875,2528.031494140625,8222.2626953125,-460.1478576660156,13231.4365234375,-3408.591064453125,-5842.8447265625,-3980.79541015625,-3602.504638671875,-6689.23046875,-2262.59228515625,5043.34765625,3921.190673828125,443.45855712890625,1175.403564453125,-1913.7064208984375,4495.779296875,-3173.351318359375,16576.44921875,-5920.72802734375,-0.0,-6105.10498046875,6500.8798828125,-4856.58642578125,-4435.38037109375,396.569580078125,6305.37646484375,-6426.17578125,1434.485107421875,-5698.2041015625,-2400.875,-1875.5594482421875,7364.75,3739.992919921875,-14967.1240234375,-7226.46728515625,-1132.48828125,729.5608520507812,-8087.95263671875,-1914.501220703125,-4132.5888671875,-12846.787109375,1622.0411376953125,-460.9425964355469,1165.8668212890625,-8683.9990234375,-1738.8662109375,0.0,-2077.42041015625,0.0,-3285.407958984375,-0.0,942.548095703125
-12301.6044921875,-15118.9169921875,-5219.77734375,-541.210205078125,205.83470153808594,12333.3935546875,-4368.623046875,-1309.7127685546875,-1233.4188232421875,5304.0185546875,-7740.65625,-10270.2783203125,-4404.38623046875,4498.95849609375,-22.25240135192871,-8317.6298828125,-419.61669921875,425.1798095703125,3326.73388671875,14353.5927734375,2533.5947265625,8222.2626953125,-455.3794860839844,13234.615234375,-3413.359375,-5854.765625,-3973.642822265625,-3602.504638671875,-6681.28369140625,-2249.876708984375,5045.73193359375,3919.6015625,447.43218994140625,1176.9930419921875,-1908.1434326171875,4496.57421875,-3169.377685546875,16579.62890625,-5947.74853515625,-0.0,-6097.9521484375,6489.75390625,-4851.0234375,-4432.99609375,398.1590270996094,6313.32421875,-6440.48046875,1476.605712890625,-5685.48828125,-2372.264892578125,-1887.4803466796875,7367.92919921875,4360.67578125,-14983.017578125,-7220.109375,-1123.7462158203125,724.79248046875,-8068.0849609375,-1935.9588623046875,-4124.6416015625,-12856.32421875,1626.0146484375,-456.96893310546875,1173.0194091796875,-8690.357421875,-1740.45556640625,0.0,-2062.32080078125,0.0,-3274.28173828125,-0.0,948.9059448242188
-12275.3779296875,-14989.3759765625,-5222.9560546875,-517.3682861328125,209.0136260986328,12331.8037109375,-4361.470703125,-1302.5601806640625,-1231.829345703125,5309.58154296875,-7716.814453125,-10263.919921875,-4402.79638671875,4491.01123046875,-2.384185791015625,-8296.171875,-421.2061462402344,429.94818115234375,3332.297119140625,14359.951171875,2533.5947265625,8222.2626953125,-452.99530029296875,13239.3837890625,-3418.127685546875,-5870.66015625,-3965.69580078125,-3592.968017578125,-6681.28369140625,-2212.5244140625,5047.3212890625,3918.806640625,447.43218994140625,1174.60888671875,-1905.7591552734375,4497.369140625,-3163.019775390625,16586.78125,-5968.412109375,-0.0,-6101.92626953125,6481.80615234375,-4846.2548828125,-4429.0224609375,402.9273986816406,6322.06591796875,-6447.63330078125,1502.831787109375,-5679.92529296875,-2378.622802734375,-1866.8175048828125,7376.6708984375,4204.1142578125,-14967.91796875,-7220.90380859375,-1096.7254638671875,732.73974609375,-8056.16357421875,-1935.1640625,-4115.1044921875,-12848.376953125,1631.577880859375,-451.4058532714844,1176.1983642578125,-8676.8466796875,-1736.4820556640625,0.0,-2066.29443359375,0.0,-3271.10302734375,-0.0,954.4690551757812
-12319.087890625,-14988.58203125,-5244.4140625,-520.5472412109375,187.5559539794922,12323.0615234375,-4374.18603515625,-1310.5074462890625,-1237.3924560546875,5306.40283203125,-7713.6357421875,-10278.224609375,-4399.61767578125,4490.216796875,-26.226043701171875,-8326.37109375,-433.1270751953125,419.61669921875,3323.554931640625,14355.1826171875,2518.494873046875,8209.5458984375,-468.09515380859375,13227.462890625,-3439.58544921875,-5892.91259765625,-3992.71630859375,-3606.478515625,-6690.025390625,-2200.603515625,5033.01611328125,3905.29638671875,432.3323669433594,1161.8931884765625,-1920.8590087890625,4485.4482421875,-3177.324951171875,16576.44921875,-5976.35888671875,-0.0,-6121.79443359375,6469.0908203125,-4863.7392578125,-4440.943359375,393.3906555175781,6318.09228515625,-6457.169921875,1496.473876953125,-5710.125,-2392.927978515625,-1890.6593017578125,7366.33935546875,4063.447509765625,-14942.486328125,-7228.056640625,-1079.241455078125,715.2557373046875,-8083.9794921875,-1934.369384765625,-4113.51513671875,-12860.2978515625,1618.8621826171875,-459.3531188964844,1176.9930419921875,-8672.078125,-1744.42919921875,0.0,-2058.346923828125,0.0,-3271.10302734375,-0.0,952.8795776367188
-12442.271484375,-15048.1865234375,-5253.15625,-539.6207275390625,180.4033966064453,12307.9619140625,-4383.72265625,-1327.19677734375,-1241.3660888671875,5301.63427734375,-7717.609375,-10287.76171875,-4408.359375,4487.83251953125,-34.1733283996582,-8339.8818359375,-445.0480041503906,405.31158447265625,3313.2236328125,14348.82421875,2508.9580078125,8196.8310546875,-476.837158203125,13214.7470703125,-3453.095703125,-5899.2705078125,-3999.868896484375,-3623.96240234375,-6695.58837890625,-2212.5244140625,5022.6845703125,3890.9912109375,422.0008850097656,1151.561767578125,-1929.60107421875,4474.32177734375,-3186.86181640625,16562.142578125,-5972.38525390625,-0.0,-6128.15234375,6456.375,-4870.8916015625,-4457.63232421875,387.0328369140625,6302.19775390625,-6466.70654296875,1478.1951904296875,-5714.8935546875,-2418.359130859375,-1899.4013671875,7352.0341796875,4209.67724609375,-14935.333984375,-7232.82470703125,-1086.3939208984375,710.4873657226562,-8110.20556640625,-1929.60107421875,-4136.5625,-12857.119140625,1605.351806640625,-468.09515380859375,1170.63525390625,-8666.515625,-1758.734375,0.0,-2056.757568359375,0.0,-3271.8974609375,-0.0,950.4954223632812
-12462.93359375,-15114.1484375,-5276.203125,-558.6942138671875,160.53517150878906,12296.8359375,-4399.61767578125,-1333.5545654296875,-1246.1343994140625,5282.56103515625,-7754.96142578125,-10299.6826171875,-4443.32763671875,4487.03759765625,-54.04154586791992,-8319.21875,-456.1742248535156,388.6222839355469,3298.91845703125,14342.4677734375,2491.47412109375,8186.49951171875,-494.3211669921875,13204.4150390625,-3470.579833984375,-5913.57568359375,-4021.32666015625,-3629.525390625,-6726.5830078125,-2223.650634765625,5009.17431640625,3879.0703125,406.9010314941406,1140.435546875,-1943.9061279296875,4461.6064453125,-3200.3720703125,16552.607421875,-5982.716796875,-0.0,-6145.63623046875,6444.4541015625,-4889.17041015625,-4464.78515625,374.3171691894531,6295.04541015625,-6486.57470703125,1457.5322265625,-5737.14599609375,-2426.306396484375,-1920.8590087890625,7352.8291015625,4224.77734375,-14948.05078125,-7263.8193359375,-1099.9044189453125,685.0560302734375,-8101.46337890625,-1947.8797607421875,-4147.6884765625,-12868.2451171875,1590.251953125,-480.0160827636719,1154.74072265625,-8683.9990234375,-1776.2183837890625,0.0,-2089.34130859375,0.0,-3307.660400390625,-0.0,922.679931640625
-12375.513671875,-15134.0166015625,-5284.150390625,-567.4362182617188,146.2300567626953,12277.7626953125,-4419.4853515625,-1360.5753173828125,-1261.2342529296875,5267.46142578125,-7770.8564453125,-10310.8095703125,-4467.16943359375,4480.68017578125,-89.00960540771484,-8383.591796875,-462.53204345703125,377.49609375,3279.050048828125,14321.8037109375,2479.55322265625,8171.39892578125,-509.4210510253906,13185.341796875,-3481.705810546875,-5928.67529296875,-4045.16845703125,-3658.1357421875,-6740.88818359375,-2231.597900390625,4995.6640625,3875.891357421875,398.1590270996094,1129.309326171875,-1957.41650390625,4444.1220703125,-3218.65087890625,16531.1484375,-6019.2744140625,-0.0,-6156.7626953125,6426.17578125,-4907.44921875,-4487.83251953125,355.2436828613281,6271.998046875,-6492.1376953125,1448.7901611328125,-5754.62939453125,-2434.253662109375,-1953.44287109375,7315.47705078125,4777.11328125,-14953.61328125,-7278.91943359375,-1111.8253173828125,644.52490234375,-8122.9208984375,-1976.489990234375,-4168.3515625,-12896.060546875,1575.152099609375,-498.2948303222656,1130.10400390625,-8703.072265625,-1791.3182373046875,0.0,-2111.593994140625,0.0,-3320.376220703125,-0.0,898.0433349609375
-12304.783203125,-15083.1533203125,-5265.0771484375,-557.104736328125,163.71409606933594,12295.24609375,-4404.38623046875,-1347.8597412109375,-1256.4659423828125,5280.1767578125,-7768.47216796875,-10294.1201171875,-4434.58544921875,4471.14306640625,-61.98883056640625,-8382.796875,-451.4058532714844,387.8275451660156,3290.17626953125,14328.162109375,2492.268798828125,8184.115234375,-495.91064453125,13196.46875,-3465.0166015625,-5905.62841796875,-4019.7373046875,-3644.62548828125,-6721.814453125,-2230.80322265625,5005.9951171875,3887.017578125,410.87469482421875,1141.230224609375,-1946.2904052734375,4458.42724609375,-3205.140380859375,16543.0703125,-6007.353515625,-0.0,-6142.45751953125,6442.06982421875,-4891.55419921875,-4473.52734375,364.7804260253906,6283.9189453125,-6461.9384765625,1460.711181640625,-5734.76171875,-2413.590576171875,-1928.0115966796875,7327.39794921875,5853.17626953125,-14940.1025390625,-7259.845703125,-1099.9044189453125,678.6982421875,-8116.56298828125,-1963.7744140625,-4164.3779296875,-12887.318359375,1587.072998046875,-485.57916259765625,1132.48828125,-8697.509765625,-1780.1920166015625,0.0,-2102.05712890625,0.0,-3309.25,-0.0,912.3484497070312
-12303.98828125,-15056.927734375,-5253.95068359375,-557.104736328125,173.25083923339844,12300.80859375,-4395.6435546875,-1337.5281982421875,-1255.671142578125,5297.66064453125,-7756.55126953125,-10278.224609375,-4412.3330078125,4470.34814453125,-46.88898849487305,-8359.75,-449.02166748046875,393.3906555175781,3298.12353515625,14335.314453125,2500.21630859375,8186.49951171875,-489.55279541015625,13200.4423828125,-3452.301025390625,-5902.44921875,-4007.81640625,-3635.88330078125,-6717.04638671875,-2227.624267578125,5010.763671875,3892.580810546875,416.4377746582031,1145.2039794921875,-1937.54833984375,4462.40087890625,-3197.98779296875,16549.4296875,-5987.4853515625,-0.0,-6132.9208984375,6448.427734375,-4882.017578125,-4467.96435546875,372.72772216796875,6292.6611328125,-6465.912109375,1459.91650390625,-5722.0458984375,-2414.385498046875,-1912.116943359375,7338.52392578125,7460.912109375,-14928.9765625,-7253.48828125,-1103.083251953125,703.3348388671875,-8097.4892578125,-1959.80078125,-4150.07275390625,-12858.7080078125,1593.430908203125,-477.63189697265625,1144.4091796875,-8690.357421875,-1765.09228515625,0.0,-2094.10986328125,0.0,-3290.17626953125,-0.0,935.3955688476562
-12368.361328125,-15045.0068359375,-5244.4140625,-561.078369140625,170.07191467285156,12307.1669921875,-4394.05419921875,-1327.991455078125,-1248.5185546875,5309.58154296875,-7756.55126953125,-10275.0458984375,-4400.412109375,4480.68017578125,-46.09425735473633,-8342.265625,-446.6374816894531,394.1853942871094,3303.686767578125,14348.0302734375,2501.8056640625,8189.67822265625,-488.7580871582031,13207.5947265625,-3445.943115234375,-5888.14404296875,-4015.763671875,-3624.757080078125,-6717.04638671875,-2224.4453125,5013.94287109375,3890.9912109375,418.82196044921875,1146.7933349609375,-1938.343017578125,4466.375,-3196.3984375,16554.990234375,-5970.7958984375,-0.0,-6131.3310546875,6453.1962890625,-4883.607421875,-4461.6064453125,378.2908020019531,6302.9921875,-6469.88525390625,1455.1480712890625,-5729.1982421875,-2411.20654296875,-1910.527587890625,7351.23974609375,9005.8642578125,-14925.7978515625,-7252.693359375,-1112.6199951171875,697.771728515625,-8080.80029296875,-1953.44287109375,-4134.97314453125,-12857.9140625,1593.430908203125,-471.2740478515625,1162.6878662109375,-8692.7412109375,-1754.7607421875,0.0,-2086.16259765625,0.0,-3274.28173828125,-0.0,949.70068359375
-12377.8984375,-15048.1865234375,-5249.97705078125,-548.3627319335938,171.661376953125,12316.7041015625,-4395.6435546875,-1327.19677734375,-1245.3397216796875,5304.8134765625,-7762.9091796875,-10279.814453125,-4411.53857421875,4488.626953125,-49.27317428588867,-8342.265625,-444.2532958984375,397.3642883300781,3303.686767578125,14349.6201171875,2505.779296875,8196.0361328125,-487.16864013671875,13213.1572265625,-3445.943115234375,-5850.7919921875,-4014.174072265625,-3614.42578125,-6723.40380859375,-2226.034912109375,5017.12158203125,3890.196533203125,421.2061462402344,1150.7669677734375,-1935.9588623046875,4472.732421875,-3194.80908203125,16558.96484375,-5966.02783203125,-0.0,-6130.53662109375,6467.5009765625,-4882.017578125,-4452.8642578125,378.2908020019531,6301.40283203125,-6457.169921875,1470.2479248046875,-5726.814453125,-2400.080322265625,-1915.2958984375,7352.0341796875,9516.080078125,-14930.5654296875,-7259.05078125,-1122.9515380859375,685.8507690429688,-8094.310546875,-1955.0323486328125,-4124.6416015625,-12871.4248046875,1592.6361083984375,-472.06878662109375,1178.58251953125,-8690.357421875,-1755.5555419921875,0.0,-2079.010009765625,0.0,-3274.28173828125,-0.0,950.4954223632812
-12385.8447265625,-15041.0341796875,-5259.513671875,-549.157470703125,165.3035430908203,12304.783203125,-4404.38623046875,-1340.7071533203125,-1262.82373046875,5279.38232421875,-7771.65087890625,-10286.171875,-4428.22802734375,4460.0166015625,-56.42573165893555,-8357.365234375,-449.8163757324219,388.6222839355469,3292.560546875,14329.7509765625,2499.42138671875,8187.2939453125,-495.91064453125,13202.03125,-3458.658935546875,-5877.81298828125,-4018.14794921875,-3631.114990234375,-6722.60888671875,-2231.597900390625,5009.96923828125,3886.222900390625,414.84832763671875,1146.7933349609375,-1944.7008056640625,4464.78515625,-3203.551025390625,16547.837890625,-5971.59033203125,-0.0,-6140.0732421875,6457.169921875,-4889.96484375,-4463.19580078125,367.16461181640625,6285.5087890625,-6469.0908203125,1467.8636474609375,-5732.37744140625,-2410.411865234375,-1923.2431640625,7340.11328125,9739.3994140625,-14952.8193359375,-7259.845703125,-1132.48828125,670.7509155273438,-8096.69482421875,-1965.36376953125,-4155.6357421875,-12879.3720703125,1585.4835205078125,-486.3739013671875,1134.8724365234375,-8687.1787109375,-1768.2711181640625,0.0,-2107.6201171875,0.0,-3317.991943359375,-0.0,904.401123046875
-12427.9658203125,-15040.23828125,-5257.92431640625,-553.9258422851562,165.3035430908203,12307.1669921875,-4398.02783203125,-1325.6072998046875,-1254.081787109375,5300.044921875,-7793.9033203125,-10272.662109375,-4419.4853515625,4456.837890625,-48.47844314575195,-8331.1396484375,-449.02166748046875,392.5959167480469,3302.097412109375,14346.4404296875,2501.010986328125,8190.47265625,-490.3475646972656,13209.18359375,-3448.327392578125,-5915.9599609375,-4014.96875,-3615.22021484375,-6712.27783203125,-2217.292724609375,5010.763671875,3888.60693359375,416.4377746582031,1145.9986572265625,-1939.1378173828125,4467.96435546875,-3199.577392578125,16558.96484375,-5985.10107421875,-0.0,-6136.89404296875,6453.99072265625,-4885.99169921875,-4455.24853515625,372.72772216796875,6302.19775390625,-6474.65380859375,1460.711181640625,-5730.78759765625,-2390.543701171875,-1913.7064208984375,7358.39208984375,10328.29296875,-14948.05078125,-7251.10400390625,-1098.31494140625,696.1822509765625,-8068.87890625,-1958.211181640625,-4142.12548828125,-12864.2724609375,1592.6361083984375,-473.6582336425781,1118.18310546875,-8695.919921875,-1754.7607421875,0.0,-2129.87255859375,0.0,-3326.73388671875,-0.0,895.6591186523438
-12436.70703125,-15084.7431640625,-5240.4404296875,-549.9522094726562,176.42974853515625,12310.345703125,-4390.0810546875,-1324.017822265625,-1246.1343994140625,5329.4501953125,-7817.7451171875,-10276.634765625,-4423.45947265625,4460.0166015625,-34.96805953979492,-8325.5771484375,-443.45855712890625,398.1590270996094,3307.660400390625,14366.3095703125,2508.9580078125,8194.4462890625,-483.9897155761719,13210.7734375,-3422.896240234375,-5903.244140625,-4003.0478515625,-3612.836181640625,-6713.8671875,-2215.703369140625,5016.3271484375,3894.170166015625,424.38507080078125,1152.3564453125,-1935.1640625,4471.14306640625,-3190.835205078125,16563.734375,-5999.40625,-0.0,-6124.17822265625,6459.55419921875,-4877.2490234375,-4454.4541015625,381.4697265625,6306.17138671875,-6450.81201171875,1467.0689697265625,-5722.8408203125,-2394.51708984375,-1900.196044921875,7356.80224609375,10716.12109375,-14946.4609375,-7253.48828125,-1079.241455078125,710.4873657226562,-8052.9853515625,-1949.46923828125,-4129.40966796875,-12849.966796875,1596.6097412109375,-464.9162292480469,1128.5146484375,-8710.2255859375,-1756.3502197265625,0.0,-2119.541259765625,0.0,-3307.660400390625,-0.0,913.9378662109375
-12410.4814453125,-15106.201171875,-5226.13525390625,-542.0048828125,184.3770294189453,12314.3193359375,-4386.10693359375,-1324.8125,-1250.90283203125,5320.7080078125,-7785.16162109375,-10281.4033203125,-4429.8173828125,4458.42724609375,-27.02077293395996,-8333.5234375,-432.3323669433594,403.7221374511719,3308.455322265625,14353.5927734375,2516.905517578125,8200.8046875,-478.4266052246094,13213.9521484375,-3431.637939453125,-5898.4755859375,-3995.8955078125,-3614.42578125,-6710.68798828125,-2214.90869140625,5022.6845703125,3906.8857421875,435.5112609863281,1158.71435546875,-1928.8062744140625,4477.5009765625,-3185.272216796875,16563.734375,-5976.35888671875,-0.0,-6115.4365234375,6463.52783203125,-4870.8916015625,-4452.06982421875,383.0591735839844,6305.37646484375,-6450.017578125,1474.2215576171875,-5712.50927734375,-2393.72265625,-1891.4541015625,7354.41845703125,11502.90234375,-14946.4609375,-7247.9248046875,-1070.4993896484375,694.5927734375,-8052.18994140625,-1933.57470703125,-4119.078125,-12838.0458984375,1601.3780517578125,-466.50567626953125,1125.335693359375,-8701.4833984375,-1761.1185302734375,0.0,-2086.16259765625,0.0,-3282.229248046875,-0.0,917.1168212890625
-12380.2822265625,-15079.9755859375,-5242.82470703125,-549.157470703125,178.0192108154297,12304.783203125,-4394.05419921875,-1342.296630859375,-1265.2078857421875,5274.61376953125,-7748.60400390625,-10282.9931640625,-4432.99609375,4461.6064453125,-46.88898849487305,-8362.1337890625,-437.1007385253906,399.74847412109375,3298.12353515625,14313.0615234375,2510.547607421875,8197.625,-484.7844543457031,13204.4150390625,-3445.1484375,-5906.4228515625,-4007.81640625,-3637.472900390625,-6702.7412109375,-2217.292724609375,5017.12158203125,3904.501708984375,428.35870361328125,1155.535400390625,-1933.57470703125,4472.732421875,-3195.603515625,16550.22265625,-5948.54345703125,-0.0,-6124.97314453125,6457.96435546875,-4878.8388671875,-4464.78515625,371.9329833984375,6282.32958984375,-6465.912109375,1466.2742919921875,-5714.0986328125,-2401.669677734375,-1912.116943359375,7335.3447265625,13200.4423828125,-14944.87109375,-7239.9775390625,-1091.162353515625,681.0823974609375,-8068.0849609375,-1940.727294921875,-4146.89404296875,-12861.0927734375,1593.430908203125,-484.7844543457031,1129.309326171875,-8695.919921875,-1765.886962890625,0.0,-2064.704833984375,0.0,-3289.3818359375,-0.0,905.9906005859375
-12364.3876953125,-15103.8173828125,-5228.51953125,-557.104736328125,185.17176818847656,12312.7294921875,-4388.4912109375,-1337.5281982421875,-1256.4659423828125,5269.845703125,-7743.83544921875,-10271.072265625,-4410.74365234375,4481.474609375,-32.5838737487793,-8353.392578125,-434.716552734375,410.87469482421875,3304.4814453125,14315.4462890625,2517.7001953125,8203.9833984375,-477.63189697265625,13210.7734375,-3427.66455078125,-5892.91259765625,-4000.663818359375,-3631.114990234375,-6694.7939453125,-2210.934814453125,5023.4794921875,3897.34912109375,433.1270751953125,1157.9195556640625,-1924.8326416015625,4479.88525390625,-3189.245849609375,16553.40234375,-5978.7431640625,-0.0,-6116.2314453125,6465.1171875,-4872.48095703125,-4458.42724609375,375.9066162109375,6283.9189453125,-6433.328125,1455.1480712890625,-5706.94580078125,-2400.080322265625,-1899.4013671875,7341.703125,14428.2978515625,-14946.4609375,-7233.61962890625,-1099.9044189453125,701.745361328125,-8064.90625,-1958.211181640625,-4152.45654296875,-12874.603515625,1601.3780517578125,-479.2213439941406,1151.561767578125,-8689.5625,-1752.3765869140625,0.0,-2061.526123046875,0.0,-3288.5869140625,-0.0,914.7326049804688
-12401.740234375,-15100.638671875,-5218.18798828125,-550.7469482421875,191.5295867919922,12319.8828125,-4377.365234375,-1321.6336669921875,-1242.1607666015625,5300.044921875,-7761.31982421875,-10259.9462890625,-4377.365234375,4479.09033203125,-0.7947285771369934,-8331.9345703125,-427.5639953613281,419.61669921875,3319.581298828125,14344.0556640625,2526.4423828125,8210.341796875,-466.50567626953125,13221.900390625,-3417.3330078125,-5884.17041015625,-3986.358642578125,-3617.6044921875,-6692.40966796875,-2210.14013671875,5032.22119140625,3901.322509765625,442.663818359375,1162.6878662109375,-1915.2958984375,4487.03759765625,-3176.530029296875,16567.70703125,-5954.10693359375,-0.0,-6109.0791015625,6472.26953125,-4862.9443359375,-4448.095703125,391.0064697265625,6305.37646484375,-6427.7646484375,1463.89013671875,-5707.74072265625,-2396.106689453125,-1866.8175048828125,7357.59716796875,14283.6572265625,-14938.513671875,-7232.82470703125,-1101.493896484375,738.3028564453125,-8052.18994140625,-1939.1378173828125,-4129.40966796875,-12866.65625,1611.7095947265625,-462.53204345703125,1168.2509765625,-8687.1787109375,-1746.8134765625,0.0,-2058.346923828125,0.0,-3279.050048828125,-0.0,934.600830078125
-12394.587890625,-15087.1279296875,-5233.28759765625,-542.7996215820312,183.58230590820312,12316.7041015625,-4381.33837890625,-1321.6336669921875,-1246.92919921875,5304.0185546875,-7759.72998046875,-10265.509765625,-4380.5439453125,4479.88525390625,-23.047128677368164,-8329.55078125,-429.1534423828125,415.64306640625,3314.81298828125,14345.6455078125,2519.289794921875,8207.162109375,-473.6582336425781,13221.1044921875,-3433.2275390625,-5879.40234375,-3993.51123046875,-3617.6044921875,-6703.53564453125,-2214.90869140625,5028.248046875,3902.912109375,437.89544677734375,1161.0985107421875,-1920.8590087890625,4485.4482421875,-3183.6826171875,16568.501953125,-5951.72265625,-0.0,-6120.205078125,6472.26953125,-4870.8916015625,-4449.685546875,384.6486511230469,6307.7607421875,-6448.427734375,1471.83740234375,-5718.86669921875,-2402.464599609375,-1886.6856689453125,7359.9814453125,14195.4423828125,-14929.771484375,-7242.361328125,-1107.8516845703125,727.9713745117188,-8057.75341796875,-1935.9588623046875,-4124.6416015625,-12857.9140625,1606.146484375,-467.3004150390625,1161.8931884765625,-8696.7158203125,-1746.018798828125,0.0,-2062.32080078125,0.0,-3272.6923828125,-0.0,945.72705078125
-12342.1357421875,-15064.080078125,-5249.18212890625,-545.978515625,175.63502502441406,12315.1142578125,-4386.90185546875,-1319.24951171875,-1250.90283203125,5307.19775390625,-7762.1142578125,-10266.3037109375,-4407.564453125,4466.375,-42.91534423828125,-8322.3984375,-434.716552734375,407.6957702636719,3310.83935546875,14346.4404296875,2511.34228515625,8201.599609375,-479.2213439941406,13219.515625,-3457.0693359375,-5885.759765625,-4001.458740234375,-3612.04150390625,-6705.919921875,-2210.934814453125,5023.4794921875,3902.117431640625,427.5639953613281,1157.1248779296875,-1928.8062744140625,4483.06396484375,-3188.451171875,16566.119140625,-5983.51123046875,-0.0,-6132.9208984375,6465.912109375,-4876.45458984375,-4449.685546875,379.0855407714844,6306.96630859375,-6460.3486328125,1470.2479248046875,-5717.27734375,-2398.490966796875,-1908.9381103515625,7367.92919921875,14325.7783203125,-14924.208984375,-7242.361328125,-1099.9044189453125,709.692626953125,-8053.77978515625,-1940.727294921875,-4123.05224609375,-12850.76171875,1602.1728515625,-468.09515380859375,1156.330078125,-8695.919921875,-1746.8134765625,0.0,-2066.29443359375,0.0,-3252.029296875,-0.0,955.2637939453125
-12348.4921875,-15059.3115234375,-5252.361328125,-550.7469482421875,171.661376953125,12313.525390625,-4397.2333984375,-1319.24951171875,-1255.671142578125,5294.48193359375,-7762.1142578125,-10271.072265625,-4425.048828125,4476.7060546875,-65.96247100830078,-8323.1923828125,-439.48492431640625,404.516845703125,3302.89208984375,14342.4677734375,2508.16357421875,8200.009765625,-485.57916259765625,13214.7470703125,-3454.685302734375,-5892.91259765625,-4014.96875,-3614.42578125,-6708.3037109375,-2214.114013671875,5021.09521484375,3897.34912109375,424.38507080078125,1154.74072265625,-1934.369384765625,4477.5009765625,-3198.78271484375,16562.142578125,-5999.40625,-0.0,-6132.9208984375,6461.9384765625,-4884.40185546875,-4452.8642578125,369.5487976074219,6303.787109375,-6465.1171875,1465.4794921875,-5719.66162109375,-2394.51708984375,-1932.7799072265625,7367.13427734375,13946.6923828125,-14939.30859375,-7247.9248046875,-1093.5465087890625,694.5927734375,-8063.31640625,-1963.7744140625,-4117.48876953125,-12852.3515625,1596.6097412109375,-474.4529724121094,1163.482666015625,-8703.072265625,-1752.3765869140625,0.0,-2062.32080078125,0.0,-3244.082275390625,-0.0,964.800537109375
-12373.1298828125,-15082.359375,-5270.64013671875,-558.6942138671875,162.9193572998047,12304.783203125,-4403.59130859375,-1334.3492431640625,-1255.671142578125,5288.9189453125,-7764.498046875,-10284.5830078125,-4427.43310546875,4475.11669921875,-65.96247100830078,-8343.060546875,-448.2269287109375,396.569580078125,3292.560546875,14338.4931640625,2500.21630859375,8193.65234375,-494.3211669921875,13205.2109375,-3464.221923828125,-5908.80712890625,-4017.35302734375,-3624.757080078125,-6713.8671875,-2218.08740234375,5012.353515625,3886.222900390625,414.84832763671875,1146.7933349609375,-1938.343017578125,4465.580078125,-3206.72998046875,16551.8125,-6000.20068359375,-0.0,-6140.86767578125,6455.580078125,-4892.34912109375,-4463.19580078125,367.16461181640625,6291.0712890625,-6489.75390625,1456.737548828125,-5727.609375,-2403.25927734375,-1929.60107421875,7350.44482421875,12603.6005859375,-14955.203125,-7253.48828125,-1098.31494140625,686.6455078125,-8085.568359375,-1959.006103515625,-4130.9990234375,-12861.0927734375,1587.86767578125,-481.60552978515625,1162.6878662109375,-8711.814453125,-1755.5555419921875,0.0,-2082.18896484375,0.0,-3275.871337890625,-0.0,948.1112060546875
-12425.58203125,-15076.0009765625,-5289.71337890625,-569.8204345703125,146.2300567626953,12285.708984375,-4425.048828125,-1364.549072265625,-1281.897216796875,5243.61962890625,-7774.03515625,-10299.6826171875,-4460.8115234375,4450.47998046875,-88.21487426757812,-8374.0546875,-464.1214904785156,377.49609375,3272.6923828125,14295.578125,2483.52685546875,8175.373046875,-513.3946533203125,13182.1630859375,-3481.705810546875,-5923.1123046875,-4034.04248046875,-3648.598876953125,-6727.37744140625,-2238.75048828125,4994.869140625,3866.354736328125,395.77484130859375,1131.6934814453125,-1955.8270263671875,4446.50634765625,-3227.392822265625,16526.380859375,-6013.71142578125,-0.0,-6158.35205078125,6440.48046875,-4909.83349609375,-4486.24267578125,342.52801513671875,6256.8984375,-6500.08544921875,1446.406005859375,-5741.9140625,-2428.690673828125,-1952.648193359375,7318.6552734375,10924.3388671875,-14960.765625,-7266.998046875,-1111.030517578125,658.0352783203125,-8108.61572265625,-1990.795166015625,-4177.09375,-12892.8828125,1567.204833984375,-510.21575927734375,1118.9779052734375,-8722.146484375,-1769.06591796875,0.0,-2114.772705078125,0.0,-3348.19140625,-0.0,870.227783203125
-12412.0712890625,-15102.2275390625,-5292.09765625,-565.8467407226562,141.46168518066406,12281.7353515625,-4432.201171875,-1375.6751708984375,-1299.3812255859375,5227.724609375,-7778.80322265625,-10290.9404296875,-4452.06982421875,4428.22802734375,-92.18851470947266,-8382.0029296875,-468.8898620605469,370.3435363769531,3263.950439453125,14271.736328125,2477.963623046875,8172.1943359375,-518.957763671875,13175.8046875,-3489.6533203125,-5913.57568359375,-4041.98974609375,-3659.72509765625,-6733.7353515625,-2240.340087890625,4990.10107421875,3860.79150390625,392.5959167480469,1128.5146484375,-1961.3902587890625,4440.943359375,-3232.161376953125,16517.638671875,-6015.30078125,-0.0,-6164.70947265625,6440.48046875,-4915.39599609375,-4493.3955078125,332.1965637207031,6242.59326171875,-6501.6748046875,1451.1744384765625,-5748.27197265625,-2431.074951171875,-1957.41650390625,7306.734375,9811.71875,-14956.7919921875,-7271.7666015625,-1111.8253173828125,654.0616455078125,-8114.1787109375,-2000.3319091796875,-4194.57763671875,-12905.59765625,1560.846923828125,-522.931396484375,1105.4674072265625,-8721.3515625,-1772.2447509765625,0.0,-2112.388671875,0.0,-3341.833740234375,-0.0,862.280517578125
-12357.2353515625,-15116.5322265625,-5283.35546875,-552.3363647460938,153.3826141357422,12293.65625,-4421.86962890625,-1363.7542724609375,-1289.844482421875,5230.10888671875,-7770.0615234375,-10273.45703125,-4434.58544921875,4447.30126953125,-77.08867645263672,-8366.90234375,-457.763671875,382.26446533203125,3274.28173828125,14279.68359375,2487.50048828125,8182.525390625,-507.8315734863281,13186.13671875,-3477.732421875,-5894.501953125,-4036.426513671875,-3647.009521484375,-6722.60888671875,-2230.00830078125,5001.22705078125,3875.0966796875,403.7221374511719,1138.8460693359375,-1951.8533935546875,4450.47998046875,-3221.034912109375,16526.380859375,-6001.79052734375,-0.0,-6154.37841796875,6453.99072265625,-4905.06494140625,-4482.26953125,343.32275390625,6250.5400390625,-6506.44287109375,1463.89013671875,-5749.861328125,-2424.717041015625,-1942.316650390625,7321.83447265625,9713.9677734375,-14946.4609375,-7263.02490234375,-1102.28857421875,665.9825439453125,-8097.4892578125,-1986.8214111328125,-4192.193359375,-12884.1396484375,1570.3836669921875,-514.1893920898438,1126.9251708984375,-8714.9931640625,-1761.913330078125,0.0,-2099.673095703125,0.0,-3330.70751953125,-0.0,882.9434814453125
-12403.3291015625,-15086.3330078125,-5279.38232421875,-560.28369140625,154.17735290527344,12292.0673828125,-4414.71728515625,-1355.8070068359375,-1269.181640625,5250.77197265625,-7775.62451171875,-10277.4306640625,-4431.40673828125,4479.09033203125,-54.836273193359375,-8359.75,-457.763671875,382.26446533203125,3278.25537109375,14302.73046875,2488.29541015625,8180.93603515625,-503.0632019042969,13189.3154296875,-3476.142822265625,-5909.6015625,-4027.6845703125,-3639.062255859375,-6719.4306640625,-2235.571533203125,5002.02197265625,3877.480712890625,403.7221374511719,1138.0513916015625,-1948.674560546875,4452.8642578125,-3215.471923828125,16531.943359375,-6002.5849609375,-0.0,-6153.58349609375,6447.63330078125,-4899.501953125,-4478.2958984375,354.4489440917969,6263.255859375,-6494.52197265625,1453.55859375,-5763.3720703125,-2423.12744140625,-1920.8590087890625,7329.7822265625,9955.5654296875,-14952.0234375,-7258.25634765625,-1098.31494140625,683.4666137695312,-8100.6689453125,-1966.1585693359375,-4179.4775390625,-12882.5498046875,1575.152099609375,-503.0632019042969,1138.8460693359375,-8716.5830078125,-1764.2974853515625,0.0,-2106.82568359375,0.0,-3329.117919921875,-0.0,894.0697021484375
-12426.3759765625,-15055.3388671875,-5279.38232421875,-561.8731079101562,159.74044799804688,12296.041015625,-4413.1279296875,-1354.217529296875,-1264.4132080078125,5257.92431640625,-7793.1083984375,-10281.4033203125,-4436.1748046875,4483.06396484375,-58.80991744995117,-8359.75,-455.3794860839844,387.0328369140625,3281.434326171875,14312.267578125,2491.47412109375,8183.31982421875,-500.67901611328125,13191.7001953125,-3478.527099609375,-5902.44921875,-4022.916259765625,-3638.267578125,-6728.96728515625,-2233.1875,5003.611328125,3880.659912109375,403.7221374511719,1139.640869140625,-1947.0850830078125,4455.24853515625,-3215.471923828125,16535.91796875,-5988.27978515625,-0.0,-6151.994140625,6452.40185546875,-4894.7333984375,-4478.2958984375,356.8331298828125,6265.64013671875,-6486.57470703125,1451.9691162109375,-5747.47705078125,-2412.7958984375,-1923.2431640625,7327.39794921875,9718.7353515625,-14948.05078125,-7266.20361328125,-1095.9306640625,682.671875,-8120.53662109375,-1963.7744140625,-4168.3515625,-12878.5771484375,1575.94677734375,-503.0632019042969,1134.8724365234375,-8720.5576171875,-1771.4500732421875,0.0,-2111.593994140625,0.0,-3321.965576171875,-0.0,905.1958618164062
-12404.1240234375,-15059.3115234375,-5269.845703125,-559.4889526367188,162.1246337890625,12298.4248046875,-4416.30712890625,-1355.8070068359375,-1278.7183837890625,5242.02978515625,-7796.28759765625,-10273.45703125,-4442.533203125,4458.42724609375,-70.73084259033203,-8362.1337890625,-452.99530029296875,385.443359375,3277.460693359375,14293.193359375,2496.242431640625,8186.49951171875,-502.26849365234375,13192.494140625,-3476.9375,-5896.88623046875,-4030.86328125,-3643.83056640625,-6734.52978515625,-2232.392578125,5005.9951171875,3879.864990234375,406.1063232421875,1142.8197021484375,-1943.9061279296875,4456.837890625,-3218.65087890625,16534.328125,-5993.84326171875,-0.0,-6147.22607421875,6456.375,-4895.5283203125,-4478.2958984375,348.8858642578125,6260.8720703125,-6475.44873046875,1455.9427490234375,-5741.9140625,-2409.6171875,-1935.1640625,7328.1923828125,8869.9658203125,-14949.6396484375,-7272.5615234375,-1096.7254638671875,675.519287109375,-8111.79443359375,-1974.9005126953125,-4178.6826171875,-12864.2724609375,1576.7415771484375,-511.0104675292969,1107.0570068359375,-8714.9931640625,-1762.7080078125,0.0,-2104.44140625,0.0,-3321.1708984375,-0.0,894.0697021484375
-12351.671875,-15078.3857421875,-5244.4140625,-546.7732543945312,172.4561004638672,12311.140625,-4405.9755859375,-1339.912353515625,-1281.1025390625,5245.208984375,-7776.4189453125,-10267.0986328125,-4437.7646484375,4463.19580078125,-56.42573165893555,-8348.6240234375,-441.8691101074219,396.569580078125,3286.20263671875,14290.015625,2507.368896484375,8199.21484375,-491.9369812011719,13203.62109375,-3465.8115234375,-5885.759765625,-4023.710693359375,-3627.141357421875,-6721.814453125,-2229.213623046875,5017.12158203125,3891.785888671875,422.0008850097656,1152.3564453125,-1932.7799072265625,4467.16943359375,-3208.3193359375,16546.25,-6013.71142578125,-0.0,-6134.51025390625,6465.1171875,-4884.40185546875,-4463.19580078125,356.8331298828125,6271.998046875,-6446.04345703125,1467.8636474609375,-5734.76171875,-2402.464599609375,-1920.8590087890625,7343.2919921875,7492.701171875,-14948.05078125,-7260.640625,-1091.95703125,686.6455078125,-8125.30517578125,-1966.9532470703125,-4184.24609375,-12867.451171875,1587.86767578125,-502.26849365234375,1113.414794921875,-8699.8935546875,-1750.787109375,0.0,-2099.673095703125,0.0,-3319.581298828125,-0.0,890.0960083007812
-12317.498046875,-15091.896484375,-5230.90380859375,-522.931396484375,185.96649169921875,12335.77734375,-4385.3125,-1309.7127685546875,-1271.5657958984375,5261.89794921875,-7753.3720703125,-10253.5888671875,-4412.3330078125,4467.16943359375,-26.226043701171875,-8297.7607421875,-424.38507080078125,415.64306640625,3310.04443359375,14305.115234375,2523.26318359375,8218.2880859375,-472.06878662109375,13229.052734375,-3441.9697265625,-5865.89208984375,-4002.253173828125,-3587.405029296875,-6705.919921875,-2202.193115234375,5036.1953125,3910.064697265625,441.8691101074219,1173.0194091796875,-1917.68017578125,4488.626953125,-3186.06689453125,16572.474609375,-5973.974609375,-0.0,-6116.2314453125,6489.75390625,-4866.123046875,-4434.58544921875,374.3171691894531,6297.4296875,-6437.3017578125,1491.70556640625,-5710.919921875,-2379.41748046875,-1890.6593017578125,7382.23388671875,6125.76806640625,-14937.71875,-7245.54052734375,-1071.294189453125,711.2821044921875,-8101.46337890625,-1946.2904052734375,-4181.86181640625,-12858.7080078125,1607.7359619140625,-481.60552978515625,1135.667236328125,-8681.615234375,-1722.9715576171875,0.0,-2106.82568359375,0.0,-3314.81298828125,-0.0,909.9642333984375
-12319.087890625,-15079.1806640625,-5225.34033203125,-514.984130859375,191.5295867919922,12347.6982421875,-4369.41748046875,-1284.2813720703125,-1256.4659423828125,5287.3291015625,-7745.4248046875,-10249.6142578125,-4383.72265625,4472.732421875,0.7947285771369934,-8262.7939453125,-414.84832763671875,425.9745178222656,3329.117919921875,14330.5458984375,2531.210693359375,8229.4150390625,-462.53204345703125,13242.5625,-3426.074951171875,-5841.25537109375,-3983.974365234375,-3570.715576171875,-6696.3828125,-2206.16650390625,5043.34765625,3920.396240234375,447.43218994140625,1184.9403076171875,-1908.9381103515625,4500.5478515625,-3171.76171875,16590.75390625,-5970.7958984375,-0.0,-6105.10498046875,6508.8271484375,-4861.35498046875,-4418.69091796875,391.80120849609375,6329.21826171875,-6446.83837890625,1496.473876953125,-5690.2568359375,-2381.801513671875,-1863.6385498046875,7409.25439453125,4711.94580078125,-14952.0234375,-7236.798828125,-1111.8253173828125,741.4818115234375,-8058.5478515625,-1928.8062744140625,-4118.28369140625,-12842.01953125,1621.246337890625,-460.1478576660156,1164.2774658203125,-8675.2578125,-1717.4085693359375,0.0,-2075.036376953125,0.0,-3295.739501953125,-0.0,926.653564453125
-12354.8505859375,-15045.8017578125,-5215.8037109375,-509.4210510253906,200.2716064453125,12342.9296875,-4363.06005859375,-1296.9970703125,-1236.59765625,5323.88671875,-7729.5302734375,-10234.515625,-4377.365234375,4505.31640625,4.76837158203125,-8317.6298828125,-407.6957702636719,429.94818115234375,3332.297119140625,14355.1826171875,2539.157958984375,8231.798828125,-456.1742248535156,13242.5625,-3422.101318359375,-5842.05029296875,-3972.053466796875,-3595.35205078125,-6686.0517578125,-2209.345458984375,5047.3212890625,3928.34326171875,458.55841064453125,1189.708740234375,-1902.580322265625,4500.5478515625,-3163.019775390625,16589.1640625,-5966.02783203125,-0.0,-6096.36328125,6503.26416015625,-4853.4072265625,-4427.43310546875,402.9273986816406,6327.62890625,-6460.3486328125,1505.2159423828125,-5685.48828125,-2373.8544921875,-1860.459716796875,7378.26025390625,4306.63427734375,-14942.486328125,-7224.0830078125,-1130.10400390625,746.2501220703125,-8052.18994140625,-1940.727294921875,-4085.699462890625,-12827.7138671875,1625.219970703125,-450.6111145019531,1192.8876953125,-8668.8994140625,-1712.64013671875,0.0,-2022.584228515625,0.0,-3235.340087890625,-0.0,968.774169921875
-12369.9501953125,-15026.728515625,-5226.93017578125,-507.036865234375,200.2716064453125,12343.724609375,-4363.06005859375,-1300.970703125,-1235.00830078125,5331.03955078125,-7722.3779296875,-10237.693359375,-4386.10693359375,4500.5478515625,10.33147144317627,-8324.7822265625,-410.0799560546875,428.35870361328125,3329.117919921875,14357.56640625,2533.5947265625,8227.0302734375,-456.1742248535156,13240.9736328125,-3437.201171875,-5849.9970703125,-3971.258544921875,-3596.941650390625,-6689.23046875,-2197.424560546875,5043.34765625,3926.75390625,454.5847473144531,1184.1456298828125,-1905.7591552734375,4497.369140625,-3164.609130859375,16585.984375,-5950.1328125,-0.0,-6101.92626953125,6496.111328125,-4851.81787109375,-4429.0224609375,402.1326599121094,6326.833984375,-6472.26953125,1511.57373046875,-5684.69384765625,-2365.906982421875,-1855.6912841796875,7374.28662109375,4465.580078125,-14928.9765625,-7225.67236328125,-1082.42041015625,739.892333984375,-8066.4951171875,-1938.343017578125,-4093.64697265625,-12824.53515625,1624.42529296875,-451.4058532714844,1187.324462890625,-8672.873046875,-1725.355712890625,0.0,-2034.505126953125,0.0,-3240.903076171875,-0.0,967.1846923828125
-12384.255859375,-15040.23828125,-5236.466796875,-521.3419799804688,186.76121520996094,12334.1875,-4379.74951171875,-1304.149658203125,-1238.9818115234375,5326.27099609375,-7764.498046875,-10252.79296875,-4431.40673828125,4500.5478515625,-44.50480270385742,-8312.06640625,-424.38507080078125,416.4377746582031,3317.197021484375,14356.7724609375,2520.879150390625,8215.109375,-470.4793395996094,13230.6416015625,-3445.943115234375,-5867.4814453125,-4003.8427734375,-3598.531005859375,-6709.8935546875,-2195.835205078125,5032.22119140625,3910.064697265625,442.663818359375,1167.456298828125,-1918.474853515625,4488.626953125,-3181.298583984375,16578.83203125,-5957.28564453125,-0.0,-6109.0791015625,6481.01171875,-4870.0966796875,-4435.38037109375,389.4170227050781,6322.06591796875,-6465.1171875,1496.473876953125,-5710.125,-2373.0595703125,-1909.7327880859375,7379.05517578125,5245.208984375,-14924.208984375,-7247.1298828125,-1067.3204345703125,685.0560302734375,-8065.70068359375,-1934.369384765625,-4110.33642578125,-12850.76171875,1615.6832275390625,-460.1478576660156,1183.3509521484375,-8697.509765625,-1739.660888671875,0.0,-2055.168212890625,0.0,-3263.15576171875,-0.0,947.3164672851562
-12379.4873046875,-15032.291015625,-5228.51953125,-512.5999755859375,197.0926971435547,12346.1083984375,-4367.03369140625,-1287.4603271484375,-1220.703125,5342.16552734375,-7760.52490234375,-10236.1044921875,-4408.359375,4522.00537109375,-38.94169998168945,-8294.58203125,-414.84832763671875,427.5639953613281,3333.091796875,14377.4345703125,2531.210693359375,8228.619140625,-456.96893310546875,13245.7421875,-3430.048583984375,-5861.12353515625,-3997.484619140625,-3583.43115234375,-6704.33056640625,-2176.76171875,5044.14208984375,3920.396240234375,454.5847473144531,1180.1719970703125,-1906.5538330078125,4502.1376953125,-3166.993408203125,16595.521484375,-5954.10693359375,-0.0,-6097.15771484375,6492.1376953125,-4859.765625,-4422.66455078125,406.9010314941406,6337.166015625,-6449.22265625,1502.831787109375,-5707.74072265625,-2365.1123046875,-1902.580322265625,7396.5390625,5923.1123046875,-14901.1611328125,-7243.15625,-1039.5050048828125,693.0033569335938,-8051.3955078125,-1906.5538330078125,-4092.0576171875,-12845.1982421875,1629.98828125,-441.0743713378906,1208.7822265625,-8687.1787109375,-1718.9979248046875,0.0,-2025.7633056640625,0.0,-3241.697998046875,-0.0,974.3372802734375
-12379.4873046875,-15053.7490234375,-5235.671875,-520.5472412109375,196.29795837402344,12345.314453125,-4363.06005859375,-1287.4603271484375,-1216.7294921875,5330.24462890625,-7766.087890625,-10233.7197265625,-4393.259765625,4529.953125,-15.09984302520752,-8298.556640625,-416.4377746582031,428.35870361328125,3333.886474609375,14371.8720703125,2530.415771484375,8229.4150390625,-454.5847473144531,13245.7421875,-3419.717041015625,-5859.53369140625,-3984.769287109375,-3584.225830078125,-6699.56201171875,-2173.582763671875,5044.14208984375,3920.396240234375,446.6374816894531,1180.9666748046875,-1908.1434326171875,4501.3427734375,-3163.814453125,16595.521484375,-5962.0537109375,-0.0,-6108.2841796875,6492.9326171875,-4855.79150390625,-4422.66455078125,410.87469482421875,6335.57666015625,-6449.22265625,1494.0897216796875,-5701.38330078125,-2377.033203125,-1879.533203125,7392.5654296875,5935.033203125,-14896.392578125,-7237.59326171875,-1044.2734375,723.9977416992188,-8056.9580078125,-1920.0643310546875,-4092.0576171875,-12849.966796875,1630.7830810546875,-441.0743713378906,1212.755859375,-8674.4619140625,-1713.434814453125,0.0,-2025.7633056640625,0.0,-3239.313720703125,-0.0,984.668701171875
-12410.4814453125,-15106.9951171875,-5243.61962890625,-549.157470703125,185.17176818847656,12324.650390625,-4378.16015625,-1305.739013671875,-1229.445068359375,5315.939453125,-7787.5458984375,-10263.125,-4419.4853515625,4521.2109375,-31.789142608642578,-8319.21875,-437.89544677734375,410.0799560546875,3317.197021484375,14356.7724609375,2513.7265625,8204.77734375,-471.2740478515625,13226.66796875,-3420.511962890625,-5890.5283203125,-3992.71630859375,-3605.68359375,-6705.12548828125,-2199.808837890625,5023.4794921875,3895.759521484375,429.94818115234375,1157.9195556640625,-1925.6273193359375,4480.68017578125,-3180.50390625,16578.0390625,-5975.564453125,-0.0,-6122.5888671875,6468.2958984375,-4869.30224609375,-4441.73828125,394.1853942871094,6320.4765625,-6464.32275390625,1467.0689697265625,-5702.97265625,-2382.59619140625,-1897.01708984375,7371.90234375,5767.34521484375,-14927.3876953125,-7243.15625,-1073.6783447265625,697.771728515625,-8080.005859375,-1943.1114501953125,-4106.36279296875,-12874.603515625,1611.7095947265625,-456.1742248535156,1176.9930419921875,-8693.5361328125,-1744.42919921875,0.0,-2055.962890625,0.0,-3261.566162109375,-0.0,951.2901611328125
-12416.83984375,-15083.1533203125,-5257.92431640625,-565.052001953125,166.89300537109375,12306.373046875,-4398.82275390625,-1322.4283447265625,-1241.3660888671875,5294.48193359375,-7789.9296875,-10285.3779296875,-4447.30126953125,4506.111328125,-66.7572021484375,-8322.3984375,-456.1742248535156,391.80120849609375,3300.5078125,14341.671875,2497.037109375,8186.49951171875,-490.3475646972656,13210.7734375,-3437.201171875,-5906.4228515625,-4018.9423828125,-3620.783447265625,-6724.19873046875,-2210.934814453125,5005.9951171875,3877.480712890625,413.2588806152344,1141.230224609375,-1942.316650390625,4463.99072265625,-3199.577392578125,16560.5546875,-6000.99560546875,-0.0,-6137.68896484375,6451.60693359375,-4889.96484375,-4456.837890625,376.70135498046875,6304.58203125,-6470.68017578125,1451.9691162109375,-5729.9931640625,-2403.25927734375,-1930.395751953125,7362.36572265625,5985.8955078125,-14944.87109375,-7263.02490234375,-1084.009765625,659.624755859375,-8088.748046875,-1951.0587158203125,-4127.025390625,-12884.1396484375,1593.430908203125,-473.6582336425781,1156.330078125,-8728.50390625,-1764.2974853515625,0.0,-2077.42041015625,0.0,-3286.99755859375,-0.0,921.0904541015625
-12397.765625,-15042.623046875,-5248.3876953125,-554.7205810546875,177.22447204589844,12315.1142578125,-4391.67041015625,-1318.4547119140625,-1242.1607666015625,5295.27685546875,-7777.2138671875,-10273.45703125,-4417.896484375,4501.3427734375,-50.86262893676758,-8316.833984375,-447.43218994140625,398.9537658691406,3306.86572265625,14341.671875,2505.779296875,8195.2412109375,-480.0160827636719,13217.1318359375,-3426.074951171875,-5894.501953125,-4009.405517578125,-3611.246826171875,-6713.072265625,-2206.16650390625,5012.353515625,3886.222900390625,421.2061462402344,1148.3828125,-1932.7799072265625,4473.52734375,-3190.835205078125,16565.322265625,-6000.20068359375,-0.0,-6127.357421875,6458.75927734375,-4879.63330078125,-4449.685546875,383.0591735839844,6304.58203125,-6446.04345703125,1460.711181640625,-5726.814453125,-2392.133056640625,-1915.2958984375,7367.13427734375,5977.15380859375,-14936.923828125,-7252.693359375,-1076.857177734375,689.0296630859375,-8076.8271484375,-1941.52197265625,-4138.9462890625,-12869.0400390625,1601.3780517578125,-470.4793395996094,1171.429931640625,-8730.09375,-1751.581787109375,0.0,-2075.036376953125,0.0,-3286.99755859375,-0.0,935.3955688476562
-12369.15625,-15039.4443359375,-5235.671875,-538.03125,193.11904907226562,12333.3935546875,-4373.3916015625,-1300.176025390625,-1239.776611328125,5316.734375,-7788.34033203125,-10249.6142578125,-4401.20703125,4483.06396484375,-12.715657234191895,-8306.5029296875,-430.7428894042969,418.0272521972656,3323.554931640625,14355.9775390625,2520.879150390625,8213.5205078125,-460.9425964355469,13233.025390625,-3420.511962890625,-5875.4287109375,-3990.33203125,-3592.17333984375,-6700.35693359375,-2193.450927734375,5029.8369140625,3904.501708984375,437.1007385253906,1165.8668212890625,-1915.2958984375,4489.421875,-3174.14599609375,16580.423828125,-5982.716796875,-0.0,-6113.05224609375,6477.0380859375,-4862.14990234375,-4431.40673828125,396.569580078125,6321.271484375,-6452.40185546875,1478.989990234375,-5706.1513671875,-2375.443603515625,-1878.7384033203125,7384.6181640625,6543.794921875,-14925.7978515625,-7236.798828125,-1060.16796875,720.81884765625,-8062.52197265625,-1928.8062744140625,-4127.8203125,-12857.9140625,1618.8621826171875,-456.96893310546875,1182.55615234375,-8692.7412109375,-1726.9453125,0.0,-2064.704833984375,0.0,-3271.8974609375,-0.0,956.0584716796875
-12374.71875,-15059.3115234375,-5250.77197265625,-538.8259887695312,185.17176818847656,12334.982421875,-4376.5703125,-1300.176025390625,-1236.59765625,5327.8603515625,-7800.26123046875,-10250.4091796875,-4401.20703125,4486.24267578125,-23.047128677368164,-8289.01953125,-433.1270751953125,412.4641418457031,3319.581298828125,14363.1298828125,2514.521240234375,8209.5458984375,-467.3004150390625,13231.4365234375,-3445.1484375,-5875.4287109375,-3994.30615234375,-3590.583740234375,-6707.50927734375,-2199.808837890625,5028.248046875,3900.52783203125,429.1534423828125,1161.8931884765625,-1919.26953125,4488.626953125,-3178.11962890625,16581.216796875,-5981.12744140625,-0.0,-6125.76806640625,6476.24365234375,-4866.91796875,-4431.40673828125,394.9801025390625,6326.03955078125,-6469.0908203125,1477.400390625,-5710.919921875,-2370.67529296875,-1888.275146484375,7387.00244140625,7758.935546875,-14929.771484375,-7243.951171875,-1061.7574462890625,716.0504760742188,-8060.93212890625,-1935.9588623046875,-4114.3095703125,-12865.861328125,1614.8885498046875,-452.2005615234375,1184.1456298828125,-8691.947265625,-1734.8924560546875,0.0,-2069.47314453125,0.0,-3269.513427734375,-0.0,952.0848388671875
-12367.56640625,-15095.8701171875,-5265.87158203125,-542.7996215820312,172.4561004638672,12322.2666015625,-4387.69677734375,-1313.6864013671875,-1235.00830078125,5324.681640625,-7778.80322265625,-10262.330078125,-4417.896484375,4496.57421875,-48.47844314575195,-8320.80859375,-439.48492431640625,400.543212890625,3310.04443359375,14360.7451171875,2505.779296875,8201.599609375,-478.4266052246094,13220.310546875,-3461.837890625,-5885.759765625,-4005.43212890625,-3608.862548828125,-6711.48291015625,-2214.114013671875,5020.30029296875,3896.55419921875,421.2061462402344,1155.535400390625,-1930.395751953125,4476.7060546875,-3186.86181640625,16571.6796875,-5970.7958984375,-0.0,-6138.4833984375,6469.0908203125,-4878.8388671875,-4446.50634765625,387.8275451660156,6317.29736328125,-6478.62744140625,1474.2215576171875,-5726.814453125,-2385.775390625,-1912.9117431640625,7368.7236328125,8014.83837890625,-14940.1025390625,-7250.30908203125,-1081.6256103515625,696.1822509765625,-8077.62158203125,-1943.1114501953125,-4111.92578125,-12864.2724609375,1605.351806640625,-457.763671875,1181.7613525390625,-8699.8935546875,-1748.4029541015625,0.0,-2063.91015625,0.0,-3264.7451171875,-0.0,943.3428344726562
-12362.0029296875,-15106.9951171875,-5248.3876953125,-538.8259887695312,175.63502502441406,12320.677734375,-4386.90185546875,-1312.8916015625,-1235.00830078125,5309.58154296875,-7740.65625,-10259.1513671875,-4415.51220703125,4503.72705078125,-50.067901611328125,-8332.7294921875,-430.7428894042969,404.516845703125,3309.25,14355.1826171875,2512.13720703125,8206.3671875,-476.837158203125,13221.1044921875,-3454.685302734375,-5884.17041015625,-4008.611083984375,-3607.273193359375,-6697.97265625,-2210.934814453125,5023.4794921875,3902.117431640625,431.5376281738281,1162.6878662109375,-1925.6273193359375,4477.5009765625,-3186.86181640625,16570.88671875,-5981.12744140625,-0.0,-6129.74169921875,6473.859375,-4878.8388671875,-4445.71142578125,387.0328369140625,6313.32421875,-6457.169921875,1478.1951904296875,-5732.37744140625,-2395.31201171875,-1912.116943359375,7368.7236328125,6828.30810546875,-14943.2822265625,-7236.798828125,-1082.42041015625,689.8244018554688,-8083.9794921875,-1943.1114501953125,-4122.25732421875,-12860.2978515625,1606.146484375,-461.7373046875,1187.324462890625,-8689.5625,-1734.8924560546875,0.0,-2055.962890625,0.0,-3259.9765625,-0.0,955.2637939453125
-12357.2353515625,-15106.9951171875,-5238.85107421875,-532.4681396484375,189.14540100097656,12331.8037109375,-4376.5703125,-1305.739013671875,-1240.5714111328125,5295.27685546875,-7719.99365234375,-10254.3828125,-4411.53857421875,4497.369140625,-14.30511474609375,-8312.06640625,-423.59033203125,415.64306640625,3315.607666015625,14340.8779296875,2524.852783203125,8217.494140625,-465.7109680175781,13230.6416015625,-3442.76416015625,-5869.865234375,-3987.153564453125,-3597.736328125,-6693.9990234375,-2200.603515625,5033.01611328125,3907.680419921875,440.2796325683594,1172.224609375,-1912.9117431640625,4487.83251953125,-3177.324951171875,16577.244140625,-5970.0009765625,-0.0,-6120.205078125,6488.16455078125,-4864.53369140625,-4437.7646484375,392.5959167480469,6314.11865234375,-6438.0966796875,1484.552978515625,-5714.0986328125,-2387.36474609375,-1879.533203125,7379.85009765625,5773.703125,-14941.6923828125,-7232.0302734375,-1075.267822265625,720.81884765625,-8076.8271484375,-1931.1904296875,-4128.61474609375,-12857.119140625,1615.6832275390625,-464.1214904785156,1170.63525390625,-8686.3828125,-1726.1505126953125,0.0,-2059.141845703125,0.0,-3261.566162109375,-0.0,949.70068359375
-12392.203125,-15110.1748046875,-5230.10888671875,-524.5208740234375,193.9137725830078,12338.1611328125,-4377.365234375,-1304.9443359375,-1250.90283203125,5293.6875,-7726.35107421875,-10245.640625,-4408.359375,4471.9375,-11.126200675964355,-8289.01953125,-422.7956237792969,422.0008850097656,3315.607666015625,14328.162109375,2528.031494140625,8220.6728515625,-464.1214904785156,13233.025390625,-3435.61181640625,-5859.53369140625,-3979.2060546875,-3588.994384765625,-6713.072265625,-2197.424560546875,5036.98974609375,3908.475341796875,444.2532958984375,1174.60888671875,-1911.322265625,4491.01123046875,-3176.530029296875,16577.244140625,-5963.6435546875,-0.0,-6113.05224609375,6491.34326171875,-4860.56005859375,-4433.79052734375,387.0328369140625,6312.529296875,-6430.14892578125,1490.910888671875,-5705.3564453125,-2377.827880859375,-1877.14892578125,7383.0283203125,5627.47314453125,-14935.333984375,-7249.51416015625,-1072.883544921875,733.5344848632812,-8053.77978515625,-1942.316650390625,-4123.8466796875,-12860.2978515625,1617.272705078125,-469.6846008300781,1148.3828125,-8690.357421875,-1726.9453125,0.0,-2071.857421875,0.0,-3272.6923828125,-0.0,931.4219360351562
-12490.7490234375,-15072.0283203125,-5228.51953125,-536.4417724609375,193.11904907226562,12334.982421875,-4378.95458984375,-1307.32861328125,-1241.3660888671875,5304.0185546875,-7746.2197265625,-10243.2568359375,-4401.20703125,4494.98486328125,-24.636587142944336,-8326.37109375,-425.9745178222656,418.82196044921875,3317.197021484375,14341.671875,2524.852783203125,8218.2880859375,-467.3004150390625,13230.6416015625,-3430.048583984375,-5863.5078125,-3984.769287109375,-3600.915283203125,-6703.53564453125,-2201.398193359375,5035.400390625,3904.501708984375,445.0480041503906,1169.0457763671875,-1911.322265625,4489.421875,-3177.324951171875,16577.244140625,-5974.76953125,-0.0,-6110.66796875,6486.57470703125,-4862.14990234375,-4438.55908203125,389.4170227050781,6316.5029296875,-6432.533203125,1477.400390625,-5708.53564453125,-2381.0068359375,-1889.8646240234375,7374.28662109375,5892.91259765625,-14932.9501953125,-7240.7724609375,-1080.8309326171875,724.79248046875,-8067.29052734375,-1947.0850830078125,-4120.66796875,-12861.8876953125,1617.272705078125,-463.3267822265625,1174.60888671875,-8693.5361328125,-1731.713623046875,0.0,-2044.0418701171875,0.0,-3256.003173828125,-0.0,950.4954223632812
-12479.623046875,-15033.880859375,-5228.51953125,-542.7996215820312,186.76121520996094,12332.5986328125,-4379.74951171875,-1303.3548583984375,-1246.1343994140625,5292.892578125,-7766.88232421875,-10247.23046875,-4406.77001953125,4497.369140625,-22.25240135192871,-8312.06640625,-430.7428894042969,414.84832763671875,3314.81298828125,14339.2880859375,2519.289794921875,8214.314453125,-470.4793395996094,13229.052734375,-3436.406494140625,-5867.4814453125,-3991.126953125,-3597.736328125,-6703.53564453125,-2204.5771484375,5031.4267578125,3901.322509765625,439.48492431640625,1165.0721435546875,-1916.8853759765625,4487.03759765625,-3180.50390625,16577.244140625,-5966.822265625,-0.0,-6115.4365234375,6481.80615234375,-4866.91796875,-4436.1748046875,390.21173095703125,6319.681640625,-6426.17578125,1471.83740234375,-5712.50927734375,-2381.801513671875,-1889.8646240234375,7383.0283203125,5263.4873046875,-14929.771484375,-7239.18310546875,-1083.215087890625,705.718994140625,-8083.9794921875,-1939.9324951171875,-4137.357421875,-12857.119140625,1614.09375,-463.3267822265625,1174.60888671875,-8700.6884765625,-1733.3031005859375,0.0,-2058.346923828125,0.0,-3271.8974609375,-0.0,938.574462890625
-12366.771484375,-15037.0595703125,-5217.3935546875,-524.5208740234375,197.0926971435547,12346.9033203125,-4370.21240234375,-1287.4603271484375,-1235.00830078125,5304.0185546875,-7772.44580078125,-10239.283203125,-4399.61767578125,4489.421875,-3.9736428260803223,-8262.7939453125,-423.59033203125,422.0008850097656,3323.554931640625,14344.8515625,2528.031494140625,8221.466796875,-461.7373046875,13242.5625,-3431.637939453125,-5857.9443359375,-3977.61669921875,-3564.357666015625,-6699.56201171875,-2198.21923828125,5038.57958984375,3909.269775390625,445.0480041503906,1173.0194091796875,-1908.1434326171875,4495.779296875,-3170.17236328125,16591.548828125,-5968.412109375,-0.0,-6104.310546875,6488.958984375,-4856.58642578125,-4413.9228515625,401.33795166015625,6327.62890625,-6404.7177734375,1491.70556640625,-5699.79345703125,-2357.1650390625,-1870.7911376953125,7409.25439453125,4164.3779296875,-14919.4404296875,-7235.208984375,-1066.5257568359375,718.4346313476562,-8076.8271484375,-1914.501220703125,-4136.5625,-12847.5830078125,1622.0411376953125,-456.1742248535156,1174.60888671875,-8697.509765625,-1718.9979248046875,0.0,-2082.18896484375,0.0,-3281.434326171875,-0.0,941.75341796875
-12370.74609375,-15066.46484375,-5222.16162109375,-526.905029296875,195.50323486328125,12337.3671875,-4374.98095703125,-1304.9443359375,-1235.802978515625,5312.7607421875,-7776.4189453125,-10246.4365234375,-4396.4384765625,4494.98486328125,-13.51038646697998,-8342.265625,-426.7692565917969,415.64306640625,3320.376220703125,14354.388671875,2524.852783203125,8216.6982421875,-464.1214904785156,13234.615234375,-3425.2802734375,-5866.6865234375,-3980.79541015625,-3595.35205078125,-6709.0986328125,-2206.16650390625,5035.400390625,3905.29638671875,441.0743713378906,1169.8404541015625,-1911.322265625,4489.421875,-3175.7353515625,16582.01171875,-5986.6904296875,-0.0,-6103.515625,6481.01171875,-4858.970703125,-4429.8173828125,395.77484130859375,6319.681640625,-6439.68603515625,1487.73193359375,-5695.02490234375,-2367.49658203125,-1878.7384033203125,7377.4658203125,3743.96630859375,-14931.361328125,-7247.1298828125,-1072.883544921875,726.3819580078125,-8099.87353515625,-1928.8062744140625,-4119.078125,-12845.9931640625,1616.47802734375,-459.3531188964844,1174.60888671875,-8699.099609375,-1732.50830078125,0.0,-2044.8367919921875,0.0,-3263.950439453125,-0.0,951.2901611328125
-12392.998046875,-15081.564453125,-5240.4404296875,-540.4154663085938,180.4033966064453,12319.8828125,-4386.90185546875,-1323.22314453125,-1248.5185546875,5303.22412109375,-7781.1875,-10259.9462890625,-4406.77001953125,4481.474609375,-37.35224533081055,-8358.1611328125,-437.1007385253906,402.1326599121094,3308.455322265625,14344.0556640625,2511.34228515625,8203.1884765625,-476.04241943359375,13217.1318359375,-3437.201171875,-5875.4287109375,-4001.458740234375,-3623.96240234375,-6718.6357421875,-2218.88232421875,5021.89013671875,3898.143798828125,429.1534423828125,1157.9195556640625,-1924.0379638671875,4475.11669921875,-3189.245849609375,16565.322265625,-5985.8955078125,-0.0,-6119.41015625,6468.2958984375,-4874.07080078125,-4452.06982421875,384.6486511230469,6305.37646484375,-6484.9853515625,1474.2215576171875,-5711.71435546875,-2392.133056640625,-1900.9908447265625,7353.6240234375,4014.174072265625,-14947.2548828125,-7257.46142578125,-1084.009765625,702.5401000976562,-8095.10498046875,-1937.54833984375,-4119.873046875,-12851.5556640625,1604.5570068359375,-471.2740478515625,1155.535400390625,-8725.3251953125,-1748.4029541015625,0.0,-2053.57861328125,0.0,-3265.539794921875,-0.0,936.1903076171875
-12404.9189453125,-15068.8486328125,-5269.05078125,-551.5416259765625,158.15098571777344,12305.5771484375,-4404.38623046875,-1334.3492431640625,-1261.2342529296875,5290.50830078125,-7764.498046875,-10272.662109375,-4445.71142578125,4467.16943359375,-55.63100051879883,-8349.4189453125,-449.02166748046875,388.6222839355469,3294.150146484375,14331.3408203125,2494.653076171875,8191.26806640625,-492.73175048828125,13206.0048828125,-3461.837890625,-5894.501953125,-4025.300537109375,-3629.525390625,-6718.6357421875,-2229.213623046875,5009.17431640625,3888.60693359375,414.0535888671875,1145.9986572265625,-1940.727294921875,4461.6064453125,-3205.935302734375,16553.40234375,-5972.38525390625,-0.0,-6143.251953125,6456.375,-4893.9384765625,-4466.375,368.7540588378906,6292.6611328125,-6488.16455078125,1464.684814453125,-5738.7353515625,-2411.20654296875,-1920.0643310546875,7345.67626953125,4479.88525390625,-14957.5869140625,-7256.66650390625,-1097.520263671875,672.3403930664062,-8103.05322265625,-1959.80078125,-4125.4365234375,-12857.9140625,1589.4571533203125,-485.57916259765625,1141.230224609375,-8734.8623046875,-1753.9659423828125,0.0,-2079.8046875,0.0,-3283.818603515625,-0.0,913.9378662109375
-12400.9443359375,-15083.94921875,-5277.79248046875,-554.7205810546875,151.7931671142578,12303.98828125,-4409.94873046875,-1339.11767578125,-1257.2606201171875,5295.27685546875,-7766.88232421875,-10275.8408203125,-4456.837890625,4478.2958984375,-58.80991744995117,-8344.650390625,-456.1742248535156,383.0591735839844,3289.3818359375,14332.134765625,2487.50048828125,8187.2939453125,-499.08953857421875,13202.826171875,-3465.0166015625,-5900.85986328125,-4030.06884765625,-3628.730712890625,-6725.7880859375,-2236.3662109375,5001.22705078125,3881.45458984375,406.9010314941406,1142.0250244140625,-1947.0850830078125,4457.63232421875,-3211.498291015625,16549.4296875,-5962.0537109375,-0.0,-6148.81494140625,6454.78564453125,-4900.296875,-4467.16943359375,363.9856872558594,6287.892578125,-6485.7802734375,1462.3006591796875,-5744.29833984375,-2416.769775390625,-1924.0379638671875,7344.0869140625,4724.6611328125,-14967.1240234375,-7266.998046875,-1108.6463623046875,673.9298706054688,-8114.97412109375,-1969.33740234375,-4134.97314453125,-12873.013671875,1582.3045654296875,-489.55279541015625,1164.2774658203125,-8726.1201171875,-1760.3238525390625,0.0,-2077.42041015625,0.0,-3281.434326171875,-0.0,926.653564453125
-12381.87109375,-15145.142578125,-5268.255859375,-552.3363647460938,158.15098571777344,12309.55078125,-4408.359375,-1335.14404296875,-1253.2869873046875,5297.66064453125,-7778.80322265625,-10268.6884765625,-4445.71142578125,4490.216796875,-71.52557373046875,-8335.11328125,-456.1742248535156,383.8539123535156,3290.970947265625,14336.109375,2490.679443359375,8190.47265625,-495.1159362792969,13204.4150390625,-3454.685302734375,-5884.96533203125,-4026.889892578125,-3621.578125,-6725.7880859375,-2239.545166015625,5001.22705078125,3873.50732421875,409.28521728515625,1143.6143798828125,-1943.9061279296875,4462.40087890625,-3212.29296875,16551.017578125,-5985.10107421875,-0.0,-6142.45751953125,6461.9384765625,-4897.11767578125,-4462.40087890625,364.7804260253906,6289.48193359375,-6490.548828125,1464.684814453125,-5734.76171875,-2406.438232421875,-1935.9588623046875,7351.23974609375,4682.541015625,-14966.3291015625,-7264.6142578125,-1105.4674072265625,675.519287109375,-8110.20556640625,-1968.5428466796875,-4134.17822265625,-12884.9345703125,1585.4835205078125,-487.9633483886719,1162.6878662109375,-8713.404296875,-1757.1448974609375,0.0,-2082.18896484375,0.0,-3290.970947265625,-0.0,921.0904541015625
-12392.203125,-15154.6796875,-5271.4345703125,-557.104736328125,154.17735290527344,12305.5771484375,-4413.1279296875,-1340.7071533203125,-1258.85009765625,5288.9189453125,-7797.876953125,-10267.8935546875,-4453.6591796875,4485.4482421875,-80.26758575439453,-8351.0087890625,-461.7373046875,376.70135498046875,3284.61328125,14325.7783203125,2488.29541015625,8186.49951171875,-499.8843078613281,13200.4423828125,-3455.47998046875,-5886.5546875,-4030.86328125,-3631.114990234375,-6724.9931640625,-2242.72412109375,4997.25341796875,3871.123046875,402.9273986816406,1139.640869140625,-1948.674560546875,4456.837890625,-3214.677001953125,16547.044921875,-5995.4326171875,-0.0,-6143.251953125,6458.75927734375,-4900.296875,-4467.96435546875,359.2173156738281,6284.7138671875,-6488.16455078125,1459.1217041015625,-5736.35107421875,-2397.6962890625,-1944.7008056640625,7343.2919921875,3729.6611328125,-14968.712890625,-7264.6142578125,-1094.34130859375,665.1878662109375,-8107.8212890625,-1969.33740234375,-4135.767578125,-12879.3720703125,1580.7152099609375,-494.3211669921875,1145.2039794921875,-8714.9931640625,-1759.529052734375,0.0,-2086.957275390625,0.0,-3291.765869140625,-0.0,915.52734375
-12378.6923828125,-15108.5849609375,-5270.64013671875,-548.3627319335938,143.8458709716797,12307.9619140625,-4415.51220703125,-1335.9388427734375,-1262.029052734375,5291.30322265625,-7801.8505859375,-10263.125,-4438.55908203125,4486.24267578125,-85.03595733642578,-8340.6767578125,-460.1478576660156,376.70135498046875,3284.61328125,14324.1884765625,2486.705810546875,8185.7041015625,-503.85791015625,13202.826171875,-3476.9375,-5884.17041015625,-4039.605712890625,-3625.552001953125,-6721.814453125,-2223.650634765625,4995.6640625,3875.0966796875,406.9010314941406,1140.435546875,-1952.648193359375,4454.4541015625,-3216.2666015625,16549.4296875,-6024.83740234375,-0.0,-6151.19921875,6457.96435546875,-4906.654296875,-4465.580078125,357.62786865234375,6287.892578125,-6492.1376953125,1467.8636474609375,-5754.62939453125,-2402.464599609375,-1950.263916015625,7349.64990234375,2432.6640625,-14961.560546875,-7259.845703125,-1095.135986328125,654.8563842773438,-8099.87353515625,-1970.132080078125,-4124.6416015625,-12888.1142578125,1579.125732421875,-492.73175048828125,1153.151123046875,-8709.4306640625,-1751.581787109375,0.0,-2067.8837890625,0.0,-3269.513427734375,-0.0,940.9586791992188
-12340.5458984375,-15051.365234375,-5264.2822265625,-530.083984375,154.17735290527344,12323.8564453125,-4401.20703125,-1316.070556640625,-1243.750244140625,5320.7080078125,-7771.65087890625,-10253.5888671875,-4421.86962890625,4496.57421875,-62.78356170654297,-8326.37109375,-444.2532958984375,391.0064697265625,3299.713134765625,14350.4140625,2499.42138671875,8200.009765625,-492.73175048828125,13214.7470703125,-3468.990234375,-5865.89208984375,-4028.47900390625,-3608.06787109375,-6717.04638671875,-2199.808837890625,5009.96923828125,3897.34912109375,418.82196044921875,1153.9459228515625,-1940.727294921875,4467.16943359375,-3201.166748046875,16564.52734375,-6011.3271484375,-0.0,-6144.046875,6473.064453125,-4893.14404296875,-4451.27490234375,374.3171691894531,6308.5556640625,-6484.9853515625,1487.73193359375,-5749.06689453125,-2396.9013671875,-1928.0115966796875,7370.31298828125,1323.22314453125,-14942.486328125,-7254.28271484375,-1095.135986328125,677.1087646484375,-8098.28466796875,-1956.621826171875,-4103.18359375,-12858.7080078125,1591.046630859375,-475.2477111816406,1179.377197265625,-8703.072265625,-1735.687255859375,0.0,-2051.1943359375,0.0,-3250.43994140625,-0.0,964.800537109375
-12371.5400390625,-15029.9072265625,-5258.71875,-525.3156127929688,163.71409606933594,12330.21484375,-4394.05419921875,-1305.739013671875,-1235.802978515625,5334.21826171875,-7763.70361328125,-10235.3095703125,-4413.9228515625,4496.57421875,-46.88898849487305,-8312.06640625,-438.690185546875,397.3642883300781,3306.86572265625,14363.9248046875,2504.984619140625,8206.3671875,-483.1949768066406,13221.900390625,-3450.71142578125,-5855.560546875,-4013.379638671875,-3598.531005859375,-6713.8671875,-2185.503662109375,5013.94287109375,3905.29638671875,426.7692565917969,1161.0985107421875,-1932.7799072265625,4476.7060546875,-3194.80908203125,16572.474609375,-5988.27978515625,-0.0,-6136.09912109375,6480.216796875,-4882.8125,-4442.533203125,380.67498779296875,6320.4765625,-6476.24365234375,1493.2950439453125,-5734.76171875,-2390.543701171875,-1912.9117431640625,7383.0283203125,1469.4532470703125,-14920.234375,-7254.28271484375,-1076.857177734375,693.798095703125,-8088.748046875,-1947.0850830078125,-4102.388671875,-12840.4306640625,1598.993896484375,-466.50567626953125,1177.787841796875,-8699.099609375,-1711.845458984375,0.0,-2053.57861328125,0.0,-3255.208251953125,-0.0,954.4690551757812
-12377.8984375,-15058.517578125,-5266.66650390625,-546.7732543945312,154.97207641601562,12314.3193359375,-4402.001953125,-1320.8388671875,-1252.4923095703125,5319.91357421875,-7781.1875,-10250.4091796875,-4416.30712890625,4475.91162109375,-57.220458984375,-8320.013671875,-448.2269287109375,387.0328369140625,3294.150146484375,14348.82421875,2496.242431640625,8193.65234375,-491.9369812011719,13209.18359375,-3462.63232421875,-5878.607421875,-4020.5322265625,-3610.451904296875,-6714.662109375,-2206.96142578125,5004.40576171875,3891.785888671875,415.64306640625,1148.3828125,-1941.52197265625,4465.580078125,-3205.935302734375,16558.169921875,-6004.1748046875,-0.0,-6143.251953125,6466.70654296875,-4893.14404296875,-4455.24853515625,369.5487976074219,6305.37646484375,-6491.34326171875,1467.8636474609375,-5739.5302734375,-2404.053955078125,-1922.448486328125,7367.13427734375,2144.177734375,-14926.5927734375,-7255.8720703125,-1085.5992431640625,692.2086181640625,-8079.21142578125,-1959.006103515625,-4119.078125,-12848.376953125,1587.072998046875,-479.2213439941406,1155.535400390625,-8702.2783203125,-1734.0977783203125,0.0,-2061.526123046875,0.0,-3273.487060546875,-0.0,925.0640869140625
-12374.71875,-15091.1015625,-5270.64013671875,-545.978515625,150.99842834472656,12310.345703125,-4408.359375,-1327.991455078125,-1271.5657958984375,5299.25,-7781.982421875,-10252.79296875,-4428.22802734375,4454.4541015625,-63.578285217285156,-8336.703125,-452.99530029296875,383.0591735839844,3286.20263671875,14328.162109375,2495.44775390625,8189.67822265625,-496.7053527832031,13206.0048828125,-3472.964111328125,-5888.93896484375,-4023.710693359375,-3620.783447265625,-6717.8408203125,-2210.934814453125,5003.611328125,3883.838623046875,413.2588806152344,1145.9986572265625,-1945.49560546875,4460.0166015625,-3210.70361328125,16551.8125,-6012.12158203125,-0.0,-6148.0205078125,6461.9384765625,-4896.32275390625,-4460.8115234375,360.0120544433594,6296.634765625,-6493.72705078125,1468.658447265625,-5740.32470703125,-2402.464599609375,-1926.422119140625,7358.39208984375,2772.013427734375,-14935.333984375,-7256.66650390625,-1099.109619140625,689.8244018554688,-8078.416015625,-1974.1058349609375,-4125.4365234375,-12849.171875,1582.3045654296875,-491.9369812011719,1141.230224609375,-8707.8408203125,-1738.8662109375,0.0,-2067.8837890625,0.0,-3282.229248046875,-0.0,911.5537109375
-12387.4345703125,-15074.412109375,-5275.408203125,-543.5943603515625,148.61424255371094,12309.55078125,-4413.1279296875,-1335.14404296875,-1281.897216796875,5264.2822265625,-7775.62451171875,-10253.5888671875,-4432.99609375,4455.24853515625,-65.1677474975586,-8337.498046875,-455.3794860839844,379.8802795410156,3281.434326171875,14301.9365234375,2493.063720703125,8188.08837890625,-499.8843078613281,13199.646484375,-3475.34814453125,-5890.5283203125,-4025.300537109375,-3623.167724609375,-6721.01953125,-2204.5771484375,5004.40576171875,3883.0439453125,409.28521728515625,1144.4091796875,-1947.0850830078125,4458.42724609375,-3214.677001953125,16545.453125,-6004.96923828125,-0.0,-6151.994140625,6462.73291015625,-4897.91259765625,-4464.78515625,352.06475830078125,6285.5087890625,-6493.72705078125,1471.0426025390625,-5738.7353515625,-2404.053955078125,-1931.1904296875,7353.6240234375,3332.297119140625,-14939.30859375,-7255.8720703125,-1108.6463623046875,678.6982421875,-8098.28466796875,-1976.489990234375,-4135.767578125,-12842.814453125,1579.125732421875,-503.85791015625,1142.0250244140625,-8709.4306640625,-1733.3031005859375,0.0,-2068.6787109375,0.0,-3286.20263671875,-0.0,913.1431884765625
-12388.2294921875,-15034.67578125,-5262.69287109375,-526.905029296875,158.15098571777344,12322.2666015625,-4405.9755859375,-1331.17041015625,-1275.5394287109375,5272.2294921875,-7766.88232421875,-10246.4365234375,-4432.201171875,4467.96435546875,-58.80991744995117,-8319.21875,-445.8427429199219,388.6222839355469,3287.792236328125,14306.7041015625,2501.010986328125,8199.21484375,-492.73175048828125,13209.18359375,-3462.63232421875,-5865.89208984375,-4017.35302734375,-3610.451904296875,-6712.27783203125,-2188.6826171875,5010.763671875,3894.96484375,418.82196044921875,1154.74072265625,-1937.54833984375,4466.375,-3209.114013671875,16552.607421875,-5985.10107421875,-0.0,-6140.0732421875,6474.65380859375,-4892.34912109375,-4454.4541015625,357.62786865234375,6284.7138671875,-6475.44873046875,1488.5267333984375,-5731.58251953125,-2390.543701171875,-1924.8326416015625,7359.1865234375,3636.677978515625,-14925.0029296875,-7249.51416015625,-1085.5992431640625,684.2613525390625,-8099.0791015625,-1970.927001953125,-4134.97314453125,-12822.9453125,1589.4571533203125,-498.2948303222656,1165.0721435546875,-8705.45703125,-1724.56103515625,0.0,-2051.9892578125,0.0,-3249.645263671875,-0.0,957.64794921875
-12376.30859375,-15021.1650390625,-5249.18212890625,-514.984130859375,166.89300537109375,12334.1875,-4394.84912109375,-1313.6864013671875,-1257.2606201171875,5301.63427734375,-7758.935546875,-10242.4619140625,-4422.66455078125,4491.01123046875,-46.88898849487305,-8304.119140625,-437.1007385253906,399.74847412109375,3302.097412109375,14332.134765625,2510.547607421875,8210.341796875,-483.1949768066406,13223.4892578125,-3455.47998046875,-5858.7392578125,-4010.200439453125,-3596.146728515625,-6713.072265625,-2183.11962890625,5022.6845703125,3902.912109375,429.94818115234375,1165.8668212890625,-1928.8062744140625,4479.09033203125,-3196.3984375,16568.501953125,-5991.458984375,-0.0,-6129.74169921875,6485.7802734375,-4884.40185546875,-4441.73828125,371.9329833984375,6302.9921875,-6458.75927734375,1502.037109375,-5729.1982421875,-2373.8544921875,-1912.116943359375,7378.26025390625,3833.770751953125,-14913.08203125,-7249.51416015625,-1066.5257568359375,693.798095703125,-8066.4951171875,-1959.006103515625,-4115.1044921875,-12818.1767578125,1598.993896484375,-480.810791015625,1194.47705078125,-8710.2255859375,-1717.4085693359375,0.0,-2037.6842041015625,0.0,-3221.034912109375,-0.0,997.3843994140625
-12376.30859375,-15033.880859375,-5247.5927734375,-508.62628173828125,172.4561004638672,12345.314453125,-4385.3125,-1301.765380859375,-1245.3397216796875,5315.939453125,-7762.9091796875,-10233.7197265625,-4398.02783203125,4487.03759765625,-30.19968605041504,-8296.966796875,-432.3323669433594,408.4905090332031,3313.2236328125,14344.8515625,2517.7001953125,8219.8779296875,-473.6582336425781,13232.2314453125,-3452.301025390625,-5842.05029296875,-4002.253173828125,-3584.225830078125,-6710.68798828125,-2181.530029296875,5030.6318359375,3910.859619140625,434.716552734375,1171.429931640625,-1921.65380859375,4491.01123046875,-3185.272216796875,16578.0390625,-5989.86962890625,-0.0,-6124.97314453125,6497.701171875,-4874.865234375,-4430.6123046875,383.0591735839844,6315.7080078125,-6452.40185546875,1509.984375,-5725.22509765625,-2377.033203125,-1895.427734375,7391.77099609375,4220.8037109375,-14905.134765625,-7248.7197265625,-1066.5257568359375,707.3084716796875,-8077.62158203125,-1947.0850830078125,-4117.48876953125,-12810.23046875,1610.1201171875,-468.09515380859375,1175.403564453125,-8706.251953125,-1712.64013671875,0.0,-2045.63134765625,0.0,-3237.724365234375,-0.0,970.3636474609375
-12419.2236328125,-15098.25390625,-5248.3876953125,-514.984130859375,171.661376953125,12339.7509765625,-4385.3125,-1309.7127685546875,-1254.081787109375,5302.42919921875,-7798.671875,-10233.7197265625,-4386.10693359375,4472.732421875,-23.84185791015625,-8301.7353515625,-435.5112609863281,406.1063232421875,3310.83935546875,14335.314453125,2516.905517578125,8215.904296875,-476.04241943359375,13229.052734375,-3451.50634765625,-5849.20263671875,-4001.458740234375,-3588.994384765625,-6711.48291015625,-2193.450927734375,5026.65869140625,3902.912109375,429.94818115234375,1165.8668212890625,-1923.2431640625,4485.4482421875,-3186.06689453125,16574.064453125,-5984.30615234375,-0.0,-6123.3837890625,6498.49560546875,-4874.865234375,-4433.79052734375,381.4697265625,6309.3505859375,-6458.75927734375,1499.65283203125,-5726.01953125,-2377.033203125,-1889.8646240234375,7382.23388671875,4220.8037109375,-14952.0234375,-7247.9248046875,-1102.28857421875,722.4083251953125,-8074.44287109375,-1943.1114501953125,-4123.8466796875,-12822.1513671875,1607.7359619140625,-474.4529724121094,1149.9722900390625,-8705.45703125,-1722.9715576171875,0.0,-2064.704833984375,0.0,-3279.844970703125,-0.0,915.52734375
-12476.4443359375,-15161.037109375,-5242.82470703125,-532.4681396484375,166.09828186035156,12327.03515625,-4391.67041015625,-1327.19677734375,-1262.029052734375,5274.61376953125,-7813.771484375,-10248.025390625,-4402.001953125,4468.75927734375,-30.19968605041504,-8324.7822265625,-437.89544677734375,398.9537658691406,3301.302734375,14321.8037109375,2512.13720703125,8209.5458984375,-482.4002685546875,13219.515625,-3461.043212890625,-5856.35498046875,-4003.8427734375,-3610.451904296875,-6718.6357421875,-2222.855712890625,5021.89013671875,3894.170166015625,427.5639953613281,1161.8931884765625,-1929.60107421875,4478.2958984375,-3193.219482421875,16562.142578125,-5976.35888671875,-0.0,-6123.3837890625,6492.1376953125,-4881.22314453125,-4448.890625,374.3171691894531,6291.0712890625,-6478.62744140625,1479.78466796875,-5733.171875,-2391.33837890625,-1897.8118896484375,7360.7763671875,4369.41748046875,-14998.1181640625,-7254.28271484375,-1106.26220703125,713.666259765625,-8064.11083984375,-1946.2904052734375,-4149.2783203125,-12830.0986328125,1596.6097412109375,-484.7844543457031,1145.9986572265625,-8714.19921875,-1736.4820556640625,0.0,-2079.8046875,0.0,-3314.81298828125,-0.0,889.30126953125
-12435.9130859375,-15099.8427734375,-5228.51953125,-524.5208740234375,174.04556274414062,12329.4189453125,-4397.2333984375,-1331.17041015625,-1269.976318359375,5257.1298828125,-7816.95068359375,-10264.7138671875,-4429.8173828125,4473.52734375,-43.7100715637207,-8324.7822265625,-432.3323669433594,399.74847412109375,3296.5341796875,14305.9091796875,2519.289794921875,8210.341796875,-480.810791015625,13217.92578125,-3449.916748046875,-5842.05029296875,-4003.0478515625,-3612.836181640625,-6723.40380859375,-2227.624267578125,5026.65869140625,3900.52783203125,434.716552734375,1166.66162109375,-1924.8326416015625,4477.5009765625,-3198.78271484375,16556.58203125,-5984.30615234375,-0.0,-6110.66796875,6490.548828125,-4878.0439453125,-4450.47998046875,366.369873046875,6279.9453125,-6462.73291015625,1490.910888671875,-5718.86669921875,-2390.543701171875,-1910.527587890625,7359.1865234375,5242.02978515625,-14977.455078125,-7259.845703125,-1079.241455078125,701.745361328125,-8070.46875,-1962.1849365234375,-4177.88818359375,-12825.330078125,1595.020263671875,-490.3475646972656,1145.9986572265625,-8723.7353515625,-1746.8134765625,0.0,-2095.69921875,0.0,-3321.1708984375,-0.0,899.6327514648438
-12365.9775390625,-15037.0595703125,-5230.90380859375,-511.0104675292969,177.22447204589844,12334.1875,-4394.84912109375,-1324.8125,-1267.592041015625,5265.0771484375,-7785.16162109375,-10259.9462890625,-4429.8173828125,4475.91162109375,-44.50480270385742,-8320.013671875,-428.35870361328125,403.7221374511719,3298.12353515625,14307.4990234375,2524.05810546875,8214.314453125,-477.63189697265625,13224.2841796875,-3438.79052734375,-5851.5869140625,-4000.663818359375,-3604.888916015625,-6717.04638671875,-2207.756103515625,5030.6318359375,3907.680419921875,437.1007385253906,1169.0457763671875,-1919.26953125,4482.26953125,-3195.603515625,16563.734375,-5996.22705078125,-0.0,-6106.69482421875,6489.75390625,-4874.865234375,-4443.32763671875,367.9593505859375,6286.30322265625,-6453.99072265625,1503.62646484375,-5713.30419921875,-2373.8544921875,-1909.7327880859375,7368.7236328125,6014.505859375,-14928.181640625,-7253.48828125,-1048.2469482421875,698.56640625,-8076.8271484375,-1964.569091796875,-4169.14599609375,-12834.8662109375,1599.7886962890625,-487.16864013671875,1150.7669677734375,-8726.9140625,-1736.4820556640625,0.0,-2076.625732421875,0.0,-3296.5341796875,-0.0,916.3220825195312
-12341.33984375,-15019.576171875,-5248.3876953125,-526.1103515625,168.4824676513672,12331.0087890625,-4390.87548828125,-1316.070556640625,-1258.0552978515625,5282.56103515625,-7760.52490234375,-10244.8466796875,-4413.1279296875,4492.60107421875,-34.96805953979492,-8319.21875,-433.1270751953125,402.9273986816406,3304.4814453125,14322.5986328125,2516.110595703125,8210.341796875,-476.837158203125,13225.873046875,-3446.738037109375,-5896.88623046875,-4003.0478515625,-3598.531005859375,-6710.68798828125,-2197.424560546875,5026.65869140625,3906.8857421875,433.92181396484375,1164.2774658203125,-1924.0379638671875,4483.06396484375,-3190.835205078125,16570.091796875,-5985.10107421875,-0.0,-6126.5625,6479.421875,-4876.45458984375,-4440.943359375,378.2908020019531,6297.4296875,-6464.32275390625,1492.500244140625,-5717.27734375,-2374.64892578125,-1900.9908447265625,7372.697265625,6086.03125,-14906.7236328125,-7249.51416015625,-1049.8365478515625,706.5137329101562,-8072.85302734375,-1945.49560546875,-4150.86767578125,-12842.01953125,1603.7623291015625,-476.837158203125,1168.2509765625,-8719.76171875,-1731.713623046875,0.0,-2053.57861328125,0.0,-3283.02392578125,-0.0,928.2429809570312
-12382.6669921875,-15020.3701171875,-5242.82470703125,-535.6470947265625,181.1981201171875,12338.1611328125,-4371.8017578125,-1310.5074462890625,-1252.4923095703125,5290.50830078125,-7754.1669921875,-10223.388671875,-4371.8017578125,4484.6533203125,5.563100337982178,-8321.6025390625,-425.1798095703125,411.6694030761719,3317.991943359375,14330.5458984375,2523.26318359375,8217.494140625,-466.50567626953125,13233.8212890625,-3434.022216796875,-5884.17041015625,-3982.38525390625,-3597.736328125,-6693.9990234375,-2190.27197265625,5034.60546875,3911.654052734375,441.8691101074219,1169.8404541015625,-1912.9117431640625,4487.83251953125,-3174.14599609375,16578.83203125,-5967.6171875,-0.0,-6120.205078125,6484.1904296875,-4859.765625,-4433.79052734375,395.77484130859375,6306.96630859375,-6465.1171875,1482.1688232421875,-5704.5615234375,-2368.291259765625,-1861.25439453125,7377.4658203125,5702.97265625,-14897.1875,-7232.0302734375,-1042.6839599609375,753.4027099609375,-8061.7265625,-1903.375,-4128.61474609375,-12827.7138671875,1613.299072265625,-465.7109680175781,1169.8404541015625,-8716.5830078125,-1724.56103515625,0.0,-2058.346923828125,0.0,-3283.818603515625,-0.0,927.4482421875
-12386.6396484375,-15040.23828125,-5242.02978515625,-527.6997680664062,192.32432556152344,12338.9560546875,-4364.6494140625,-1309.7127685546875,-1242.95556640625,5300.83984375,-7765.29296875,-10216.236328125,-4381.33837890625,4466.375,19.073486328125,-8312.06640625,-422.7956237792969,418.0272521972656,3324.349609375,14336.109375,2528.031494140625,8223.056640625,-459.3531188964844,13237.7939453125,-3420.511962890625,-5865.89208984375,-3970.464111328125,-3596.146728515625,-6693.20458984375,-2178.35107421875,5038.57958984375,3914.0380859375,443.45855712890625,1173.814208984375,-1906.5538330078125,4493.3955078125,-3166.993408203125,16583.6015625,-5967.6171875,-0.0,-6112.25732421875,6486.57470703125,-4851.0234375,-4431.40673828125,402.9273986816406,6312.529296875,-6461.9384765625,1488.5267333984375,-5697.4091796875,-2372.264892578125,-1847.7440185546875,7376.6708984375,5417.6650390625,-14894.0087890625,-7229.64599609375,-1041.094482421875,754.9921875,-8052.9853515625,-1894.6329345703125,-4110.33642578125,-12828.509765625,1616.47802734375,-460.1478576660156,1166.66162109375,-8716.5830078125,-1719.792724609375,0.0,-2052.783935546875,0.0,-3264.7451171875,-0.0,936.9849853515625
-12358.029296875,-15061.6962890625,-5242.02978515625,-518.1630249023438,193.11904907226562,12347.6982421875,-4367.828125,-1295.4075927734375,-1233.4188232421875,5320.7080078125,-7778.0087890625,-10213.8515625,-4410.74365234375,4502.1376953125,-7.152557373046875,-8289.814453125,-418.0272521972656,422.0008850097656,3329.117919921875,14353.5927734375,2532.00537109375,8229.4150390625,-457.763671875,13243.357421875,-3415.74365234375,-5865.09716796875,-3982.38525390625,-3580.25244140625,-6702.7412109375,-2169.609130859375,5043.34765625,3916.42236328125,445.8427429199219,1178.58251953125,-1903.375,4500.5478515625,-3170.967041015625,16591.548828125,-5980.3330078125,-0.0,-6109.0791015625,6492.1376953125,-4853.4072265625,-4422.66455078125,397.3642883300781,6327.62890625,-6443.6591796875,1498.858154296875,-5705.3564453125,-2361.933349609375,-1875.5594482421875,7393.3603515625,5617.9365234375,-14895.5986328125,-7238.38818359375,-1037.120849609375,712.0768432617188,-8055.369140625,-1946.2904052734375,-4098.41552734375,-12822.1513671875,1621.246337890625,-453.7900390625,1184.9403076171875,-8700.6884765625,-1715.0242919921875,0.0,-2028.942138671875,0.0,-3227.392822265625,-0.0,960.826904296875
-12382.6669921875,-15077.5908203125,-5216.5986328125,-510.21575927734375,202.65579223632812,12358.8251953125,-4359.880859375,-1289.0498046875,-1228.650390625,5325.47607421875,-7768.47216796875,-10213.0576171875,-4425.048828125,4497.369140625,13.51038646697998,-8285.83984375,-410.87469482421875,429.1534423828125,3333.886474609375,14359.15625,2540.747314453125,8236.5673828125,-449.8163757324219,13252.0986328125,-3412.564453125,-5861.12353515625,-3967.28515625,-3571.51025390625,-6699.56201171875,-2183.11962890625,5051.294921875,3920.396240234375,455.3794860839844,1189.708740234375,-1894.6329345703125,4506.90625,-3163.019775390625,16597.90625,-5985.8955078125,-0.0,-6097.15771484375,6504.05859375,-4843.076171875,-4414.71728515625,404.516845703125,6330.80810546875,-6408.69140625,1506.0106201171875,-5706.94580078125,-2354.781005859375,-1853.30712890625,7402.89697265625,5243.61962890625,-14912.2880859375,-7236.00390625,-1025.199951171875,730.3555908203125,-8065.70068359375,-1944.7008056640625,-4101.59423828125,-12812.6142578125,1629.98828125,-448.2269287109375,1186.52978515625,-8695.919921875,-1706.2822265625,0.0,-2046.426025390625,0.0,-3240.903076171875,-0.0,965.59521484375
-12389.8193359375,-15086.3330078125,-5240.4404296875,-511.0104675292969,187.5559539794922,12349.2880859375,-4377.365234375,-1296.9970703125,-1235.802978515625,5319.91357421875,-7763.70361328125,-10221.798828125,-4444.9169921875,4496.57421875,-41.32588577270508,-8295.376953125,-424.38507080078125,414.84832763671875,3320.376220703125,14355.1826171875,2526.4423828125,8227.8251953125,-464.9162292480469,13240.177734375,-3442.76416015625,-5839.666015625,-3993.51123046875,-3582.636474609375,-6726.5830078125,-2214.114013671875,5039.3740234375,3909.269775390625,441.0743713378906,1179.377197265625,-1911.322265625,4495.779296875,-3179.709228515625,16588.369140625,-5980.3330078125,-0.0,-6118.61572265625,6510.41650390625,-4859.765625,-4425.048828125,388.6222839355469,6322.86083984375,-6473.064453125,1503.62646484375,-5714.8935546875,-2382.59619140625,-1906.5538330078125,7397.33349609375,4046.758056640625,-14933.7451171875,-7263.02490234375,-1041.88916015625,685.8507690429688,-8063.31640625,-1961.3902587890625,-4135.767578125,-12821.3564453125,1617.272705078125,-458.55841064453125,1173.814208984375,-8719.76171875,-1713.434814453125,0.0,-2079.010009765625,0.0,-3286.20263671875,-0.0,948.9059448242188
-12416.83984375,-15110.1748046875,-5255.54052734375,-513.3946533203125,175.63502502441406,12346.1083984375,-4386.10693359375,-1292.228759765625,-1242.1607666015625,5311.9658203125,-7762.1142578125,-10229.7470703125,-4444.1220703125,4487.03759765625,-76.2939453125,-8296.171875,-433.1270751953125,408.4905090332031,3317.991943359375,14355.1826171875,2517.7001953125,8221.466796875,-473.6582336425781,13236.205078125,-3461.043212890625,-5847.61279296875,-4018.14794921875,-3579.45751953125,-6751.21923828125,-2208.55078125,5029.8369140625,3899.7333984375,432.3323669433594,1172.224609375,-1920.0643310546875,4489.421875,-3186.86181640625,16586.78125,-5989.86962890625,-0.0,-6131.3310546875,6500.08544921875,-4870.8916015625,-4425.048828125,382.26446533203125,6326.03955078125,-6493.72705078125,1501.2423095703125,-5722.0458984375,-2365.906982421875,-1940.727294921875,7400.5126953125,3542.900146484375,-14933.7451171875,-7287.6611328125,-1062.5521240234375,654.8563842773438,-8064.90625,-1959.80078125,-4135.767578125,-12848.376953125,1610.914794921875,-462.53204345703125,1153.9459228515625,-8730.09375,-1724.56103515625,0.0,-2088.546875,0.0,-3310.83935546875,-0.0,913.1431884765625
-12459.7548828125,-15133.2216796875,-5271.4345703125,-544.3890991210938,155.7667999267578,12321.47265625,-4400.412109375,-1317.6600341796875,-1248.5185546875,5325.47607421875,-7794.6982421875,-10251.2041015625,-4433.79052734375,4473.52734375,-91.39379119873047,-8323.9873046875,-452.2005615234375,391.80120849609375,3303.686767578125,14348.82421875,2499.42138671875,8198.4208984375,-488.7580871582031,13216.3359375,-3478.527099609375,-5887.349609375,-4039.605712890625,-3604.09423828125,-6744.06689453125,-2206.96142578125,5010.763671875,3879.864990234375,414.84832763671875,1149.177490234375,-1936.753662109375,4470.34814453125,-3200.3720703125,16568.501953125,-6007.353515625,-0.0,-6149.60986328125,6469.88525390625,-4887.5810546875,-4448.095703125,371.9329833984375,6313.32421875,-6481.01171875,1471.0426025390625,-5750.65625,-2381.801513671875,-1955.8270263671875,7368.7236328125,3537.337158203125,-14939.30859375,-7282.09814453125,-1095.9306640625,652.47216796875,-8094.310546875,-1968.5428466796875,-4109.54150390625,-12869.0400390625,1591.046630859375,-471.2740478515625,1144.4091796875,-8741.2197265625,-1744.42919921875,0.0,-2079.8046875,0.0,-3282.229248046875,-0.0,920.2957153320312
-12456.576171875,-15085.5380859375,-5276.998046875,-558.6942138671875,143.8458709716797,12315.1142578125,-4407.564453125,-1333.5545654296875,-1254.87646484375,5318.32373046875,-7812.97705078125,-10254.3828125,-4432.201171875,4475.11669921875,-87.4201431274414,-8347.8291015625,-459.3531188964844,383.0591735839844,3295.739501953125,14344.0556640625,2491.47412109375,8190.47265625,-497.5001220703125,13207.5947265625,-3476.142822265625,-5890.5283203125,-4045.16845703125,-3619.98876953125,-6728.96728515625,-2198.21923828125,5002.81689453125,3875.891357421875,406.9010314941406,1140.435546875,-1944.7008056640625,4460.8115234375,-3209.114013671875,16561.349609375,-6011.3271484375,-0.0,-6151.994140625,6459.55419921875,-4897.91259765625,-4458.42724609375,363.9856872558594,6299.81396484375,-6492.1376953125,1457.5322265625,-5753.8349609375,-2381.801513671875,-1952.648193359375,7348.85546875,3457.0693359375,-14939.30859375,-7268.58740234375,-1100.6990966796875,662.8036499023438,-8120.53662109375,-1983.642578125,-4112.720703125,-12853.9404296875,1582.3045654296875,-478.4266052246094,1146.7933349609375,-8734.0673828125,-1750.787109375,0.0,-2086.16259765625,0.0,-3277.460693359375,-0.0,928.2429809570312
-12421.6083984375,-15042.623046875,-5277.79248046875,-552.3363647460938,147.02479553222656,12321.47265625,-4404.38623046875,-1327.19677734375,-1259.6448974609375,5289.71337890625,-7804.23486328125,-10245.640625,-4422.66455078125,4465.580078125,-64.37301635742188,-8342.265625,-455.3794860839844,385.443359375,3298.12353515625,14328.162109375,2496.242431640625,8195.2412109375,-492.73175048828125,13213.1572265625,-3468.195556640625,-5878.607421875,-4024.505615234375,-3613.631103515625,-6728.17236328125,-2189.477294921875,5009.17431640625,3882.2490234375,410.0799560546875,1143.6143798828125,-1939.9324951171875,4464.78515625,-3204.345703125,16563.734375,-6015.30078125,-0.0,-6148.0205078125,6464.32275390625,-4896.32275390625,-4452.06982421875,367.9593505859375,6300.6083984375,-6508.8271484375,1464.684814453125,-5727.609375,-2379.41748046875,-1933.57470703125,7357.59716796875,2919.8330078125,-14932.9501953125,-7265.4091796875,-1066.5257568359375,685.8507690429688,-8109.41015625,-1968.5428466796875,-4124.6416015625,-12840.4306640625,1587.86767578125,-479.2213439941406,1130.10400390625,-8726.9140625,-1746.018798828125,0.0,-2088.546875,0.0,-3298.12353515625,-0.0,896.453857421875
-12373.923828125,-15034.67578125,-5287.3291015625,-558.6942138671875,141.46168518066406,12308.7568359375,-4405.9755859375,-1330.375732421875,-1264.4132080078125,5271.4345703125,-7787.5458984375,-10252.79296875,-4423.45947265625,4462.40087890625,-52.45208740234375,-8351.0087890625,-459.3531188964844,379.8802795410156,3292.560546875,14315.4462890625,2489.884521484375,8188.08837890625,-497.5001220703125,13206.0048828125,-3484.885009765625,-5894.501953125,-4021.32666015625,-3620.783447265625,-6731.3515625,-2198.21923828125,5002.02197265625,3876.68603515625,403.7221374511719,1136.4619140625,-1946.2904052734375,4457.63232421875,-3205.935302734375,16555.78515625,-6017.68505859375,-0.0,-6158.35205078125,6454.78564453125,-4897.91259765625,-4460.8115234375,367.16461181640625,6291.8662109375,-6513.595703125,1460.711181640625,-5733.966796875,-2402.464599609375,-1920.8590087890625,7355.21337890625,2142.58837890625,-14931.361328125,-7267.79296875,-1065.7310791015625,693.0033569335938,-8130.07373046875,-1965.36376953125,-4130.9990234375,-12849.171875,1583.8941650390625,-485.57916259765625,1143.6143798828125,-8730.888671875,-1747.608154296875,0.0,-2077.42041015625,0.0,-3294.94482421875,-0.0,905.9906005859375
-12399.35546875,-15059.3115234375,-5289.71337890625,-567.4362182617188,139.07749938964844,12296.041015625,-4414.71728515625,-1347.06494140625,-1276.3341064453125,5261.10302734375,-7785.16162109375,-10265.509765625,-4438.55908203125,4462.40087890625,-62.78356170654297,-8360.544921875,-469.6846008300781,370.3435363769531,3281.434326171875,14303.525390625,2483.52685546875,8178.5517578125,-506.2420959472656,13194.87890625,-3486.474365234375,-5915.1650390625,-4033.24755859375,-3631.90966796875,-6731.3515625,-2207.756103515625,4992.48486328125,3864.76513671875,396.569580078125,1127.7198486328125,-1954.2376708984375,4445.71142578125,-3215.471923828125,16544.66015625,-6021.658203125,-0.0,-6164.70947265625,6441.27490234375,-4905.06494140625,-4473.52734375,356.0384216308594,6275.9716796875,-6509.6220703125,1450.3797607421875,-5741.119140625,-2417.564453125,-1931.1904296875,7337.72900390625,1069.7047119140625,-14939.30859375,-7267.79296875,-1080.0361328125,681.0823974609375,-8131.6630859375,-1981.2584228515625,-4146.09912109375,-12868.2451171875,1571.178466796875,-499.08953857421875,1154.74072265625,-8742.0146484375,-1755.5555419921875,0.0,-2075.036376953125,0.0,-3291.765869140625,-0.0,918.7062377929688
-12430.3505859375,-15104.611328125,-5292.09765625,-569.8204345703125,139.8722381591797,12289.68359375,-4416.30712890625,-1348.6544189453125,-1274.74462890625,5281.7666015625,-7798.671875,-10267.0986328125,-4437.7646484375,4452.8642578125,-65.96247100830078,-8357.365234375,-472.06878662109375,366.369873046875,3279.844970703125,14312.267578125,2479.55322265625,8175.373046875,-508.62628173828125,13190.1103515625,-3478.527099609375,-5923.1123046875,-4032.453125,-3640.651611328125,-6737.708984375,-2216.498046875,4988.51171875,3856.023193359375,392.5959167480469,1123.7462158203125,-1956.621826171875,4441.73828125,-3217.061279296875,16540.685546875,-6007.353515625,-0.0,-6162.3251953125,6438.0966796875,-4905.859375,-4479.88525390625,354.4489440917969,6278.35595703125,-6515.18505859375,1446.406005859375,-5740.32470703125,-2428.690673828125,-1932.7799072265625,7334.55029296875,10.33147144317627,-14951.2294921875,-7273.35595703125,-1095.9306640625,674.724609375,-8122.9208984375,-1977.28466796875,-4148.4833984375,-12876.193359375,1567.99951171875,-496.7053527832031,1138.0513916015625,-8756.3203125,-1757.939697265625,0.0,-2087.752197265625,0.0,-3293.355224609375,-0.0,905.1958618164062
-12424.7861328125,-15129.2490234375,-5298.45556640625,-579.357177734375,133.514404296875,12292.8623046875,-4417.896484375,-1343.09130859375,-1270.77099609375,5282.56103515625,-7809.00341796875,-10281.4033203125,-4438.55908203125,4454.4541015625,-65.96247100830078,-8350.212890625,-480.810791015625,361.60150146484375,3279.050048828125,14321.009765625,2473.1953125,8172.1943359375,-513.3946533203125,13189.3154296875,-3483.29541015625,-5908.80712890625,-4035.631591796875,-3635.88330078125,-6737.708984375,-2233.1875,4983.7431640625,3846.486328125,387.0328369140625,1117.388427734375,-1961.3902587890625,4438.55908203125,-3219.445556640625,16542.27734375,-6061.39501953125,-0.0,-6167.09375,6440.48046875,-4909.03857421875,-4478.2958984375,355.2436828613281,6283.12451171875,-6514.390625,1437.6640625,-5748.27197265625,-2427.895751953125,-1931.9852294921875,7341.703125,-785.1918334960938,-14966.3291015625,-7277.330078125,-1112.6199951171875,679.492919921875,-8130.8681640625,-1970.927001953125,-4146.09912109375,-12886.5244140625,1565.6153564453125,-494.3211669921875,1142.8197021484375,-8758.7041015625,-1762.7080078125,0.0,-2098.08349609375,0.0,-3306.86572265625,-0.0,901.2222290039062
-12429.5546875,-15121.30078125,-5300.83984375,-565.8467407226562,134.3091278076172,12302.3984375,-4411.53857421875,-1335.14404296875,-1261.2342529296875,5273.02392578125,-7811.3876953125,-10277.4306640625,-4430.6123046875,4460.0166015625,-54.836273193359375,-8341.4716796875,-476.04241943359375,367.9593505859375,3282.229248046875,14321.009765625,2477.963623046875,8179.34716796875,-508.62628173828125,13196.46875,-3485.6796875,-5877.01806640625,-4026.094970703125,-3629.525390625,-6738.50390625,-2230.00830078125,4987.716796875,3855.228515625,388.6222839355469,1124.5408935546875,-1956.621826171875,4447.30126953125,-3213.087890625,16547.837890625,-6015.30078125,-0.0,-6167.09375,6456.375,-4903.47509765625,-4470.34814453125,363.9856872558594,6288.68701171875,-6500.8798828125,1451.9691162109375,-5750.65625,-2419.15380859375,-1920.0643310546875,7350.44482421875,-197.0926971435547,-14970.302734375,-7279.7138671875,-1118.9779052734375,698.56640625,-8122.9208984375,-1959.80078125,-4138.15185546875,-12878.5771484375,1570.3836669921875,-491.14227294921875,1147.588134765625,-8752.345703125,-1755.5555419921875,0.0,-2096.493896484375,0.0,-3311.634033203125,-0.0,898.8380126953125
-12451.8076171875,-15106.201171875,-5277.79248046875,-548.3627319335938,144.64060974121094,12307.9619140625,-4408.359375,-1334.3492431640625,-1254.081787109375,5284.94482421875,-7804.23486328125,-10256.767578125,-4436.1748046875,4479.09033203125,-58.01518630981445,-8339.8818359375,-467.3004150390625,375.9066162109375,3286.99755859375,14326.572265625,2487.50048828125,8185.7041015625,-501.4737243652344,13202.03125,-3476.142822265625,-5880.99169921875,-4026.094970703125,-3622.372802734375,-6735.32470703125,-2231.597900390625,4996.45849609375,3867.1494140625,402.1326599121094,1132.48828125,-1947.0850830078125,4456.04345703125,-3209.114013671875,16551.017578125,-6006.55908203125,-0.0,-6154.37841796875,6462.73291015625,-4898.70703125,-4464.78515625,368.7540588378906,6287.09814453125,-6502.4697265625,1471.83740234375,-5739.5302734375,-2405.6435546875,-1925.6273193359375,7352.0341796875,858.306884765625,-14971.892578125,-7272.5615234375,-1102.28857421875,689.0296630859375,-8102.2578125,-1960.5953369140625,-4146.09912109375,-12866.65625,1576.7415771484375,-488.7580871582031,1158.71435546875,-8745.98828125,-1745.2239990234375,0.0,-2086.16259765625,0.0,-3294.150146484375,-0.0,915.52734375
-12418.4296875,-15064.080078125,-5260.30859375,-525.3156127929688,161.3299102783203,12327.03515625,-4392.46533203125,-1318.4547119140625,-1245.3397216796875,5304.0185546875,-7780.39306640625,-10225.7724609375,-4426.63818359375,4483.8583984375,-44.50480270385742,-8319.21875,-447.43218994140625,394.1853942871094,3304.4814453125,14340.0830078125,2507.368896484375,8204.77734375,-484.7844543457031,13219.515625,-3461.043212890625,-5869.0703125,-4013.379638671875,-3603.29931640625,-6721.01953125,-2207.756103515625,5017.12158203125,3890.196533203125,423.59033203125,1152.3564453125,-1928.8062744140625,4473.52734375,-3193.219482421875,16568.501953125,-5997.02197265625,-0.0,-6136.89404296875,6478.62744140625,-4882.017578125,-4447.30126953125,381.4697265625,6304.58203125,-6492.1376953125,1492.500244140625,-5723.63525390625,-2381.801513671875,-1912.116943359375,7369.51806640625,1607.7359619140625,-14949.6396484375,-7258.25634765625,-1061.7574462890625,686.6455078125,-8078.416015625,-1943.1114501953125,-4130.20458984375,-12844.4033203125,1592.6361083984375,-474.4529724121094,1167.456298828125,-8726.9140625,-1726.9453125,0.0,-2067.089111328125,0.0,-3276.666015625,-0.0,935.3955688476562
-12389.8193359375,-15046.5966796875,-5246.7978515625,-508.62628173828125,176.42974853515625,12342.9296875,-4382.92822265625,-1305.739013671875,-1244.544921875,5303.22412109375,-7766.087890625,-10212.26171875,-4424.25390625,4493.3955078125,-40.531158447265625,-8307.2978515625,-430.7428894042969,408.4905090332031,3314.018310546875,14336.109375,2521.673828125,8220.6728515625,-472.863525390625,13233.8212890625,-3442.76416015625,-5849.9970703125,-4003.8427734375,-3588.994384765625,-6717.04638671875,-2179.145751953125,5033.01611328125,3904.501708984375,436.3059997558594,1167.456298828125,-1915.2958984375,4487.83251953125,-3183.6826171875,16581.216796875,-5987.4853515625,-0.0,-6121.79443359375,6492.9326171875,-4870.8916015625,-4432.99609375,388.6222839355469,6316.5029296875,-6461.9384765625,1508.3948974609375,-5712.50927734375,-2365.906982421875,-1907.3486328125,7381.439453125,2153.71435546875,-14921.029296875,-7255.0771484375,-1044.2734375,689.8244018554688,-8070.46875,-1936.753662109375,-4107.9521484375,-12834.8662109375,1606.146484375,-466.50567626953125,1175.403564453125,-8714.19921875,-1715.0242919921875,0.0,-2043.2471923828125,0.0,-3254.41357421875,-0.0,944.9323120117188
-12377.8984375,-15065.669921875,-5242.82470703125,-513.3946533203125,188.35067749023438,12342.1357421875,-4378.16015625,-1308.91796875,-1247.723876953125,5296.0712890625,-7754.1669921875,-10213.8515625,-4409.154296875,4498.95849609375,-24.636587142944336,-8304.119140625,-429.1534423828125,413.2588806152344,3317.197021484375,14328.95703125,2528.826416015625,8223.056640625,-468.09515380859375,13233.8212890625,-3428.459228515625,-5857.1494140625,-3991.921875,-3591.37841796875,-6709.8935546875,-2172.787841796875,5036.98974609375,3902.912109375,438.690185546875,1168.2509765625,-1907.3486328125,4491.80615234375,-3178.914306640625,16581.216796875,-5989.86962890625,-0.0,-6111.462890625,6492.9326171875,-4862.9443359375,-4433.79052734375,392.5959167480469,6311.73486328125,-6452.40185546875,1502.831787109375,-5700.58837890625,-2364.317626953125,-1892.248779296875,7379.05517578125,2937.31689453125,-14909.9033203125,-7246.33544921875,-1042.6839599609375,711.2821044921875,-8064.90625,-1931.9852294921875,-4115.1044921875,-12838.8408203125,1612.50439453125,-468.09515380859375,1180.9666748046875,-8718.9677734375,-1715.8189697265625,0.0,-2045.63134765625,0.0,-3252.823974609375,-0.0,948.1112060546875
-12390.61328125,-15086.3330078125,-5257.1298828125,-533.2628784179688,182.78758239746094,12334.982421875,-4378.95458984375,-1310.5074462890625,-1246.1343994140625,5298.45556640625,-7783.57177734375,-10227.3623046875,-4400.412109375,4483.06396484375,-19.073486328125,-8289.814453125,-439.48492431640625,410.0799560546875,3316.40234375,14331.3408203125,2522.468505859375,8215.904296875,-469.6846008300781,13231.4365234375,-3437.201171875,-5873.8388671875,-3991.921875,-3589.7890625,-6721.01953125,-2180.7353515625,5030.6318359375,3894.170166015625,430.7428894042969,1160.3037109375,-1912.116943359375,4487.03759765625,-3179.709228515625,16578.83203125,-5991.458984375,-0.0,-6121.0,6482.60107421875,-4866.123046875,-4436.1748046875,391.0064697265625,6310.14501953125,-6474.65380859375,1482.1688232421875,-5705.3564453125,-2369.0859375,-1884.301513671875,7381.439453125,3774.166015625,-14921.029296875,-7259.05078125,-1045.068115234375,720.0241088867188,-8058.5478515625,-1928.8062744140625,-4126.23095703125,-12851.5556640625,1606.146484375,-468.09515380859375,1169.0457763671875,-8730.888671875,-1726.9453125,0.0,-2059.141845703125,0.0,-3265.539794921875,-0.0,939.3692016601562
-12446.244140625,-15085.5380859375,-5269.845703125,-542.0048828125,169.27719116210938,12334.1875,-4382.13330078125,-1303.3548583984375,-1239.776611328125,5310.37646484375,-7804.23486328125,-10237.693359375,-4411.53857421875,4488.626953125,-29.404958724975586,-8292.9921875,-445.8427429199219,408.4905090332031,3313.2236328125,14343.26171875,2516.110595703125,8212.7255859375,-472.863525390625,13231.4365234375,-3456.274658203125,-5874.6337890625,-4002.253173828125,-3585.8154296875,-6727.37744140625,-2187.887939453125,5025.86376953125,3884.63330078125,423.59033203125,1155.535400390625,-1918.474853515625,4485.4482421875,-3183.6826171875,16580.423828125,-5995.4326171875,-0.0,-6132.9208984375,6477.8330078125,-4873.27587890625,-4433.79052734375,389.4170227050781,6316.5029296875,-6497.701171875,1475.0162353515625,-5722.8408203125,-2372.264892578125,-1893.04345703125,7387.796875,4427.43310546875,-14934.5400390625,-7267.79296875,-1055.3995361328125,712.0768432617188,-8049.8056640625,-1949.46923828125,-4125.4365234375,-12857.9140625,1602.9676513671875,-463.3267822265625,1180.1719970703125,-8740.4248046875,-1729.3294677734375,0.0,-2063.91015625,0.0,-3259.9765625,-0.0,952.8795776367188
-12482.802734375,-15096.6640625,-5262.69287109375,-540.4154663085938,168.4824676513672,12341.33984375,-4376.5703125,-1293.818115234375,-1231.829345703125,5321.5029296875,-7794.6982421875,-10240.8720703125,-4407.564453125,4498.16357421875,-13.51038646697998,-8288.224609375,-442.663818359375,410.87469482421875,3320.376220703125,14355.1826171875,2518.494873046875,8216.6982421875,-469.6846008300781,13238.5888671875,-3465.8115234375,-5863.5078125,-3997.484619140625,-3579.45751953125,-6719.4306640625,-2191.861328125,5029.8369140625,3885.42822265625,427.5639953613281,1157.1248779296875,-1913.7064208984375,4489.421875,-3178.914306640625,16588.369140625,-6012.12158203125,-0.0,-6132.9208984375,6482.60107421875,-4869.30224609375,-4426.63818359375,395.77484130859375,6326.833984375,-6486.57470703125,1475.81103515625,-5728.40380859375,-2367.49658203125,-1878.7384033203125,7399.7177734375,4880.42822265625,-14951.2294921875,-7258.25634765625,-1065.7310791015625,717.639892578125,-8050.60107421875,-1938.343017578125,-4125.4365234375,-12858.7080078125,1609.325439453125,-453.7900390625,1196.0665283203125,-8733.2724609375,-1725.355712890625,0.0,-2063.91015625,0.0,-3262.36083984375,-0.0,963.2110595703125
-12422.40234375,-15094.2802734375,-5234.08251953125,-515.7788696289062,195.50323486328125,12360.4130859375,-4358.29150390625,-1283.4866943359375,-1223.882080078125,5329.4501953125,-7754.96142578125,-10219.4150390625,-4399.61767578125,4512.46875,11.920928955078125,-8292.9921875,-421.2061462402344,429.1534423828125,3337.860107421875,14365.513671875,2538.36328125,8234.18359375,-450.6111145019531,13253.6884765625,-3438.79052734375,-5838.87109375,-3973.642822265625,-3569.126220703125,-6705.919921875,-2176.76171875,5049.70556640625,3909.269775390625,450.6111145019531,1176.9930419921875,-1892.248779296875,4506.111328125,-3160.6357421875,16603.470703125,-5988.27978515625,-0.0,-6109.0791015625,6503.26416015625,-4849.43408203125,-4412.3330078125,410.87469482421875,6340.3447265625,-6448.427734375,1499.65283203125,-5699.79345703125,-2349.2177734375,-1853.30712890625,7407.6650390625,5698.9990234375,-14931.361328125,-7241.56689453125,-1053.015380859375,731.1503295898438,-8057.75341796875,-1912.116943359375,-4097.62060546875,-12832.482421875,1626.8094482421875,-440.2796325683594,1200.8348388671875,-8710.2255859375,-1706.2822265625,0.0,-2034.505126953125,0.0,-3249.645263671875,-0.0,964.0057983398438
-12332.5986328125,-15086.3330078125,-5224.5458984375,-504.6526794433594,193.11904907226562,12348.4921875,-4370.21240234375,-1304.149658203125,-1232.6240234375,5312.7607421875,-7751.78271484375,-10206.69921875,-4412.3330078125,4502.1376953125,-6.357828617095947,-8314.4501953125,-419.61669921875,422.0008850097656,3324.349609375,14345.6455078125,2536.773681640625,8227.8251953125,-458.55841064453125,13240.177734375,-3433.2275390625,-5847.61279296875,-3986.358642578125,-3587.405029296875,-6711.48291015625,-2176.76171875,5045.73193359375,3917.21728515625,452.2005615234375,1178.58251953125,-1899.4013671875,4500.5478515625,-3171.76171875,16587.576171875,-5983.51123046875,-0.0,-6105.10498046875,6500.08544921875,-4858.970703125,-4427.43310546875,398.9537658691406,6320.4765625,-6439.68603515625,1509.984375,-5700.58837890625,-2358.75439453125,-1871.5858154296875,7382.23388671875,7402.89697265625,-14905.9296875,-7247.9248046875,-1048.2469482421875,723.9977416992188,-8049.01123046875,-1931.9852294921875,-4107.9521484375,-12817.3828125,1617.272705078125,-456.1742248535156,1165.8668212890625,-8697.509765625,-1705.487548828125,0.0,-2045.63134765625,0.0,-3255.208251953125,-0.0,929.0377197265625
-12336.5712890625,-15096.6640625,-5241.2353515625,-511.0104675292969,177.22447204589844,12333.3935546875,-4387.69677734375,-1316.8653564453125,-1236.59765625,5307.19775390625,-7762.9091796875,-10208.2890625,-4431.40673828125,4514.05859375,-38.94169998168945,-8314.4501953125,-429.1534423828125,407.6957702636719,3310.04443359375,14340.8779296875,2522.468505859375,8216.6982421875,-475.2477111816406,13226.66796875,-3446.738037109375,-5864.30224609375,-4007.81640625,-3597.736328125,-6717.04638671875,-2180.7353515625,5034.60546875,3910.859619140625,440.2796325683594,1168.2509765625,-1914.501220703125,4488.626953125,-3187.656494140625,16574.859375,-5987.4853515625,-0.0,-6121.0,6490.548828125,-4877.2490234375,-4440.14892578125,383.8539123535156,6306.17138671875,-6453.1962890625,1502.831787109375,-5717.27734375,-2374.64892578125,-1905.7591552734375,7372.697265625,8872.349609375,-14894.0087890625,-7254.28271484375,-1047.4522705078125,696.9769897460938,-8041.85888671875,-1955.0323486328125,-4127.8203125,-12820.5615234375,1602.9676513671875,-465.7109680175781,1171.429931640625,-8695.1259765625,-1711.0506591796875,0.0,-2063.115478515625,0.0,-3268.71875,-0.0,932.2166748046875
-12369.9501953125,-15058.517578125,-5245.208984375,-522.931396484375,182.78758239746094,12334.1875,-4379.74951171875,-1311.30224609375,-1228.650390625,5319.91357421875,-7752.5771484375,-10215.44140625,-4436.1748046875,4510.87939453125,-31.789142608642578,-8322.3984375,-428.35870361328125,410.0799560546875,3316.40234375,14355.1826171875,2525.6474609375,8218.2880859375,-469.6846008300781,13229.052734375,-3441.1748046875,-5863.5078125,-3993.51123046875,-3596.146728515625,-6708.3037109375,-2178.35107421875,5035.400390625,3909.269775390625,441.0743713378906,1168.2509765625,-1911.322265625,4489.421875,-3182.09326171875,16581.216796875,-5976.35888671875,-0.0,-6121.0,6489.75390625,-4870.0966796875,-4439.35400390625,391.0064697265625,6314.9130859375,-6446.83837890625,1494.884521484375,-5704.5615234375,-2373.8544921875,-1897.8118896484375,7377.4658203125,9001.8916015625,-14899.5712890625,-7245.54052734375,-1053.81005859375,688.2349853515625,-8052.9853515625,-1945.49560546875,-4116.69384765625,-12818.97265625,1606.146484375,-456.96893310546875,1184.1456298828125,-8691.1513671875,-1718.2032470703125,0.0,-2058.346923828125,0.0,-3263.950439453125,-0.0,946.521728515625
-12382.6669921875,-15031.4970703125,-5257.1298828125,-542.0048828125,174.8402862548828,12330.21484375,-4382.92822265625,-1311.30224609375,-1232.6240234375,5326.27099609375,-7764.498046875,-10234.515625,-4431.40673828125,4491.80615234375,-41.32588577270508,-8316.833984375,-437.1007385253906,405.31158447265625,3316.40234375,14357.56640625,2518.494873046875,8213.5205078125,-472.863525390625,13227.462890625,-3446.738037109375,-5871.45458984375,-4000.663818359375,-3596.146728515625,-6707.50927734375,-2190.27197265625,5028.248046875,3897.34912109375,431.5376281738281,1160.3037109375,-1916.090576171875,4484.6533203125,-3185.272216796875,16579.62890625,-5979.5380859375,-0.0,-6125.76806640625,6480.216796875,-4874.865234375,-4441.73828125,390.21173095703125,6315.7080078125,-6466.70654296875,1476.605712890625,-5714.0986328125,-2379.41748046875,-1906.5538330078125,7375.8759765625,8913.67578125,-14924.208984375,-7247.1298828125,-1069.7047119140625,689.8244018554688,-8059.34228515625,-1947.8797607421875,-4108.7470703125,-12826.125,1603.7623291015625,-458.55841064453125,1176.1983642578125,-8700.6884765625,-1729.3294677734375,0.0,-2064.704833984375,0.0,-3262.36083984375,-0.0,938.574462890625
-12384.255859375,-15050.5703125,-5263.4873046875,-542.0048828125,169.27719116210938,12331.8037109375,-4386.10693359375,-1309.7127685546875,-1238.9818115234375,5319.91357421875,-7781.982421875,-10241.66796875,-4423.45947265625,4486.24267578125,-50.067901611328125,-8319.21875,-441.0743713378906,406.1063232421875,3314.81298828125,14352.00390625,2513.7265625,8211.1357421875,-475.2477111816406,13227.462890625,-3453.890625,-5873.8388671875,-4010.200439453125,-3597.736328125,-6720.22509765625,-2195.04052734375,5025.86376953125,3891.785888671875,427.5639953613281,1157.9195556640625,-1920.0643310546875,4484.6533203125,-3186.06689453125,16580.423828125,-5997.02197265625,-0.0,-6132.1259765625,6477.8330078125,-4879.63330078125,-4438.55908203125,388.6222839355469,6315.7080078125,-6496.90625,1475.0162353515625,-5731.58251953125,-2385.775390625,-1913.7064208984375,7378.26025390625,8925.59765625,-14931.361328125,-7256.66650390625,-1066.5257568359375,692.2086181640625,-8071.26318359375,-1951.0587158203125,-4108.7470703125,-12836.4560546875,1602.1728515625,-460.1478576660156,1171.429931640625,-8714.9931640625,-1732.50830078125,0.0,-2055.962890625,0.0,-3263.950439453125,-0.0,934.600830078125
-12385.8447265625,-15077.5908203125,-5257.92431640625,-540.4154663085938,168.4824676513672,12334.982421875,-4386.90185546875,-1312.8916015625,-1247.723876953125,5286.53466796875,-7792.31396484375,-10242.4619140625,-4419.4853515625,4476.7060546875,-43.7100715637207,-8326.37109375,-439.48492431640625,406.1063232421875,3313.2236328125,14328.162109375,2514.521240234375,8211.9306640625,-477.63189697265625,13228.2568359375,-3453.095703125,-5869.0703125,-4012.584716796875,-3598.531005859375,-6718.6357421875,-2192.65625,5027.453125,3892.580810546875,427.5639953613281,1157.9195556640625,-1920.0643310546875,4484.6533203125,-3187.656494140625,16578.0390625,-6004.96923828125,-0.0,-6132.1259765625,6481.01171875,-4881.22314453125,-4436.9697265625,383.8539123535156,6305.37646484375,-6476.24365234375,1474.2215576171875,-5730.78759765625,-2377.033203125,-1908.1434326171875,7375.8759765625,9229.18359375,-14928.9765625,-7254.28271484375,-1070.4993896484375,696.1822509765625,-8080.80029296875,-1950.263916015625,-4130.20458984375,-12842.01953125,1602.9676513671875,-468.8898620605469,1157.9195556640625,-8716.5830078125,-1730.1241455078125,0.0,-2058.346923828125,0.0,-3274.28173828125,-0.0,924.2693481445312
