-13066.1328125,-10892.55078125,-4412.3330078125,1432.1009521484375,2419.948486328125,19250.7109375,-2393.72265625,2499.42138671875,-3236.134765625,4360.67578125,-7576.1474609375,-4644.39404296875,-5159.3779296875,2679.0302734375,332.99127197265625,-4068.2158203125,46.88898849487305,3057.32080078125,4659.494140625,16307.03515625,2822.081298828125,11581.580078125,1673.698486328125,15915.2353515625,-5397.796875,-5519.39013671875,-3623.167724609375,-1477.400390625,-6020.0693359375,669.9561767578125,6055.83203125,6288.68701171875,3114.541259765625,4839.10205078125,383.0591735839844,6349.0869140625,-1064.936279296875,19589.265625,-3066.06298828125,-0.0,-2212.5244140625,8907.318359375,-2028.942138671875,-28.6102294921875,1249.3133544921875,8635.5205078125,-6047.88427734375,2617.041259765625,-5671.97802734375,-1300.970703125,-1169.8404541015625,9566.943359375,-13315.677734375,-12830.0986328125,-5962.0537109375,-1935.1640625,-565.052001953125,-5447.86474609375,-2472.400634765625,-1333.5545654296875,-8707.8408203125,3066.857666015625,705.718994140625,1214.3453369140625,-5631.44677734375,995.000244140625,0.0,-2546.310546875,0.0,-2202.98779296875,-0.0,-517.3682861328125
-12964.408203125,-10889.37109375,-4427.43310546875,1436.0745849609375,2412.00146484375,19256.2734375,-2392.133056640625,2503.39501953125,-3232.161376953125,4380.5439453125,-7549.126953125,-4640.42041015625,-5166.53076171875,2683.003662109375,338.55438232421875,-4069.01025390625,49.27317428588867,3060.5,4662.67236328125,16311.0107421875,2819.697021484375,11583.1689453125,1676.8773193359375,15918.4130859375,-5412.896484375,-5516.2109375,-3628.730712890625,-1473.4267578125,-6014.505859375,675.519287109375,6057.42138671875,6295.83984375,3113.74658203125,4844.66552734375,380.67498779296875,6349.8818359375,-1062.5521240234375,19593.23828125,-3114.541259765625,-0.0,-2220.4716796875,8911.2919921875,-2032.1209716796875,-24.636587142944336,1252.4923095703125,8642.673828125,-6086.826171875,2618.630615234375,-5683.10400390625,-1281.1025390625,-1166.66162109375,9569.3271484375,-13269.583984375,-12830.0986328125,-5956.4912109375,-1935.1640625,-581.7413330078125,-5440.7119140625,-2469.221923828125,-1333.5545654296875,-8716.5830078125,3069.24169921875,708.1031494140625,1223.882080078125,-5632.24169921875,992.6160278320312,0.0,-2538.36328125,0.0,-2192.65625,-0.0,-501.4737243652344
-12905.59765625,-10914.802734375,-4463.99072265625,1420.179931640625,2391.33837890625,19246.736328125,-2406.438232421875,2494.653076171875,-3250.43994140625,4369.41748046875,-7538.79541015625,-4654.7255859375,-5195.935546875,2661.5458984375,334.58074951171875,-4067.4208984375,31.789142608642578,3044.605224609375,4650.75146484375,16297.4990234375,2799.828857421875,11568.8642578125,1660.1881103515625,15907.287109375,-5445.48046875,-5519.39013671875,-3645.420166015625,-1478.1951904296875,-6020.0693359375,666.7772827148438,6040.73193359375,6281.53466796875,3089.90478515625,4828.77099609375,360.8067932128906,6335.57666015625,-1078.44677734375,19580.5234375,-3143.9462890625,-0.0,-2246.69775390625,8900.166015625,-2049.605224609375,-34.96805953979492,1238.1871337890625,8633.931640625,-6113.05224609375,2605.120361328125,-5709.330078125,-1289.0498046875,-1169.8404541015625,9563.763671875,-13217.92578125,-12834.072265625,-5962.0537109375,-1945.49560546875,-593.6622314453125,-5447.86474609375,-2479.55322265625,-1336.7335205078125,-8730.09375,3054.936767578125,696.1822509765625,1207.9874267578125,-5621.115234375,979.1055908203125,0.0,-2562.205078125,0.0,-2206.96142578125,-0.0,-518.957763671875
-12921.4921875,-10959.3076171875,-4463.99072265625,1417.7957763671875,2398.490966796875,19253.888671875,-2398.490966796875,2500.21630859375,-3252.823974609375,4361.470703125,-7524.490234375,-4652.34130859375,-5171.298828125,2649.625,354.4489440917969,-4056.294921875,30.19968605041504,3044.605224609375,4653.9306640625,16292.73046875,2802.212890625,11572.04296875,1665.7510986328125,15912.0556640625,-5435.943359375,-5509.05859375,-3625.552001953125,-1468.658447265625,-6018.47998046875,672.3403930664062,6042.32177734375,6276.76611328125,3088.315185546875,4828.77099609375,364.7804260253906,6338.75537109375,-1071.294189453125,19584.498046875,-3144.740966796875,-0.0,-2240.340087890625,8904.93359375,-2038.4788818359375,-27.815500259399414,1243.750244140625,8633.931640625,-6093.18408203125,2601.94140625,-5687.078125,-1281.1025390625,-1149.9722900390625,9572.505859375,-13206.7998046875,-12844.4033203125,-5960.46435546875,-1939.9324951171875,-570.6151123046875,-5451.04345703125,-2462.0693359375,-1341.5018310546875,-8747.578125,3057.32080078125,696.9769897460938,1193.682373046875,-5634.6259765625,988.642333984375,0.0,-2585.251953125,0.0,-2231.597900390625,-0.0,-539.6207275390625
-12952.4873046875,-10952.94921875,-4460.0166015625,1405.8748779296875,2381.801513671875,19229.25390625,-2419.15380859375,2475.57958984375,-3266.33447265625,4339.21826171875,-7566.61083984375,-4667.44091796875,-5190.37255859375,2630.551513671875,324.249267578125,-4117.48876953125,11.126200675964355,3024.737060546875,4634.0625,16276.041015625,2787.11328125,11549.7900390625,1646.6776123046875,15889.802734375,-5439.9169921875,-5527.33740234375,-3645.420166015625,-1502.831787109375,-6031.1953125,655.651123046875,6022.453125,6256.103515625,3074.804931640625,4809.69775390625,343.32275390625,6315.7080078125,-1091.95703125,19563.833984375,-3185.272216796875,-0.0,-2248.287109375,8885.06640625,-2056.757568359375,-54.836273193359375,1223.0872802734375,8614.857421875,-6093.97900390625,2590.0205078125,-5706.94580078125,-1312.8916015625,-1179.377197265625,9541.51171875,-13248.1259765625,-12874.603515625,-5972.38525390625,-1960.5953369140625,-584.12548828125,-5486.80615234375,-2493.063720703125,-1349.44921875,-8769.830078125,3035.068603515625,676.3140258789062,1178.58251953125,-5648.13623046875,971.9530639648438,0.0,-2582.0732421875,0.0,-2239.545166015625,-0.0,-553.131103515625
-12992.22265625,-10906.85546875,-4467.16943359375,1402.696044921875,2365.1123046875,19207.796875,-2439.02197265625,2459.68505859375,-3278.25537109375,4328.88671875,-7595.22119140625,-4682.541015625,-5204.677734375,2632.935791015625,287.6917419433594,-4123.8466796875,0.0,3010.431884765625,4617.373046875,16264.9150390625,2772.80810546875,11536.2802734375,1629.193603515625,15872.3203125,-5455.01708984375,-5551.17919921875,-3671.64599609375,-1522.699951171875,-6031.990234375,634.9881591796875,6006.55908203125,6243.3876953125,3064.473388671875,4796.18701171875,326.6334533691406,6299.81396484375,-1114.20947265625,19547.939453125,-3186.86181640625,-0.0,-2260.2080078125,8866.787109375,-2075.8310546875,-73.11502838134766,1205.603271484375,8602.9365234375,-6109.0791015625,2588.43115234375,-5730.78759765625,-1342.296630859375,-1213.550537109375,9522.4384765625,-13272.7626953125,-12881.755859375,-5975.564453125,-1986.8214111328125,-603.9937133789062,-5501.90576171875,-2521.673828125,-1354.217529296875,-8748.3720703125,3018.379150390625,662.0089111328125,1180.9666748046875,-5660.05712890625,952.0848388671875,0.0,-2580.483642578125,0.0,-2237.955810546875,-0.0,-552.3363647460938
-13064.5439453125,-10876.6552734375,-4471.14306640625,1397.9276123046875,2360.343994140625,19206.205078125,-2439.816650390625,2462.0693359375,-3283.02392578125,4330.47607421875,-7590.45263671875,-4676.9775390625,-5203.8828125,2629.7568359375,299.6126708984375,-4113.51513671875,0.7947285771369934,3009.63720703125,4615.78369140625,16260.1474609375,2770.423828125,11534.6904296875,1627.6041259765625,15870.7294921875,-5474.0908203125,-5558.33203125,-3670.056640625,-1517.931640625,-6040.73193359375,634.1934204101562,6004.96923828125,6248.951171875,3066.857666015625,4794.59765625,322.6598205566406,6299.01904296875,-1112.6199951171875,19549.52734375,-3159.8408203125,-0.0,-2270.53955078125,8861.224609375,-2079.010009765625,-71.52557373046875,1204.80859375,8602.9365234375,-6131.3310546875,2586.046875,-5733.171875,-1335.9388427734375,-1204.0137939453125,9528.7958984375,-13280.708984375,-12860.2978515625,-5981.92236328125,-1984.437255859375,-605.5831909179688,-5486.80615234375,-2513.7265625,-1360.5753173828125,-8741.2197265625,3017.58447265625,659.624755859375,1173.0194091796875,-5668.798828125,948.1112060546875,0.0,-2585.251953125,0.0,-2241.92919921875,-0.0,-557.104736328125
-13027.9853515625,-10883.80859375,-4489.421875,1390.7750244140625,2360.343994140625,19203.8203125,-2438.227294921875,2458.89013671875,-3282.229248046875,4333.65478515625,-7583.30029296875,-4680.15673828125,-5211.830078125,2618.630615234375,301.2021484375,-4115.8994140625,-0.7947285771369934,3004.86865234375,4615.78369140625,16260.9423828125,2766.4501953125,11530.716796875,1626.8094482421875,15866.7568359375,-5474.0908203125,-5554.35791015625,-3666.877685546875,-1521.9052734375,-6040.73193359375,635.7828979492188,6000.99560546875,6248.15625,3059.705078125,4790.6240234375,321.8650817871094,6295.04541015625,-1111.8253173828125,19546.349609375,-3162.22509765625,-0.0,-2272.129150390625,8858.83984375,-2079.8046875,-75.49921417236328,1202.4244384765625,8599.7578125,-6162.3251953125,2578.894287109375,-5725.22509765625,-1339.11767578125,-1203.2191162109375,9524.822265625,-13279.9150390625,-12847.5830078125,-5981.92236328125,-1982.0531005859375,-603.9937133789062,-5481.2431640625,-2517.7001953125,-1364.549072265625,-8761.087890625,3014.405517578125,658.0352783203125,1165.0721435546875,-5662.44140625,944.9323120117188,0.0,-2598.762451171875,0.0,-2249.081787109375,-0.0,-557.8994750976562
-12980.3017578125,-10905.265625,-4505.31640625,1395.54345703125,2367.49658203125,19213.357421875,-2432.6640625,2465.248046875,-3278.25537109375,4343.19140625,-7566.61083984375,-4678.5673828125,-5199.1142578125,2623.39892578125,311.5335998535156,-4110.33642578125,-2.384185791015625,3009.63720703125,4622.1416015625,16269.68359375,2766.4501953125,11535.4853515625,1632.37255859375,15872.3203125,-5466.14306640625,-5541.642578125,-3657.341064453125,-1514.752685546875,-6034.3740234375,638.9617919921875,6001.79052734375,6244.1826171875,3054.936767578125,4792.21337890625,325.04400634765625,6298.22412109375,-1107.0570068359375,19551.912109375,-3178.11962890625,-0.0,-2271.33447265625,8866.787109375,-2070.267822265625,-67.55193328857422,1206.39794921875,8606.1162109375,-6147.22607421875,2581.278564453125,-5715.68798828125,-1334.3492431640625,-1192.8876953125,9531.1806640625,-13283.09375,-12845.1982421875,-5975.564453125,-1980.4637451171875,-592.0728149414062,-5501.111328125,-2516.905517578125,-1358.98583984375,-8765.0615234375,3023.1474609375,665.1878662109375,1168.2509765625,-5648.93115234375,951.2901611328125,0.0,-2600.35205078125,0.0,-2245.903076171875,-0.0,-548.3627319335938
-12993.8125,-10904.4716796875,-4498.95849609375,1389.9803466796875,2371.47021484375,19220.509765625,-2427.10107421875,2473.1953125,-3272.6923828125,4350.34423828125,-7565.81640625,-4679.36181640625,-5191.16748046875,2633.730712890625,320.275634765625,-4116.69384765625,-4.76837158203125,3012.816162109375,4626.115234375,16276.8359375,2766.4501953125,11536.2802734375,1637.140869140625,15877.8818359375,-5466.14306640625,-5538.46337890625,-3649.393798828125,-1502.831787109375,-6029.60595703125,629.425048828125,6002.5849609375,6233.056640625,3053.347412109375,4789.8291015625,327.4281921386719,6300.6083984375,-1100.6990966796875,19555.091796875,-3192.4248046875,-0.0,-2268.1552734375,8869.9658203125,-2064.704833984375,-61.19409942626953,1211.1663818359375,8612.4736328125,-6136.09912109375,2574.1259765625,-5710.919921875,-1319.24951171875,-1184.1456298828125,9537.537109375,-13301.3720703125,-12856.32421875,-5970.7958984375,-1990.795166015625,-581.7413330078125,-5523.36376953125,-2510.547607421875,-1362.164794921875,-8765.0615234375,3024.737060546875,669.9561767578125,1177.787841796875,-5644.16259765625,950.4954223632812,0.0,-2602.736328125,0.0,-2248.287109375,-0.0,-547.5679931640625
-13011.2958984375,-10917.1865234375,-4491.01123046875,1399.51708984375,2373.8544921875,19221.306640625,-2422.332763671875,2476.374267578125,-3263.950439453125,4352.728515625,-7592.8369140625,-4680.15673828125,-5184.0146484375,2646.4462890625,328.222900390625,-4103.18359375,-1.5894571542739868,3015.200439453125,4627.70458984375,16284.7841796875,2770.423828125,11538.6650390625,1640.31982421875,15882.650390625,-5458.1962890625,-5540.052734375,-3644.62548828125,-1496.473876953125,-6023.248046875,621.477783203125,6005.76416015625,6230.67236328125,3054.936767578125,4793.802734375,332.1965637207031,6304.58203125,-1094.34130859375,19559.859375,-3202.756103515625,-0.0,-2262.59228515625,8873.939453125,-2060.731201171875,-57.220458984375,1218.3189697265625,8617.2421875,-6127.357421875,2581.278564453125,-5711.71435546875,-1321.6336669921875,-1174.60888671875,9544.6904296875,-13292.6298828125,-12876.9873046875,-5966.822265625,-1988.410888671875,-573.7940673828125,-5499.52197265625,-2501.010986328125,-1351.8333740234375,-8753.935546875,3027.121337890625,674.724609375,1188.9139404296875,-5644.95703125,949.70068359375,0.0,-2593.994140625,0.0,-2240.340087890625,-0.0,-550.7469482421875
-13008.912109375,-10916.392578125,-4463.99072265625,1415.41162109375,2390.543701171875,19230.046875,-2405.6435546875,2487.50048828125,-3236.9296875,4368.623046875,-7599.9892578125,-4671.4150390625,-5172.88818359375,2691.745849609375,345.7069396972656,-4078.547119140625,13.51038646697998,3027.916015625,4642.009765625,16310.21484375,2785.523681640625,11551.3798828125,1656.21435546875,15893.7783203125,-5442.30126953125,-5532.10595703125,-3629.525390625,-1491.70556640625,-6019.2744140625,631.8092041015625,6019.2744140625,6248.951171875,3073.215576171875,4808.90283203125,346.5016784667969,6318.09228515625,-1078.44677734375,19573.369140625,-3192.4248046875,-0.0,-2242.72412109375,8884.2705078125,-2047.220947265625,-49.27317428588867,1238.9818115234375,8630.7529296875,-6099.5419921875,2597.173095703125,-5697.4091796875,-1307.32861328125,-1157.1248779296875,9555.81640625,-13272.7626953125,-12876.193359375,-5961.25927734375,-1976.489990234375,-565.8467407226562,-5462.16943359375,-2477.963623046875,-1338.322998046875,-8733.2724609375,3042.22119140625,692.2086181640625,1226.2662353515625,-5638.599609375,964.0057983398438,0.0,-2585.251953125,0.0,-2224.4453125,-0.0,-519.7525024414062
-13035.93359375,-10992.6865234375,-4463.19580078125,1400.311767578125,2384.98046875,19221.306640625,-2407.23291015625,2486.705810546875,-3222.62451171875,4394.05419921875,-7599.19482421875,-4685.7197265625,-5184.80908203125,2700.48779296875,345.7069396972656,-4069.01025390625,6.357828617095947,3020.763427734375,4640.42041015625,16337.236328125,2780.75537109375,11541.84375,1650.6513671875,15887.4189453125,-5448.6591796875,-5536.07958984375,-3636.677978515625,-1500.4476318359375,-6036.75830078125,619.0935668945312,6011.3271484375,6242.59326171875,3066.857666015625,4799.3662109375,342.52801513671875,6310.14501953125,-1080.8309326171875,19572.576171875,-3218.65087890625,-0.0,-2247.492431640625,8877.1181640625,-2055.168212890625,-55.63100051879883,1243.750244140625,8636.3154296875,-6113.05224609375,2583.662841796875,-5703.76708984375,-1335.9388427734375,-1157.9195556640625,9557.40625,-13291.8359375,-12882.5498046875,-5977.94873046875,-2020.2000732421875,-579.357177734375,-5455.81201171875,-2469.221923828125,-1333.5545654296875,-8746.783203125,3035.86328125,698.56640625,1239.776611328125,-5656.8779296875,958.4426879882812,0.0,-2590.815185546875,0.0,-2222.855712890625,-0.0,-499.8843078613281
-13110.6376953125,-11002.22265625,-4463.99072265625,1382.8277587890625,2371.47021484375,19213.357421875,-2420.7431640625,2480.347900390625,-3228.1875,4398.02783203125,-7609.5263671875,-4693.6669921875,-5190.37255859375,2674.26171875,320.275634765625,-4096.03125,-3.9736428260803223,3009.63720703125,4627.70458984375,16333.26171875,2770.423828125,11533.1015625,1637.140869140625,15877.8818359375,-5462.96435546875,-5538.46337890625,-3653.3671875,-1509.984375,-6049.47412109375,607.1726684570312,6000.99560546875,6231.466796875,3058.910400390625,4789.0341796875,330.6070861816406,6300.6083984375,-1093.5465087890625,19561.44921875,-3198.78271484375,-0.0,-2258.61865234375,8865.197265625,-2068.6787109375,-65.1677474975586,1233.4188232421875,8629.9580078125,-6101.13134765625,2566.973388671875,-5721.2509765625,-1343.09130859375,-1184.1456298828125,9548.6640625,-13347.466796875,-12881.755859375,-5990.6640625,-2025.7633056640625,-585.7149658203125,-5474.88525390625,-2477.963623046875,-1351.03857421875,-8787.314453125,3023.942138671875,690.619140625,1195.2718505859375,-5686.283203125,944.1375732421875,0.0,-2605.9150390625,0.0,-2240.340087890625,-0.0,-535.6470947265625
-13108.25390625,-10962.486328125,-4478.2958984375,1354.217529296875,2353.19140625,19191.107421875,-2442.995849609375,2454.121826171875,-3268.71875,4355.9072265625,-7624.6259765625,-4702.4091796875,-5191.9619140625,2607.504638671875,307.5599670410156,-4125.4365234375,-20.66294288635254,2992.153076171875,4603.86279296875,16280.8095703125,2752.14501953125,11512.4384765625,1617.272705078125,15856.4248046875,-5476.474609375,-5578.99462890625,-3671.64599609375,-1529.8525390625,-6061.39501953125,607.1726684570312,5983.51123046875,6215.572265625,3044.605224609375,4769.16650390625,310.7388916015625,6279.9453125,-1115.004150390625,19536.814453125,-3201.96142578125,-0.0,-2275.307861328125,8837.3818359375,-2087.752197265625,-86.62541961669922,1205.603271484375,8601.34765625,-6125.76806640625,2539.157958984375,-5741.9140625,-1353.4227294921875,-1198.45068359375,9525.6162109375,-13399.9189453125,-12884.9345703125,-6001.79052734375,-2004.3055419921875,-594.4569702148438,-5499.52197265625,-2498.626708984375,-1374.0858154296875,-8825.4609375,3005.66357421875,658.0352783203125,1117.388427734375,-5703.76708984375,919.5009765625,0.0,-2621.014892578125,0.0,-2265.771240234375,-0.0,-595.251708984375
-13074.875,-10921.1611328125,-4500.5478515625,1340.7071533203125,2343.654541015625,19171.23828125,-2464.453369140625,2427.895751953125,-3317.991943359375,4305.04443359375,-7615.08935546875,-4711.1513671875,-5211.830078125,2564.58935546875,284.5128479003906,-4155.6357421875,-34.1733283996582,2977.84814453125,4583.99462890625,16220.4111328125,2739.429443359375,11495.7490234375,1602.9676513671875,15837.3505859375,-5474.0908203125,-5610.7841796875,-3687.540771484375,-1554.4891357421875,-6059.0107421875,604.7884521484375,5967.6171875,6210.00927734375,3030.300048828125,4754.861328125,295.6390380859375,6262.46142578125,-1137.256591796875,19515.35546875,-3213.087890625,-0.0,-2287.228759765625,8815.9248046875,-2102.05712890625,-106.4936294555664,1175.403564453125,8567.9697265625,-6150.404296875,2525.6474609375,-5746.6826171875,-1370.9068603515625,-1219.9083251953125,9493.828125,-13356.208984375,-12879.3720703125,-6000.99560546875,-2001.1265869140625,-612.7357177734375,-5518.59521484375,-2529.62109375,-1390.7750244140625,-8806.3876953125,2988.179443359375,627.8355712890625,1092.7518310546875,-5702.177734375,906.7853393554688,0.0,-2613.067626953125,0.0,-2267.360595703125,-0.0,-603.198974609375
-13024.806640625,-10912.41796875,-4512.46875,1349.44921875,2347.62841796875,19176.005859375,-2465.248046875,2427.10107421875,-3331.502197265625,4273.255859375,-7601.5791015625,-4703.99853515625,-5219.77734375,2580.483642578125,282.128662109375,-4148.4833984375,-30.19968605041504,2980.232177734375,4582.4052734375,16196.5693359375,2740.22412109375,11497.337890625,1602.1728515625,15840.5302734375,-5470.91162109375,-5602.04150390625,-3681.182861328125,-1551.3101806640625,-6047.08984375,621.477783203125,5970.0009765625,6216.3671875,3031.0947265625,4758.8349609375,298.0232238769531,6264.84521484375,-1137.256591796875,19513.765625,-3203.551025390625,-0.0,-2288.023681640625,8821.4873046875,-2098.08349609375,-102.51998901367188,1169.8404541015625,8556.8427734375,-6155.1728515625,2533.5947265625,-5733.966796875,-1365.34375,-1220.703125,9493.828125,-13322.830078125,-12865.06640625,-5990.6640625,-1993.1793212890625,-615.9146728515625,-5510.6484375,-2542.336669921875,-1403.49072265625,-8792.876953125,2988.974365234375,617.504150390625,1112.6199951171875,-5674.3623046875,916.3220825195312,0.0,-2609.093994140625,0.0,-2273.718505859375,-0.0,-594.4569702148438
-13009.70703125,-10912.41796875,-4494.1904296875,1370.112060546875,2360.343994140625,19201.4375,-2446.96923828125,2450.1484375,-3314.018310546875,4284.3818359375,-7592.8369140625,-4680.95166015625,-5193.5517578125,2609.888671875,297.2284851074219,-4115.1044921875,-13.51038646697998,2996.921630859375,4599.09423828125,16215.642578125,2753.734619140625,11518.001953125,1620.4515380859375,15859.603515625,-5467.73291015625,-5569.4580078125,-3662.904052734375,-1524.2894287109375,-6027.2216796875,645.3196411132812,5985.8955078125,6227.4931640625,3044.605224609375,4777.908203125,313.1230773925781,6284.7138671875,-1119.7725830078125,19533.634765625,-3194.80908203125,-0.0,-2273.718505859375,8848.5078125,-2081.394287109375,-78.67813110351562,1185.735107421875,8577.505859375,-6132.1259765625,2555.84716796875,-5721.2509765625,-1341.5018310546875,-1206.39794921875,9523.232421875,-13324.419921875,-12848.376953125,-5969.20654296875,-1974.9005126953125,-592.8675537109375,-5492.369140625,-2532.800048828125,-1399.51708984375,-8776.982421875,3005.66357421875,633.398681640625,1136.4619140625,-5654.49365234375,940.9586791992188,0.0,-2600.35205078125,0.0,-2268.1552734375,-0.0,-581.7413330078125
-12996.1962890625,-10884.6025390625,-4468.75927734375,1405.0802001953125,2383.39111328125,19235.611328125,-2419.948486328125,2481.142822265625,-3289.3818359375,4309.0185546875,-7582.505859375,-4648.3671875,-5154.60986328125,2625.783203125,333.7860107421875,-4067.4208984375,15.09984302520752,3024.737060546875,4627.70458984375,16238.689453125,2777.576416015625,11546.611328125,1645.8829345703125,15890.5986328125,-5447.86474609375,-5527.33740234375,-3636.677978515625,-1485.3477783203125,-6004.96923828125,673.1351318359375,6012.91650390625,6258.48779296875,3072.4208984375,4806.5185546875,334.58074951171875,6314.11865234375,-1093.5465087890625,19563.833984375,-3163.019775390625,-0.0,-2249.876708984375,8880.2978515625,-2055.168212890625,-46.88898849487305,1213.550537109375,8602.9365234375,-6094.77392578125,2592.404541015625,-5699.79345703125,-1304.9443359375,-1171.429931640625,9561.3798828125,-13292.6298828125,-12828.509765625,-5945.3642578125,-1945.49560546875,-566.6414794921875,-5458.99072265625,-2501.8056640625,-1387.59619140625,-8744.3994140625,3030.300048828125,659.624755859375,1153.9459228515625,-5632.24169921875,973.5425415039062,0.0,-2585.251953125,0.0,-2258.61865234375,-0.0,-569.0256958007812
-12993.0185546875,-10975.201171875,-4457.63232421875,1405.8748779296875,2379.41748046875,19230.046875,-2423.12744140625,2467.63232421875,-3288.5869140625,4321.73388671875,-7604.7578125,-4657.904296875,-5152.2255859375,2617.8359375,342.52801513671875,-4084.905029296875,11.126200675964355,3018.379150390625,4622.93603515625,16240.2783203125,2776.78173828125,11544.2275390625,1640.31982421875,15881.8564453125,-5440.7119140625,-5531.31103515625,-3643.83056640625,-1502.037109375,-6017.68505859375,656.44580078125,6011.3271484375,6251.3349609375,3075.599609375,4803.33935546875,329.01763916015625,6306.96630859375,-1095.9306640625,19556.681640625,-3214.677001953125,-0.0,-2249.876708984375,8876.3232421875,-2060.731201171875,-55.63100051879883,1215.1400146484375,8597.3740234375,-6103.515625,2591.60986328125,-5716.482421875,-1312.096923828125,-1164.2774658203125,9540.716796875,-13277.5302734375,-12864.2724609375,-5958.875,-1954.2376708984375,-570.6151123046875,-5471.70654296875,-2492.268798828125,-1371.7015380859375,-8753.935546875,3021.55810546875,658.0352783203125,1151.561767578125,-5645.751953125,967.1846923828125,0.0,-2582.867919921875,0.0,-2241.92919921875,-0.0,-550.7469482421875
-12936.591796875,-11004.607421875,-4480.68017578125,1386.0067138671875,2367.49658203125,19215.7421875,-2435.84326171875,2458.89013671875,-3283.818603515625,4332.0654296875,-7610.3212890625,-4677.7724609375,-5199.9091796875,2627.372802734375,317.0967102050781,-4119.873046875,6.357828617095947,3008.0478515625,4612.6044921875,16246.6376953125,2764.86083984375,11533.1015625,1628.39892578125,15872.3203125,-5447.86474609375,-5548.79541015625,-3654.956787109375,-1515.54736328125,-6033.57958984375,635.7828979492188,5998.611328125,6250.5400390625,3063.6787109375,4798.5712890625,315.50726318359375,6295.04541015625,-1107.0570068359375,19547.939453125,-3196.3984375,-0.0,-2262.59228515625,8865.9921875,-2074.24169921875,-68.3466567993164,1206.39794921875,8597.3740234375,-6136.09912109375,2569.357666015625,-5723.63525390625,-1328.7862548828125,-1188.1192626953125,9526.412109375,-13239.3837890625,-12887.318359375,-5977.15380859375,-1974.9005126953125,-588.8939208984375,-5510.6484375,-2507.368896484375,-1366.9332275390625,-8747.578125,3007.2529296875,654.8563842773438,1159.509033203125,-5661.646484375,957.64794921875,0.0,-2584.45751953125,0.0,-2233.1875,-0.0,-546.7732543945312
-12957.2548828125,-10931.4921875,-4491.80615234375,1386.8013916015625,2369.880615234375,19220.509765625,-2431.074951171875,2468.427001953125,-3279.844970703125,4322.52880859375,-7580.916015625,-4676.9775390625,-5206.26708984375,2640.88330078125,317.8914489746094,-4099.21044921875,7.152557373046875,3008.842529296875,4615.78369140625,16249.8154296875,2765.655517578125,11535.4853515625,1630.7830810546875,15877.0888671875,-5455.01708984375,-5548.00048828125,-3648.598876953125,-1502.831787109375,-6035.96337890625,634.9881591796875,5999.40625,6256.8984375,3066.06298828125,4797.77685546875,316.3019714355469,6298.22412109375,-1102.28857421875,19555.88671875,-3166.993408203125,-0.0,-2268.9501953125,8867.5810546875,-2071.062744140625,-63.578285217285156,1211.1663818359375,8605.3212890625,-6139.2783203125,2570.15234375,-5710.125,-1330.375732421875,-1187.324462890625,9543.8955078125,-13223.4892578125,-12870.62890625,-5977.94873046875,-1976.489990234375,-588.0991821289062,-5494.75341796875,-2501.010986328125,-1370.9068603515625,-8747.578125,3013.61083984375,658.0352783203125,1177.787841796875,-5658.4677734375,963.2110595703125,0.0,-2599.55712890625,0.0,-2247.492431640625,-0.0,-563.4625854492188
-12977.123046875,-10890.9609375,-4478.2958984375,1389.9803466796875,2381.0068359375,19230.841796875,-2412.00146484375,2483.52685546875,-3262.36083984375,4326.50244140625,-7572.173828125,-4657.904296875,-5169.70947265625,2661.5458984375,332.1965637207031,-4068.2158203125,15.894571304321289,3020.763427734375,4634.0625,16262.53125,2778.37109375,11547.40625,1643.498779296875,15889.802734375,-5445.48046875,-5540.052734375,-3632.70458984375,-1492.500244140625,-6027.2216796875,640.55126953125,6011.3271484375,6262.46142578125,3076.394287109375,4807.3134765625,330.6070861816406,6310.93994140625,-1087.188720703125,19569.396484375,-3167.788330078125,-0.0,-2257.029296875,8881.88671875,-2054.37353515625,-50.86262893676758,1230.2398681640625,8620.421875,-6121.79443359375,2570.947021484375,-5693.435546875,-1320.8388671875,-1171.429931640625,9559.791015625,-13244.15234375,-12854.7353515625,-5966.822265625,-1962.9796142578125,-579.357177734375,-5475.6796875,-2470.0166015625,-1351.8333740234375,-8757.9091796875,3028.710693359375,673.9298706054688,1192.8876953125,-5660.85205078125,980.6951293945312,0.0,-2581.278564453125,0.0,-2239.545166015625,-0.0,-557.8994750976562
-13012.091796875,-10970.43359375,-4492.60107421875,1370.9068603515625,2356.3701171875,19205.412109375,-2431.86962890625,2452.532470703125,-3274.28173828125,4317.76025390625,-7618.2685546875,-4684.13037109375,-5194.34619140625,2636.909423828125,320.275634765625,-4127.025390625,-7.9472856521606445,3001.68994140625,4614.1943359375,16252.994140625,2756.11865234375,11524.359375,1623.6304931640625,15865.16796875,-5474.0908203125,-5566.27880859375,-3658.930419921875,-1527.4683837890625,-6034.3740234375,615.9146728515625,5989.07470703125,6234.64599609375,3050.963134765625,4787.4453125,309.1494140625,6287.892578125,-1106.26220703125,19543.966796875,-3201.166748046875,-0.0,-2275.307861328125,8858.044921875,-2077.42041015625,-80.26758575439453,1216.7294921875,8589.4267578125,-6125.76806640625,2553.462890625,-5729.1982421875,-1351.03857421875,-1184.1456298828125,9521.6435546875,-13291.8359375,-12892.0869140625,-5974.76953125,-1996.358154296875,-600.0200805664062,-5509.853515625,-2481.142822265625,-1377.2646484375,-8788.1083984375,3007.2529296875,655.651123046875,1188.1192626953125,-5676.74658203125,951.2901611328125,0.0,-2575.71533203125,0.0,-2237.160888671875,-0.0,-533.2628784179688
-13075.6689453125,-11026.064453125,-4489.421875,1388.390869140625,2345.244140625,19197.46484375,-2446.96923828125,2442.995849609375,-3281.434326171875,4336.833984375,-7642.90478515625,-4703.20361328125,-5207.0615234375,2621.014892578125,302.7915954589844,-4147.6884765625,-16.689300537109375,2990.563720703125,4602.2734375,16259.3515625,2744.992431640625,11515.6171875,1610.914794921875,15854.8359375,-5480.4482421875,-5566.27880859375,-3672.440673828125,-1535.4156494140625,-6047.88427734375,607.1726684570312,5981.92236328125,6218.75146484375,3042.22119140625,4780.29248046875,297.2284851074219,6277.56103515625,-1122.15673828125,19535.22265625,-3240.1083984375,-0.0,-2284.050048828125,8848.5078125,-2090.13623046875,-88.21487426757812,1202.4244384765625,8590.2216796875,-6131.3310546875,2570.947021484375,-5741.9140625,-1358.191162109375,-1201.629638671875,9510.517578125,-13317.267578125,-12935.001953125,-5989.07470703125,-2010.663330078125,-597.6359252929688,-5514.62158203125,-2519.289794921875,-1374.0858154296875,-8798.4404296875,2996.921630859375,650.8826904296875,1169.8404541015625,-5683.10400390625,931.4219360351562,0.0,-2589.225830078125,0.0,-2241.134765625,-0.0,-536.4417724609375
-13056.595703125,-10985.5341796875,-4488.626953125,1393.1593017578125,2353.19140625,19207.0,-2441.40625,2458.89013671875,-3275.871337890625,4352.728515625,-7619.06298828125,-4694.4619140625,-5214.21435546875,2621.014892578125,307.5599670410156,-4113.51513671875,-7.9472856521606445,2995.33203125,4610.22021484375,16271.2724609375,2752.93994140625,11523.564453125,1617.272705078125,15861.98828125,-5472.50146484375,-5545.6162109375,-3662.904052734375,-1521.110595703125,-6049.47412109375,616.7094116210938,5987.4853515625,6228.2880859375,3050.168212890625,4788.23974609375,303.5863342285156,6283.12451171875,-1113.414794921875,19544.759765625,-3213.88232421875,-0.0,-2277.692138671875,8860.4287109375,-2082.983642578125,-78.67813110351562,1209.576904296875,8607.705078125,-6135.3046875,2576.51025390625,-5729.9931640625,-1345.4755859375,-1196.0665283203125,9529.5908203125,-13308.525390625,-12946.9228515625,-5991.458984375,-2003.5107421875,-598.4306640625,-5487.6005859375,-2506.573974609375,-1359.7806396484375,-8806.3876953125,3002.484619140625,658.8300170898438,1149.177490234375,-5678.33544921875,939.3692016601562,0.0,-2609.093994140625,0.0,-2254.64501953125,-0.0,-561.8731079101562
-13001.759765625,-10890.9609375,-4505.31640625,1372.4962158203125,2346.83349609375,19187.927734375,-2448.558837890625,2445.3798828125,-3282.229248046875,4330.47607421875,-7601.5791015625,-4700.02490234375,-5208.65087890625,2605.9150390625,308.3547058105469,-4134.97314453125,-20.66294288635254,2983.4111328125,4598.29931640625,16255.37890625,2742.6083984375,11508.46484375,1608.5306396484375,15846.8876953125,-5483.62744140625,-5576.6103515625,-3663.698974609375,-1544.1575927734375,-6055.83203125,611.1463012695312,5973.974609375,6221.1357421875,3039.8369140625,4773.14013671875,294.0495910644531,6266.43505859375,-1119.7725830078125,19531.25,-3226.59814453125,-0.0,-2285.639404296875,8842.9453125,-2086.957275390625,-95.367431640625,1201.629638671875,8595.7841796875,-6179.0146484375,2556.641845703125,-5728.40380859375,-1359.7806396484375,-1194.47705078125,9511.3115234375,-13311.7041015625,-12923.876953125,-5996.22705078125,-2014.636962890625,-600.8148193359375,-5505.8798828125,-2501.8056640625,-1362.95947265625,-8808.7724609375,2991.3583984375,646.1143798828125,1131.6934814453125,-5682.3095703125,926.653564453125,0.0,-2616.24658203125,0.0,-2263.386962890625,-0.0,-592.8675537109375
-12965.2021484375,-10872.681640625,-4518.8271484375,1359.7806396484375,2337.296630859375,19176.80078125,-2457.30078125,2427.895751953125,-3290.17626953125,4298.68701171875,-7589.658203125,-4701.6142578125,-5207.0615234375,2611.47802734375,296.43377685546875,-4146.09912109375,-30.19968605041504,2973.07958984375,4585.583984375,16233.1259765625,2731.482177734375,11496.5439453125,1600.5833740234375,15835.76171875,-5496.34326171875,-5591.71044921875,-3671.64599609375,-1553.6943359375,-6060.60009765625,615.9146728515625,5964.43798828125,6217.95654296875,3031.0947265625,4759.6298828125,283.7181091308594,6257.69287109375,-1130.8988037109375,19519.328125,-3221.82958984375,-0.0,-2299.944580078125,8824.666015625,-2094.904541015625,-107.28836059570312,1192.0928955078125,8569.55859375,-6179.0146484375,2545.515869140625,-5736.35107421875,-1365.34375,-1207.9874267578125,9493.828125,-13330.77734375,-12878.5771484375,-5999.40625,-2010.663330078125,-599.225341796875,-5530.51611328125,-2524.852783203125,-1391.5697021484375,-8785.724609375,2981.02685546875,632.6039428710938,1137.256591796875,-5686.283203125,925.0640869140625,0.0,-2605.9150390625,0.0,-2256.234375,-0.0,-592.0728149414062
-12974.7392578125,-10866.32421875,-4515.64794921875,1364.549072265625,2342.065185546875,19187.927734375,-2451.737548828125,2438.227294921875,-3287.792236328125,4288.35546875,-7582.505859375,-4694.4619140625,-5208.65087890625,2631.346435546875,302.7915954589844,-4130.20458984375,-21.457672119140625,2981.82177734375,4594.326171875,16228.357421875,2737.04541015625,11505.2861328125,1608.5306396484375,15846.8876953125,-5495.54833984375,-5580.583984375,-3669.261962890625,-1538.5946044921875,-6053.44775390625,641.345947265625,5972.38525390625,6227.4931640625,3039.8369140625,4769.9609375,290.87066650390625,6266.43505859375,-1125.335693359375,19527.27734375,-3216.2666015625,-0.0,-2299.944580078125,8831.818359375,-2089.34130859375,-95.367431640625,1196.861328125,8571.9423828125,-6153.58349609375,2553.462890625,-5734.76171875,-1351.03857421875,-1201.629638671875,9508.927734375,-13314.8828125,-12847.5830078125,-5992.25390625,-1996.358154296875,-600.0200805664062,-5518.59521484375,-2518.494873046875,-1400.311767578125,-8746.783203125,2989.76904296875,636.57763671875,1160.3037109375,-5675.95166015625,943.3428344726562,0.0,-2593.199462890625,0.0,-2258.61865234375,-0.0,-573.7940673828125
-12966.7919921875,-10848.044921875,-4498.16357421875,1395.54345703125,2366.701904296875,19222.1015625,-2432.6640625,2472.400634765625,-3279.050048828125,4305.04443359375,-7572.173828125,-4654.7255859375,-5205.47265625,2658.3671875,317.8914489746094,-4079.341796875,6.357828617095947,3012.816162109375,4618.16796875,16235.509765625,2764.06591796875,11535.4853515625,1633.167236328125,15877.8818359375,-5464.5537109375,-5548.79541015625,-3651.778076171875,-1497.2686767578125,-6035.1689453125,677.9035034179688,6001.79052734375,6256.8984375,3062.884033203125,4797.77685546875,317.8914489746094,6295.83984375,-1103.8780517578125,19559.064453125,-3179.709228515625,-0.0,-2272.129150390625,8862.8134765625,-2068.6787109375,-61.98883056640625,1213.550537109375,8601.34765625,-6128.15234375,2582.867919921875,-5714.0986328125,-1316.8653564453125,-1186.52978515625,9551.0478515625,-13271.1728515625,-12811.0244140625,-5977.15380859375,-1960.5953369140625,-584.12548828125,-5476.474609375,-2499.42138671875,-1375.6751708984375,-8725.3251953125,3017.58447265625,655.651123046875,1204.0137939453125,-5656.08349609375,978.3109130859375,0.0,-2558.2314453125,0.0,-2227.624267578125,-0.0,-529.2892456054688
-12944.5390625,-10868.708984375,-4476.7060546875,1405.8748779296875,2377.827880859375,19234.81640625,-2419.948486328125,2491.47412109375,-3259.181884765625,4336.833984375,-7576.1474609375,-4633.26806640625,-5197.52490234375,2683.798583984375,317.8914489746094,-4069.01025390625,15.894571304321289,3026.326416015625,4632.47314453125,16261.736328125,2776.78173828125,11546.611328125,1644.29345703125,15890.5986328125,-5449.45361328125,-5536.87451171875,-3643.83056640625,-1483.75830078125,-6029.60595703125,681.0823974609375,6015.30078125,6256.8984375,3074.01025390625,4807.3134765625,330.6070861816406,6309.3505859375,-1092.7518310546875,19574.166015625,-3224.2138671875,-0.0,-2257.823974609375,8873.939453125,-2056.757568359375,-44.50480270385742,1229.445068359375,8625.984375,-6107.4892578125,2591.60986328125,-5703.76708984375,-1305.739013671875,-1183.3509521484375,9567.7373046875,-13257.6630859375,-12810.23046875,-5970.7958984375,-1945.49560546875,-593.6622314453125,-5451.837890625,-2480.347900390625,-1331.965087890625,-8765.0615234375,3031.8896484375,673.9298706054688,1236.59765625,-5649.7255859375,989.4371337890625,0.0,-2528.826416015625,0.0,-2191.861328125,-0.0,-500.67901611328125
-12915.9287109375,-10889.37109375,-4478.2958984375,1403.49072265625,2373.0595703125,19234.81640625,-2415.974853515625,2493.063720703125,-3241.697998046875,4366.2392578125,-7580.12158203125,-4637.2412109375,-5180.8359375,2691.745849609375,321.8650817871094,-4080.13671875,11.920928955078125,3025.53173828125,4634.857421875,16291.1416015625,2772.013427734375,11547.40625,1641.9093017578125,15891.3935546875,-5462.96435546875,-5536.87451171875,-3650.983154296875,-1487.73193359375,-6036.75830078125,673.9298706054688,6012.91650390625,6248.951171875,3070.831298828125,4806.5185546875,329.01763916015625,6309.3505859375,-1090.36767578125,19575.75390625,-3236.134765625,-0.0,-2262.59228515625,8873.939453125,-2059.141845703125,-45.299530029296875,1235.802978515625,8634.7265625,-6133.71533203125,2588.43115234375,-5714.8935546875,-1311.30224609375,-1180.9666748046875,9567.7373046875,-13244.9462890625,-12825.330078125,-5977.15380859375,-1951.0587158203125,-591.278076171875,-5458.1962890625,-2476.374267578125,-1323.22314453125,-8768.2412109375,3031.0947265625,684.2613525390625,1241.3660888671875,-5651.3154296875,991.8212890625,0.0,-2532.800048828125,0.0,-2182.32470703125,-0.0,-487.9633483886719
-12901.6240234375,-10869.5029296875,-4483.06396484375,1412.2327880859375,2373.0595703125,19241.173828125,-2412.7958984375,2500.21630859375,-3241.697998046875,4374.98095703125,-7571.37939453125,-4631.67822265625,-5172.88818359375,2686.1826171875,334.58074951171875,-4066.6259765625,15.09984302520752,3027.121337890625,4638.83056640625,16298.2939453125,2772.80810546875,11551.3798828125,1643.498779296875,15895.3662109375,-5460.58056640625,-5527.33740234375,-3650.1884765625,-1475.0162353515625,-6033.57958984375,669.1614990234375,6014.505859375,6252.92431640625,3068.447021484375,4811.287109375,329.01763916015625,6314.11865234375,-1087.9835205078125,19580.5234375,-3223.419189453125,-0.0,-2263.386962890625,8882.681640625,-2058.346923828125,-38.94169998168945,1238.1871337890625,8640.2890625,-6128.94677734375,2597.9677734375,-5718.072265625,-1319.24951171875,-1170.63525390625,9575.6845703125,-13240.177734375,-12827.7138671875,-5973.974609375,-1945.49560546875,-582.5360717773438,-5448.6591796875,-2473.990234375,-1320.8388671875,-8748.3720703125,3035.86328125,689.8244018554688,1234.2135009765625,-5649.7255859375,999.7686157226562,0.0,-2545.515869140625,0.0,-2185.503662109375,-0.0,-486.3739013671875
-12946.9228515625,-10902.8818359375,-4474.32177734375,1413.0274658203125,2377.033203125,19244.3515625,-2412.7958984375,2501.010986328125,-3252.029296875,4362.26513671875,-7572.173828125,-4637.2412109375,-5168.1201171875,2655.188232421875,344.9122009277344,-4057.88427734375,15.894571304321289,3024.737060546875,4636.4462890625,16282.400390625,2773.602783203125,11552.1748046875,1642.7039794921875,15894.5712890625,-5455.01708984375,-5513.82666015625,-3639.062255859375,-1468.658447265625,-6027.2216796875,661.2141723632812,6012.91650390625,6254.51416015625,3070.03662109375,4812.87646484375,328.222900390625,6314.11865234375,-1087.188720703125,19580.5234375,-3204.345703125,-0.0,-2259.41357421875,8893.8076171875,-2055.962890625,-35.762786865234375,1236.59765625,8638.69921875,-6111.462890625,2595.583740234375,-5713.30419921875,-1314.4810791015625,-1160.3037109375,9580.453125,-13253.6884765625,-12857.119140625,-5968.412109375,-1959.80078125,-580.9465942382812,-5457.4013671875,-2464.453369140625,-1324.8125,-8750.755859375,3035.068603515625,685.0560302734375,1211.961181640625,-5649.7255859375,997.3843994140625,0.0,-2549.4892578125,0.0,-2193.450927734375,-0.0,-507.8315734863281
-12969.970703125,-10959.3076171875,-4480.68017578125,1403.49072265625,2371.47021484375,19234.021484375,-2426.306396484375,2482.732177734375,-3265.539794921875,4338.42333984375,-7585.68408203125,-4656.31494140625,-5186.39892578125,2649.625,324.249267578125,-4070.60009765625,8.74201488494873,3015.9951171875,4622.1416015625,16263.326171875,2765.655517578125,11544.2275390625,1633.167236328125,15881.8564453125,-5455.01708984375,-5515.41650390625,-3647.80419921875,-1490.1160888671875,-6038.34765625,640.55126953125,6003.3798828125,6248.951171875,3066.06298828125,4805.7236328125,317.8914489746094,6304.58203125,-1097.520263671875,19564.62890625,-3195.603515625,-0.0,-2263.386962890625,8889.833984375,-2066.29443359375,-52.45208740234375,1219.9083251953125,8618.037109375,-6124.17822265625,2585.251953125,-5715.68798828125,-1322.4283447265625,-1181.7613525390625,9561.3798828125,-13268.7880859375,-12892.8828125,-5978.7431640625,-1987.6163330078125,-587.304443359375,-5465.3486328125,-2496.242431640625,-1348.6544189453125,-8760.29296875,3020.763427734375,668.3667602539062,1196.861328125,-5661.646484375,983.8739624023438,0.0,-2560.615478515625,0.0,-2222.855712890625,-0.0,-539.6207275390625
-12974.7392578125,-10975.201171875,-4489.421875,1402.696044921875,2364.317626953125,19219.716796875,-2437.4326171875,2461.2744140625,-3286.99755859375,4309.81298828125,-7588.068359375,-4668.23583984375,-5186.39892578125,2643.267333984375,317.8914489746094,-4108.7470703125,0.7947285771369934,3008.842529296875,4607.83642578125,16235.509765625,2760.092529296875,11533.1015625,1624.42529296875,15867.5517578125,-5458.99072265625,-5522.5693359375,-3652.57275390625,-1514.752685546875,-6045.50048828125,630.2197875976562,5996.22705078125,6245.77197265625,3060.5,4799.3662109375,309.1494140625,6293.45556640625,-1110.23583984375,19547.14453125,-3221.82958984375,-0.0,-2271.33447265625,8874.734375,-2074.24169921875,-68.3466567993164,1205.603271484375,8595.7841796875,-6135.3046875,2586.046875,-5717.27734375,-1322.4283447265625,-1188.9139404296875,9534.359375,-13283.888671875,-12902.4189453125,-5987.4853515625,-2013.84228515625,-585.7149658203125,-5492.369140625,-2517.7001953125,-1383.62255859375,-8773.009765625,3008.842529296875,648.49853515625,1179.377197265625,-5669.59375,966.3899536132812,0.0,-2574.1259765625,0.0,-2258.61865234375,-0.0,-570.6151123046875
-12965.2021484375,-10960.1025390625,-4480.68017578125,1411.43798828125,2373.0595703125,19227.662109375,-2427.10107421875,2472.400634765625,-3280.6396484375,4316.9658203125,-7577.7373046875,-4657.904296875,-5178.45166015625,2645.651611328125,329.01763916015625,-4102.388671875,8.74201488494873,3015.200439453125,4618.16796875,16239.484375,2768.039794921875,11537.869140625,1632.37255859375,15876.29296875,-5447.86474609375,-5524.15869140625,-3646.21484375,-1499.65283203125,-6022.453125,646.1143798828125,6004.96923828125,6258.48779296875,3069.24169921875,4808.90283203125,317.0967102050781,6299.81396484375,-1102.28857421875,19559.064453125,-3214.677001953125,-0.0,-2263.386962890625,8877.1181640625,-2065.49951171875,-59.604644775390625,1215.934814453125,8608.5,-6127.357421875,2595.583740234375,-5706.94580078125,-1314.4810791015625,-1177.787841796875,9547.8701171875,-13278.3251953125,-12876.193359375,-5963.6435546875,-2007.484375,-585.7149658203125,-5489.98486328125,-2497.83203125,-1366.138427734375,-8774.59765625,3018.379150390625,658.8300170898438,1184.1456298828125,-5661.646484375,978.3109130859375,0.0,-2565.3837890625,0.0,-2244.3134765625,-0.0,-557.8994750976562
-12973.1494140625,-10929.107421875,-4488.626953125,1413.0274658203125,2368.291259765625,19222.1015625,-2428.690673828125,2476.374267578125,-3270.308349609375,4340.8076171875,-7598.39990234375,-4662.67236328125,-5195.935546875,2650.419921875,321.8650817871094,-4088.878662109375,3.1789143085479736,3010.431884765625,4620.55224609375,16260.1474609375,2763.271240234375,11533.896484375,1630.7830810546875,15875.498046875,-5447.86474609375,-5542.43701171875,-3650.1884765625,-1501.2423095703125,-6030.40087890625,665.1878662109375,6000.20068359375,6252.92431640625,3062.884033203125,4803.33935546875,313.1230773925781,6295.04541015625,-1101.493896484375,19561.44921875,-3201.166748046875,-0.0,-2269.744873046875,8868.376953125,-2067.089111328125,-61.19409942626953,1219.1136474609375,8616.447265625,-6131.3310546875,2598.762451171875,-5710.125,-1326.402099609375,-1182.55615234375,9551.0478515625,-13293.42578125,-12846.787109375,-5969.20654296875,-1966.9532470703125,-588.0991821289062,-5475.6796875,-2493.8583984375,-1354.217529296875,-8769.03515625,3020.763427734375,666.7772827148438,1201.629638671875,-5656.8779296875,971.9530639648438,0.0,-2556.641845703125,0.0,-2223.650634765625,-0.0,-534.8523559570312
-13010.501953125,-10883.80859375,-4488.626953125,1397.1328125,2365.1123046875,19209.384765625,-2431.074951171875,2471.60595703125,-3269.513427734375,4346.37060546875,-7629.39453125,-4667.44091796875,-5180.8359375,2655.98291015625,322.6598205566406,-4090.468017578125,-10.33147144317627,3000.895263671875,4616.57861328125,16264.9150390625,2755.32421875,11525.154296875,1627.6041259765625,15867.5517578125,-5448.6591796875,-5548.79541015625,-3647.009521484375,-1518.726318359375,-6033.57958984375,644.52490234375,5989.07470703125,6234.64599609375,3053.347412109375,4790.6240234375,305.17578125,6287.892578125,-1104.6727294921875,19555.091796875,-3226.59814453125,-0.0,-2272.129150390625,8858.044921875,-2066.29443359375,-70.73084259033203,1217.524169921875,8613.2685546875,-6125.76806640625,2583.662841796875,-5702.97265625,-1342.296630859375,-1183.3509521484375,9543.8955078125,-13323.625,-12848.376953125,-5973.18017578125,-1964.569091796875,-573.7940673828125,-5456.6064453125,-2493.8583984375,-1353.4227294921875,-8763.47265625,3016.789794921875,665.1878662109375,1204.0137939453125,-5664.03076171875,959.2374267578125,0.0,-2552.668212890625,0.0,-2222.855712890625,-0.0,-534.0576171875
-12996.9912109375,-10874.271484375,-4483.8583984375,1393.1593017578125,2367.49658203125,19216.537109375,-2427.895751953125,2470.81103515625,-3268.71875,4351.13916015625,-7639.72607421875,-4659.494140625,-5185.60400390625,2658.3671875,322.6598205566406,-4100.7998046875,-7.9472856521606445,3002.484619140625,4618.962890625,16268.0947265625,2757.708251953125,11529.1279296875,1631.577880859375,15870.7294921875,-5448.6591796875,-5540.052734375,-3643.83056640625,-1516.3421630859375,-6021.658203125,649.2932739257812,5989.07470703125,6233.056640625,3056.526123046875,4793.00830078125,309.1494140625,6291.8662109375,-1102.28857421875,19556.681640625,-3238.51904296875,-0.0,-2268.1552734375,8861.224609375,-2062.32080078125,-68.3466567993164,1218.3189697265625,8615.6533203125,-6128.15234375,2578.894287109375,-5699.79345703125,-1331.17041015625,-1183.3509521484375,9540.716796875,-13299.783203125,-12853.9404296875,-5960.46435546875,-1958.211181640625,-576.17822265625,-5466.14306640625,-2493.063720703125,-1346.270263671875,-8765.0615234375,3019.96875,667.572021484375,1203.2191162109375,-5667.20947265625,954.4690551757812,0.0,-2558.2314453125,0.0,-2221.2666015625,-0.0,-534.0576171875
-12973.9443359375,-10856.7880859375,-4474.32177734375,1392.364501953125,2373.0595703125,19222.1015625,-2419.948486328125,2478.758544921875,-3263.15576171875,4353.5234375,-7623.03662109375,-4650.75146484375,-5180.041015625,2646.4462890625,341.7333068847656,-4093.64697265625,0.0,3011.2265625,4626.90966796875,16271.2724609375,2766.4501953125,11533.896484375,1639.5250244140625,15877.8818359375,-5451.837890625,-5548.00048828125,-3631.90966796875,-1504.4212646484375,-6011.3271484375,661.2141723632812,5997.81640625,6243.3876953125,3064.473388671875,4799.3662109375,317.0967102050781,6297.4296875,-1091.162353515625,19565.423828125,-3221.82958984375,-0.0,-2262.59228515625,8864.40234375,-2053.57861328125,-61.19409942626953,1226.2662353515625,8621.2158203125,-6128.15234375,2578.099609375,-5695.02490234375,-1324.017822265625,-1164.2774658203125,9550.25390625,-13258.45703125,-12839.634765625,-5952.51708984375,-1955.0323486328125,-562.6678466796875,-5457.4013671875,-2480.347900390625,-1342.296630859375,-8755.5244140625,3026.326416015625,673.1351318359375,1192.8876953125,-5656.08349609375,966.3899536132812,0.0,-2562.205078125,0.0,-2222.855712890625,-0.0,-538.03125
-12984.275390625,-10864.734375,-4489.421875,1377.2646484375,2352.396728515625,19207.796875,-2435.84326171875,2470.0166015625,-3276.666015625,4338.42333984375,-7613.5,-4663.46728515625,-5179.24658203125,2638.4990234375,317.8914489746094,-4094.44189453125,-14.30511474609375,2999.3056640625,4614.98876953125,16253.7900390625,2751.350341796875,11521.1796875,1623.6304931640625,15865.9609375,-5476.474609375,-5561.5107421875,-3657.341064453125,-1510.779052734375,-6033.57958984375,645.3196411132812,5986.6904296875,6230.67236328125,3051.7578125,4785.06103515625,304.38104248046875,6284.7138671875,-1108.6463623046875,19553.50390625,-3228.1875,-0.0,-2284.050048828125,8853.2763671875,-2071.857421875,-70.73084259033203,1209.576904296875,8608.5,-6140.0732421875,2562.205078125,-5721.2509765625,-1332.7598876953125,-1185.735107421875,9543.8955078125,-13255.2783203125,-12847.5830078125,-5974.76953125,-1969.33740234375,-582.5360717773438,-5462.96435546875,-2501.8056640625,-1364.549072265625,-8759.4990234375,3006.458251953125,660.41943359375,1171.429931640625,-5668.00439453125,960.0321655273438,0.0,-2580.483642578125,0.0,-2238.75048828125,-0.0,-554.7205810546875
-12980.3017578125,-10885.3974609375,-4494.98486328125,1381.23828125,2350.80712890625,19214.94921875,-2437.4326171875,2481.142822265625,-3282.229248046875,4329.681640625,-7584.09521484375,-4661.0830078125,-5191.9619140625,2641.677734375,303.5863342285156,-4066.6259765625,-11.920928955078125,3002.484619140625,4614.98876953125,16248.2265625,2752.93994140625,11526.744140625,1623.6304931640625,15871.5244140625,-5474.88525390625,-5549.58984375,-3664.49365234375,-1494.884521484375,-6041.52685546875,647.7037963867188,5989.86962890625,6234.64599609375,3052.552490234375,4788.23974609375,302.7915954589844,6289.48193359375,-1111.030517578125,19558.271484375,-3231.366455078125,-0.0,-2284.050048828125,8856.4560546875,-2072.652099609375,-61.19409942626953,1203.2191162109375,8612.4736328125,-6131.3310546875,2565.3837890625,-5726.814453125,-1326.402099609375,-1200.8348388671875,9564.55859375,-13271.9677734375,-12849.966796875,-5981.92236328125,-1957.41650390625,-600.8148193359375,-5459.78564453125,-2508.9580078125,-1388.390869140625,-8757.1142578125,3008.0478515625,659.624755859375,1173.814208984375,-5672.77294921875,966.3899536132812,0.0,-2603.53076171875,0.0,-2257.823974609375,-0.0,-556.3099975585938
-13004.939453125,-10925.1337890625,-4484.6533203125,1389.185546875,2353.986083984375,19217.33203125,-2438.227294921875,2481.142822265625,-3282.229248046875,4328.09228515625,-7587.27392578125,-4657.904296875,-5212.625,2646.4462890625,294.0495910644531,-4070.60009765625,-9.5367431640625,3003.279541015625,4613.3994140625,16248.2265625,2756.11865234375,11529.1279296875,1626.0146484375,15870.7294921875,-5474.0908203125,-5544.02685546875,-3662.904052734375,-1497.2686767578125,-6045.50048828125,649.2932739257812,5993.04833984375,6236.2353515625,3055.7314453125,4791.41845703125,305.97052001953125,6290.27685546875,-1112.6199951171875,19557.4765625,-3248.8505859375,-0.0,-2278.487060546875,8858.044921875,-2071.857421875,-64.37301635742188,1202.4244384765625,8613.2685546875,-6118.61572265625,2576.51025390625,-5720.45654296875,-1333.5545654296875,-1211.1663818359375,9563.763671875,-13309.3193359375,-12853.9404296875,-5985.10107421875,-1952.648193359375,-613.5304565429688,-5466.93798828125,-2509.7529296875,-1377.2646484375,-8774.59765625,3010.431884765625,658.8300170898438,1181.7613525390625,-5687.078125,970.3636474609375,0.0,-2595.583740234375,0.0,-2256.234375,-0.0,-556.3099975585938
-13020.8330078125,-10936.259765625,-4475.11669921875,1394.7486572265625,2368.291259765625,19218.921875,-2430.280029296875,2476.374267578125,-3268.71875,4353.5234375,-7622.2421875,-4656.31494140625,-5181.63037109375,2663.135498046875,310.7388916015625,-4085.699462890625,-1.5894571542739868,3010.431884765625,4618.16796875,16263.326171875,2765.655517578125,11533.896484375,1636.34619140625,15873.9091796875,-5453.427734375,-5539.25830078125,-3643.035888671875,-1501.2423095703125,-6039.142578125,649.2932739257812,5999.40625,6242.59326171875,3063.6787109375,4798.5712890625,317.0967102050781,6292.6611328125,-1104.6727294921875,19557.4765625,-3245.671630859375,-0.0,-2264.181884765625,8863.6083984375,-2062.32080078125,-63.578285217285156,1212.755859375,8618.037109375,-6121.79443359375,2581.278564453125,-5712.50927734375,-1333.5545654296875,-1194.47705078125,9550.25390625,-13333.95703125,-12864.2724609375,-5980.3330078125,-1963.7744140625,-592.8675537109375,-5470.1171875,-2497.83203125,-1349.44921875,-8769.830078125,3015.200439453125,665.9825439453125,1198.45068359375,-5691.84619140625,976.721435546875,0.0,-2573.3310546875,0.0,-2225.239990234375,-0.0,-534.8523559570312
-12996.1962890625,-10896.5234375,-4455.24853515625,1395.54345703125,2376.238525390625,19225.279296875,-2423.92236328125,2481.9375,-3262.36083984375,4356.7021484375,-7634.9580078125,-4651.54638671875,-5155.40478515625,2661.5458984375,342.52801513671875,-4088.878662109375,6.357828617095947,3019.173828125,4624.525390625,16270.4794921875,2775.98681640625,11541.84375,1644.29345703125,15880.2666015625,-5436.73828125,-5533.6953125,-3635.88330078125,-1494.0897216796875,-6032.78515625,658.0352783203125,6008.1484375,6249.74560546875,3074.804931640625,4804.92919921875,325.04400634765625,6299.81396484375,-1093.5465087890625,19563.833984375,-3238.51904296875,-0.0,-2250.67138671875,8873.1455078125,-2052.783935546875,-55.63100051879883,1223.0872802734375,8625.189453125,-6115.4365234375,2581.278564453125,-5709.330078125,-1327.19677734375,-1161.0985107421875,9556.611328125,-13314.8828125,-12870.62890625,-5972.38525390625,-1977.28466796875,-557.8994750976562,-5478.85888671875,-2487.50048828125,-1333.5545654296875,-8761.087890625,3021.55810546875,672.3403930664062,1201.629638671875,-5675.95166015625,987.0529174804688,0.0,-2555.84716796875,0.0,-2222.06103515625,-0.0,-532.4681396484375
-12970.7646484375,-10890.9609375,-4463.19580078125,1393.9539794921875,2372.264892578125,19218.126953125,-2424.717041015625,2477.1689453125,-3260.771484375,4359.08642578125,-7608.73193359375,-4657.10986328125,-5178.45166015625,2658.3671875,338.55438232421875,-4098.41552734375,5.563100337982178,3013.61083984375,4620.55224609375,16273.6572265625,2771.218505859375,11537.869140625,1640.31982421875,15873.9091796875,-5439.12255859375,-5542.43701171875,-3639.85693359375,-1503.62646484375,-6031.1953125,649.2932739257812,6003.3798828125,6250.5400390625,3074.01025390625,4803.33935546875,320.275634765625,6295.04541015625,-1096.7254638671875,19559.859375,-3209.90869140625,-0.0,-2259.41357421875,8871.5556640625,-2054.37353515625,-62.78356170654297,1219.9083251953125,8622.8056640625,-6115.4365234375,2576.51025390625,-5705.3564453125,-1339.912353515625,-1165.0721435546875,9549.458984375,-13274.3525390625,-12889.703125,-5970.0009765625,-2002.716064453125,-565.052001953125,-5478.06396484375,-2485.9111328125,-1327.991455078125,-8759.4990234375,3015.200439453125,669.1614990234375,1204.0137939453125,-5655.28857421875,981.4898071289062,0.0,-2547.10498046875,0.0,-2214.90869140625,-0.0,-526.905029296875
-12942.9501953125,-10933.08203125,-4475.91162109375,1393.1593017578125,2371.47021484375,19212.564453125,-2425.51171875,2472.400634765625,-3263.950439453125,4360.67578125,-7578.53173828125,-4654.7255859375,-5170.50390625,2659.956787109375,341.7333068847656,-4100.7998046875,4.76837158203125,3009.63720703125,4619.75732421875,16270.4794921875,2767.2451171875,11537.0751953125,1641.1146240234375,15869.935546875,-5449.45361328125,-5549.58984375,-3631.90966796875,-1513.9580078125,-6024.04248046875,643.7301635742188,6002.5849609375,6252.92431640625,3070.03662109375,4805.7236328125,316.3019714355469,6292.6611328125,-1097.520263671875,19556.681640625,-3201.96142578125,-0.0,-2265.771240234375,8865.9921875,-2053.57861328125,-69.14138793945312,1219.9083251953125,8618.037109375,-6131.3310546875,2576.51025390625,-5699.79345703125,-1343.09130859375,-1163.482666015625,9544.6904296875,-13271.1728515625,-12884.1396484375,-5967.6171875,-1984.437255859375,-564.25732421875,-5458.99072265625,-2475.57958984375,-1327.991455078125,-8757.1142578125,3014.405517578125,668.3667602539062,1200.8348388671875,-5654.49365234375,975.1319580078125,0.0,-2550.2841796875,0.0,-2209.345458984375,-0.0,-523.7261352539062
-12972.3544921875,-10962.486328125,-4482.26953125,1395.54345703125,2372.264892578125,19217.33203125,-2417.564453125,2473.990234375,-3261.566162109375,4368.623046875,-7566.61083984375,-4649.95703125,-5156.99365234375,2655.98291015625,365.5751647949219,-4092.0576171875,4.76837158203125,3012.021240234375,4622.93603515625,16275.248046875,2764.86083984375,11538.6650390625,1646.6776123046875,15874.7041015625,-5463.7587890625,-5545.6162109375,-3619.98876953125,-1508.3948974609375,-6015.30078125,647.7037963867188,6004.1748046875,6252.1298828125,3066.857666015625,4808.10791015625,317.8914489746094,6294.25048828125,-1089.5728759765625,19559.859375,-3228.982177734375,-0.0,-2270.53955078125,8865.197265625,-2046.426025390625,-61.98883056640625,1229.445068359375,8618.037109375,-6119.41015625,2580.483642578125,-5695.81982421875,-1323.22314453125,-1138.8460693359375,9547.07421875,-13269.583984375,-12865.06640625,-5957.28564453125,-1951.0587158203125,-545.978515625,-5460.58056640625,-2454.916748046875,-1332.7598876953125,-8779.3662109375,3019.173828125,672.3403930664062,1204.0137939453125,-5657.6728515625,971.1583251953125,0.0,-2555.84716796875,0.0,-2210.14013671875,-0.0,-518.957763671875
-13006.5283203125,-10987.1220703125,-4493.3955078125,1382.032958984375,2350.80712890625,19206.205078125,-2439.02197265625,2458.89013671875,-3277.460693359375,4348.7548828125,-7600.7841796875,-4661.8779296875,-5187.98828125,2634.525390625,322.6598205566406,-4103.978515625,-12.715657234191895,2996.126953125,4603.06787109375,16257.7626953125,2747.376708984375,11521.1796875,1626.8094482421875,15859.603515625,-5480.4482421875,-5553.5634765625,-3650.983154296875,-1517.136962890625,-6042.32177734375,630.2197875976562,5986.6904296875,6234.64599609375,3050.963134765625,4792.21337890625,298.8179626464844,6277.56103515625,-1112.6199951171875,19542.375,-3248.0556640625,-0.0,-2288.023681640625,8850.8916015625,-2071.062744140625,-74.7044906616211,1205.603271484375,8600.552734375,-6113.84716796875,2566.973388671875,-5722.0458984375,-1326.402099609375,-1181.7613525390625,9533.564453125,-13293.42578125,-12879.3720703125,-5985.10107421875,-1949.46923828125,-588.0991821289062,-5481.2431640625,-2494.653076171875,-1351.8333740234375,-8802.4140625,3002.484619140625,652.47216796875,1176.1983642578125,-5681.5146484375,956.8532104492188,0.0,-2586.046875,0.0,-2241.134765625,-0.0,-549.157470703125
-12995.40234375,-11016.5283203125,-4510.08447265625,1364.549072265625,2326.170654296875,19187.927734375,-2466.837646484375,2437.4326171875,-3294.150146484375,4323.32373046875,-7641.3154296875,-4683.3359375,-5223.7509765625,2624.19384765625,267.02880859375,-4127.8203125,-32.5838737487793,2975.4638671875,4579.22607421875,16239.484375,2728.30322265625,11501.3125,1602.9676513671875,15838.146484375,-5503.49560546875,-5571.04736328125,-3687.540771484375,-1537.7998046875,-6058.21630859375,610.3515625,5966.02783203125,6214.77734375,3033.47900390625,4771.55078125,275.77081298828125,6258.48779296875,-1142.0250244140625,19522.5078125,-3267.924072265625,-0.0,-2307.891845703125,8836.5869140625,-2098.878173828125,-97.75161743164062,1180.1719970703125,8578.30078125,-6155.1728515625,2548.694580078125,-5749.861328125,-1351.03857421875,-1239.776611328125,9512.1064453125,-13303.7568359375,-12904.8037109375,-5999.40625,-1971.7216796875,-636.57763671875,-5499.52197265625,-2523.26318359375,-1372.4962158203125,-8806.3876953125,2978.642822265625,629.425048828125,1155.535400390625,-5697.4091796875,934.600830078125,0.0,-2598.762451171875,0.0,-2261.797607421875,-0.0,-572.9993286132812
-12923.876953125,-11002.22265625,-4514.85302734375,1366.138427734375,2329.349609375,19183.955078125,-2467.63232421875,2435.84326171875,-3295.739501953125,4314.58154296875,-7631.77880859375,-4685.7197265625,-5221.36669921875,2629.7568359375,269.4129943847656,-4119.873046875,-30.19968605041504,2975.4638671875,4577.63671875,16230.7412109375,2729.09814453125,11502.90234375,1603.7623291015625,15837.3505859375,-5490.77978515625,-5582.173828125,-3684.36181640625,-1539.3892822265625,-6060.60009765625,625.451416015625,5967.6171875,6221.93017578125,3032.684326171875,4773.93505859375,278.1549987792969,6255.30859375,-1142.8197021484375,19519.328125,-3275.07666015625,-0.0,-2305.507568359375,8833.408203125,-2096.493896484375,-99.34107208251953,1178.58251953125,8575.916015625,-6169.47802734375,2550.2841796875,-5745.0927734375,-1362.95947265625,-1236.59765625,9512.1064453125,-13263.2255859375,-12888.1142578125,-6000.20068359375,-1990.795166015625,-615.1199340820312,-5504.2900390625,-2528.031494140625,-1378.059326171875,-8782.5458984375,2978.642822265625,625.451416015625,1163.482666015625,-5692.640625,936.1903076171875,0.0,-2597.173095703125,0.0,-2257.029296875,-0.0,-569.0256958007812
-12919.1083984375,-10925.9287109375,-4529.953125,1359.7806396484375,2324.5810546875,19181.5703125,-2473.1953125,2434.253662109375,-3303.686767578125,4307.4287109375,-7627.01025390625,-4683.3359375,-5194.34619140625,2620.22021484375,278.1549987792969,-4112.720703125,-38.14697265625,2970.695556640625,4573.6630859375,16219.6162109375,2723.534912109375,11497.337890625,1599.7886962890625,15834.1728515625,-5488.3955078125,-5582.96826171875,-3689.130126953125,-1536.21044921875,-6062.189453125,626.2461547851562,5962.0537109375,6216.3671875,3025.53173828125,4768.37158203125,273.3866271972656,6251.3349609375,-1143.6143798828125,19516.9453125,-3293.355224609375,-0.0,-2311.865478515625,8827.845703125,-2098.878173828125,-98.54634857177734,1173.814208984375,8572.7373046875,-6178.22021484375,2543.92626953125,-5753.04052734375,-1368.522705078125,-1227.0609130859375,9513.6953125,-13265.609375,-12876.9873046875,-6001.79052734375,-2001.1265869140625,-606.3779296875,-5501.111328125,-2532.800048828125,-1393.1593017578125,-8796.8515625,2977.84814453125,619.8883056640625,1153.9459228515625,-5697.4091796875,940.1639404296875,0.0,-2607.504638671875,0.0,-2269.744873046875,-0.0,-576.17822265625
-12956.4599609375,-10867.119140625,-4529.953125,1357.396484375,2326.96533203125,19185.54296875,-2465.248046875,2441.40625,-3290.970947265625,4320.14453125,-7623.8310546875,-4677.7724609375,-5193.5517578125,2644.06201171875,294.84429931640625,-4118.28369140625,-39.73643112182617,2973.07958984375,4580.81591796875,16236.3056640625,2725.9189453125,11496.5439453125,1603.7623291015625,15838.94140625,-5501.111328125,-5582.173828125,-3676.41455078125,-1528.2630615234375,-6053.44775390625,631.8092041015625,5962.8486328125,6213.98291015625,3028.710693359375,4765.1923828125,276.5655517578125,6252.92431640625,-1136.4619140625,19523.302734375,-3294.150146484375,-0.0,-2315.04443359375,8823.8720703125,-2090.930908203125,-92.98324584960938,1184.1456298828125,8580.6845703125,-6176.63037109375,2546.310546875,-5742.70849609375,-1358.191162109375,-1210.37158203125,9520.0537109375,-13278.3251953125,-12870.62890625,-5992.25390625,-1989.20556640625,-601.6095581054688,-5505.0849609375,-2518.494873046875,-1375.6751708984375,-8793.671875,2984.2060546875,628.6303100585938,1171.429931640625,-5694.23046875,948.1112060546875,0.0,-2602.736328125,0.0,-2262.59228515625,-0.0,-565.8467407226562
-12932.6181640625,-10864.734375,-4522.80029296875,1377.2646484375,2347.62841796875,19199.84765625,-2446.174560546875,2450.1484375,-3266.33447265625,4347.16552734375,-7605.552734375,-4667.44091796875,-5211.830078125,2672.67236328125,316.3019714355469,-4114.3095703125,-26.226043701171875,2985.00048828125,4594.326171875,16265.7109375,2740.22412109375,11512.4384765625,1619.6568603515625,15850.8623046875,-5482.83251953125,-5566.27880859375,-3651.778076171875,-1524.2894287109375,-6037.55322265625,644.52490234375,5977.15380859375,6228.2880859375,3040.631591796875,4781.8818359375,291.6654052734375,6267.2294921875,-1118.9779052734375,19536.017578125,-3275.871337890625,-0.0,-2299.944580078125,8842.9453125,-2073.447021484375,-83.44650268554688,1204.80859375,8591.8115234375,-6181.39892578125,2562.999755859375,-5710.125,-1347.06494140625,-1188.1192626953125,9522.4384765625,-13256.0732421875,-12862.6826171875,-5976.35888671875,-1970.132080078125,-594.4569702148438,-5488.3955078125,-2498.626708984375,-1360.5753173828125,-8767.4453125,2998.510986328125,646.1143798828125,1205.603271484375,-5683.10400390625,960.0321655273438,0.0,-2586.841552734375,0.0,-2235.571533203125,-0.0,-541.210205078125
-12926.2607421875,-10901.2919921875,-4524.3896484375,1375.6751708984375,2342.065185546875,19199.84765625,-2450.1484375,2452.532470703125,-3263.950439453125,4347.16552734375,-7598.39990234375,-4668.23583984375,-5203.08837890625,2667.109130859375,305.17578125,-4100.7998046875,-27.02077293395996,2984.2060546875,4591.94189453125,16268.0947265625,2734.6611328125,11511.6435546875,1617.272705078125,15851.65625,-5491.57470703125,-5562.3056640625,-3660.519775390625,-1520.3157958984375,-6042.32177734375,640.55126953125,5973.18017578125,6223.52001953125,3035.86328125,4779.49755859375,285.30755615234375,6266.43505859375,-1122.15673828125,19536.814453125,-3278.25537109375,-0.0,-2309.4814453125,8842.9453125,-2079.010009765625,-83.44650268554688,1204.80859375,8596.5791015625,-6175.041015625,2560.615478515625,-5721.2509765625,-1355.0123291015625,-1197.656005859375,9530.384765625,-13240.177734375,-12863.4765625,-5982.716796875,-1971.7216796875,-591.278076171875,-5488.3955078125,-2497.83203125,-1361.3701171875,-8795.26171875,2996.126953125,646.1143798828125,1198.45068359375,-5681.5146484375,953.67431640625,0.0,-2588.43115234375,0.0,-2241.92919921875,-0.0,-548.3627319335938
-12946.9228515625,-10914.0078125,-4534.72119140625,1369.3173828125,2332.5283203125,19191.900390625,-2456.506103515625,2446.96923828125,-3271.10302734375,4343.19140625,-7610.3212890625,-4673.00390625,-5199.9091796875,2644.856689453125,301.2021484375,-4093.64697265625,-37.35224533081055,2977.84814453125,4584.7890625,16258.55859375,2725.124267578125,11502.90234375,1608.5306396484375,15844.5029296875,-5499.52197265625,-5570.2529296875,-3668.46728515625,-1525.0841064453125,-6050.2685546875,634.9881591796875,5963.6435546875,6210.00927734375,3026.326416015625,4768.37158203125,274.9761047363281,6258.48779296875,-1130.8988037109375,19528.0703125,-3284.61328125,-0.0,-2318.22314453125,8835.79296875,-2088.546875,-89.00960540771484,1196.861328125,8587.04296875,-6169.47802734375,2555.052490234375,-5737.9404296875,-1359.7806396484375,-1204.0137939453125,9524.822265625,-13264.8154296875,-12871.4248046875,-5989.86962890625,-1974.9005126953125,-588.0991821289062,-5483.62744140625,-2497.037109375,-1364.549072265625,-8813.5400390625,2988.974365234375,638.9617919921875,1171.429931640625,-5689.46240234375,945.72705078125,0.0,-2597.173095703125,0.0,-2252.260986328125,-0.0,-557.8994750976562
-12973.1494140625,-10921.1611328125,-4529.953125,1358.98583984375,2329.349609375,19187.927734375,-2458.89013671875,2441.40625,-3279.844970703125,4346.37060546875,-7627.01025390625,-4680.95166015625,-5200.7041015625,2637.7041015625,307.5599670410156,-4116.69384765625,-41.32588577270508,2976.258544921875,4583.2001953125,16249.8154296875,2723.534912109375,11498.927734375,1605.351806640625,15838.94140625,-5497.1376953125,-5578.19970703125,-3670.056640625,-1534.620849609375,-6058.21630859375,625.451416015625,5961.25927734375,6202.8564453125,3021.55810546875,4763.60302734375,274.1813659667969,6255.30859375,-1134.07763671875,19524.892578125,-3313.2236328125,-0.0,-2315.839111328125,8830.2294921875,-2090.13623046875,-93.7779769897461,1192.8876953125,8583.86328125,-6164.70947265625,2543.92626953125,-5738.7353515625,-1358.98583984375,-1198.45068359375,9516.080078125,-13295.8095703125,-12884.1396484375,-5998.611328125,-1983.642578125,-599.225341796875,-5495.54833984375,-2501.8056640625,-1365.34375,-8815.12890625,2987.384765625,636.57763671875,1166.66162109375,-5694.23046875,940.9586791992188,0.0,-2586.841552734375,0.0,-2241.134765625,-0.0,-544.3890991210938
-12979.5078125,-10930.697265625,-4526.77392578125,1362.164794921875,2334.117919921875,19196.66796875,-2454.916748046875,2453.3271484375,-3281.434326171875,4362.26513671875,-7622.2421875,-4679.36181640625,-5199.1142578125,2645.651611328125,305.17578125,-4107.9521484375,-36.55751419067383,2982.616455078125,4590.3525390625,16258.55859375,2729.09814453125,11503.6962890625,1610.914794921875,15846.09375,-5493.958984375,-5569.4580078125,-3663.698974609375,-1523.4947509765625,-6066.9580078125,625.451416015625,5966.822265625,6206.03564453125,3027.121337890625,4769.16650390625,278.1549987792969,6264.84521484375,-1127.7198486328125,19535.22265625,-3286.99755859375,-0.0,-2311.865478515625,8837.3818359375,-2085.367919921875,-82.65177154541016,1195.2718505859375,8598.9638671875,-6179.0146484375,2544.720947265625,-5729.9931640625,-1351.8333740234375,-1201.629638671875,9528.7958984375,-13298.98828125,-12892.0869140625,-6007.353515625,-1986.0267333984375,-601.6095581054688,-5492.369140625,-2507.368896484375,-1347.8597412109375,-8802.4140625,2994.537353515625,645.3196411132812,1189.708740234375,-5699.79345703125,943.3428344726562,0.0,-2580.483642578125,0.0,-2226.82958984375,-0.0,-520.5472412109375
-13008.1171875,-10936.259765625,-4515.64794921875,1372.4962158203125,2336.501953125,19203.02734375,-2450.94287109375,2461.2744140625,-3276.666015625,4366.2392578125,-7611.91015625,-4668.23583984375,-5204.677734375,2652.00927734375,297.2284851074219,-4097.62060546875,-27.02077293395996,2988.179443359375,4595.91552734375,16260.1474609375,2735.455810546875,11513.2333984375,1615.6832275390625,15853.2470703125,-5493.958984375,-5555.94775390625,-3664.49365234375,-1516.3421630859375,-6047.08984375,634.9881591796875,5971.59033203125,6217.95654296875,3036.657958984375,4778.703125,281.33392333984375,6271.998046875,-1124.5408935546875,19543.171875,-3267.924072265625,-0.0,-2308.6865234375,8846.9189453125,-2083.7783203125,-77.08867645263672,1199.2454833984375,8605.3212890625,-6166.29931640625,2557.436767578125,-5733.171875,-1363.7542724609375,-1206.39794921875,9535.94921875,-13297.3984375,-12884.9345703125,-5988.27978515625,-1982.847900390625,-596.8411865234375,-5472.50146484375,-2506.573974609375,-1340.7071533203125,-8793.671875,2998.510986328125,649.2932739257812,1191.298095703125,-5687.87255859375,957.64794921875,0.0,-2566.973388671875,0.0,-2217.292724609375,-0.0,-522.931396484375
-13017.654296875,-10939.4384765625,-4508.4951171875,1382.032958984375,2339.680908203125,19216.537109375,-2446.174560546875,2463.65869140625,-3271.10302734375,4362.26513671875,-7611.11572265625,-4661.0830078125,-5193.5517578125,2656.777587890625,309.1494140625,-4092.0576171875,-23.047128677368164,2992.153076171875,4601.478515625,16259.3515625,2738.634765625,11518.7958984375,1620.4515380859375,15859.603515625,-5487.6005859375,-5542.43701171875,-3660.519775390625,-1509.1895751953125,-6041.52685546875,641.345947265625,5978.7431640625,6222.72509765625,3042.22119140625,4785.85595703125,287.6917419433594,6275.9716796875,-1118.9779052734375,19548.734375,-3272.6923828125,-0.0,-2303.918212890625,8858.044921875,-2079.010009765625,-71.52557373046875,1203.2191162109375,8609.294921875,-6163.1201171875,2567.76806640625,-5731.58251953125,-1337.5281982421875,-1196.0665283203125,9542.3056640625,-13303.7568359375,-12880.166015625,-5979.5380859375,-1982.847900390625,-586.5097045898438,-5469.322265625,-2501.8056640625,-1346.270263671875,-8791.287109375,3002.484619140625,651.6774291992188,1190.50341796875,-5678.33544921875,971.1583251953125,0.0,-2561.41015625,0.0,-2214.90869140625,-0.0,-533.2628784179688
-12993.0185546875,-10938.64453125,-4514.05859375,1378.059326171875,2334.91259765625,19211.76953125,-2451.737548828125,2454.916748046875,-3283.818603515625,4328.88671875,-7606.34765625,-4666.646484375,-5195.140625,2656.777587890625,313.1230773925781,-4100.0048828125,-26.226043701171875,2985.795166015625,4592.73681640625,16235.509765625,2733.071533203125,11514.8232421875,1615.6832275390625,15854.8359375,-5488.3955078125,-5547.20556640625,-3662.904052734375,-1509.984375,-6048.67919921875,632.6039428710938,5973.18017578125,6222.72509765625,3039.042236328125,4782.6767578125,282.9233703613281,6271.20361328125,-1125.335693359375,19539.9921875,-3288.5869140625,-0.0,-2305.507568359375,8852.4814453125,-2082.983642578125,-75.49921417236328,1194.47705078125,8592.60546875,-6163.1201171875,2565.3837890625,-5730.78759765625,-1340.7071533203125,-1191.298095703125,9535.1533203125,-13291.041015625,-12882.5498046875,-5986.6904296875,-1997.153076171875,-582.5360717773438,-5489.1904296875,-2508.9580078125,-1365.34375,-8793.671875,2996.921630859375,637.372314453125,1187.324462890625,-5679.92529296875,963.2110595703125,0.0,-2578.099609375,0.0,-2231.597900390625,-0.0,-550.7469482421875
-12977.91796875,-10933.08203125,-4513.263671875,1382.032958984375,2333.3232421875,19206.205078125,-2458.89013671875,2446.96923828125,-3294.150146484375,4309.81298828125,-7610.3212890625,-4671.4150390625,-5201.49853515625,2652.00927734375,306.7652282714844,-4103.18359375,-28.6102294921875,2982.616455078125,4585.583984375,16220.4111328125,2729.892822265625,11510.0546875,1610.914794921875,15850.0673828125,-5485.216796875,-5554.35791015625,-3667.67236328125,-1515.54736328125,-6046.294921875,627.8355712890625,5968.412109375,6221.93017578125,3037.45263671875,4781.08740234375,278.1549987792969,6265.64013671875,-1130.10400390625,19534.4296875,-3288.5869140625,-0.0,-2307.09716796875,8850.09765625,-2088.546875,-80.26758575439453,1188.1192626953125,8582.2744140625,-6148.81494140625,2569.357666015625,-5730.78759765625,-1350.243896484375,-1197.656005859375,9528.7958984375,-13272.7626953125,-12880.9609375,-5985.8955078125,-1994.768798828125,-587.304443359375,-5489.1904296875,-2513.7265625,-1374.8804931640625,-8799.2353515625,2992.94775390625,629.425048828125,1184.9403076171875,-5685.48828125,956.0584716796875,0.0,-2581.278564453125,0.0,-2241.92919921875,-0.0,-552.3363647460938
-13012.8857421875,-10939.4384765625,-4516.44287109375,1363.7542724609375,2319.812744140625,19191.900390625,-2470.0166015625,2437.4326171875,-3302.097412109375,4307.4287109375,-7629.39453125,-4681.74609375,-5204.677734375,2631.346435546875,291.6654052734375,-4112.720703125,-40.531158447265625,2971.490234375,4574.45751953125,16215.642578125,2717.17724609375,11500.517578125,1600.5833740234375,15838.94140625,-5497.9326171875,-5559.92138671875,-3683.567138671875,-1534.620849609375,-6054.24267578125,607.9674072265625,5956.4912109375,6206.83056640625,3026.326416015625,4768.37158203125,267.02880859375,6255.30859375,-1142.8197021484375,19523.302734375,-3294.94482421875,-0.0,-2319.01806640625,8839.7666015625,-2102.05712890625,-92.18851470947266,1176.1983642578125,8573.5322265625,-6151.19921875,2547.89990234375,-5749.06689453125,-1364.549072265625,-1214.3453369140625,9518.4638671875,-13310.115234375,-12892.0869140625,-5994.63818359375,-1993.9739990234375,-605.5831909179688,-5479.65380859375,-2519.289794921875,-1389.185546875,-8811.951171875,2980.232177734375,619.0935668945312,1165.8668212890625,-5700.58837890625,943.3428344726562,0.0,-2586.046875,0.0,-2257.823974609375,-0.0,-569.0256958007812
-13047.05859375,-10967.2548828125,-4500.5478515625,1364.549072265625,2323.786376953125,19198.259765625,-2468.427001953125,2440.611572265625,-3302.097412109375,4317.76025390625,-7664.3623046875,-4680.95166015625,-5184.0146484375,2624.19384765625,290.075927734375,-4109.54150390625,-39.73643112182617,2977.053466796875,4575.25244140625,16220.4111328125,2721.945556640625,11504.4912109375,1603.7623291015625,15842.119140625,-5478.85888671875,-5538.46337890625,-3681.182861328125,-1531.4420166015625,-6055.83203125,611.1463012695312,5958.875,6199.677734375,3029.50537109375,4772.34521484375,271.79718017578125,6260.0771484375,-1141.230224609375,19524.09765625,-3304.4814453125,-0.0,-2307.09716796875,8848.5078125,-2098.878173828125,-90.59906005859375,1176.9930419921875,8575.916015625,-6138.4833984375,2550.2841796875,-5752.24560546875,-1368.522705078125,-1214.3453369140625,9520.0537109375,-13376.0771484375,-12907.9814453125,-5994.63818359375,-1992.3846435546875,-595.251708984375,-5478.85888671875,-2520.08447265625,-1383.62255859375,-8811.15625,2983.4111328125,620.6830444335938,1157.9195556640625,-5708.53564453125,936.9849853515625,0.0,-2584.45751953125,0.0,-2252.260986328125,-0.0,-567.4362182617188
-13029.5751953125,-10979.17578125,-4476.7060546875,1381.23828125,2346.038818359375,19210.1796875,-2451.737548828125,2452.532470703125,-3294.150146484375,4328.09228515625,-7682.6416015625,-4671.4150390625,-5172.88818359375,2624.988525390625,317.8914489746094,-4101.59423828125,-23.047128677368164,2993.74267578125,4591.14697265625,16229.15234375,2741.813720703125,11521.1796875,1622.8358154296875,15854.8359375,-5437.53271484375,-5541.642578125,-3659.72509765625,-1519.5211181640625,-6045.50048828125,627.8355712890625,5977.15380859375,6216.3671875,3043.810546875,4793.00830078125,289.2812194824219,6273.587890625,-1124.5408935546875,19539.9921875,-3314.81298828125,-0.0,-2278.487060546875,8861.224609375,-2078.21533203125,-79.47286224365234,1192.0928955078125,8588.6318359375,-6125.76806640625,2566.178466796875,-5728.40380859375,-1365.34375,-1188.9139404296875,9530.384765625,-13357.798828125,-12915.134765625,-5986.6904296875,-1976.489990234375,-573.7940673828125,-5478.06396484375,-2502.600341796875,-1370.9068603515625,-8787.314453125,3000.100341796875,632.6039428710938,1162.6878662109375,-5704.5615234375,951.2901611328125,0.0,-2578.894287109375,0.0,-2238.75048828125,-0.0,-547.5679931640625
-13010.501953125,-10964.076171875,-4487.03759765625,1380.443603515625,2353.19140625,19213.357421875,-2441.40625,2465.248046875,-3294.150146484375,4332.0654296875,-7662.77294921875,-4665.056640625,-5194.34619140625,2613.8623046875,340.9385681152344,-4079.341796875,-17.48402976989746,2998.510986328125,4596.7099609375,16227.5634765625,2748.171630859375,11524.359375,1632.37255859375,15861.98828125,-5437.53271484375,-5562.3056640625,-3641.4462890625,-1506.0106201171875,-6046.294921875,637.372314453125,5981.92236328125,6234.64599609375,3050.963134765625,4796.98193359375,295.6390380859375,6279.9453125,-1113.414794921875,19547.939453125,-3259.181884765625,-0.0,-2276.8974609375,8858.83984375,-2066.29443359375,-69.14138793945312,1199.2454833984375,8598.9638671875,-6144.046875,2562.999755859375,-5710.125,-1335.14404296875,-1165.8668212890625,9547.8701171875,-13283.888671875,-12905.59765625,-5987.4853515625,-1977.28466796875,-565.8467407226562,-5471.70654296875,-2495.44775390625,-1373.291015625,-8786.51953125,3007.2529296875,638.9617919921875,1155.535400390625,-5698.2041015625,960.826904296875,0.0,-2582.0732421875,0.0,-2238.75048828125,-0.0,-545.183837890625
-12978.712890625,-10964.8701171875,-4518.8271484375,1376.469970703125,2332.5283203125,19200.642578125,-2454.121826171875,2458.095458984375,-3294.150146484375,4338.42333984375,-7624.6259765625,-4678.5673828125,-5207.8564453125,2624.988525390625,319.48089599609375,-4087.289306640625,-34.1733283996582,2981.82177734375,4587.17333984375,16230.7412109375,2727.508544921875,11508.46484375,1616.47802734375,15850.0673828125,-5484.42236328125,-5570.2529296875,-3659.72509765625,-1517.931640625,-6049.47412109375,625.451416015625,5965.23291015625,6219.5458984375,3033.47900390625,4781.08740234375,276.5655517578125,6264.05078125,-1127.7198486328125,19539.197265625,-3280.6396484375,-0.0,-2307.09716796875,8842.150390625,-2082.983642578125,-81.06231689453125,1191.298095703125,8598.9638671875,-6159.94140625,2559.82080078125,-5729.1982421875,-1347.8597412109375,-1184.9403076171875,9538.3330078125,-13254.4833984375,-12919.1083984375,-5989.86962890625,-1997.94775390625,-593.6622314453125,-5479.65380859375,-2512.931884765625,-1355.8070068359375,-8803.2080078125,2992.94775390625,633.398681640625,1162.6878662109375,-5702.177734375,944.1375732421875,0.0,-2579.68896484375,0.0,-2233.1875,-0.0,-553.131103515625
-12948.5126953125,-10956.1279296875,-4538.69482421875,1364.549072265625,2312.66015625,19194.28515625,-2466.837646484375,2442.995849609375,-3294.94482421875,4335.24462890625,-7626.21533203125,-4688.8984375,-5226.93017578125,2632.14111328125,294.0495910644531,-4106.36279296875,-50.067901611328125,2969.90087890625,4576.04736328125,16229.9482421875,2710.024658203125,11495.7490234375,1601.3780517578125,15837.3505859375,-5520.18505859375,-5574.2265625,-3676.41455078125,-1529.8525390625,-6057.42138671875,614.3251953125,5950.927734375,6204.4462890625,3015.9951171875,4766.7822265625,260.6709899902344,6251.3349609375,-1138.8460693359375,19528.0703125,-3321.965576171875,-0.0,-2330.144287109375,8830.2294921875,-2097.288818359375,-92.18851470947266,1183.3509521484375,8586.2470703125,-6166.29931640625,2550.2841796875,-5747.47705078125,-1355.0123291015625,-1210.37158203125,9523.232421875,-13262.4306640625,-12923.0810546875,-5997.81640625,-1984.437255859375,-613.5304565429688,-5485.216796875,-2512.931884765625,-1369.3173828125,-8809.56640625,2976.258544921875,625.451416015625,1165.0721435546875,-5722.8408203125,932.2166748046875,0.0,-2594.788818359375,0.0,-2244.3134765625,-0.0,-553.131103515625
-12915.134765625,-10919.5712890625,-4536.310546875,1374.0858154296875,2320.607421875,19210.974609375,-2449.353515625,2476.374267578125,-3266.33447265625,4385.3125,-7630.98388671875,-4671.4150390625,-5238.85107421875,2654.3935546875,295.6390380859375,-4064.241943359375,-37.35224533081055,2983.4111328125,4595.91552734375,16277.6318359375,2720.35595703125,11509.2587890625,1617.272705078125,15855.630859375,-5510.6484375,-5562.3056640625,-3668.46728515625,-1499.65283203125,-6063.779296875,623.8619384765625,5964.43798828125,6214.77734375,3027.121337890625,4776.31884765625,274.9761047363281,6267.2294921875,-1123.7462158203125,19551.912109375,-3327.52880859375,-0.0,-2322.99169921875,8846.1240234375,-2085.367919921875,-65.96247100830078,1203.2191162109375,8622.009765625,-6181.39892578125,2560.615478515625,-5738.7353515625,-1331.17041015625,-1207.9874267578125,9562.1748046875,-13264.8154296875,-12888.1142578125,-6004.1748046875,-1951.0587158203125,-621.477783203125,-5476.474609375,-2499.42138671875,-1330.375732421875,-8798.4404296875,2992.153076171875,655.651123046875,1196.0665283203125,-5719.66162109375,948.9059448242188,0.0,-2599.55712890625,0.0,-2225.239990234375,-0.0,-485.57916259765625
-12931.82421875,-10872.681640625,-4507.70068359375,1394.7486572265625,2343.654541015625,19234.021484375,-2420.7431640625,2509.7529296875,-3230.57177734375,4469.5537109375,-7611.91015625,-4656.31494140625,-5195.935546875,2682.208984375,338.55438232421875,-4034.04248046875,-14.30511474609375,3008.842529296875,4626.90966796875,16334.8525390625,2747.376708984375,11533.1015625,1644.29345703125,15882.650390625,-5474.88525390625,-5536.07958984375,-3635.88330078125,-1471.0426025390625,-6034.3740234375,653.2669067382812,5988.27978515625,6239.4140625,3052.552490234375,4802.544921875,300.40740966796875,6292.6611328125,-1091.162353515625,19583.701171875,-3295.739501953125,-0.0,-2293.586669921875,8868.376953125,-2059.141845703125,-39.73643112182617,1235.802978515625,8668.8994140625,-6162.3251953125,2581.278564453125,-5712.50927734375,-1309.7127685546875,-1166.66162109375,9593.1689453125,-13271.9677734375,-12834.8662109375,-5975.564453125,-1933.57470703125,-584.9202270507812,-5460.58056640625,-2475.57958984375,-1264.4132080078125,-8763.47265625,3018.379150390625,696.1822509765625,1227.0609130859375,-5689.46240234375,971.1583251953125,0.0,-2566.973388671875,0.0,-2152.919677734375,-0.0,-429.94818115234375
-13031.1650390625,-10869.5029296875,-4516.44287109375,1390.7750244140625,2332.5283203125,19217.33203125,-2433.458984375,2489.08984375,-3256.003173828125,4423.45947265625,-7615.08935546875,-4662.67236328125,-5192.7568359375,2644.856689453125,342.52801513671875,-4070.60009765625,-23.84185791015625,2997.71630859375,4611.01513671875,16295.1142578125,2737.83984375,11522.76953125,1631.577880859375,15866.7568359375,-5478.06396484375,-5545.6162109375,-3641.4462890625,-1497.2686767578125,-6033.57958984375,651.6774291992188,5977.94873046875,6229.87744140625,3043.015625,4794.59765625,290.075927734375,6278.35595703125,-1103.8780517578125,19563.0390625,-3248.0556640625,-0.0,-2300.7392578125,8855.66015625,-2066.29443359375,-60.39937210083008,1223.882080078125,8640.2890625,-6170.27294921875,2576.51025390625,-5716.482421875,-1345.4755859375,-1163.482666015625,9569.3271484375,-13284.68359375,-12830.8935546875,-5973.18017578125,-1958.211181640625,-578.5624389648438,-5477.26953125,-2473.1953125,-1302.5601806640625,-8774.59765625,3001.68994140625,673.9298706054688,1180.1719970703125,-5681.5146484375,958.4426879882812,0.0,-2559.82080078125,0.0,-2177.556396484375,-0.0,-514.984130859375
-13047.8544921875,-10922.75,-4541.0791015625,1364.549072265625,2298.35498046875,19183.955078125,-2473.1953125,2433.458984375,-3304.4814453125,4303.45556640625,-7635.75244140625,-4673.798828125,-5216.5986328125,2609.888671875,282.128662109375,-4124.6416015625,-50.067901611328125,2966.7216796875,4569.689453125,16206.1064453125,2708.43505859375,11494.9541015625,1598.19921875,15829.4052734375,-5511.44287109375,-5572.63720703125,-3681.182861328125,-1542.5682373046875,-6062.984375,622.2724609375,5948.54345703125,6201.26708984375,3015.9951171875,4765.9873046875,258.28680419921875,6246.56689453125,-1144.4091796875,19519.328125,-3294.94482421875,-0.0,-2330.93896484375,8827.0498046875,-2101.262451171875,-101.72525787353516,1176.9930419921875,8571.9423828125,-6190.935546875,2548.694580078125,-5749.861328125,-1375.6751708984375,-1222.2926025390625,9511.3115234375,-13286.2734375,-12860.2978515625,-6004.1748046875,-1987.6163330078125,-612.7357177734375,-5493.958984375,-2517.7001953125,-1379.6488037109375,-8802.4140625,2963.54296875,615.9146728515625,1133.282958984375,-5700.58837890625,936.1903076171875,0.0,-2582.0732421875,0.0,-2257.029296875,-0.0,-623.0671997070312
-13019.244140625,-10969.638671875,-4538.69482421875,1350.243896484375,2289.613037109375,19176.80078125,-2492.268798828125,2407.23291015625,-3325.939208984375,4213.6513671875,-7652.44140625,-4678.5673828125,-5216.5986328125,2628.16748046875,257.4920654296875,-4162.78857421875,-56.42573165893555,2957.18505859375,4550.61572265625,16148.0908203125,2701.282470703125,11486.212890625,1586.2783203125,15816.6884765625,-5513.82666015625,-5577.4052734375,-3697.8720703125,-1554.4891357421875,-6075.7001953125,611.1463012695312,5938.2119140625,6190.935546875,3009.63720703125,4759.6298828125,248.75006103515625,6237.0302734375,-1162.6878662109375,19500.255859375,-3328.3232421875,-0.0,-2334.91259765625,8823.0771484375,-2115.5673828125,-115.23564910888672,1154.74072265625,8531.4111328125,-6177.42529296875,2532.800048828125,-5763.3720703125,-1370.9068603515625,-1247.723876953125,9483.4970703125,-13289.451171875,-12888.908203125,-6016.89013671875,-1999.5372314453125,-616.7094116210938,-5520.9794921875,-2554.257568359375,-1432.1009521484375,-8823.8720703125,2949.23779296875,584.9202270507812,1149.9722900390625,-5717.27734375,940.1639404296875,0.0,-2590.0205078125,0.0,-2296.765625,-0.0,-627.0408935546875
-13031.9599609375,-11012.5537109375,-4533.92626953125,1359.7806396484375,2290.407958984375,19189.515625,-2486.705810546875,2420.7431640625,-3325.939208984375,4224.77734375,-7665.1572265625,-4692.07763671875,-5194.34619140625,2609.093994140625,280.5391845703125,-4137.357421875,-53.2468147277832,2958.774658203125,4554.58984375,16152.8583984375,2703.666748046875,11488.5966796875,1589.4571533203125,15823.0458984375,-5510.6484375,-5559.92138671875,-3693.103759765625,-1533.826171875,-6070.93212890625,600.0200805664062,5942.98046875,6190.935546875,3012.816162109375,4763.60302734375,251.13424682617188,6241.00341796875,-1157.9195556640625,19506.61328125,-3325.14453125,-0.0,-2332.5283203125,8840.560546875,-2113.183349609375,-102.51998901367188,1157.9195556640625,8540.9482421875,-6182.98876953125,2539.95263671875,-5762.5771484375,-1361.3701171875,-1225.471435546875,9500.98046875,-13329.1884765625,-12931.029296875,-6011.3271484375,-2023.3790283203125,-593.6622314453125,-5521.7744140625,-2544.720947265625,-1425.7431640625,-8824.666015625,2955.595703125,588.0991821289062,1130.8988037109375,-5722.0458984375,936.1903076171875,0.0,-2619.425537109375,0.0,-2307.891845703125,-0.0,-631.0145263671875
-13021.6279296875,-11053.8798828125,-4538.69482421875,1362.95947265625,2274.51318359375,19166.46875,-2497.037109375,2406.438232421875,-3333.886474609375,4242.26123046875,-7670.720703125,-4714.330078125,-5185.60400390625,2580.483642578125,278.1549987792969,-4138.15185546875,-62.78356170654297,2941.29052734375,4541.8740234375,16153.654296875,2690.15625,11472.7021484375,1577.5362548828125,15805.5625,-5525.74755859375,-5587.73681640625,-3706.6142578125,-1564.02587890625,-6074.9052734375,579.357177734375,5929.47021484375,6179.8095703125,3001.68994140625,4752.47705078125,236.03439331054688,6222.72509765625,-1170.63525390625,19492.30859375,-3337.860107421875,-0.0,-2346.038818359375,8820.693359375,-2127.48828125,-122.38819885253906,1149.177490234375,8532.2060546875,-6191.73046875,2546.310546875,-5784.82958984375,-1386.8013916015625,-1227.0609130859375,9485.880859375,-13356.208984375,-12972.3544921875,-6016.095703125,-2029.73681640625,-592.0728149414062,-5492.369140625,-2546.310546875,-1432.8956298828125,-8838.970703125,2942.8798828125,582.5360717773438,1114.20947265625,-5733.171875,907.580078125,0.0,-2625.783203125,0.0,-2304.712890625,-0.0,-626.2461547851562
-12969.1767578125,-11067.390625,-4564.9208984375,1343.09130859375,2263.386962890625,19146.6015625,-2508.16357421875,2396.9013671875,-3343.423095703125,4248.619140625,-7675.48876953125,-4724.6611328125,-5234.876953125,2575.71533203125,255.10787963867188,-4165.17236328125,-73.90975952148438,2928.57470703125,4530.748046875,16151.26953125,2678.2353515625,11459.19140625,1564.8206787109375,15791.2578125,-5536.87451171875,-5617.1416015625,-3720.12451171875,-1584.6888427734375,-6093.18408203125,572.9993286132812,5915.9599609375,6177.42529296875,2988.179443359375,4738.171875,224.11346435546875,6207.625,-1182.55615234375,19481.181640625,-3348.19140625,-0.0,-2361.138671875,8794.466796875,-2137.820068359375,-139.07749938964844,1138.8460693359375,8531.4111328125,-6215.572265625,2529.62109375,-5792.7763671875,-1413.0274658203125,-1250.108154296875,9472.3701171875,-13305.3466796875,-12957.2548828125,-6033.57958984375,-2032.1209716796875,-619.0935668945312,-5524.15869140625,-2553.462890625,-1423.35888671875,-8846.1240234375,2930.164306640625,575.3834838867188,1105.4674072265625,-5746.6826171875,895.6591186523438,0.0,-2610.683349609375,0.0,-2292.7919921875,-0.0,-623.0671997070312
-12942.1552734375,-10994.275390625,-4578.431640625,1336.7335205078125,2264.9765625,19151.369140625,-2504.189697265625,2404.053955078125,-3338.65478515625,4267.6923828125,-7673.8994140625,-4715.91943359375,-5246.00341796875,2600.35205078125,253.5184326171875,-4157.22509765625,-69.93611907958984,2931.75390625,4535.51611328125,16165.5751953125,2679.0302734375,11461.5751953125,1567.204833984375,15796.0263671875,-5544.8212890625,-5613.962890625,-3715.356201171875,-1576.7415771484375,-6093.18408203125,593.6622314453125,5918.34423828125,6184.578125,2988.179443359375,4739.76123046875,227.29237365722656,6211.5986328125,-1178.58251953125,19489.923828125,-3346.602294921875,-0.0,-2362.72802734375,8792.876953125,-2133.84619140625,-132.7196807861328,1145.9986572265625,8539.359375,-6226.6982421875,2523.26318359375,-5782.4453125,-1404.285400390625,-1251.697509765625,9474.75390625,-13255.2783203125,-12930.234375,-6034.3740234375,-2015.431640625,-632.6039428710938,-5522.5693359375,-2548.694580078125,-1405.0802001953125,-8848.5078125,2931.75390625,582.5360717773438,1128.5146484375,-5752.24560546875,904.401123046875,0.0,-2601.94140625,0.0,-2270.53955078125,-0.0,-596.8411865234375
-12929.439453125,-10874.271484375,-4561.7421875,1357.396484375,2282.46044921875,19179.978515625,-2477.963623046875,2434.253662109375,-3306.071044921875,4302.66064453125,-7651.64697265625,-4684.92529296875,-5230.10888671875,2632.935791015625,286.89703369140625,-4119.873046875,-49.27317428588867,2955.595703125,4562.53662109375,16199.7470703125,2700.48779296875,11486.212890625,1591.84130859375,15826.2255859375,-5529.7216796875,-5589.326171875,-3693.8984375,-1540.18408203125,-6084.4423828125,630.2197875976562,5939.8017578125,6203.6513671875,3008.0478515625,4759.6298828125,248.75006103515625,6237.82470703125,-1149.177490234375,19517.740234375,-3327.52880859375,-0.0,-2343.654541015625,8817.513671875,-2110.00439453125,-102.51998901367188,1174.60888671875,8571.1474609375,-6198.08837890625,2542.336669921875,-5764.16650390625,-1376.469970703125,-1219.1136474609375,9508.1328125,-13237.7939453125,-12884.1396484375,-6024.04248046875,-1978.07958984375,-616.7094116210938,-5499.52197265625,-2521.673828125,-1378.8541259765625,-8819.103515625,2957.97998046875,611.9410400390625,1166.66162109375,-5733.171875,929.0377197265625,0.0,-2589.225830078125,0.0,-2256.234375,-0.0,-567.4362182617188
-12931.82421875,-10846.4560546875,-4546.64208984375,1374.0858154296875,2300.7392578125,19203.8203125,-2455.71142578125,2467.63232421875,-3277.460693359375,4339.21826171875,-7628.599609375,-4657.10986328125,-5211.830078125,2672.67236328125,309.94415283203125,-4078.547119140625,-32.5838737487793,2981.02685546875,4587.96826171875,16234.716796875,2717.9716796875,11507.669921875,1612.50439453125,15851.65625,-5513.0322265625,-5567.86865234375,-3676.41455078125,-1507.6002197265625,-6071.7265625,652.47216796875,5961.25927734375,6217.95654296875,3025.53173828125,4778.703125,269.4129943847656,6260.0771484375,-1126.9251708984375,19547.14453125,-3321.1708984375,-0.0,-2324.5810546875,8838.1767578125,-2090.13623046875,-73.11502838134766,1200.8348388671875,8606.1162109375,-6198.08837890625,2560.615478515625,-5751.451171875,-1351.03857421875,-1195.2718505859375,9547.07421875,-13232.2314453125,-12845.9931640625,-6012.12158203125,-1950.263916015625,-598.4306640625,-5465.3486328125,-2499.42138671875,-1344.6807861328125,-8786.51953125,2983.4111328125,640.55126953125,1208.7822265625,-5709.330078125,957.64794921875,0.0,-2562.999755859375,0.0,-2225.239990234375,-0.0,-528.4945068359375
-12921.4921875,-10866.32421875,-4533.92626953125,1387.59619140625,2312.66015625,19221.306640625,-2441.40625,2484.321533203125,-3258.38720703125,4358.29150390625,-7622.2421875,-4640.42041015625,-5204.677734375,2694.924560546875,312.3283386230469,-4065.83154296875,-16.689300537109375,2995.33203125,4604.65771484375,16256.9677734375,2729.892822265625,11521.9755859375,1628.39892578125,15866.7568359375,-5497.9326171875,-5546.4111328125,-3663.698974609375,-1491.70556640625,-6060.60009765625,671.545654296875,5975.564453125,6229.08251953125,3038.247314453125,4794.59765625,283.7181091308594,6276.76611328125,-1114.20947265625,19563.0390625,-3325.939208984375,-0.0,-2311.07080078125,8858.044921875,-2077.42041015625,-57.220458984375,1217.524169921875,8625.189453125,-6197.2939453125,2575.71533203125,-5740.32470703125,-1332.7598876953125,-1191.298095703125,9563.763671875,-13239.3837890625,-12814.9990234375,-6000.99560546875,-1938.343017578125,-600.0200805664062,-5441.5068359375,-2485.1162109375,-1330.375732421875,-8770.625,2998.510986328125,658.8300170898438,1227.0609130859375,-5695.02490234375,985.4635009765625,0.0,-2554.257568359375,0.0,-2207.756103515625,-0.0,-514.984130859375
-12952.4873046875,-10872.681640625,-4525.9794921875,1388.390869140625,2319.812744140625,19227.662109375,-2434.253662109375,2489.08984375,-3248.8505859375,4372.5966796875,-7624.6259765625,-4640.42041015625,-5207.8564453125,2698.103759765625,317.0967102050781,-4067.4208984375,-12.715657234191895,3000.100341796875,4609.42578125,16268.888671875,2737.04541015625,11525.154296875,1635.551513671875,15872.3203125,-5483.62744140625,-5537.6689453125,-3657.341064453125,-1486.9371337890625,-6057.42138671875,669.1614990234375,5979.5380859375,6230.67236328125,3041.426513671875,4797.77685546875,289.2812194824219,6282.32958984375,-1109.441162109375,19567.013671875,-3306.86572265625,-0.0,-2304.712890625,8864.40234375,-2070.267822265625,-52.45208740234375,1223.882080078125,8630.7529296875,-6168.68359375,2575.71533203125,-5729.1982421875,-1319.24951171875,-1187.324462890625,9565.353515625,-13277.5302734375,-12807.0517578125,-5997.81640625,-1936.753662109375,-601.6095581054688,-5444.685546875,-2476.374267578125,-1324.017822265625,-8771.419921875,3004.86865234375,666.7772827148438,1231.03466796875,-5693.435546875,980.6951293945312,0.0,-2544.720947265625,0.0,-2201.398193359375,-0.0,-507.036865234375
-12976.3291015625,-10870.2978515625,-4502.1376953125,1397.9276123046875,2332.5283203125,19240.37890625,-2423.12744140625,2501.8056640625,-3236.9296875,4390.0810546875,-7613.5,-4627.70458984375,-5192.7568359375,2706.05078125,327.4281921386719,-4054.705078125,-3.1789143085479736,3012.021240234375,4621.34716796875,16282.400390625,2748.96630859375,11537.0751953125,1649.061767578125,15884.2412109375,-5474.0908203125,-5526.54248046875,-3646.21484375,-1473.4267578125,-6046.294921875,677.1087646484375,5990.6640625,6239.4140625,3054.936767578125,4810.4921875,297.2284851074219,6295.04541015625,-1095.135986328125,19579.728515625,-3301.302734375,-0.0,-2292.7919921875,8873.1455078125,-2058.346923828125,-38.14697265625,1233.4188232421875,8643.4677734375,-6137.68896484375,2585.251953125,-5718.072265625,-1305.739013671875,-1178.58251953125,9578.068359375,-13306.140625,-12800.693359375,-5986.6904296875,-1926.422119140625,-587.304443359375,-5438.32763671875,-2474.784912109375,-1303.3548583984375,-8761.8828125,3015.9951171875,678.6982421875,1242.95556640625,-5693.435546875,985.4635009765625,0.0,-2535.97900390625,0.0,-2188.6826171875,-0.0,-495.1159362792969
-12941.3603515625,-10861.5556640625,-4481.474609375,1419.38525390625,2352.396728515625,19256.2734375,-2404.848876953125,2519.289794921875,-3222.62451171875,4405.1806640625,-7604.7578125,-4611.01513671875,-5168.1201171875,2724.32958984375,346.5016784667969,-4041.19482421875,13.51038646697998,3028.710693359375,4638.83056640625,16299.08984375,2765.655517578125,11556.1484375,1666.5458984375,15900.134765625,-5455.01708984375,-5505.8798828125,-3628.730712890625,-1460.711181640625,-6025.63232421875,693.0033569335938,6009.7373046875,6257.69287109375,3073.215576171875,4827.97607421875,313.91778564453125,6312.529296875,-1077.6519775390625,19596.41796875,-3298.12353515625,-0.0,-2273.718505859375,8891.4228515625,-2040.068359375,-23.84185791015625,1247.723876953125,8661.7470703125,-6124.97314453125,2607.504638671875,-5702.177734375,-1302.5601806640625,-1157.9195556640625,9593.1689453125,-13244.9462890625,-12789.5673828125,-5968.412109375,-1918.474853515625,-563.4625854492188,-5424.8173828125,-2466.837646484375,-1287.4603271484375,-8742.8095703125,3031.8896484375,696.9769897460938,1262.82373046875,-5678.33544921875,1002.1527709960938,0.0,-2508.9580078125,0.0,-2170.40380859375,-0.0,-481.60552978515625
-12912.75,-10868.708984375,-4494.1904296875,1418.590576171875,2342.85986328125,19253.095703125,-2413.590576171875,2503.39501953125,-3237.724365234375,4390.87548828125,-7619.85791015625,-4618.16796875,-5161.76220703125,2703.666748046875,350.4753112792969,-4052.321044921875,10.33147144317627,3021.55810546875,4631.67822265625,16280.8095703125,2760.092529296875,11552.1748046875,1658.5985107421875,15893.7783203125,-5459.78564453125,-5502.70068359375,-3631.90966796875,-1474.2215576171875,-6032.78515625,689.0296630859375,6006.55908203125,6254.51416015625,3066.857666015625,4825.591796875,309.1494140625,6305.37646484375,-1084.8045654296875,19586.0859375,-3303.686767578125,-0.0,-2280.076171875,8893.8076171875,-2044.8367919921875,-34.96805953979492,1240.5714111328125,8646.6474609375,-6148.0205078125,2607.504638671875,-5714.0986328125,-1296.9970703125,-1152.3564453125,9576.4794921875,-13193.2900390625,-12803.8720703125,-5976.35888671875,-1934.369384765625,-557.8994750976562,-5442.30126953125,-2470.0166015625,-1304.149658203125,-8751.5517578125,3025.53173828125,684.2613525390625,1241.3660888671875,-5681.5146484375,993.4107055664062,0.0,-2521.673828125,0.0,-2178.35107421875,-0.0,-495.91064453125
-12909.5712890625,-10908.4443359375,-4534.72119140625,1395.54345703125,2313.454833984375,19230.046875,-2438.227294921875,2480.347900390625,-3260.771484375,4361.470703125,-7630.98388671875,-4639.62548828125,-5200.7041015625,2682.208984375,321.0703430175781,-4076.162841796875,-10.33147144317627,2996.921630859375,4606.2470703125,16252.19921875,2733.071533203125,11528.3330078125,1631.577880859375,15870.7294921875,-5496.34326171875,-5529.7216796875,-3659.72509765625,-1498.0634765625,-6059.80517578125,664.3931274414062,5981.92236328125,6233.056640625,3041.426513671875,4802.544921875,281.33392333984375,6279.9453125,-1109.441162109375,19563.0390625,-3310.83935546875,-0.0,-2311.07080078125,8870.7607421875,-2072.652099609375,-58.01518630981445,1218.3189697265625,8622.009765625,-6194.90966796875,2582.0732421875,-5744.29833984375,-1324.017822265625,-1184.1456298828125,9553.4326171875,-13209.9794921875,-12839.634765625,-6000.20068359375,-1947.0850830078125,-593.6622314453125,-5461.375,-2486.705810546875,-1330.375732421875,-8771.419921875,3001.68994140625,658.0352783203125,1212.755859375,-5702.177734375,970.3636474609375,0.0,-2539.95263671875,0.0,-2199.013916015625,-0.0,-514.984130859375
-12950.1025390625,-10921.1611328125,-4532.33740234375,1385.2119140625,2305.507568359375,19215.7421875,-2447.76416015625,2473.1953125,-3267.129150390625,4362.26513671875,-7630.98388671875,-4644.39404296875,-5211.03515625,2676.64599609375,301.9968566894531,-4084.905029296875,-20.66294288635254,2987.384765625,4598.29931640625,16248.2265625,2725.9189453125,11519.591796875,1621.246337890625,15860.3994140625,-5501.111328125,-5552.7685546875,-3673.235595703125,-1505.2159423828125,-6062.189453125,642.9354248046875,5973.18017578125,6221.1357421875,3035.068603515625,4793.802734375,271.79718017578125,6268.8193359375,-1119.7725830078125,19555.88671875,-3316.40234375,-0.0,-2316.634033203125,8857.25,-2079.8046875,-67.55193328857422,1208.7822265625,8616.447265625,-6181.39892578125,2572.536376953125,-5750.65625,-1343.09130859375,-1203.2191162109375,9546.2802734375,-13266.404296875,-12864.2724609375,-6001.79052734375,-1956.621826171875,-613.5304565429688,-5468.52734375,-2495.44775390625,-1335.9388427734375,-8776.1875,2991.3583984375,649.2932739257812,1207.1927490234375,-5708.53564453125,968.774169921875,0.0,-2551.078857421875,0.0,-2210.14013671875,-0.0,-526.905029296875
-13026.396484375,-10937.849609375,-4530.748046875,1397.1328125,2313.454833984375,19222.89453125,-2439.816650390625,2480.347900390625,-3263.15576171875,4365.4443359375,-7646.083984375,-4639.62548828125,-5211.830078125,2677.440673828125,312.3283386230469,-4077.752685546875,-16.689300537109375,2992.94775390625,4603.06787109375,16252.994140625,2729.09814453125,11525.9482421875,1626.8094482421875,15867.5517578125,-5498.7275390625,-5533.6953125,-3657.341064453125,-1491.70556640625,-6060.60009765625,642.1406860351562,5975.564453125,6225.10888671875,3039.042236328125,4800.16064453125,278.1549987792969,6273.587890625,-1111.030517578125,19561.44921875,-3318.78662109375,-0.0,-2311.865478515625,8865.197265625,-2070.267822265625,-58.80991744995117,1215.1400146484375,8622.009765625,-6181.39892578125,2584.45751953125,-5733.171875,-1350.243896484375,-1191.298095703125,9554.2265625,-13283.888671875,-12876.193359375,-5998.611328125,-1962.1849365234375,-605.5831909179688,-5468.52734375,-2493.063720703125,-1340.7071533203125,-8777.77734375,2999.3056640625,654.8563842773438,1207.1927490234375,-5702.97265625,979.900390625,0.0,-2562.205078125,0.0,-2217.292724609375,-0.0,-534.8523559570312
-13031.9599609375,-10933.8759765625,-4524.3896484375,1415.41162109375,2326.170654296875,19241.173828125,-2426.306396484375,2496.242431640625,-3251.23486328125,4371.00732421875,-7631.77880859375,-4634.0625,-5195.140625,2689.361572265625,327.4281921386719,-4049.142333984375,-3.9736428260803223,3006.458251953125,4617.373046875,16264.1201171875,2742.6083984375,11540.25390625,1638.7303466796875,15883.4453125,-5482.83251953125,-5509.853515625,-3644.62548828125,-1470.2479248046875,-6048.67919921875,650.0880126953125,5987.4853515625,6235.44091796875,3049.37353515625,4813.6708984375,293.2548522949219,6288.68701171875,-1098.31494140625,19576.548828125,-3291.765869140625,-0.0,-2299.944580078125,8882.681640625,-2056.757568359375,-39.73643112182617,1229.445068359375,8633.931640625,-6171.8623046875,2600.35205078125,-5720.45654296875,-1311.30224609375,-1176.1983642578125,9574.890625,-13266.404296875,-12866.65625,-5987.4853515625,-1950.263916015625,-584.9202270507812,-5451.04345703125,-2480.347900390625,-1335.14404296875,-8780.9560546875,3013.61083984375,668.3667602539062,1226.2662353515625,-5689.46240234375,996.5896606445312,0.0,-2555.052490234375,0.0,-2210.14013671875,-0.0,-517.3682861328125
-12952.4873046875,-10890.9609375,-4512.46875,1421.76953125,2330.93896484375,19244.3515625,-2418.359130859375,2501.010986328125,-3249.645263671875,4362.26513671875,-7603.16845703125,-4629.2939453125,-5186.39892578125,2686.977294921875,345.7069396972656,-4042.7841796875,0.7947285771369934,3011.2265625,4622.93603515625,16261.736328125,2748.171630859375,11545.0224609375,1645.8829345703125,15889.009765625,-5485.216796875,-5505.0849609375,-3633.4990234375,-1468.658447265625,-6045.50048828125,655.651123046875,5993.04833984375,6242.59326171875,3057.32080078125,4818.439453125,298.0232238769531,6294.25048828125,-1092.7518310546875,19580.5234375,-3288.5869140625,-0.0,-2294.38134765625,8890.62890625,-2049.605224609375,-36.55751419067383,1235.00830078125,8636.3154296875,-6168.68359375,2606.709716796875,-5715.68798828125,-1315.2757568359375,-1158.71435546875,9580.453125,-13244.9462890625,-12845.1982421875,-5984.30615234375,-1940.727294921875,-569.0256958007812,-5431.17529296875,-2466.042724609375,-1334.3492431640625,-8765.8564453125,3017.58447265625,669.1614990234375,1224.6767578125,-5683.89892578125,997.3843994140625,0.0,-2555.84716796875,0.0,-2217.292724609375,-0.0,-515.7788696289062
-12912.75,-10873.4765625,-4522.80029296875,1401.1064453125,2321.40234375,19224.486328125,-2430.280029296875,2477.963623046875,-3257.592529296875,4363.85498046875,-7596.81103515625,-4637.2412109375,-5199.9091796875,2677.440673828125,332.99127197265625,-4079.341796875,-9.5367431640625,2999.3056640625,4608.63134765625,16256.173828125,2737.04541015625,11528.3330078125,1634.7567138671875,15869.935546875,-5491.57470703125,-5536.87451171875,-3640.651611328125,-1498.858154296875,-6051.0634765625,647.7037963867188,5980.3330078125,6235.44091796875,3046.19482421875,4804.13427734375,286.89703369140625,6275.9716796875,-1106.26220703125,19563.0390625,-3314.018310546875,-0.0,-2304.712890625,8867.5810546875,-2059.9365234375,-58.01518630981445,1223.882080078125,8620.421875,-6175.8359375,2586.841552734375,-5721.2509765625,-1327.19677734375,-1170.63525390625,9548.6640625,-13219.515625,-12838.8408203125,-5990.6640625,-1946.2904052734375,-580.15185546875,-5464.5537109375,-2477.1689453125,-1324.017822265625,-8757.9091796875,3004.07421875,656.44580078125,1215.1400146484375,-5690.2568359375,975.9266967773438,0.0,-2543.131591796875,0.0,-2202.98779296875,-0.0,-517.3682861328125
-12884.1396484375,-10880.6298828125,-4528.36376953125,1389.9803466796875,2315.04443359375,19212.564453125,-2439.02197265625,2468.427001953125,-3260.771484375,4363.06005859375,-7613.5,-4645.18896484375,-5206.26708984375,2674.26171875,317.0967102050781,-4088.083740234375,-19.073486328125,2988.974365234375,4599.09423828125,16253.7900390625,2729.892822265625,11517.20703125,1625.219970703125,15860.3994140625,-5493.1640625,-5555.94775390625,-3650.1884765625,-1510.779052734375,-6058.21630859375,650.0880126953125,5972.38525390625,6225.10888671875,3038.247314453125,4793.00830078125,276.5655517578125,6265.64013671875,-1117.388427734375,19553.50390625,-3329.117919921875,-0.0,-2311.07080078125,8850.8916015625,-2067.8837890625,-69.14138793945312,1213.550537109375,8614.0634765625,-6171.06787109375,2575.71533203125,-5727.609375,-1340.7071533203125,-1186.52978515625,9539.126953125,-13236.205078125,-12841.224609375,-5996.22705078125,-1949.46923828125,-587.304443359375,-5499.52197265625,-2493.8583984375,-1329.5809326171875,-8765.8564453125,2993.74267578125,647.7037963867188,1214.3453369140625,-5706.1513671875,969.5689086914062,0.0,-2543.92626953125,0.0,-2202.98779296875,-0.0,-516.5736083984375
-12876.9873046875,-10898.11328125,-4533.1318359375,1389.9803466796875,2310.276123046875,19210.974609375,-2441.40625,2470.81103515625,-3263.15576171875,4363.06005859375,-7627.80517578125,-4649.162109375,-5212.625,2675.85107421875,311.5335998535156,-4081.72607421875,-23.84185791015625,2987.384765625,4599.09423828125,16250.6103515625,2725.9189453125,11514.8232421875,1622.0411376953125,15858.80859375,-5494.75341796875,-5557.537109375,-3656.54638671875,-1506.0106201171875,-6064.57373046875,659.624755859375,5969.20654296875,6221.93017578125,3036.657958984375,4792.21337890625,271.79718017578125,6263.255859375,-1115.004150390625,19555.88671875,-3333.886474609375,-0.0,-2312.66015625,8849.3037109375,-2071.062744140625,-67.55193328857422,1215.1400146484375,8614.857421875,-6174.24609375,2574.920654296875,-5732.37744140625,-1347.06494140625,-1191.298095703125,9543.8955078125,-13260.046875,-12847.5830078125,-6003.3798828125,-1946.2904052734375,-595.251708984375,-5489.1904296875,-2481.142822265625,-1337.5281982421875,-8780.162109375,2990.563720703125,646.9090576171875,1210.37158203125,-5701.38330078125,964.800537109375,0.0,-2556.641845703125,0.0,-2215.703369140625,-0.0,-522.13671875
-12906.392578125,-10921.1611328125,-4533.92626953125,1381.23828125,2303.918212890625,19208.58984375,-2444.585205078125,2470.81103515625,-3268.71875,4359.880859375,-7655.62060546875,-4653.1357421875,-5212.625,2660.75146484375,313.91778564453125,-4076.957763671875,-34.1733283996582,2981.02685546875,4594.326171875,16245.841796875,2718.766357421875,11508.46484375,1618.0673828125,15854.8359375,-5497.9326171875,-5563.89453125,-3666.0830078125,-1505.2159423828125,-6066.16357421875,659.624755859375,5962.8486328125,6212.39306640625,3027.916015625,4784.26611328125,267.82354736328125,6257.69287109375,-1118.9779052734375,19552.70703125,-3365.67578125,-0.0,-2315.04443359375,8843.7392578125,-2076.625732421875,-69.93611907958984,1213.550537109375,8610.0888671875,-6169.47802734375,2565.3837890625,-5743.50341796875,-1349.44921875,-1190.50341796875,9545.4853515625,-13258.45703125,-12850.76171875,-6007.353515625,-1951.8533935546875,-603.198974609375,-5489.1904296875,-2478.758544921875,-1348.6544189453125,-8788.1083984375,2986.590087890625,643.7301635742188,1203.2191162109375,-5702.177734375,956.0584716796875,0.0,-2570.947021484375,0.0,-2228.4189453125,-0.0,-532.4681396484375
-12927.849609375,-10933.08203125,-4533.92626953125,1375.6751708984375,2292.7919921875,19204.6171875,-2452.532470703125,2465.248046875,-3270.308349609375,4358.29150390625,-7677.873046875,-4657.904296875,-5174.47802734375,2658.3671875,316.3019714355469,-4087.289306640625,-38.14697265625,2973.07958984375,4587.96826171875,16245.841796875,2713.203369140625,11502.90234375,1607.7359619140625,15847.6826171875,-5500.31640625,-5563.89453125,-3675.619873046875,-1509.1895751953125,-6060.60009765625,659.624755859375,5955.6962890625,6206.03564453125,3023.1474609375,4777.11328125,259.0815124511719,6252.1298828125,-1126.1304931640625,19547.14453125,-3364.086181640625,-0.0,-2318.22314453125,8837.3818359375,-2086.16259765625,-73.11502838134766,1205.603271484375,8606.9111328125,-6176.63037109375,2560.615478515625,-5759.39794921875,-1345.4755859375,-1190.50341796875,9537.537109375,-13251.3046875,-12850.76171875,-6003.3798828125,-1952.648193359375,-584.9202270507812,-5507.46923828125,-2502.600341796875,-1347.06494140625,-8795.26171875,2979.4375,637.372314453125,1196.0665283203125,-5715.68798828125,956.8532104492188,0.0,-2572.536376953125,0.0,-2231.597900390625,-0.0,-534.0576171875
-12922.287109375,-10921.1611328125,-4530.748046875,1374.8804931640625,2293.586669921875,19206.205078125,-2457.30078125,2463.65869140625,-3276.666015625,4349.5498046875,-7691.38330078125,-4657.10986328125,-5160.1728515625,2660.75146484375,313.91778564453125,-4096.826171875,-36.55751419067383,2971.490234375,4584.7890625,16236.3056640625,2714.79296875,11502.90234375,1607.7359619140625,15846.8876953125,-5493.958984375,-5554.35791015625,-3673.235595703125,-1509.984375,-6057.42138671875,650.0880126953125,5958.080078125,6206.83056640625,3026.326416015625,4777.11328125,256.69732666015625,6252.92431640625,-1126.9251708984375,19542.375,-3352.165283203125,-0.0,-2315.839111328125,8841.35546875,-2084.572998046875,-75.49921417236328,1201.629638671875,8602.142578125,-6180.6044921875,2559.026123046875,-5757.013671875,-1341.5018310546875,-1189.708740234375,9535.94921875,-13282.298828125,-12855.529296875,-6000.99560546875,-1952.648193359375,-565.8467407226562,-5504.2900390625,-2507.368896484375,-1348.6544189453125,-8795.26171875,2977.053466796875,631.8092041015625,1183.3509521484375,-5726.01953125,952.0848388671875,0.0,-2581.278564453125,0.0,-2233.1875,-0.0,-545.183837890625
-12916.724609375,-10914.802734375,-4513.263671875,1378.8541259765625,2311.07080078125,19216.537109375,-2445.3798828125,2470.81103515625,-3278.25537109375,4333.65478515625,-7673.10498046875,-4653.9306640625,-5166.53076171875,2654.3935546875,330.6070861816406,-4083.3154296875,-28.6102294921875,2979.4375,4589.5576171875,16229.15234375,2725.9189453125,11510.0546875,1617.272705078125,15857.2197265625,-5475.6796875,-5541.642578125,-3649.393798828125,-1494.0897216796875,-6049.47412109375,646.1143798828125,5963.6435546875,6213.18798828125,3035.86328125,4784.26611328125,263.8498840332031,6261.6669921875,-1118.9779052734375,19547.939453125,-3348.19140625,-0.0,-2299.149658203125,8853.2763671875,-2069.47314453125,-64.37301635742188,1207.1927490234375,8601.34765625,-6161.53076171875,2561.41015625,-5729.1982421875,-1325.6072998046875,-1172.224609375,9547.07421875,-13302.9619140625,-12856.32421875,-5991.458984375,-1952.648193359375,-561.078369140625,-5501.90576171875,-2489.08984375,-1356.6016845703125,-8784.9306640625,2983.4111328125,632.6039428710938,1177.787841796875,-5720.45654296875,955.2637939453125,0.0,-2599.55712890625,0.0,-2248.287109375,-0.0,-556.3099975585938
-12920.697265625,-10927.517578125,-4516.44287109375,1380.443603515625,2302.328857421875,19212.564453125,-2450.1484375,2468.427001953125,-3275.07666015625,4334.44970703125,-7652.44140625,-4655.52001953125,-5203.08837890625,2654.3935546875,324.249267578125,-4091.2626953125,-33.37860107421875,2974.669189453125,4585.583984375,16231.537109375,2719.561279296875,11506.875,1613.299072265625,15850.8623046875,-5493.1640625,-5549.58984375,-3659.72509765625,-1500.4476318359375,-6066.16357421875,645.3196411132812,5961.25927734375,6210.00927734375,3033.47900390625,4783.4716796875,257.4920654296875,6256.8984375,-1125.335693359375,19544.759765625,-3368.8544921875,-0.0,-2307.891845703125,8849.3037109375,-2077.42041015625,-69.93611907958984,1205.603271484375,8604.5263671875,-6160.736328125,2566.178466796875,-5737.14599609375,-1341.5018310546875,-1179.377197265625,9542.3056640625,-13270.3779296875,-12859.50390625,-6006.55908203125,-1968.5428466796875,-587.304443359375,-5509.05859375,-2492.268798828125,-1343.885986328125,-8779.3662109375,2976.258544921875,631.8092041015625,1183.3509521484375,-5725.22509765625,955.2637939453125,0.0,-2586.046875,0.0,-2246.69775390625,-0.0,-553.131103515625
-12911.9560546875,-10927.517578125,-4530.748046875,1375.6751708984375,2290.407958984375,19195.080078125,-2462.864013671875,2449.353515625,-3280.6396484375,4344.78125,-7640.5205078125,-4656.31494140625,-5216.5986328125,2651.214599609375,301.2021484375,-4118.28369140625,-42.1206169128418,2963.54296875,4574.45751953125,16226.7685546875,2708.43505859375,11497.337890625,1602.9676513671875,15837.3505859375,-5509.853515625,-5561.5107421875,-3675.619873046875,-1531.4420166015625,-6067.7529296875,641.345947265625,5950.927734375,6206.03564453125,3023.1474609375,4776.31884765625,248.75006103515625,6242.59326171875,-1137.256591796875,19532.837890625,-3356.93359375,-0.0,-2319.01806640625,8838.970703125,-2087.752197265625,-90.59906005859375,1196.0665283203125,8598.16796875,-6169.47802734375,2562.999755859375,-5746.6826171875,-1370.9068603515625,-1200.8348388671875,9516.875,-13233.025390625,-12861.0927734375,-6007.353515625,-1969.33740234375,-606.3779296875,-5514.62158203125,-2505.779296875,-1327.19677734375,-8783.3408203125,2966.7216796875,623.8619384765625,1184.9403076171875,-5726.814453125,947.3164672851562,0.0,-2554.257568359375,0.0,-2222.06103515625,-0.0,-548.3627319335938
-12908.7763671875,-10927.517578125,-4531.54248046875,1378.8541259765625,2285.639404296875,19202.232421875,-2464.453369140625,2449.353515625,-3276.666015625,4348.7548828125,-7644.49462890625,-4650.75146484375,-5233.28759765625,2664.72509765625,279.7444763183594,-4106.36279296875,-40.531158447265625,2964.337646484375,4576.841796875,16230.7412109375,2709.229736328125,11499.72265625,1603.7623291015625,15840.5302734375,-5522.5693359375,-5553.5634765625,-3683.567138671875,-1526.6737060546875,-6066.9580078125,648.49853515625,5951.72265625,6210.00927734375,3024.737060546875,4779.49755859375,248.75006103515625,6244.9775390625,-1136.4619140625,19536.017578125,-3352.9599609375,-0.0,-2322.99169921875,8844.53515625,-2092.5205078125,-85.03595733642578,1196.0665283203125,8596.5791015625,-6196.4990234375,2562.999755859375,-5753.8349609375,-1353.4227294921875,-1223.882080078125,9520.8486328125,-13226.66796875,-12856.32421875,-6006.55908203125,-1958.211181640625,-623.0671997070312,-5515.41650390625,-2498.626708984375,-1331.965087890625,-8793.671875,2969.90087890625,624.6566772460938,1197.656005859375,-5721.2509765625,952.0848388671875,0.0,-2555.052490234375,0.0,-2216.498046875,-0.0,-536.4417724609375
-12931.029296875,-10951.359375,-4533.92626953125,1376.469970703125,2286.43408203125,19209.384765625,-2461.2744140625,2459.68505859375,-3271.8974609375,4354.318359375,-7634.1630859375,-4652.34130859375,-5226.93017578125,2674.26171875,291.6654052734375,-4094.44189453125,-37.35224533081055,2967.5166015625,4583.2001953125,16238.689453125,2710.024658203125,11504.4912109375,1606.146484375,15847.6826171875,-5519.39013671875,-5551.17919921875,-3682.7724609375,-1513.1632080078125,-6063.779296875,646.1143798828125,5953.31201171875,6215.572265625,3026.326416015625,4784.26611328125,249.54476928710938,6249.74560546875,-1133.282958984375,19543.171875,-3349.781005859375,-0.0,-2322.99169921875,8852.4814453125,-2090.13623046875,-75.49921417236328,1198.45068359375,8602.142578125,-6202.06201171875,2560.615478515625,-5756.21923828125,-1342.296630859375,-1210.37158203125,9532.76953125,-13247.3310546875,-12865.861328125,-6003.3798828125,-1969.33740234375,-611.1463012695312,-5506.67431640625,-2493.8583984375,-1331.17041015625,-8776.982421875,2973.07958984375,631.0145263671875,1203.2191162109375,-5711.71435546875,951.2901611328125,0.0,-2553.462890625,0.0,-2218.88232421875,-0.0,-531.6734619140625
