-7092.95263671875,-7236.00390625,-4814.4658203125,1521.9052734375,2812.544677734375,18514.791015625,-2617.041259765625,1697.540283203125,-1297.7918701171875,5429.5859375,-6829.8974609375,-5337.39697265625,-3712.17724609375,4114.3095703125,359.2173156738281,-3763.039794921875,-155.7667999267578,1983.642578125,4020.5322265625,15725.2939453125,2787.11328125,11540.25390625,518.1630249023438,14927.3876953125,-3495.21630859375,-4363.85498046875,-3087.5205078125,-1183.3509521484375,-5327.8603515625,1192.8876953125,6016.89013671875,6314.9130859375,3216.2666015625,4851.81787109375,-802.6759033203125,5465.3486328125,-1246.92919921875,18261.2734375,-1483.75830078125,-0.0,-1681.645751953125,7773.24072265625,-3014.405517578125,-575.3834838867188,1894.6329345703125,7661.97802734375,-4587.96826171875,2797.444580078125,-5636.21533203125,-1659.393310546875,-1079.241455078125,8817.513671875,-6194.11474609375,-7619.85791015625,-4922.548828125,79.47286224365234,596.8411865234375,-5055.2685546875,-871.8172607421875,295.6390380859375,-5410.51220703125,2446.174560546875,867.0488891601562,2083.7783203125,-5643.36767578125,245.57113647460938,0.0,-2216.498046875,0.0,-2466.837646484375,-0.0,136.6933135986328
-7098.51611328125,-7241.56689453125,-4793.00830078125,1522.699951171875,2822.081298828125,18518.765625,-2613.8623046875,1700.71923828125,-1297.7918701171875,5427.20166015625,-6809.234375,-5331.03955078125,-3708.99853515625,4106.36279296875,357.62786865234375,-3757.476806640625,-148.61424255371094,1989.20556640625,4022.916259765625,15726.884765625,2795.060302734375,11544.2275390625,524.5208740234375,14931.361328125,-3476.9375,-4356.7021484375,-3089.110107421875,-1179.377197265625,-5334.21826171875,1203.2191162109375,6022.453125,6315.7080078125,3225.803466796875,4855.79150390625,-797.11279296875,5469.322265625,-1245.3397216796875,18265.248046875,-1482.1688232421875,-0.0,-1667.340576171875,7779.59814453125,-3008.842529296875,-572.20458984375,1896.222412109375,7663.56787109375,-4557.7685546875,2800.62353515625,-5636.21533203125,-1664.9564208984375,-1079.241455078125,8823.8720703125,-6207.625,-7610.3212890625,-4928.90673828125,69.14138793945312,594.4569702148438,-5060.83154296875,-871.0225219726562,293.2548522949219,-5405.744140625,2450.94287109375,868.6383666992188,2076.625732421875,-5646.546875,249.54476928710938,0.0,-2222.06103515625,0.0,-2472.400634765625,-0.0,123.18293762207031
-7101.69482421875,-7253.48828125,-4802.544921875,1509.1895751953125,2818.107666015625,18511.61328125,-2621.809814453125,1693.566650390625,-1311.30224609375,5404.94921875,-6798.90283203125,-5342.16552734375,-3709.79296875,4093.64697265625,363.19097900390625,-3754.2978515625,-158.15098571777344,1980.4637451171875,4012.584716796875,15710.1953125,2787.11328125,11534.6904296875,518.1630249023438,14922.619140625,-3480.9111328125,-4362.26513671875,-3093.083740234375,-1186.52978515625,-5335.0126953125,1196.861328125,6013.71142578125,6306.17138671875,3217.061279296875,4844.66552734375,-804.2653198242188,5461.375,-1253.2869873046875,18258.095703125,-1516.3421630859375,-0.0,-1674.4931640625,7772.44580078125,-3012.816162109375,-579.357177734375,1887.4803466796875,7650.05712890625,-4602.2734375,2787.907958984375,-5645.751953125,-1655.419677734375,-1074.4730224609375,8817.513671875,-6177.42529296875,-7628.599609375,-4929.701171875,78.67813110351562,603.198974609375,-5071.1630859375,-880.5592651367188,268.6182556152344,-5422.43359375,2442.200927734375,856.7174072265625,2059.141845703125,-5656.08349609375,235.2396697998047,0.0,-2238.75048828125,0.0,-2489.884521484375,-0.0,99.34107208251953
-7103.2841796875,-7289.2509765625,-4843.076171875,1486.9371337890625,2793.47119140625,18491.744140625,-2640.08837890625,1671.314208984375,-1325.6072998046875,5366.00732421875,-6833.07666015625,-5358.85498046875,-3727.277099609375,4092.85205078125,356.0384216308594,-3768.60302734375,-182.78758239746094,1958.211181640625,3991.921875,15682.37890625,2760.88720703125,11514.02734375,497.5001220703125,14901.1611328125,-3515.87939453125,-4391.67041015625,-3106.593994140625,-1203.2191162109375,-5355.67626953125,1175.403564453125,5989.07470703125,6286.30322265625,3190.835205078125,4821.61865234375,-826.5177612304688,5438.32763671875,-1272.3604736328125,18236.63671875,-1512.3685302734375,-0.0,-1707.0770263671875,7750.193359375,-3031.8896484375,-600.0200805664062,1871.5858154296875,7626.21533203125,-4662.67236328125,2764.06591796875,-5668.00439453125,-1676.0826416015625,-1081.6256103515625,8800.029296875,-6165.50439453125,-7653.236328125,-4949.56982421875,61.98883056640625,597.6359252929688,-5085.46826171875,-885.32763671875,236.82911682128906,-5442.30126953125,2421.5380859375,833.6702880859375,2051.1943359375,-5682.3095703125,219.3450927734375,0.0,-2261.002685546875,0.0,-2513.7265625,-0.0,82.65177154541016
-7096.1318359375,-7286.86669921875,-4845.46044921875,1484.552978515625,2792.67626953125,18493.333984375,-2643.267333984375,1674.4931640625,-1328.7862548828125,5350.90771484375,-6839.43408203125,-5355.67626953125,-3723.303466796875,4088.083740234375,344.11749267578125,-3760.65576171875,-181.9928436279297,1957.41650390625,3989.53759765625,15670.4580078125,2760.092529296875,11512.4384765625,493.5264587402344,14901.1611328125,-3517.46875,-4388.4912109375,-3112.1572265625,-1198.45068359375,-5357.265625,1175.403564453125,5988.27978515625,6287.892578125,3189.245849609375,4823.2080078125,-830.4913940429688,5438.32763671875,-1275.5394287109375,18235.841796875,-1512.3685302734375,-0.0,-1706.2822265625,7748.60400390625,-3034.27392578125,-596.0464477539062,1866.8175048828125,7627.01025390625,-4638.0361328125,2760.092529296875,-5669.59375,-1672.1090087890625,-1094.34130859375,8804.00390625,-6190.14111328125,-7645.2890625,-4953.54296875,65.1677474975586,590.4833374023438,-5081.49462890625,-894.8643798828125,244.77639770507812,-5427.20166015625,2420.7431640625,828.9019165039062,2040.863037109375,-5681.5146484375,228.0871124267578,0.0,-2264.181884765625,0.0,-2523.26318359375,-0.0,77.8833999633789
-7087.3896484375,-7275.740234375,-4814.4658203125,1498.0634765625,2812.544677734375,18510.818359375,-2627.372802734375,1690.3876953125,-1320.044189453125,5394.61767578125,-6814.7978515625,-5344.5498046875,-3712.971923828125,4080.93115234375,353.65423583984375,-3761.450439453125,-160.53517150878906,1973.3111572265625,4007.021484375,15698.2744140625,2781.550048828125,11531.5126953125,511.80523681640625,14917.8505859375,-3504.753173828125,-4369.41748046875,-3098.64697265625,-1185.735107421875,-5335.0126953125,1188.9139404296875,6008.94287109375,6307.7607421875,3212.29296875,4843.076171875,-812.212646484375,5455.01708984375,-1259.6448974609375,18251.73828125,-1506.0106201171875,-0.0,-1680.8509521484375,7768.47216796875,-3017.58447265625,-580.15185546875,1881.12255859375,7649.2626953125,-4621.34716796875,2773.602783203125,-5654.49365234375,-1659.393310546875,-1087.188720703125,8817.513671875,-6206.83056640625,-7627.80517578125,-4930.49609375,80.26758575439453,605.5831909179688,-5059.2421875,-890.0960083007812,274.9761047363281,-5402.56494140625,2435.84326171875,851.154296875,2045.63134765625,-5660.05712890625,240.00804138183594,0.0,-2241.92919921875,0.0,-2490.679443359375,-0.0,116.82510375976562
-7088.1845703125,-7270.17724609375,-4791.41845703125,1509.1895751953125,2834.796875,18521.150390625,-2610.683349609375,1705.487548828125,-1308.123291015625,5432.7646484375,-6830.6923828125,-5334.21826171875,-3686.745849609375,4079.341796875,376.70135498046875,-3739.992919921875,-147.02479553222656,1986.8214111328125,4022.916259765625,15728.4736328125,2800.62353515625,11543.43359375,526.905029296875,14930.5654296875,-3465.0166015625,-4354.318359375,-3076.394287109375,-1169.0457763671875,-5323.88671875,1190.50341796875,6022.453125,6317.29736328125,3228.1875,4854.9970703125,-793.933837890625,5470.1171875,-1242.95556640625,18266.04296875,-1486.1424560546875,-0.0,-1649.8565673828125,7782.77734375,-2999.3056640625,-568.23095703125,1897.01708984375,7667.54150390625,-4593.53125,2785.523681640625,-5633.8310546875,-1658.5985107421875,-1060.962646484375,8832.6142578125,-6172.6572265625,-7634.1630859375,-4918.5751953125,77.8833999633789,627.8355712890625,-5050.50048828125,-872.6119995117188,299.6126708984375,-5398.59130859375,2448.558837890625,869.43310546875,2061.526123046875,-5673.5673828125,247.955322265625,0.0,-2230.00830078125,0.0,-2470.0166015625,-0.0,137.48805236816406
-7100.10546875,-7255.8720703125,-4790.6240234375,1505.2159423828125,2834.796875,18520.35546875,-2614.6572265625,1707.0770263671875,-1304.149658203125,5435.14892578125,-6840.22900390625,-5336.6025390625,-3689.130126953125,4096.03125,366.369873046875,-3732.04541015625,-147.02479553222656,1986.0267333984375,4020.5322265625,15727.6787109375,2802.212890625,11543.43359375,523.7261352539062,14928.181640625,-3439.58544921875,-4344.78125,-3084.341796875,-1167.456298828125,-5336.6025390625,1187.324462890625,6022.453125,6315.7080078125,3228.1875,4854.9970703125,-793.13916015625,5468.52734375,-1247.723876953125,18264.451171875,-1487.73193359375,-0.0,-1643.498779296875,7785.16162109375,-3001.68994140625,-569.8204345703125,1895.427734375,7668.33642578125,-4585.583984375,2783.139404296875,-5639.39404296875,-1650.6513671875,-1071.294189453125,8835.79296875,-6160.736328125,-7637.341796875,-4931.291015625,80.26758575439453,609.5568237304688,-5052.884765625,-876.5856323242188,294.0495910644531,-5406.53857421875,2445.3798828125,867.8436279296875,2067.8837890625,-5691.05126953125,242.39222717285156,0.0,-2233.982177734375,0.0,-2478.758544921875,-0.0,120.79874420166016
-7087.3896484375,-7244.74560546875,-4795.392578125,1527.4683837890625,2832.41259765625,18529.095703125,-2609.888671875,1714.2296142578125,-1298.5865478515625,5418.45947265625,-6811.61865234375,-5321.5029296875,-3700.25634765625,4110.33642578125,373.5224304199219,-3736.01904296875,-139.07749938964844,1990.00048828125,4023.710693359375,15719.732421875,2802.212890625,11551.3798828125,526.905029296875,14936.1298828125,-3454.685302734375,-4329.681640625,-3075.599609375,-1156.330078125,-5345.3447265625,1199.2454833984375,6027.2216796875,6324.4501953125,3232.9560546875,4864.53369140625,-793.13916015625,5474.0908203125,-1241.3660888671875,18271.60546875,-1470.2479248046875,-0.0,-1662.572265625,7793.9033203125,-2998.510986328125,-561.8731079101562,1900.9908447265625,7669.130859375,-4583.99462890625,2806.9814453125,-5629.857421875,-1646.6776123046875,-1064.936279296875,8843.7392578125,-6146.43115234375,-7611.91015625,-4940.82763671875,89.80432891845703,607.1726684570312,-5049.70556640625,-867.0488891601562,271.00244140625,-5393.0283203125,2450.94287109375,870.227783203125,2091.7255859375,-5652.10986328125,263.8498840332031,0.0,-2233.1875,0.0,-2482.732177734375,-0.0,124.77238464355469
-7098.51611328125,-7247.9248046875,-4784.26611328125,1552.899658203125,2843.5390625,18541.8125,-2595.583740234375,1730.1241455078125,-1286.66552734375,5406.53857421875,-6784.59765625,-5314.35009765625,-3678.798583984375,4125.4365234375,387.8275451660156,-3716.15087890625,-126.36184692382812,2005.1002197265625,4038.810791015625,15718.9365234375,2813.33935546875,11565.685546875,541.210205078125,14950.4345703125,-3454.685302734375,-4319.349609375,-3058.910400390625,-1138.8460693359375,-5319.91357421875,1215.1400146484375,6041.52685546875,6341.13916015625,3245.671630859375,4878.8388671875,-781.2182006835938,5486.01171875,-1227.0609130859375,18286.705078125,-1433.6904296875,-0.0,-1660.1881103515625,7805.82421875,-2985.00048828125,-546.7732543945312,1912.116943359375,7682.6416015625,-4561.7421875,2830.8232421875,-5615.55224609375,-1646.6776123046875,-1049.8365478515625,8864.40234375,-6136.09912109375,-7587.27392578125,-4917.7802734375,96.9568862915039,634.1934204101562,-5022.6845703125,-861.4857788085938,290.87066650390625,-5383.49169921875,2465.248046875,879.7645263671875,2098.08349609375,-5626.6787109375,276.5655517578125,0.0,-2204.5771484375,0.0,-2477.1689453125,-0.0,139.07749938964844
-7138.25244140625,-7270.9716796875,-4796.18701171875,1535.4156494140625,2822.8759765625,18531.48046875,-2609.888671875,1707.0770263671875,-1293.818115234375,5424.8173828125,-6790.1611328125,-5330.24462890625,-3696.28271484375,4122.25732421875,370.3435363769531,-3742.376953125,-137.48805236816406,1993.9739990234375,4025.300537109375,15724.5009765625,2800.62353515625,11552.1748046875,526.905029296875,14935.333984375,-3487.26904296875,-4328.09228515625,-3084.341796875,-1168.2509765625,-5323.88671875,1200.8348388671875,6028.81103515625,6328.423828125,3232.9560546875,4864.53369140625,-796.3180541992188,5473.2958984375,-1239.776611328125,18270.810546875,-1440.0482177734375,-0.0,-1673.698486328125,7798.671875,-3003.279541015625,-565.8467407226562,1902.580322265625,7667.54150390625,-4583.99462890625,2811.749755859375,-5650.5205078125,-1637.9356689453125,-1067.3204345703125,8830.2294921875,-6155.1728515625,-7600.7841796875,-4921.75439453125,94.57270050048828,607.9674072265625,-5028.248046875,-866.254150390625,309.1494140625,-5402.56494140625,2450.1484375,871.8172607421875,2090.930908203125,-5637.8046875,256.69732666015625,0.0,-2200.603515625,0.0,-2453.3271484375,-0.0,142.2564239501953
-7131.099609375,-7289.2509765625,-4812.87646484375,1513.1632080078125,2807.776123046875,18512.408203125,-2628.16748046875,1690.3876953125,-1308.91796875,5405.744140625,-6798.90283203125,-5335.8076171875,-3733.635009765625,4116.69384765625,336.9649353027344,-3751.913818359375,-156.56153869628906,1976.489990234375,4007.021484375,15709.400390625,2784.72900390625,11533.1015625,507.036865234375,14917.0556640625,-3504.753173828125,-4353.5234375,-3107.388671875,-1185.735107421875,-5348.5234375,1184.1456298828125,6009.7373046875,6311.73486328125,3217.061279296875,4844.66552734375,-813.00732421875,5452.6328125,-1258.85009765625,18254.12109375,-1472.632080078125,-0.0,-1687.208740234375,7778.0087890625,-3021.55810546875,-581.7413330078125,1885.09619140625,7652.44140625,-4606.2470703125,2790.2919921875,-5674.3623046875,-1653.0355224609375,-1099.9044189453125,8815.9248046875,-6202.06201171875,-7630.189453125,-4944.80126953125,88.21487426757812,576.9729614257812,-5051.294921875,-883.7382202148438,291.6654052734375,-5420.04931640625,2431.86962890625,855.1279907226562,2082.983642578125,-5673.5673828125,242.39222717285156,0.0,-2217.292724609375,0.0,-2471.60595703125,-0.0,118.41455841064453
-7134.27880859375,-7278.91943359375,-4796.98193359375,1515.54736328125,2822.081298828125,18510.0234375,-2628.962158203125,1685.619384765625,-1316.070556640625,5376.3388671875,-6814.7978515625,-5325.47607421875,-3751.118896484375,4107.1572265625,329.8123779296875,-3754.2978515625,-156.56153869628906,1976.489990234375,4004.63720703125,15689.53125,2788.70263671875,11534.6904296875,510.21575927734375,14915.466796875,-3513.4951171875,-4368.623046875,-3094.673095703125,-1187.324462890625,-5342.16552734375,1191.298095703125,6010.5322265625,6306.17138671875,3219.445556640625,4846.2548828125,-807.4442749023438,5449.45361328125,-1259.6448974609375,18250.146484375,-1508.3948974609375,-0.0,-1678.466796875,7772.44580078125,-3010.431884765625,-587.304443359375,1880.327880859375,7643.69970703125,-4585.583984375,2791.881591796875,-5690.2568359375,-1660.9827880859375,-1105.4674072265625,8812.7451171875,-6229.87744140625,-7639.72607421875,-4936.85400390625,92.98324584960938,565.8467407226562,-5056.06298828125,-894.8643798828125,283.7181091308594,-5411.306640625,2431.86962890625,844.7965087890625,2071.857421875,-5664.8251953125,247.955322265625,0.0,-2218.88232421875,0.0,-2481.9375,-0.0,104.10944366455078
-7124.7421875,-7290.84033203125,-4809.69775390625,1512.3685302734375,2830.8232421875,18506.845703125,-2628.962158203125,1678.466796875,-1322.4283447265625,5369.1865234375,-6838.6396484375,-5335.0126953125,-3767.013671875,4100.0048828125,332.99127197265625,-3761.450439453125,-158.15098571777344,1972.516357421875,4001.458740234375,15679.994140625,2784.72900390625,11532.306640625,511.80523681640625,14911.4921875,-3495.21630859375,-4367.828125,-3089.90478515625,-1191.298095703125,-5352.4970703125,1185.735107421875,6008.94287109375,6307.7607421875,3215.471923828125,4845.46044921875,-807.4442749023438,5448.6591796875,-1258.85009765625,18245.37890625,-1475.0162353515625,-0.0,-1677.6719970703125,7770.0615234375,-3000.100341796875,-592.0728149414062,1875.5594482421875,7634.1630859375,-4580.02099609375,2790.2919921875,-5683.89892578125,-1664.9564208984375,-1102.28857421875,8805.5927734375,-6189.34619140625,-7647.67333984375,-4947.98046875,86.62541961669922,565.8467407226562,-5058.447265625,-898.8380126953125,271.79718017578125,-5390.64404296875,2433.458984375,839.2333984375,2067.089111328125,-5664.8251953125,241.5974884033203,0.0,-2229.213623046875,0.0,-2490.679443359375,-0.0,101.72525787353516
-7125.53662109375,-7281.30322265625,-4793.00830078125,1513.9580078125,2836.386474609375,18510.0234375,-2620.22021484375,1681.645751953125,-1323.22314453125,5372.365234375,-6840.22900390625,-5345.3447265625,-3744.76123046875,4094.44189453125,357.62786865234375,-3762.2451171875,-154.97207641601562,1977.28466796875,4007.021484375,15681.5849609375,2790.2919921875,11537.0751953125,520.5472412109375,14916.2607421875,-3477.732421875,-4356.7021484375,-3088.315185546875,-1189.708740234375,-5359.6494140625,1186.52978515625,6009.7373046875,6306.96630859375,3221.034912109375,4847.0498046875,-798.7022705078125,5453.427734375,-1250.90283203125,18249.353515625,-1475.81103515625,-0.0,-1671.314208984375,7778.0087890625,-2985.00048828125,-590.4833374023438,1883.5068359375,7636.546875,-4575.25244140625,2790.2919921875,-5658.4677734375,-1664.16162109375,-1078.44677734375,8809.56640625,-6175.041015625,-7643.69970703125,-4955.92724609375,78.67813110351562,587.304443359375,-5061.62646484375,-878.1751098632812,267.82354736328125,-5408.12841796875,2437.4326171875,842.4122924804688,2062.32080078125,-5666.41455078125,241.5974884033203,0.0,-2235.571533203125,0.0,-2497.037109375,-0.0,105.69890594482422
-7136.6630859375,-7299.58203125,-4800.955078125,1511.57373046875,2812.544677734375,18512.408203125,-2623.39892578125,1684.8245849609375,-1319.24951171875,5380.3125,-6826.71875,-5345.3447265625,-3708.20361328125,4082.52099609375,369.5487976074219,-3752.70849609375,-155.7667999267578,1974.1058349609375,4007.81640625,15686.353515625,2783.934326171875,11537.0751953125,513.3946533203125,14916.2607421875,-3484.090087890625,-4351.13916015625,-3119.3095703125,-1180.1719970703125,-5352.4970703125,1184.9403076171875,6006.55908203125,6312.529296875,3219.445556640625,4847.8447265625,-805.8547973632812,5454.22216796875,-1254.081787109375,18249.353515625,-1462.3006591796875,-0.0,-1683.235107421875,7781.1875,-2999.3056640625,-584.9202270507812,1885.09619140625,7639.72607421875,-4582.4052734375,2785.523681640625,-5663.236328125,-1664.9564208984375,-1066.5257568359375,8815.9248046875,-6190.14111328125,-7638.93115234375,-4948.77490234375,75.49921417236328,602.404296875,-5066.39501953125,-867.0488891601562,267.82354736328125,-5420.04931640625,2435.04833984375,844.7965087890625,2058.346923828125,-5668.798828125,248.75006103515625,0.0,-2245.903076171875,0.0,-2498.626708984375,-0.0,102.51998901367188
-7177.1943359375,-7317.06640625,-4812.08203125,1494.884521484375,2783.934326171875,18497.30859375,-2649.625,1678.466796875,-1326.402099609375,5377.1337890625,-6837.8447265625,-5361.23876953125,-3717.740234375,4084.1103515625,342.52801513671875,-3751.913818359375,-170.8666534423828,1956.621826171875,3990.33203125,15681.5849609375,2768.039794921875,11520.3857421875,487.16864013671875,14901.9560546875,-3495.21630859375,-4372.5966796875,-3124.872802734375,-1189.708740234375,-5354.88134765625,1159.509033203125,5993.04833984375,6295.83984375,3203.551025390625,4830.3603515625,-829.6966552734375,5435.943359375,-1278.7183837890625,18236.63671875,-1480.579345703125,-0.0,-1698.3350830078125,7762.9091796875,-3047.7841796875,-596.8411865234375,1866.022705078125,7632.57373046875,-4595.91552734375,2770.423828125,-5641.7783203125,-1681.645751953125,-1095.9306640625,8811.951171875,-6226.6982421875,-7650.85205078125,-4951.1591796875,58.01518630981445,588.8939208984375,-5072.75244140625,-895.6591186523438,256.69732666015625,-5433.5595703125,2416.769775390625,832.8755493164062,2055.962890625,-5690.2568359375,228.8818359375,0.0,-2248.287109375,0.0,-2507.368896484375,-0.0,92.98324584960938
-7223.2880859375,-7287.6611328125,-4809.69775390625,1492.500244140625,2790.2919921875,18485.388671875,-2655.188232421875,1667.340576171875,-1335.14404296875,5368.3916015625,-6870.4287109375,-5363.623046875,-3707.408935546875,4080.93115234375,339.34912109375,-3760.65576171875,-180.4033966064453,1952.648193359375,3983.974365234375,15672.841796875,2768.039794921875,11511.6435546875,481.60552978515625,14895.5986328125,-3477.732421875,-4378.95458984375,-3105.79931640625,-1205.603271484375,-5349.31787109375,1135.667236328125,5987.4853515625,6283.12451171875,3201.96142578125,4822.4130859375,-832.8755493164062,5427.20166015625,-1285.870849609375,18230.279296875,-1491.70556640625,-0.0,-1689.593017578125,7752.5771484375,-3056.526123046875,-608.7620849609375,1858.8701171875,7623.8310546875,-4622.1416015625,2768.039794921875,-5635.42041015625,-1700.71923828125,-1098.31494140625,8801.619140625,-6213.18798828125,-7658.7998046875,-4943.2119140625,42.1206169128418,596.8411865234375,-5081.49462890625,-908.374755859375,248.75006103515625,-5439.12255859375,2412.00146484375,826.5177612304688,2052.783935546875,-5686.283203125,221.72927856445312,0.0,-2245.903076171875,0.0,-2510.547607421875,-0.0,92.18851470947266
-7127.1259765625,-7302.76123046875,-4824.0029296875,1491.70556640625,2794.265625,18492.541015625,-2650.419921875,1663.366943359375,-1335.14404296875,5369.1865234375,-6892.68115234375,-5360.4443359375,-3704.22998046875,4086.494384765625,342.52801513671875,-3774.960693359375,-177.22447204589844,1952.648193359375,3983.974365234375,15676.8173828125,2768.83447265625,11514.02734375,485.57916259765625,14897.982421875,-3481.705810546875,-4365.4443359375,-3108.18359375,-1204.80859375,-5345.3447265625,1124.5408935546875,5988.27978515625,6287.09814453125,3200.3720703125,4824.79736328125,-830.4913940429688,5429.5859375,-1281.897216796875,18231.07421875,-1510.779052734375,-0.0,-1691.1824951171875,7757.345703125,-3044.605224609375,-605.5831909179688,1862.049072265625,7622.2421875,-4657.904296875,2767.2451171875,-5650.5205078125,-1684.8245849609375,-1095.9306640625,8794.466796875,-6174.24609375,-7667.54150390625,-4940.033203125,44.50480270385742,607.9674072265625,-5083.083984375,-904.401123046875,256.69732666015625,-5448.6591796875,2413.590576171875,827.3125,2056.757568359375,-5678.33544921875,216.1661834716797,0.0,-2245.903076171875,0.0,-2504.984619140625,-0.0,101.72525787353516
-7063.5478515625,-7286.86669921875,-4807.3134765625,1517.931640625,2814.9287109375,18515.5859375,-2629.7568359375,1688.0035400390625,-1313.6864013671875,5390.64404296875,-6832.28173828125,-5344.5498046875,-3697.8720703125,4100.0048828125,363.19097900390625,-3749.529541015625,-153.3826141357422,1972.516357421875,4005.43212890625,15698.2744140625,2786.318603515625,11537.0751953125,507.036865234375,14916.2607421875,-3470.579833984375,-4351.13916015625,-3091.494384765625,-1182.55615234375,-5332.62890625,1169.8404541015625,6009.7373046875,6315.7080078125,3220.240234375,4848.63916015625,-809.8284301757812,5451.04345703125,-1259.6448974609375,18251.73828125,-1495.67919921875,-0.0,-1675.287841796875,7779.59814453125,-3020.763427734375,-584.9202270507812,1882.7120361328125,7646.083984375,-4601.478515625,2794.265625,-5636.21533203125,-1662.572265625,-1074.4730224609375,8817.513671875,-6124.17822265625,-7656.41552734375,-4927.3173828125,60.39937210083008,611.1463012695312,-5049.70556640625,-886.1223754882812,278.9497375488281,-5427.20166015625,2433.458984375,848.7701416015625,2069.47314453125,-5665.6201171875,239.2133026123047,0.0,-2245.1083984375,0.0,-2492.268798828125,-0.0,115.23564910888672
-7112.8212890625,-7281.30322265625,-4823.2080078125,1508.3948974609375,2804.59716796875,18501.28125,-2638.4990234375,1679.2615966796875,-1320.044189453125,5385.87548828125,-6799.69775390625,-5356.470703125,-3720.12451171875,4088.083740234375,339.34912109375,-3758.271484375,-162.9193572998047,1963.7744140625,3997.484619140625,15690.3271484375,2775.98681640625,11527.5380859375,499.08953857421875,14907.51953125,-3480.9111328125,-4374.98095703125,-3108.978271484375,-1192.8876953125,-5345.3447265625,1173.0194091796875,5999.40625,6306.17138671875,3211.498291015625,4838.3076171875,-819.3651733398438,5439.12255859375,-1270.77099609375,18244.5859375,-1479.78466796875,-0.0,-1684.8245849609375,7768.47216796875,-3030.300048828125,-595.251708984375,1872.380615234375,7640.5205078125,-4591.94189453125,2784.72900390625,-5652.10986328125,-1674.4931640625,-1096.7254638671875,8809.56640625,-6161.53076171875,-7670.720703125,-4941.6220703125,42.91534423828125,586.5097045898438,-5056.85791015625,-898.8380126953125,271.79718017578125,-5443.09619140625,2425.51171875,840.8228759765625,2056.757568359375,-5675.95166015625,234.44493103027344,0.0,-2245.903076171875,0.0,-2498.626708984375,-0.0,104.9041748046875
-7166.8623046875,-7290.04541015625,-4820.82373046875,1489.3214111328125,2793.47119140625,18487.771484375,-2648.03564453125,1663.366943359375,-1332.7598876953125,5373.95458984375,-6825.12890625,-5365.212890625,-3713.766845703125,4070.60009765625,336.9649353027344,-3782.908203125,-178.81393432617188,1948.674560546875,3984.769287109375,15677.6103515625,2764.86083984375,11514.02734375,487.16864013671875,14894.0087890625,-3499.190185546875,-4377.365234375,-3119.3095703125,-1211.961181640625,-5358.85498046875,1159.509033203125,5989.07470703125,6285.5087890625,3199.577392578125,4824.0029296875,-831.2861328125,5427.20166015625,-1281.1025390625,18229.484375,-1496.473876953125,-0.0,-1694.361328125,7754.96142578125,-3041.426513671875,-610.3515625,1862.8438720703125,7626.21533203125,-4595.91552734375,2766.4501953125,-5670.388671875,-1688.0035400390625,-1102.28857421875,8792.876953125,-6238.619140625,-7677.078125,-4955.1328125,39.73643112182617,584.12548828125,-5091.03173828125,-902.0169677734375,251.13424682617188,-5449.45361328125,2412.00146484375,829.6966552734375,2041.65771484375,-5684.69384765625,215.37144470214844,0.0,-2246.69775390625,0.0,-2502.600341796875,-0.0,96.9568862915039
-7139.841796875,-7286.07177734375,-4801.75,1499.65283203125,2803.802490234375,18490.94921875,-2636.11474609375,1676.0826416015625,-1325.6072998046875,5377.1337890625,-6826.71875,-5358.060546875,-3707.408935546875,4065.83154296875,356.0384216308594,-3763.834716796875,-172.4561004638672,1957.41650390625,3995.1005859375,15684.7626953125,2775.1923828125,11520.3857421875,497.5001220703125,14904.33984375,-3499.190185546875,-4376.5703125,-3101.82568359375,-1201.629638671875,-5345.3447265625,1165.0721435546875,5997.02197265625,6287.09814453125,3205.935302734375,4827.97607421875,-820.9546508789062,5435.943359375,-1270.77099609375,18239.81640625,-1511.57373046875,-0.0,-1685.619384765625,7758.140625,-3027.916015625,-600.0200805664062,1873.17529296875,7635.75244140625,-4585.583984375,2777.576416015625,-5660.05712890625,-1688.79833984375,-1081.6256103515625,8808.7724609375,-6209.21484375,-7659.59423828125,-4941.6220703125,67.55193328857422,600.0200805664062,-5072.75244140625,-888.506591796875,260.6709899902344,-5427.20166015625,2422.332763671875,840.0281372070312,2044.8367919921875,-5675.1572265625,216.96090698242188,0.0,-2242.72412109375,0.0,-2501.010986328125,-0.0,99.34107208251953
-7095.3369140625,-7274.94580078125,-4814.4658203125,1502.037109375,2810.160400390625,18497.30859375,-2637.7041015625,1680.8509521484375,-1324.8125,5377.1337890625,-6796.51904296875,-5355.67626953125,-3724.892822265625,4070.60009765625,340.1438293457031,-3763.039794921875,-169.27719116210938,1962.9796142578125,3999.074462890625,15687.9423828125,2776.78173828125,11525.9482421875,501.4737243652344,14909.1083984375,-3492.832275390625,-4367.03369140625,-3100.236083984375,-1196.861328125,-5342.96044921875,1171.429931640625,5999.40625,6292.6611328125,3205.140380859375,4829.5654296875,-816.9810180664062,5441.5068359375,-1269.181640625,18242.994140625,-1498.858154296875,-0.0,-1684.8245849609375,7762.1142578125,-3024.737060546875,-596.0464477539062,1871.5858154296875,7640.5205078125,-4616.57861328125,2781.550048828125,-5646.546875,-1683.235107421875,-1096.7254638671875,8813.5400390625,-6159.14697265625,-7650.85205078125,-4936.85400390625,75.49921417236328,594.4569702148438,-5068.77880859375,-896.453857421875,269.4129943847656,-5424.8173828125,2424.717041015625,842.4122924804688,2048.810302734375,-5671.18310546875,220.93455505371094,0.0,-2242.72412109375,0.0,-2502.600341796875,-0.0,97.75161743164062
-7103.2841796875,-7286.07177734375,-4846.2548828125,1488.5267333984375,2788.70263671875,18489.361328125,-2652.00927734375,1665.7510986328125,-1332.7598876953125,5373.15966796875,-6816.38720703125,-5365.212890625,-3739.992919921875,4076.162841796875,328.222900390625,-3774.166015625,-185.96649169921875,1949.46923828125,3986.358642578125,15677.6103515625,2758.5029296875,11512.4384765625,486.3739013671875,14897.982421875,-3526.210693359375,-4386.90185546875,-3119.3095703125,-1207.9874267578125,-5358.060546875,1166.66162109375,5984.30615234375,6279.150390625,3186.86181640625,4812.87646484375,-832.8755493164062,5428.791015625,-1281.897216796875,18230.279296875,-1516.3421630859375,-0.0,-1712.64013671875,7747.80908203125,-3043.015625,-606.3779296875,1860.459716796875,7624.6259765625,-4648.3671875,2766.4501953125,-5670.388671875,-1672.1090087890625,-1108.6463623046875,8796.8515625,-6181.39892578125,-7660.38916015625,-4952.74853515625,70.73084259033203,586.5097045898438,-5092.62109375,-905.1958618164062,249.54476928710938,-5443.09619140625,2412.7958984375,830.4913940429688,2041.65771484375,-5675.95166015625,208.21888732910156,0.0,-2261.002685546875,0.0,-2513.7265625,-0.0,91.39379119873047
-7127.92041015625,-7294.8134765625,-4851.81787109375,1478.989990234375,2784.72900390625,18490.94921875,-2653.598876953125,1668.9300537109375,-1335.9388427734375,5373.15966796875,-6822.74462890625,-5369.1865234375,-3751.913818359375,4068.2158203125,327.4281921386719,-3763.039794921875,-188.35067749023438,1946.2904052734375,3984.769287109375,15676.8173828125,2756.913330078125,11510.0546875,483.9897155761719,14898.77734375,-3526.210693359375,-4387.69677734375,-3124.078125,-1198.45068359375,-5362.03369140625,1165.8668212890625,5983.51123046875,6277.56103515625,3184.4775390625,4810.4921875,-838.4386596679688,5427.20166015625,-1282.69189453125,18230.279296875,-1519.5211181640625,-0.0,-1715.0242919921875,7747.0146484375,-3043.810546875,-603.198974609375,1858.8701171875,7624.6259765625,-4646.7783203125,2756.11865234375,-5675.1572265625,-1671.314208984375,-1109.441162109375,8804.00390625,-6191.73046875,-7662.77294921875,-4956.72216796875,63.578285217285156,578.5624389648438,-5109.31005859375,-906.7853393554688,236.82911682128906,-5439.12255859375,2411.20654296875,828.9019165039062,2032.915771484375,-5684.69384765625,209.808349609375,0.0,-2274.51318359375,0.0,-2517.7001953125,-0.0,90.59906005859375
-7108.052734375,-7292.4296875,-4822.4130859375,1487.73193359375,2814.9287109375,18519.560546875,-2624.988525390625,1703.8980712890625,-1308.91796875,5404.154296875,-6794.9296875,-5340.576171875,-3725.687744140625,4097.62060546875,345.7069396972656,-3739.992919921875,-157.35626220703125,1975.6953125,4014.174072265625,15707.015625,2786.318603515625,11539.458984375,512.5999755859375,14928.9765625,-3492.03759765625,-4351.13916015625,-3101.031005859375,-1169.8404541015625,-5345.3447265625,1188.1192626953125,6013.71142578125,6307.7607421875,3213.88232421875,4841.486328125,-808.239013671875,5459.78564453125,-1255.671142578125,18261.2734375,-1491.70556640625,-0.0,-1682.4404296875,7782.77734375,-3015.200439453125,-572.20458984375,1885.8909912109375,7660.38916015625,-4603.86279296875,2760.092529296875,-5652.904296875,-1653.8302001953125,-1090.36767578125,8840.560546875,-6163.9150390625,-7644.49462890625,-4938.44384765625,82.65177154541016,592.0728149414062,-5065.60009765625,-885.32763671875,273.3866271972656,-5411.306640625,2441.40625,859.1016235351562,2064.704833984375,-5675.1572265625,243.98167419433594,0.0,-2237.955810546875,0.0,-2487.50048828125,-0.0,123.18293762207031
-7080.23681640625,-7279.7138671875,-4793.00830078125,1526.6737060546875,2839.565185546875,18541.8125,-2598.762451171875,1727.739990234375,-1283.4866943359375,5427.99609375,-6794.9296875,-5319.91357421875,-3695.488037109375,4129.40966796875,374.3171691894531,-3716.15087890625,-136.6933135986328,1998.7423095703125,4041.19482421875,15737.21484375,2810.160400390625,11561.7109375,538.03125,14952.0234375,-3474.553466796875,-4306.63427734375,-3078.778564453125,-1150.7669677734375,-5328.6552734375,1202.4244384765625,6035.96337890625,6326.833984375,3236.134765625,4861.35498046875,-782.8076782226562,5482.0380859375,-1229.445068359375,18285.91015625,-1478.1951904296875,-0.0,-1660.1881103515625,7803.43994140625,-2988.179443359375,-553.131103515625,1909.7327880859375,7687.40966796875,-4572.8681640625,2803.0078125,-5691.84619140625,-1634.7567138671875,-1058.5784912109375,8859.634765625,-6184.578125,-7634.1630859375,-4922.548828125,80.26758575439453,613.5304565429688,-5027.453125,-854.333251953125,315.50726318359375,-5400.9755859375,2466.042724609375,885.32763671875,2099.673095703125,-5655.28857421875,264.6446228027344,0.0,-2208.55078125,0.0,-2458.89013671875,-0.0,147.02479553222656
-7102.4892578125,-7298.78759765625,-4784.26611328125,1545.7471923828125,2861.817626953125,18541.017578125,-2593.994140625,1718.9979248046875,-1293.818115234375,5408.12841796875,-6829.8974609375,-5334.21826171875,-3689.925048828125,4109.54150390625,398.9537658691406,-3724.892822265625,-139.07749938964844,1997.153076171875,4038.810791015625,15718.1416015625,2814.1337890625,11560.9169921875,542.7996215820312,14948.8447265625,-3468.195556640625,-4278.81884765625,-3054.936767578125,-1154.74072265625,-5331.03955078125,1192.8876953125,6035.1689453125,6323.65576171875,3238.51904296875,4858.17578125,-777.2445678710938,5476.474609375,-1225.471435546875,18281.9375,-1487.73193359375,-0.0,-1652.24072265625,7806.619140625,-2969.10595703125,-555.5152587890625,1909.7327880859375,7677.078125,-4589.5576171875,2826.849609375,-5668.00439453125,-1641.9093017578125,-1038.710205078125,8850.09765625,-6189.34619140625,-7642.90478515625,-4924.93310546875,70.73084259033203,630.2197875976562,-5049.70556640625,-847.9754028320312,301.9968566894531,-5400.1806640625,2466.042724609375,874.9962158203125,2082.983642578125,-5653.69921875,251.13424682617188,0.0,-2222.855712890625,0.0,-2483.52685546875,-0.0,121.59347534179688
-7100.900390625,-7325.80810546875,-4782.6767578125,1537.005126953125,2871.354248046875,18534.66015625,-2596.37841796875,1706.2822265625,-1298.5865478515625,5407.33349609375,-6827.51318359375,-5334.21826171875,-3713.766845703125,4096.826171875,406.9010314941406,-3735.224365234375,-139.8722381591797,1993.1793212890625,4034.837158203125,15710.1953125,2814.1337890625,11559.3271484375,543.5943603515625,14944.87109375,-3465.0166015625,-4333.65478515625,-3050.963134765625,-1162.6878662109375,-5333.423828125,1192.8876953125,6031.1953125,6324.4501953125,3239.313720703125,4856.58642578125,-777.2445678710938,5472.50146484375,-1225.471435546875,18275.580078125,-1467.8636474609375,-0.0,-1649.8565673828125,7801.0556640625,-2960.364013671875,-563.4625854492188,1907.3486328125,7665.1572265625,-4587.96826171875,2814.1337890625,-5613.16845703125,-1652.24072265625,-1029.96826171875,8839.7666015625,-6130.53662109375,-7646.083984375,-4930.49609375,78.67813110351562,627.0408935546875,-5059.2421875,-860.6910400390625,286.89703369140625,-5412.1015625,2462.0693359375,867.8436279296875,2071.062744140625,-5645.751953125,250.33950805664062,0.0,-2229.213623046875,0.0,-2478.758544921875,-0.0,117.61983489990234
-7115.99951171875,-7300.376953125,-4778.703125,1535.4156494140625,2849.10205078125,18530.6875,-2605.9150390625,1707.871826171875,-1295.4075927734375,5417.6650390625,-6798.1083984375,-5332.62890625,-3714.5615234375,4116.69384765625,383.8539123535156,-3726.482421875,-139.07749938964844,1990.795166015625,4033.24755859375,15718.9365234375,2809.365478515625,11556.1484375,536.4417724609375,14941.6923828125,-3457.0693359375,-4362.26513671875,-3073.215576171875,-1165.8668212890625,-5328.6552734375,1200.8348388671875,6028.81103515625,6326.833984375,3237.724365234375,4855.79150390625,-786.7813110351562,5470.91162109375,-1234.2135009765625,18273.98828125,-1457.5322265625,-0.0,-1655.419677734375,7793.1083984375,-2977.84814453125,-565.8467407226562,1902.580322265625,7668.33642578125,-4563.33154296875,2810.955078125,-5610.7841796875,-1646.6776123046875,-1053.015380859375,8839.7666015625,-6121.0,-7646.87890625,-4924.138671875,91.39379119873047,610.3515625,-5052.08984375,-874.9962158203125,294.0495910644531,-5409.7177734375,2456.506103515625,871.0225219726562,2080.599609375,-5648.93115234375,254.31314086914062,0.0,-2219.677001953125,0.0,-2475.57958984375,-0.0,127.95130920410156
-7143.8154296875,-7291.63525390625,-4795.392578125,1527.4683837890625,2804.59716796875,18519.560546875,-2629.7568359375,1694.361328125,-1311.30224609375,5404.94921875,-6820.36083984375,-5346.93408203125,-3693.103759765625,4088.083740234375,366.369873046875,-3749.529541015625,-154.17735290527344,1970.132080078125,4013.379638671875,15706.220703125,2786.318603515625,11540.25390625,505.4473876953125,14924.208984375,-3458.658935546875,-4357.49658203125,-3094.673095703125,-1180.1719970703125,-5325.47607421875,1188.1192626953125,6012.12158203125,6309.3505859375,3220.240234375,4840.69189453125,-813.8020629882812,5456.6064453125,-1259.6448974609375,18260.478515625,-1476.605712890625,-0.0,-1671.314208984375,7778.80322265625,-3034.27392578125,-577.7677001953125,1883.5068359375,7657.2099609375,-4576.841796875,2806.9814453125,-5605.220703125,-1643.498779296875,-1071.294189453125,8827.845703125,-6179.8095703125,-7653.236328125,-4922.548828125,81.06231689453125,610.3515625,-5056.85791015625,-884.532958984375,282.9233703613281,-5412.1015625,2435.84326171875,856.7174072265625,2067.8837890625,-5658.4677734375,237.6238555908203,0.0,-2221.2666015625,0.0,-2481.9375,-0.0,118.41455841064453
-7168.45166015625,-7299.58203125,-4822.4130859375,1505.2159423828125,2783.139404296875,18505.25390625,-2650.419921875,1684.0299072265625,-1324.8125,5393.8232421875,-6863.27587890625,-5355.67626953125,-3698.666748046875,4065.036865234375,325.8387145996094,-3769.397705078125,-173.25083923339844,1951.0587158203125,3995.1005859375,15692.7109375,2768.039794921875,11524.359375,486.3739013671875,14909.1083984375,-3476.142822265625,-4371.00732421875,-3124.872802734375,-1192.0928955078125,-5355.67626953125,1160.3037109375,5993.04833984375,6292.6611328125,3201.166748046875,4822.4130859375,-832.8755493164062,5440.7119140625,-1279.5130615234375,18245.37890625,-1478.1951904296875,-0.0,-1691.9771728515625,7763.70361328125,-3056.526123046875,-590.4833374023438,1862.8438720703125,7644.49462890625,-4607.83642578125,2785.523681640625,-5656.8779296875,-1658.5985107421875,-1111.8253173828125,8817.513671875,-6225.10888671875,-7665.1572265625,-4955.1328125,67.55193328857422,598.4306640625,-5069.57373046875,-909.9642333984375,270.2077331542969,-5442.30126953125,2419.948486328125,842.4122924804688,2048.810302734375,-5684.69384765625,220.93455505371094,0.0,-2242.72412109375,0.0,-2496.242431640625,-0.0,104.9041748046875
-7175.6044921875,-7318.6552734375,-4816.85009765625,1505.2159423828125,2780.75537109375,18502.076171875,-2651.214599609375,1684.0299072265625,-1320.8388671875,5404.94921875,-6850.560546875,-5357.265625,-3718.53515625,4088.083740234375,319.48089599609375,-3764.62939453125,-178.81393432617188,1948.674560546875,3994.30615234375,15703.04296875,2764.86083984375,11521.9755859375,484.7844543457031,14909.1083984375,-3496.805908203125,-4376.5703125,-3133.61474609375,-1185.735107421875,-5362.82861328125,1152.3564453125,5990.6640625,6284.7138671875,3196.3984375,4819.234375,-836.0545043945312,5439.12255859375,-1281.897216796875,18245.37890625,-1517.136962890625,-0.0,-1699.1297607421875,7761.31982421875,-3054.14208984375,-591.278076171875,1864.433349609375,7646.083984375,-4619.75732421875,2782.3447265625,-5679.13037109375,-1676.0826416015625,-1118.18310546875,8819.8974609375,-6189.34619140625,-7675.48876953125,-4959.9013671875,65.1677474975586,577.7677001953125,-5083.083984375,-909.9642333984375,265.4393615722656,-5456.6064453125,2417.564453125,846.385986328125,2060.731201171875,-5680.7197265625,224.90818786621094,0.0,-2245.1083984375,0.0,-2491.47412109375,-0.0,116.82510375976562
-7166.8623046875,-7319.4501953125,-4810.4921875,1517.931640625,2792.67626953125,18519.560546875,-2630.551513671875,1703.1033935546875,-1302.5601806640625,5424.8173828125,-6829.8974609375,-5346.93408203125,-3711.382568359375,4110.33642578125,354.4489440917969,-3734.4296875,-166.09828186035156,1962.9796142578125,4011.789794921875,15719.732421875,2775.98681640625,11538.6650390625,500.67901611328125,14925.7978515625,-3513.4951171875,-4341.6025390625,-3108.978271484375,-1170.63525390625,-5347.728515625,1162.6878662109375,6004.1748046875,6295.83984375,3205.935302734375,4834.333984375,-823.3388061523438,5455.81201171875,-1262.029052734375,18262.86328125,-1501.2423095703125,-0.0,-1698.3350830078125,7782.77734375,-3034.27392578125,-575.3834838867188,1885.8909912109375,7665.1572265625,-4607.83642578125,2793.47119140625,-5664.03076171875,-1672.1090087890625,-1083.215087890625,8843.7392578125,-6162.3251953125,-7661.18359375,-4942.4169921875,66.7572021484375,592.8675537109375,-5052.08984375,-881.35400390625,290.87066650390625,-5439.9169921875,2431.86962890625,865.45947265625,2078.21533203125,-5679.92529296875,233.65020751953125,0.0,-2215.703369140625,0.0,-2466.837646484375,-0.0,138.28277587890625
-7166.0673828125,-7307.529296875,-4821.61865234375,1503.62646484375,2793.47119140625,18507.638671875,-2635.320068359375,1693.566650390625,-1304.9443359375,5426.40673828125,-6833.07666015625,-5355.67626953125,-3739.992919921875,4102.388671875,347.29638671875,-3741.582275390625,-174.8402862548828,1955.0323486328125,4006.22705078125,15716.552734375,2771.218505859375,11527.5380859375,496.7053527832031,14915.466796875,-3517.46875,-4358.29150390625,-3108.978271484375,-1186.52978515625,-5358.060546875,1145.9986572265625,5994.63818359375,6287.892578125,3200.3720703125,4825.591796875,-828.107177734375,5444.685546875,-1266.002685546875,18254.916015625,-1490.1160888671875,-0.0,-1704.69287109375,7771.65087890625,-3033.47900390625,-585.7149658203125,1880.327880859375,7661.97802734375,-4622.1416015625,2780.75537109375,-5656.8779296875,-1673.698486328125,-1091.95703125,8827.0498046875,-6198.08837890625,-7662.77294921875,-4950.36474609375,60.39937210083008,586.5097045898438,-5056.85791015625,-892.480224609375,309.1494140625,-5432.7646484375,2425.51171875,861.4857788085938,2074.24169921875,-5691.05126953125,228.0871124267578,0.0,-2221.2666015625,0.0,-2456.506103515625,-0.0,153.3826141357422
-7123.947265625,-7269.38232421875,-4818.439453125,1509.984375,2803.802490234375,18522.740234375,-2625.783203125,1713.434814453125,-1286.66552734375,5468.52734375,-6834.666015625,-5343.75537109375,-3732.04541015625,4115.1044921875,344.11749267578125,-3728.072021484375,-168.4824676513672,1966.1585693359375,4019.7373046875,15753.111328125,2778.37109375,11534.6904296875,507.8315734863281,14928.181640625,-3503.16357421875,-4360.67578125,-3101.82568359375,-1160.3037109375,-5348.5234375,1168.2509765625,6004.96923828125,6299.01904296875,3207.524658203125,4832.74462890625,-816.186279296875,5454.22216796875,-1254.081787109375,18271.60546875,-1495.67919921875,-0.0,-1693.566650390625,7778.80322265625,-3023.1474609375,-569.8204345703125,1892.248779296875,7687.40966796875,-4616.57861328125,2787.907958984375,-5649.7255859375,-1646.6776123046875,-1091.95703125,8846.9189453125,-6199.677734375,-7640.5205078125,-4944.00634765625,84.2412338256836,588.0991821289062,-5070.3681640625,-886.1223754882812,338.55438232421875,-5430.38037109375,2436.637939453125,880.5592651367188,2090.930908203125,-5681.5146484375,237.6238555908203,0.0,-2216.498046875,0.0,-2426.306396484375,-0.0,192.32432556152344
-7092.95263671875,-7256.66650390625,-4796.18701171875,1530.647216796875,2822.081298828125,18541.017578125,-2605.9150390625,1726.9453125,-1269.181640625,5487.6005859375,-6814.0029296875,-5329.4501953125,-3719.329833984375,4122.25732421875,368.7540588378906,-3718.53515625,-148.61424255371094,1982.847900390625,4038.015869140625,15776.953125,2796.64990234375,11552.1748046875,525.3156127929688,14945.666015625,-3482.500732421875,-4339.21826171875,-3084.341796875,-1148.3828125,-5339.78125,1202.4244384765625,6024.04248046875,6316.5029296875,3225.0087890625,4847.8447265625,-797.11279296875,5470.91162109375,-1238.1871337890625,18289.08984375,-1488.5267333984375,-0.0,-1670.51953125,7797.876953125,-3004.86865234375,-553.9258422851562,1911.322265625,7703.30419921875,-4593.53125,2809.365478515625,-5637.01025390625,-1619.6568603515625,-1068.115234375,8862.0185546875,-6173.45166015625,-7619.06298828125,-4936.0595703125,95.367431640625,600.0200805664062,-5040.9638671875,-863.8699951171875,341.7333068847656,-5425.61181640625,2451.737548828125,897.2485961914062,2099.673095703125,-5675.95166015625,252.72369384765625,0.0,-2217.292724609375,0.0,-2447.76416015625,-0.0,166.89300537109375
-7115.205078125,-7275.740234375,-4795.392578125,1533.826171875,2826.054931640625,18536.25,-2609.093994140625,1710.2559814453125,-1285.076171875,5434.3544921875,-6791.75048828125,-5329.4501953125,-3710.587646484375,4097.62060546875,384.6486511230469,-3736.813720703125,-145.43533325195312,1984.437255859375,4030.86328125,15738.8056640625,2799.0341796875,11552.1748046875,526.1103515625,14941.6923828125,-3478.527099609375,-4340.01318359375,-3077.189208984375,-1160.3037109375,-5336.6025390625,1207.9874267578125,6025.63232421875,6319.681640625,3228.982177734375,4850.22900390625,-796.3180541992188,5467.73291015625,-1239.776611328125,18278.7578125,-1467.0689697265625,-0.0,-1668.13525390625,7795.49267578125,-3001.68994140625,-561.078369140625,1905.7591552734375,7677.078125,-4584.7890625,2810.160400390625,-5633.0361328125,-1626.8094482421875,-1054.6048583984375,8844.53515625,-6160.736328125,-7626.21533203125,-4932.08544921875,96.16216278076172,613.5304565429688,-5045.73193359375,-869.43310546875,301.9968566894531,-5411.306640625,2448.558837890625,879.7645263671875,2052.783935546875,-5676.74658203125,249.54476928710938,0.0,-2226.034912109375,0.0,-2491.47412109375,-0.0,85.8306884765625
-7158.9150390625,-7304.3505859375,-4808.10791015625,1521.9052734375,2812.544677734375,18514.791015625,-2625.783203125,1683.235107421875,-1306.5338134765625,5367.59716796875,-6801.287109375,-5346.93408203125,-3717.740234375,4107.9521484375,367.16461181640625,-3760.65576171875,-158.15098571777344,1969.33740234375,4010.200439453125,15691.1220703125,2786.318603515625,11536.2802734375,510.21575927734375,14920.234375,-3493.626953125,-4351.93408203125,-3092.2890625,-1184.1456298828125,-5347.728515625,1190.50341796875,6010.5322265625,6308.5556640625,3217.856201171875,4838.3076171875,-810.6231689453125,5451.04345703125,-1254.87646484375,18254.12109375,-1467.8636474609375,-0.0,-1684.0299072265625,7776.4189453125,-3017.58447265625,-581.7413330078125,1884.301513671875,7638.13623046875,-4591.94189453125,2801.418212890625,-5648.13623046875,-1649.061767578125,-1070.4993896484375,8818.30859375,-6155.9677734375,-7640.5205078125,-4943.2119140625,82.65177154541016,602.404296875,-5064.8056640625,-884.532958984375,251.928955078125,-5424.8173828125,2430.280029296875,851.154296875,2059.9365234375,-5683.10400390625,227.29237365722656,0.0,-2245.1083984375,0.0,-2520.879150390625,-0.0,62.78356170654297
-7111.2314453125,-7296.4033203125,-4790.6240234375,1527.4683837890625,2826.054931640625,18527.5078125,-2618.630615234375,1693.566650390625,-1307.32861328125,5364.41796875,-6803.67138671875,-5331.83447265625,-3712.971923828125,4116.69384765625,371.13824462890625,-3744.76123046875,-145.43533325195312,1981.2584228515625,4018.14794921875,15680.7900390625,2799.828857421875,11551.3798828125,520.5472412109375,14932.9501953125,-3474.553466796875,-4338.42333984375,-3083.546875,-1173.814208984375,-5346.1396484375,1204.0137939453125,6024.04248046875,6318.88720703125,3231.366455078125,4851.0234375,-799.4969482421875,5464.5537109375,-1246.1343994140625,18264.451171875,-1463.89013671875,-0.0,-1669.724853515625,7789.134765625,-3007.2529296875,-572.9993286132812,1888.275146484375,7647.67333984375,-4592.73681640625,2805.39208984375,-5639.39404296875,-1642.7039794921875,-1067.3204345703125,8831.818359375,-6140.86767578125,-7625.4208984375,-4941.6220703125,97.75161743164062,609.5568237304688,-5044.14208984375,-871.0225219726562,267.82354736328125,-5424.0224609375,2440.611572265625,854.333251953125,2069.47314453125,-5668.798828125,244.77639770507812,0.0,-2233.1875,0.0,-2497.037109375,-0.0,105.69890594482422
-7091.36328125,-7291.63525390625,-4793.802734375,1541.7734375,2834.796875,18546.58203125,-2605.9150390625,1719.792724609375,-1293.0234375,5406.53857421875,-6802.08203125,-5312.7607421875,-3705.8193359375,4124.6416015625,379.8802795410156,-3708.99853515625,-135.89859008789062,1995.5634765625,4034.837158203125,15703.8369140625,2810.955078125,11565.685546875,534.0576171875,14952.0234375,-3472.169189453125,-4324.9130859375,-3075.599609375,-1148.3828125,-5338.19189453125,1222.2926025390625,6038.34765625,6327.62890625,3237.724365234375,4863.7392578125,-785.986572265625,5480.4482421875,-1233.4188232421875,18286.705078125,-1450.3797607421875,-0.0,-1664.9564208984375,7803.43994140625,-2995.33203125,-550.7469482421875,1905.7591552734375,7680.25732421875,-4588.7626953125,2818.90234375,-5635.42041015625,-1623.6304931640625,-1058.5784912109375,8857.25,-6136.09912109375,-7606.34765625,-4933.67529296875,119.20928955078125,616.7094116210938,-5019.505859375,-860.6910400390625,311.5335998535156,-5402.56494140625,2454.121826171875,874.9962158203125,2079.010009765625,-5649.7255859375,265.4393615722656,0.0,-2203.7822265625,0.0,-2449.353515625,-0.0,145.43533325195312
-7127.1259765625,-7331.37109375,-4829.5654296875,1521.110595703125,2810.160400390625,18523.53515625,-2622.6044921875,1699.1297607421875,-1304.149658203125,5396.20751953125,-6841.02392578125,-5343.75537109375,-3720.91943359375,4115.8994140625,363.9856872558594,-3735.224365234375,-164.50881958007812,1970.927001953125,4014.174072265625,15695.0947265625,2785.523681640625,11539.458984375,510.21575927734375,14927.3876953125,-3496.010986328125,-4352.728515625,-3098.64697265625,-1171.429931640625,-5355.67626953125,1194.47705078125,6012.12158203125,6298.22412109375,3208.3193359375,4837.51318359375,-808.239013671875,5455.01708984375,-1254.87646484375,18264.451171875,-1514.752685546875,-0.0,-1689.593017578125,7777.2138671875,-3016.789794921875,-574.5887451171875,1889.8646240234375,7660.38916015625,-4609.42578125,2797.444580078125,-5656.8779296875,-1649.061767578125,-1073.6783447265625,8834.203125,-6167.888671875,-7642.1103515625,-4951.9541015625,90.59906005859375,596.8411865234375,-5060.83154296875,-867.8436279296875,288.4864807128906,-5431.17529296875,2427.895751953125,858.306884765625,2064.704833984375,-5691.05126953125,236.03439331054688,0.0,-2223.650634765625,0.0,-2473.1953125,-0.0,121.59347534179688
-7177.98876953125,-7341.703125,-4828.77099609375,1511.57373046875,2801.418212890625,18512.408203125,-2639.293701171875,1682.4404296875,-1322.4283447265625,5369.9814453125,-6852.94482421875,-5354.88134765625,-3745.555908203125,4099.21044921875,340.9385681152344,-3759.06640625,-169.27719116210938,1959.80078125,3999.868896484375,15675.2265625,2775.98681640625,11529.1279296875,497.5001220703125,14914.671875,-3501.57421875,-4365.4443359375,-3112.951904296875,-1185.735107421875,-5363.623046875,1179.377197265625,6002.5849609375,6295.04541015625,3201.166748046875,4829.5654296875,-820.9546508789062,5443.89111328125,-1269.976318359375,18247.76171875,-1490.910888671875,-0.0,-1693.566650390625,7767.67724609375,-3029.50537109375,-587.304443359375,1872.380615234375,7642.1103515625,-4618.16796875,2788.70263671875,-5661.646484375,-1662.572265625,-1095.9306640625,8819.103515625,-6187.7568359375,-7662.77294921875,-4961.49072265625,80.26758575439453,574.5887451171875,-5077.52099609375,-879.7645263671875,262.26043701171875,-5441.5068359375,2415.18017578125,839.2333984375,2051.1943359375,-5715.68798828125,227.29237365722656,0.0,-2242.72412109375,0.0,-2506.573974609375,-0.0,89.80432891845703
-7194.677734375,-7300.376953125,-4809.69775390625,1518.726318359375,2804.59716796875,18517.17578125,-2636.11474609375,1689.593017578125,-1320.044189453125,5366.00732421875,-6820.36083984375,-5341.37109375,-3735.224365234375,4093.64697265625,340.9385681152344,-3743.171630859375,-162.1246337890625,1965.36376953125,4005.43212890625,15677.6103515625,2781.550048828125,11536.2802734375,503.85791015625,14921.029296875,-3513.4951171875,-4357.49658203125,-3111.362548828125,-1179.377197265625,-5365.212890625,1185.735107421875,6009.7373046875,6302.19775390625,3212.29296875,4837.51318359375,-815.3915405273438,5451.04345703125,-1266.002685546875,18254.916015625,-1498.858154296875,-0.0,-1688.0035400390625,7774.830078125,-3026.326416015625,-580.15185546875,1875.5594482421875,7647.67333984375,-4603.86279296875,2795.855224609375,-5662.44140625,-1656.21435546875,-1094.34130859375,8829.4345703125,-6210.00927734375,-7650.85205078125,-4963.080078125,85.03595733642578,575.3834838867188,-5062.42138671875,-886.1223754882812,270.2077331542969,-5446.275390625,2423.12744140625,844.0017700195312,2057.55224609375,-5684.69384765625,240.80276489257812,0.0,-2227.624267578125,0.0,-2500.21630859375,-0.0,97.75161743164062
-7180.37255859375,-7272.5615234375,-4812.08203125,1521.110595703125,2803.802490234375,18518.765625,-2636.11474609375,1692.77197265625,-1315.2757568359375,5383.49169921875,-6815.59228515625,-5338.19189453125,-3715.356201171875,4106.36279296875,337.7596435546875,-3737.608642578125,-161.3299102783203,1964.569091796875,4005.43212890625,15685.55859375,2779.960693359375,11536.2802734375,502.26849365234375,14921.82421875,-3528.594970703125,-4352.728515625,-3112.1572265625,-1173.0194091796875,-5358.85498046875,1184.1456298828125,6008.94287109375,6300.6083984375,3213.88232421875,4835.923828125,-816.186279296875,5450.24853515625,-1267.592041015625,18258.095703125,-1489.3214111328125,-0.0,-1688.0035400390625,7776.4189453125,-3027.916015625,-578.5624389648438,1873.969970703125,7650.85205078125,-4627.70458984375,2797.444580078125,-5661.646484375,-1659.393310546875,-1097.520263671875,8834.203125,-6239.4140625,-7646.083984375,-4956.72216796875,84.2412338256836,580.15185546875,-5064.8056640625,-904.401123046875,280.5391845703125,-5451.837890625,2424.717041015625,847.1806640625,2069.47314453125,-5670.388671875,243.98167419433594,0.0,-2221.2666015625,0.0,-2481.142822265625,-0.0,119.20928955078125
-7127.92041015625,-7276.53515625,-4799.3662109375,1520.3157958984375,2808.57080078125,18524.328125,-2632.935791015625,1699.9244384765625,-1308.123291015625,5397.796875,-6837.8447265625,-5340.576171875,-3721.714111328125,4112.720703125,348.8858642578125,-3732.84033203125,-158.15098571777344,1966.9532470703125,4008.611083984375,15695.0947265625,2787.11328125,11538.6650390625,505.4473876953125,14927.3876953125,-3501.57421875,-4347.9599609375,-3108.978271484375,-1158.71435546875,-5353.2919921875,1180.9666748046875,6010.5322265625,6306.17138671875,3220.240234375,4838.3076171875,-813.00732421875,5451.04345703125,-1262.82373046875,18263.658203125,-1496.473876953125,-0.0,-1674.4931640625,7781.982421875,-3027.121337890625,-571.4098510742188,1878.7384033203125,7658.7998046875,-4612.6044921875,2797.444580078125,-5663.236328125,-1646.6776123046875,-1087.9835205078125,8840.560546875,-6182.98876953125,-7657.2099609375,-4947.98046875,84.2412338256836,590.4833374023438,-5074.34228515625,-894.8643798828125,287.6917419433594,-5436.73828125,2424.717041015625,852.7437744140625,2072.652099609375,-5683.10400390625,241.5974884033203,0.0,-2233.1875,0.0,-2477.1689453125,-0.0,126.36184692382812
-7078.6474609375,-7300.376953125,-4804.92919921875,1525.87890625,2814.1337890625,18528.302734375,-2624.988525390625,1707.0770263671875,-1301.765380859375,5409.7177734375,-6821.9501953125,-5339.78125,-3728.072021484375,4111.13134765625,361.60150146484375,-3715.356201171875,-154.97207641601562,1970.132080078125,4015.763671875,15707.8115234375,2789.497314453125,11544.2275390625,511.0104675292969,14932.9501953125,-3481.705810546875,-4340.8076171875,-3098.64697265625,-1159.509033203125,-5346.1396484375,1181.7613525390625,6013.71142578125,6311.73486328125,3219.445556640625,4844.66552734375,-809.8284301757812,5457.4013671875,-1254.87646484375,18269.220703125,-1509.984375,-0.0,-1675.287841796875,7791.51904296875,-3018.379150390625,-568.23095703125,1887.4803466796875,7665.9521484375,-4588.7626953125,2801.418212890625,-5653.69921875,-1637.9356689453125,-1075.267822265625,8849.3037109375,-6121.79443359375,-7668.33642578125,-4941.6220703125,89.80432891845703,599.225341796875,-5038.57958984375,-884.532958984375,290.075927734375,-5424.8173828125,2430.280029296875,863.8699951171875,2080.599609375,-5691.84619140625,247.16058349609375,0.0,-2231.597900390625,0.0,-2473.990234375,-0.0,137.48805236816406
-7068.31591796875,-7300.376953125,-4816.85009765625,1528.2630615234375,2814.9287109375,18530.6875,-2617.041259765625,1715.0242919921875,-1293.0234375,5425.61181640625,-6806.0556640625,-5337.39697265625,-3712.971923828125,4116.69384765625,362.396240234375,-3711.382568359375,-150.99842834472656,1975.6953125,4022.121337890625,15722.1162109375,2787.11328125,11548.99609375,515.7788696289062,14935.333984375,-3468.195556640625,-4336.833984375,-3091.494384765625,-1160.3037109375,-5335.8076171875,1190.50341796875,6016.89013671875,6313.32421875,3217.856201171875,4849.43408203125,-805.8547973632812,5465.3486328125,-1248.5185546875,18275.580078125,-1490.910888671875,-0.0,-1685.619384765625,7790.72412109375,-3012.021240234375,-565.052001953125,1896.222412109375,7673.10498046875,-4591.94189453125,2805.39208984375,-5645.751953125,-1640.31982421875,-1073.6783447265625,8857.25,-6109.0791015625,-7652.44140625,-4932.88037109375,93.7779769897461,606.3779296875,-5020.30029296875,-882.1487426757812,294.84429931640625,-5437.53271484375,2437.4326171875,873.40673828125,2094.904541015625,-5674.3623046875,255.10787963867188,0.0,-2214.114013671875,0.0,-2468.427001953125,-0.0,149.4089813232422
-7086.59521484375,-7285.27685546875,-4818.439453125,1537.7998046875,2815.723388671875,18537.044921875,-2612.27294921875,1720.58740234375,-1289.0498046875,5435.14892578125,-6805.26123046875,-5327.06591796875,-3705.8193359375,4112.720703125,372.72772216796875,-3703.435302734375,-148.61424255371094,1981.2584228515625,4026.889892578125,15726.08984375,2788.70263671875,11551.3798828125,521.3419799804688,14940.8974609375,-3483.29541015625,-4325.7080078125,-3085.136474609375,-1151.561767578125,-5333.423828125,1201.629638671875,6020.86376953125,6312.529296875,3219.445556640625,4851.0234375,-804.2653198242188,5469.322265625,-1245.3397216796875,18281.140625,-1486.9371337890625,-0.0,-1689.593017578125,7795.49267578125,-3008.0478515625,-559.4889526367188,1900.196044921875,7681.8466796875,-4616.57861328125,2814.9287109375,-5644.95703125,-1630.7830810546875,-1064.1416015625,8863.6083984375,-6135.3046875,-7637.341796875,-4929.701171875,96.9568862915039,615.9146728515625,-5021.09521484375,-879.7645263671875,312.3283386230469,-5424.0224609375,2441.40625,877.38037109375,2082.983642578125,-5656.08349609375,263.8498840332031,0.0,-2210.14013671875,0.0,-2461.2744140625,-0.0,146.2300567626953
-7137.45751953125,-7314.68212890625,-4814.4658203125,1533.031494140625,2818.90234375,18529.095703125,-2613.8623046875,1712.64013671875,-1293.818115234375,5430.38037109375,-6817.18212890625,-5329.4501953125,-3697.077392578125,4109.54150390625,388.6222839355469,-3720.12451171875,-151.7931671142578,1978.874267578125,4021.32666015625,15720.525390625,2789.497314453125,11548.99609375,519.7525024414062,14936.1298828125,-3476.142822265625,-4333.65478515625,-3078.778564453125,-1162.6878662109375,-5327.06591796875,1189.708740234375,6016.095703125,6307.7607421875,3219.445556640625,4846.2548828125,-801.8811645507812,5462.16943359375,-1245.3397216796875,18272.400390625,-1486.1424560546875,-0.0,-1684.0299072265625,7790.72412109375,-3006.458251953125,-566.6414794921875,1897.8118896484375,7677.078125,-4606.2470703125,2807.776123046875,-5634.6259765625,-1642.7039794921875,-1049.041748046875,8854.0712890625,-6159.94140625,-7638.93115234375,-4923.34375,73.11502838134766,620.6830444335938,-5046.5263671875,-871.0225219726562,303.5863342285156,-5420.84375,2436.637939453125,872.6119995117188,2067.8837890625,-5655.28857421875,251.13424682617188,0.0,-2221.2666015625,0.0,-2462.864013671875,-0.0,134.3091278076172
-7174.01513671875,-7338.52392578125,-4821.61865234375,1519.5211181640625,2806.186767578125,18521.150390625,-2628.16748046875,1691.9771728515625,-1312.8916015625,5391.43896484375,-6856.12353515625,-5352.4970703125,-3712.17724609375,4104.77294921875,375.1119079589844,-3748.734619140625,-162.1246337890625,1964.569091796875,4006.22705078125,15691.9150390625,2777.576416015625,11537.869140625,506.2420959472656,14923.4130859375,-3488.8583984375,-4332.8603515625,-3093.87841796875,-1182.55615234375,-5335.8076171875,1188.1192626953125,6004.1748046875,6298.22412109375,3210.70361328125,4835.923828125,-813.8020629882812,5451.837890625,-1259.6448974609375,18256.505859375,-1494.0897216796875,-0.0,-1691.1824951171875,7784.36669921875,-3019.96875,-582.5360717773438,1881.9173583984375,7653.236328125,-4618.16796875,2795.855224609375,-5651.3154296875,-1656.21435546875,-1062.5521240234375,8831.0244140625,-6199.677734375,-7647.67333984375,-4929.701171875,68.3466567993164,605.5831909179688,-5071.9580078125,-879.7645263671875,280.5391845703125,-5438.32763671875,2423.92236328125,852.7437744140625,2059.141845703125,-5675.1572265625,228.0871124267578,0.0,-2234.77685546875,0.0,-2482.732177734375,-0.0,110.46727752685547
-7193.08837890625,-7305.1455078125,-4799.3662109375,1513.1632080078125,2807.776123046875,18516.3828125,-2636.909423828125,1684.8245849609375,-1319.24951171875,5366.80224609375,-6892.68115234375,-5350.90771484375,-3703.435302734375,4109.54150390625,348.09112548828125,-3755.092529296875,-163.71409606933594,1962.1849365234375,4001.458740234375,15675.2265625,2781.550048828125,11531.5126953125,500.67901611328125,14918.64453125,-3470.579833984375,-4339.21826171875,-3108.18359375,-1184.1456298828125,-5346.93408203125,1180.9666748046875,6004.96923828125,6295.83984375,3213.88232421875,4834.333984375,-814.5968017578125,5448.6591796875,-1266.002685546875,18250.94140625,-1492.500244140625,-0.0,-1680.0562744140625,7778.80322265625,-3026.326416015625,-585.7149658203125,1875.5594482421875,7642.90478515625,-4597.5048828125,2791.881591796875,-5660.85205078125,-1657.0091552734375,-1087.188720703125,8827.0498046875,-6202.8564453125,-7657.2099609375,-4942.4169921875,77.8833999633789,596.8411865234375,-5064.8056640625,-888.506591796875,260.6709899902344,-5440.7119140625,2419.15380859375,844.0017700195312,2064.704833984375,-5703.76708984375,231.26602172851562,0.0,-2239.545166015625,0.0,-2494.653076171875,-0.0,104.10944366455078
-7201.83056640625,-7264.6142578125,-4773.14013671875,1514.752685546875,2824.465576171875,18521.943359375,-2626.578125,1699.1297607421875,-1312.096923828125,5373.15966796875,-6884.73388671875,-5338.98681640625,-3712.971923828125,4111.92578125,359.2173156738281,-3724.892822265625,-154.17735290527344,1969.33740234375,4009.405517578125,15684.7626953125,2792.67626953125,11537.869140625,510.21575927734375,14925.7978515625,-3449.1220703125,-4350.34423828125,-3095.4677734375,-1167.456298828125,-5338.19189453125,1180.9666748046875,6014.505859375,6306.17138671875,3225.803466796875,4841.486328125,-804.2653198242188,5455.81201171875,-1256.4659423828125,18262.068359375,-1482.963623046875,-0.0,-1660.1881103515625,7783.57177734375,-3014.405517578125,-576.17822265625,1883.5068359375,7654.82568359375,-4570.484375,2792.67626953125,-5642.57275390625,-1653.0355224609375,-1075.267822265625,8848.5078125,-6178.22021484375,-7651.64697265625,-4932.08544921875,96.9568862915039,588.8939208984375,-5047.3212890625,-887.7118530273438,258.28680419921875,-5431.97021484375,2427.10107421875,852.7437744140625,2063.115478515625,-5688.66748046875,241.5974884033203,0.0,-2245.903076171875,0.0,-2508.9580078125,-0.0,103.3147201538086
-7142.2255859375,-7242.361328125,-4765.9873046875,1533.826171875,2844.333740234375,18537.83984375,-2601.146728515625,1715.8189697265625,-1294.6129150390625,5404.154296875,-6813.2080078125,-5313.55517578125,-3696.28271484375,4119.873046875,405.31158447265625,-3713.766845703125,-134.3091278076172,1988.410888671875,4029.27392578125,15710.1953125,2810.955078125,11559.3271484375,533.2628784179688,14941.6923828125,-3453.095703125,-4342.39697265625,-3056.526123046875,-1154.74072265625,-5326.27099609375,1193.682373046875,6033.57958984375,6331.6025390625,3244.876953125,4861.35498046875,-785.1918334960938,5472.50146484375,-1232.6240234375,18279.552734375,-1441.6376953125,-0.0,-1649.8565673828125,7799.466796875,-2988.179443359375,-560.28369140625,1907.3486328125,7673.10498046875,-4571.27880859375,2811.749755859375,-5606.81005859375,-1640.31982421875,-1031.5577392578125,8862.0185546875,-6139.2783203125,-7631.77880859375,-4918.5751953125,120.00402069091797,627.0408935546875,-5033.01611328125,-857.5121459960938,290.075927734375,-5415.28076171875,2446.96923828125,874.2014770507812,2082.18896484375,-5659.26220703125,266.23406982421875,0.0,-2224.4453125,0.0,-2478.758544921875,-0.0,129.54075622558594
-7113.61572265625,-7278.91943359375,-4789.0341796875,1533.031494140625,2832.41259765625,18529.095703125,-2609.093994140625,1701.513916015625,-1304.9443359375,5408.12841796875,-6786.98193359375,-5324.681640625,-3689.925048828125,4110.33642578125,398.1590270996094,-3741.582275390625,-142.2564239501953,1980.4637451171875,4022.916259765625,15706.220703125,2802.212890625,11552.1748046875,525.3156127929688,14932.9501953125,-3471.37451171875,-4346.37060546875,-3067.65234375,-1172.224609375,-5334.21826171875,1184.1456298828125,6025.63232421875,6322.86083984375,3233.75048828125,4854.9970703125,-797.11279296875,5464.5537109375,-1242.95556640625,18269.220703125,-1464.684814453125,-0.0,-1664.9564208984375,7789.9296875,-2999.3056640625,-572.20458984375,1902.580322265625,7662.77294921875,-4584.7890625,2810.955078125,-5622.705078125,-1642.7039794921875,-1041.88916015625,8840.560546875,-6140.0732421875,-7640.5205078125,-4927.3173828125,102.51998901367188,637.372314453125,-5038.57958984375,-865.45947265625,296.43377685546875,-5404.154296875,2435.84326171875,867.8436279296875,2075.036376953125,-5664.03076171875,255.90261840820312,0.0,-2213.319091796875,0.0,-2462.864013671875,-0.0,131.92494201660156
-7119.9736328125,-7315.47705078125,-4804.92919921875,1522.699951171875,2812.544677734375,18514.791015625,-2630.551513671875,1688.0035400390625,-1316.8653564453125,5397.001953125,-6799.69775390625,-5343.75537109375,-3701.051025390625,4104.77294921875,355.2436828613281,-3751.118896484375,-155.7667999267578,1964.569091796875,4004.63720703125,15695.890625,2785.523681640625,11537.869140625,504.6526794433594,14919.4404296875,-3480.9111328125,-4346.37060546875,-3101.031005859375,-1184.9403076171875,-5346.1396484375,1174.60888671875,6012.12158203125,6306.96630859375,3217.061279296875,4839.89697265625,-813.00732421875,5451.04345703125,-1263.618408203125,18253.326171875,-1496.473876953125,-0.0,-1681.645751953125,7780.39306640625,-3022.35302734375,-584.9202270507812,1880.327880859375,7650.85205078125,-4596.7099609375,2800.62353515625,-5645.751953125,-1652.24072265625,-1083.215087890625,8827.845703125,-6146.43115234375,-7654.03125,-4939.23828125,82.65177154541016,607.9674072265625,-5045.73193359375,-894.8643798828125,281.33392333984375,-5425.61181640625,2420.7431640625,851.9490356445312,2068.6787109375,-5677.541015625,233.65020751953125,0.0,-2222.855712890625,0.0,-2471.60595703125,-0.0,127.15657043457031
-7139.04736328125,-7297.19775390625,-4828.77099609375,1504.4212646484375,2787.907958984375,18502.87109375,-2648.830322265625,1676.8773193359375,-1328.7862548828125,5378.72314453125,-6815.59228515625,-5353.2919921875,-3738.4033203125,4096.826171875,324.249267578125,-3749.529541015625,-171.661376953125,1949.46923828125,3987.947998046875,15679.994140625,2767.2451171875,11523.564453125,485.57916259765625,14905.9296875,-3509.521484375,-4364.6494140625,-3131.230712890625,-1186.52978515625,-5362.82861328125,1173.0194091796875,5996.22705078125,6293.45556640625,3200.3720703125,4824.79736328125,-829.6966552734375,5437.53271484375,-1281.897216796875,18239.021484375,-1490.910888671875,-0.0,-1704.69287109375,7766.087890625,-3045.39990234375,-595.251708984375,1862.8438720703125,7634.9580078125,-4618.16796875,2782.3447265625,-5679.92529296875,-1664.9564208984375,-1113.414794921875,8823.0771484375,-6145.63623046875,-7660.38916015625,-4957.51708984375,71.52557373046875,567.4362182617188,-5053.67919921875,-905.1958618164062,251.13424682617188,-5447.86474609375,2406.438232421875,836.8492431640625,2057.55224609375,-5690.2568359375,227.29237365722656,0.0,-2256.234375,0.0,-2503.39501953125,-0.0,109.67254638671875
-7181.16748046875,-7288.4560546875,-4822.4130859375,1500.4476318359375,2786.318603515625,18498.1015625,-2649.625,1674.4931640625,-1331.965087890625,5377.92822265625,-6822.74462890625,-5365.212890625,-3755.88720703125,4094.44189453125,332.1965637207031,-3764.62939453125,-175.63502502441406,1947.8797607421875,3987.947998046875,15677.6103515625,2766.4501953125,11520.3857421875,486.3739013671875,14904.33984375,-3519.05810546875,-4370.21240234375,-3125.66748046875,-1195.2718505859375,-5366.80224609375,1166.66162109375,5993.04833984375,6290.27685546875,3200.3720703125,4823.2080078125,-832.080810546875,5435.943359375,-1282.69189453125,18237.431640625,-1477.400390625,-0.0,-1705.487548828125,7765.29296875,-3043.810546875,-599.225341796875,1861.25439453125,7631.77880859375,-4589.5576171875,2778.37109375,-5684.69384765625,-1665.7510986328125,-1105.4674072265625,8819.103515625,-6183.783203125,-7673.10498046875,-4962.28564453125,50.067901611328125,572.9993286132812,-5066.39501953125,-905.9906005859375,240.80276489257812,-5446.275390625,2404.848876953125,834.4650268554688,2048.810302734375,-5693.435546875,216.1661834716797,0.0,-2262.59228515625,0.0,-2516.110595703125,-0.0,99.34107208251953
-7189.115234375,-7305.93994140625,-4813.6708984375,1510.779052734375,2800.62353515625,18510.818359375,-2636.11474609375,1683.235107421875,-1322.4283447265625,5387.46484375,-6816.38720703125,-5375.5439453125,-3730.4560546875,4098.41552734375,356.0384216308594,-3763.039794921875,-164.50881958007812,1959.006103515625,3999.074462890625,15688.73828125,2775.98681640625,11533.1015625,498.2948303222656,14915.466796875,-3538.92626953125,-4345.57568359375,-3099.44140625,-1189.708740234375,-5346.1396484375,1154.74072265625,6004.96923828125,6300.6083984375,3206.72998046875,4833.53955078125,-820.159912109375,5445.48046875,-1268.3868408203125,18247.76171875,-1472.632080078125,-0.0,-1699.1297607421875,7781.1875,-3025.53173828125,-590.4833374023438,1876.354248046875,7644.49462890625,-4598.29931640625,2786.318603515625,-5702.97265625,-1653.8302001953125,-1082.42041015625,8825.4609375,-6186.9619140625,-7695.35693359375,-4941.6220703125,27.02077293395996,591.278076171875,-5067.189453125,-886.9171142578125,267.02880859375,-5429.5859375,2415.18017578125,847.1806640625,2048.015625,-5676.74658203125,226.49765014648438,0.0,-2241.92919921875,0.0,-2499.42138671875,-0.0,106.4936294555664
-7160.5048828125,-7349.64990234375,-4812.87646484375,1524.2894287109375,2821.286376953125,18524.328125,-2624.19384765625,1696.7454833984375,-1312.8916015625,5402.56494140625,-6813.2080078125,-5379.51806640625,-3730.4560546875,4101.59423828125,363.19097900390625,-3743.171630859375,-157.35626220703125,1969.33740234375,4007.81640625,15699.068359375,2787.907958984375,11543.43359375,511.80523681640625,14924.208984375,-3519.852783203125,-4321.73388671875,-3087.5205078125,-1175.403564453125,-5347.728515625,1149.177490234375,6015.30078125,6308.5556640625,3215.471923828125,4845.46044921875,-806.6495361328125,5455.01708984375,-1256.4659423828125,18259.68359375,-1465.4794921875,-0.0,-1687.208740234375,7795.49267578125,-3006.458251953125,-580.15185546875,1884.301513671875,7656.41552734375,-4599.88916015625,2799.828857421875,-5704.5615234375,-1651.446044921875,-1075.267822265625,8836.5869140625,-6137.68896484375,-7708.86767578125,-4942.4169921875,41.32588577270508,595.251708984375,-5067.189453125,-888.506591796875,294.0495910644531,-5425.61181640625,2427.10107421875,856.7174072265625,2055.962890625,-5682.3095703125,230.47129821777344,0.0,-2234.77685546875,0.0,-2475.57958984375,-0.0,124.77238464355469
-7086.59521484375,-7340.908203125,-4796.18701171875,1546.5418701171875,2845.923095703125,18530.6875,-2608.29931640625,1707.0770263671875,-1300.970703125,5427.99609375,-6817.18212890625,-5345.3447265625,-3719.329833984375,4113.51513671875,375.9066162109375,-3726.482421875,-140.66696166992188,1983.642578125,4022.121337890625,15717.34765625,2805.39208984375,11554.55859375,529.2892456054688,14936.1298828125,-3476.9375,-4329.681640625,-3073.215576171875,-1166.66162109375,-5346.93408203125,1178.58251953125,6029.60595703125,6323.65576171875,3232.9560546875,4858.970703125,-788.3707885742188,5466.93798828125,-1240.5714111328125,18272.400390625,-1476.605712890625,-0.0,-1666.5458984375,7802.64501953125,-2981.82177734375,-569.8204345703125,1897.8118896484375,7669.92578125,-4589.5576171875,2822.8759765625,-5655.28857421875,-1636.34619140625,-1062.5521240234375,8846.9189453125,-6113.05224609375,-7677.078125,-4941.6220703125,86.62541961669922,606.3779296875,-5038.57958984375,-881.35400390625,306.7652282714844,-5421.638671875,2441.40625,871.8172607421875,2073.447021484375,-5668.00439453125,228.0871124267578,0.0,-2214.90869140625,0.0,-2451.737548828125,-0.0,145.43533325195312
-7065.931640625,-7299.58203125,-4791.41845703125,1539.3892822265625,2837.18115234375,18525.919921875,-2606.709716796875,1703.8980712890625,-1304.149658203125,5415.28076171875,-6799.69775390625,-5330.24462890625,-3686.745849609375,4102.388671875,401.33795166015625,-3738.4033203125,-143.8458709716797,1979.6688232421875,4022.916259765625,15710.1953125,2802.212890625,11551.3798828125,527.6997680664062,14935.333984375,-3467.40087890625,-4340.01318359375,-3089.90478515625,-1170.63525390625,-5325.47607421875,1188.1192626953125,6026.4267578125,6322.06591796875,3228.982177734375,4853.4072265625,-790.7549438476562,5462.16943359375,-1238.1871337890625,18270.810546875,-1482.963623046875,-0.0,-1667.340576171875,7791.51904296875,-2981.02685546875,-572.9993286132812,1900.196044921875,7666.74658203125,-4593.53125,2815.723388671875,-5640.9833984375,-1657.0091552734375,-1038.710205078125,8845.3291015625,-6129.74169921875,-7648.4677734375,-4921.75439453125,94.57270050048828,632.6039428710938,-5046.5263671875,-872.6119995117188,297.2284851074219,-5435.943359375,2438.227294921875,871.0225219726562,2061.526123046875,-5658.4677734375,233.65020751953125,0.0,-2223.650634765625,0.0,-2467.63232421875,-0.0,126.36184692382812
-7125.53662109375,-7285.27685546875,-4803.33935546875,1509.1895751953125,2799.0341796875,18505.25390625,-2636.11474609375,1688.0035400390625,-1319.24951171875,5401.77001953125,-6829.8974609375,-5350.90771484375,-3669.261962890625,4090.468017578125,372.72772216796875,-3749.529541015625,-166.89300537109375,1955.8270263671875,3999.868896484375,15695.0947265625,2778.37109375,11529.1279296875,495.91064453125,14913.876953125,-3470.579833984375,-4341.6025390625,-3117.720458984375,-1192.0928955078125,-5331.03955078125,1170.63525390625,6002.5849609375,6298.22412109375,3209.114013671875,4831.1552734375,-818.5704345703125,5443.09619140625,-1268.3868408203125,18250.94140625,-1494.0897216796875,-0.0,-1683.235107421875,7768.47216796875,-3031.0947265625,-592.0728149414062,1877.14892578125,7653.236328125,-4592.73681640625,2787.11328125,-5636.21533203125,-1663.366943359375,-1066.5257568359375,8829.4345703125,-6206.83056640625,-7650.85205078125,-4925.72802734375,69.14138793945312,627.0408935546875,-5056.06298828125,-895.6591186523438,274.9761047363281,-5444.685546875,2412.00146484375,851.154296875,2050.39990234375,-5679.92529296875,225.7029266357422,0.0,-2233.1875,0.0,-2486.705810546875,-0.0,116.0303726196289
-7181.16748046875,-7283.6875,-4808.90283203125,1502.831787109375,2795.060302734375,18498.8984375,-2647.240966796875,1686.4140625,-1324.8125,5401.77001953125,-6844.99755859375,-5350.11279296875,-3678.00390625,4095.236328125,348.8858642578125,-3754.2978515625,-170.8666534423828,1948.674560546875,3993.51123046875,15693.505859375,2772.80810546875,11521.9755859375,485.57916259765625,14909.1083984375,-3471.37451171875,-4376.5703125,-3101.031005859375,-1192.8876953125,-5338.98681640625,1176.9930419921875,5995.4326171875,6294.25048828125,3205.935302734375,4826.38671875,-825.7230224609375,5436.73828125,-1277.923583984375,18246.96875,-1498.858154296875,-0.0,-1688.0035400390625,7758.140625,-3055.7314453125,-594.4569702148438,1868.4068603515625,7650.85205078125,-4584.7890625,2782.3447265625,-5627.47314453125,-1664.16162109375,-1088.7781982421875,8827.0498046875,-6214.77734375,-7639.72607421875,-4933.67529296875,81.85704803466797,616.7094116210938,-5060.83154296875,-895.6591186523438,269.4129943847656,-5439.9169921875,2407.23291015625,846.385986328125,2052.783935546875,-5692.640625,227.29237365722656,0.0,-2236.3662109375,0.0,-2492.268798828125,-0.0,112.05673217773438
-7189.90966796875,-7282.09814453125,-4812.08203125,1501.2423095703125,2803.0078125,18504.4609375,-2639.293701171875,1688.79833984375,-1321.6336669921875,5401.77001953125,-6834.666015625,-5350.11279296875,-3729.6611328125,4093.64697265625,352.8594970703125,-3752.70849609375,-171.661376953125,1950.263916015625,3995.8955078125,15695.890625,2772.80810546875,11521.9755859375,492.73175048828125,14912.2880859375,-3482.500732421875,-4380.5439453125,-3096.2626953125,-1187.324462890625,-5342.16552734375,1181.7613525390625,5995.4326171875,6291.0712890625,3203.551025390625,4821.61865234375,-824.133544921875,5437.53271484375,-1270.77099609375,18249.353515625,-1486.1424560546875,-0.0,-1691.1824951171875,7759.72998046875,-3038.247314453125,-592.8675537109375,1874.7647705078125,7651.64697265625,-4587.96826171875,2779.960693359375,-5625.8837890625,-1664.16162109375,-1084.009765625,8830.2294921875,-6149.60986328125,-7633.3681640625,-4938.44384765625,80.26758575439453,597.6359252929688,-5065.60009765625,-878.1751098632812,275.77081298828125,-5453.427734375,2409.6171875,848.7701416015625,2051.9892578125,-5686.283203125,225.7029266357422,0.0,-2246.69775390625,0.0,-2504.189697265625,-0.0,91.39379119873047
-7154.146484375,-7290.04541015625,-4826.38671875,1497.2686767578125,2803.0078125,18501.28125,-2638.4990234375,1681.645751953125,-1318.4547119140625,5382.69677734375,-6811.61865234375,-5358.060546875,-3714.5615234375,4107.1572265625,362.396240234375,-3751.118896484375,-176.42974853515625,1947.8797607421875,3994.30615234375,15688.73828125,2770.423828125,11520.3857421875,491.9369812011719,14908.3134765625,-3485.6796875,-4368.623046875,-3093.083740234375,-1188.9139404296875,-5336.6025390625,1171.429931640625,5990.6640625,6286.30322265625,3197.193115234375,4819.234375,-828.107177734375,5434.3544921875,-1270.77099609375,18245.37890625,-1491.70556640625,-0.0,-1692.77197265625,7761.31982421875,-3031.0947265625,-598.4306640625,1874.7647705078125,7642.1103515625,-4622.1416015625,2774.397705078125,-5633.0361328125,-1676.8773193359375,-1076.857177734375,8823.8720703125,-6126.5625,-7644.49462890625,-4933.67529296875,69.93611907958984,615.9146728515625,-5059.2421875,-894.0697021484375,265.4393615722656,-5449.45361328125,2406.438232421875,844.0017700195312,2067.089111328125,-5682.3095703125,219.3450927734375,0.0,-2244.3134765625,0.0,-2501.8056640625,-0.0,96.9568862915039
-7140.63623046875,-7315.47705078125,-4851.0234375,1485.3477783203125,2786.318603515625,18490.15625,-2650.419921875,1663.366943359375,-1339.11767578125,5353.2919921875,-6821.9501953125,-5373.95458984375,-3682.7724609375,4056.294921875,383.0591735839844,-3762.2451171875,-193.11904907226562,1931.9852294921875,3980.0009765625,15664.1005859375,2751.350341796875,11506.875,480.0160827636719,14893.2138671875,-3508.726806640625,-4363.06005859375,-3101.82568359375,-1207.1927490234375,-5342.16552734375,1148.3828125,5974.76953125,6274.38232421875,3179.709228515625,4805.7236328125,-841.6175537109375,5419.25439453125,-1280.3077392578125,18227.099609375,-1513.1632080078125,-0.0,-1715.0242919921875,7753.3720703125,-3043.810546875,-611.9410400390625,1862.8438720703125,7619.06298828125,-4655.52001953125,2760.88720703125,-5660.05712890625,-1684.8245849609375,-1055.3995361328125,8807.1826171875,-6155.9677734375,-7669.92578125,-4939.23828125,44.50480270385742,631.8092041015625,-5076.7265625,-896.453857421875,224.90818786621094,-5470.1171875,2389.748779296875,826.5177612304688,2040.068359375,-5701.38330078125,202.65579223632812,0.0,-2270.53955078125,0.0,-2526.4423828125,-0.0,85.03595733642578
-7200.2412109375,-7334.55029296875,-4876.45458984375,1453.55859375,2753.734619140625,18465.51953125,-2680.619384765625,1644.29345703125,-1366.138427734375,5342.16552734375,-6875.99169921875,-5409.7177734375,-3738.4033203125,4005.43212890625,335.3754577636719,-3786.0869140625,-224.90818786621094,1904.9644775390625,3953.77490234375,15644.2314453125,2721.150634765625,11478.2646484375,452.99530029296875,14867.7822265625,-3534.157958984375,-4379.74951171875,-3143.9462890625,-1230.2398681640625,-5381.107421875,1115.004150390625,5946.1591796875,6241.00341796875,3149.509521484375,4775.52392578125,-871.0225219726562,5393.8232421875,-1312.096923828125,18206.4375,-1557.6680908203125,-0.0,-1746.8134765625,7730.3251953125,-3074.804931640625,-634.9881591796875,1835.822998046875,7603.16845703125,-4676.18310546875,2731.482177734375,-5702.97265625,-1703.8980712890625,-1100.6990966796875,8788.9033203125,-6189.34619140625,-7696.94677734375,-4978.974609375,-4.76837158203125,579.357177734375,-5125.20458984375,-917.1168212890625,200.2716064453125,-5509.05859375,2362.72802734375,802.6759033203125,1986.0267333984375,-5742.70849609375,179.60865783691406,0.0,-2303.12353515625,0.0,-2556.641845703125,-0.0,61.19409942626953
-7267.79296875,-7311.5029296875,-4857.38134765625,1470.2479248046875,2762.4765625,18476.64453125,-2676.64599609375,1669.724853515625,-1359.7806396484375,5373.15966796875,-6878.3759765625,-5400.1806640625,-3769.397705078125,4030.06884765625,306.7652282714844,-3767.013671875,-216.1661834716797,1916.8853759765625,3964.90087890625,15667.2802734375,2734.6611328125,11487.8017578125,462.53204345703125,14881.29296875,-3523.031982421875,-4382.92822265625,-3145.53564453125,-1203.2191162109375,-5386.67041015625,1130.10400390625,5957.28564453125,6245.77197265625,3161.430419921875,4784.26611328125,-859.1016235351562,5404.94921875,-1307.32861328125,18222.33203125,-1525.0841064453125,-0.0,-1733.3031005859375,7738.27197265625,-3069.24169921875,-615.9146728515625,1836.6177978515625,7630.98388671875,-4652.34130859375,2748.171630859375,-5693.435546875,-1688.0035400390625,-1130.10400390625,8815.12890625,-6186.16748046875,-7685.02587890625,-4982.1533203125,0.0,557.104736328125,-5106.130859375,-934.600830078125,235.2396697998047,-5493.1640625,2371.47021484375,816.9810180664062,1995.5634765625,-5720.45654296875,192.32432556152344,0.0,-2311.865478515625,0.0,-2547.89990234375,-0.0,86.62541961669922
-7220.109375,-7325.013671875,-4850.22900390625,1479.78466796875,2776.78173828125,18479.029296875,-2662.3408203125,1671.314208984375,-1346.270263671875,5392.2333984375,-6848.970703125,-5378.72314453125,-3743.171630859375,4039.605712890625,336.1701965332031,-3756.68212890625,-208.21888732910156,1921.65380859375,3972.848388671875,15680.7900390625,2742.6083984375,11491.775390625,472.06878662109375,14886.8564453125,-3527.80029296875,-4408.359375,-3125.66748046875,-1204.80859375,-5362.03369140625,1133.282958984375,5964.43798828125,6250.5400390625,3167.788330078125,4789.8291015625,-849.5648803710938,5408.9228515625,-1293.818115234375,18227.099609375,-1520.3157958984375,-0.0,-1725.355712890625,7732.70947265625,-3052.552490234375,-612.7357177734375,1850.9229736328125,7634.9580078125,-4627.70458984375,2757.708251953125,-5675.1572265625,-1674.4931640625,-1100.6990966796875,8812.7451171875,-6186.9619140625,-7684.23095703125,-4955.92724609375,52.45208740234375,582.5360717773438,-5079.9052734375,-917.9114990234375,255.10787963867188,-5470.91162109375,2380.212158203125,828.107177734375,2001.92138671875,-5700.58837890625,188.35067749023438,0.0,-2299.944580078125,0.0,-2526.4423828125,-0.0,85.03595733642578
-7176.3994140625,-7355.21337890625,-4847.0498046875,1471.83740234375,2775.1923828125,18475.8515625,-2667.109130859375,1656.21435546875,-1349.44921875,5378.72314453125,-6848.17626953125,-5377.1337890625,-3743.171630859375,4054.705078125,318.6861572265625,-3782.908203125,-206.6294403076172,1920.0643310546875,3968.87451171875,15665.689453125,2744.19775390625,11490.9814453125,468.09515380859375,14882.8818359375,-3519.05810546875,-4403.59130859375,-3140.767333984375,-1223.882080078125,-5364.41796875,1136.4619140625,5963.6435546875,6252.1298828125,3169.377685546875,4791.41845703125,-849.5648803710938,5408.12841796875,-1296.9970703125,18218.359375,-1544.1575927734375,-0.0,-1722.9715576171875,7733.50390625,-3057.32080078125,-622.2724609375,1846.154541015625,7623.03662109375,-4621.34716796875,2746.58203125,-5713.30419921875,-1685.619384765625,-1118.9779052734375,8792.876953125,-6206.83056640625,-7694.5625,-4958.3115234375,68.3466567993164,569.0256958007812,-5106.92578125,-933.8060913085938,261.4656982421875,-5475.6796875,2377.033203125,819.3651733398438,2003.5107421875,-5706.1513671875,187.5559539794922,0.0,-2259.41357421875,0.0,-2498.626708984375,-0.0,74.7044906616211
-7153.35205078125,-7335.3447265625,-4819.234375,1471.0426025390625,2801.418212890625,18502.87109375,-2644.06201171875,1678.466796875,-1329.5809326171875,5394.61767578125,-6860.09716796875,-5362.82861328125,-3728.072021484375,4086.494384765625,337.7596435546875,-3767.013671875,-184.3770294189453,1944.7008056640625,3991.126953125,15684.7626953125,2768.83447265625,11518.001953125,492.73175048828125,14905.9296875,-3498.395263671875,-4365.4443359375,-3124.078125,-1196.861328125,-5353.2919921875,1153.9459228515625,5987.4853515625,6276.76611328125,3194.014404296875,4815.26025390625,-826.5177612304688,5431.97021484375,-1273.949951171875,18240.609375,-1528.2630615234375,-0.0,-1697.540283203125,7767.67724609375,-3031.0947265625,-600.8148193359375,1866.022705078125,7644.49462890625,-4582.4052734375,2743.403076171875,-5746.6826171875,-1684.8245849609375,-1100.6990966796875,8813.5400390625,-6170.27294921875,-7680.25732421875,-4949.56982421875,86.62541961669922,578.5624389648438,-5087.8525390625,-921.0904541015625,284.5128479003906,-5473.2958984375,2400.080322265625,839.2333984375,2058.346923828125,-5697.4091796875,212.9872589111328,0.0,-2230.80322265625,0.0,-2460.479736328125,-0.0,120.79874420166016
-7159.7099609375,-7325.80810546875,-4814.4658203125,1490.910888671875,2830.028564453125,18501.28125,-2628.962158203125,1685.619384765625,-1314.4810791015625,5393.0283203125,-6858.5078125,-5363.623046875,-3757.476806640625,4108.7470703125,354.4489440917969,-3748.734619140625,-180.4033966064453,1952.648193359375,3999.868896484375,15692.7109375,2779.960693359375,11521.9755859375,507.8315734863281,14912.2880859375,-3499.190185546875,-4366.2392578125,-3101.031005859375,-1191.298095703125,-5368.3916015625,1146.7933349609375,5997.02197265625,6280.740234375,3198.78271484375,4818.439453125,-813.00732421875,5436.73828125,-1259.6448974609375,18248.55859375,-1518.726318359375,-0.0,-1686.4140625,7766.88232421875,-3004.07421875,-595.251708984375,1880.327880859375,7648.4677734375,-4599.09423828125,2770.423828125,-5665.6201171875,-1691.9771728515625,-1084.009765625,8824.666015625,-6149.60986328125,-7684.23095703125,-4963.875,70.73084259033203,575.3834838867188,-5050.50048828125,-901.2222290039062,290.075927734375,-5474.88525390625,2408.822265625,847.9754028320312,2085.367919921875,-5702.97265625,214.57672119140625,0.0,-2216.498046875,0.0,-2451.737548828125,-0.0,142.2564239501953
-7124.7421875,-7308.32421875,-4810.4921875,1520.3157958984375,2833.207275390625,18520.35546875,-2618.630615234375,1696.7454833984375,-1302.5601806640625,5399.3857421875,-6813.2080078125,-5340.576171875,-3761.450439453125,4134.17822265625,351.2700500488281,-3728.86669921875,-166.09828186035156,1966.9532470703125,4011.789794921875,15705.4267578125,2787.907958984375,11537.0751953125,519.7525024414062,14927.3876953125,-3496.805908203125,-4352.728515625,-3098.64697265625,-1175.403564453125,-5362.82861328125,1174.60888671875,6011.3271484375,6299.01904296875,3210.70361328125,4835.923828125,-801.8811645507812,5451.04345703125,-1249.3133544921875,18260.478515625,-1498.0634765625,-0.0,-1685.619384765625,7781.982421875,-2992.94775390625,-576.17822265625,1891.4541015625,7656.41552734375,-4643.59912109375,2801.418212890625,-5637.01025390625,-1630.7830810546875,-1084.8045654296875,8835.79296875,-6133.71533203125,-7662.77294921875,-4957.51708984375,100.93053436279297,576.9729614257812,-5036.98974609375,-890.0960083007812,283.7181091308594,-5445.48046875,2423.92236328125,859.1016235351562,2090.930908203125,-5689.46240234375,231.26602172851562,0.0,-2226.82958984375,0.0,-2477.1689453125,-0.0,127.95130920410156
-7119.9736328125,-7319.4501953125,-4827.97607421875,1511.57373046875,2796.64990234375,18517.970703125,-2627.372802734375,1691.9771728515625,-1307.32861328125,5379.51806640625,-6797.3134765625,-5337.39697265625,-3720.12451171875,4127.8203125,360.8067932128906,-3744.76123046875,-166.89300537109375,1959.006103515625,4005.43212890625,15694.2998046875,2777.576416015625,11532.306640625,503.85791015625,14920.234375,-3498.395263671875,-4358.29150390625,-3105.79931640625,-1179.377197265625,-5347.728515625,1182.55615234375,6006.55908203125,6305.37646484375,3205.935302734375,4832.74462890625,-817.7757568359375,5445.48046875,-1258.85009765625,18255.7109375,-1471.83740234375,-0.0,-1699.1297607421875,7776.4189453125,-3024.737060546875,-580.15185546875,1886.6856689453125,7649.2626953125,-4623.73095703125,2791.881591796875,-5625.08935546875,-1635.551513671875,-1079.241455078125,8829.4345703125,-6122.5888671875,-7652.44140625,-4940.033203125,106.4936294555664,596.8411865234375,-5067.189453125,-885.32763671875,266.23406982421875,-5422.43359375,2415.18017578125,853.5385131835938,2057.55224609375,-5676.74658203125,229.6765594482422,0.0,-2233.1875,0.0,-2506.573974609375,-0.0,90.59906005859375
-7175.6044921875,-7329.7822265625,-4835.923828125,1486.9371337890625,2768.83447265625,18494.923828125,-2652.00927734375,1667.340576171875,-1333.5545654296875,5346.93408203125,-6820.36083984375,-5362.82861328125,-3721.714111328125,4104.77294921875,352.06475830078125,-3771.781982421875,-189.9401397705078,1935.1640625,3982.38525390625,15655.359375,2756.913330078125,11509.2587890625,477.63189697265625,14897.982421875,-3507.13720703125,-4379.74951171875,-3120.899169921875,-1204.80859375,-5353.2919921875,1161.8931884765625,5984.30615234375,6281.53466796875,3186.86181640625,4808.90283203125,-843.20703125,5421.638671875,-1281.897216796875,18231.07421875,-1516.3421630859375,-0.0,-1709.461181640625,7750.98779296875,-3062.089111328125,-605.5831909179688,1866.022705078125,7623.8310546875,-4612.6044921875,2767.2451171875,-5639.39404296875,-1663.366943359375,-1086.3939208984375,8804.7978515625,-6148.0205078125,-7665.9521484375,-4947.185546875,77.08867645263672,595.251708984375,-5091.03173828125,-896.453857421875,243.18695068359375,-5451.04345703125,2391.33837890625,829.6966552734375,2033.71044921875,-5692.640625,209.808349609375,0.0,-2243.518798828125,0.0,-2514.521240234375,-0.0,70.73084259033203
-7201.83056640625,-7313.88720703125,-4839.89697265625,1490.1160888671875,2778.37109375,18486.9765625,-2649.625,1663.366943359375,-1341.5018310546875,5342.16552734375,-6822.74462890625,-5369.1865234375,-3721.714111328125,4085.699462890625,352.8594970703125,-3775.755615234375,-193.11904907226562,1933.57470703125,3980.0009765625,15650.5908203125,2755.32421875,11503.6962890625,480.0160827636719,14893.2138671875,-3515.08447265625,-4389.2861328125,-3119.3095703125,-1211.1663818359375,-5359.6494140625,1157.9195556640625,5980.3330078125,6274.38232421875,3183.6826171875,4804.13427734375,-840.8228759765625,5418.45947265625,-1281.1025390625,18227.099609375,-1509.984375,-0.0,-1711.0506591796875,7743.83544921875,-3049.37353515625,-613.5304565429688,1863.6385498046875,7619.06298828125,-4612.6044921875,2770.423828125,-5658.4677734375,-1673.698486328125,-1087.188720703125,8801.619140625,-6169.47802734375,-7671.51513671875,-4953.54296875,68.3466567993164,593.6622314453125,-5084.67333984375,-896.453857421875,236.82911682128906,-5473.2958984375,2389.748779296875,825.7230224609375,2035.300048828125,-5701.38330078125,209.808349609375,0.0,-2249.876708984375,0.0,-2514.521240234375,-0.0,78.67813110351562
-7203.419921875,-7299.58203125,-4846.2548828125,1493.2950439453125,2772.013427734375,18486.181640625,-2658.3671875,1661.7774658203125,-1362.164794921875,5339.78125,-6817.18212890625,-5367.59716796875,-3712.17724609375,4052.321044921875,345.7069396972656,-3779.729248046875,-199.4768829345703,1928.0115966796875,3971.258544921875,15639.4638671875,2748.171630859375,11499.72265625,472.863525390625,14889.240234375,-3527.80029296875,-4386.10693359375,-3125.66748046875,-1211.1663818359375,-5360.4443359375,1159.509033203125,5974.76953125,6269.61376953125,3176.530029296875,4798.5712890625,-845.5912475585938,5414.48583984375,-1289.844482421875,18221.537109375,-1503.62646484375,-0.0,-1720.58740234375,7740.65625,-3052.552490234375,-615.1199340820312,1850.9229736328125,7615.08935546875,-4640.42041015625,2773.602783203125,-5668.798828125,-1677.6719970703125,-1095.135986328125,8800.82421875,-6163.1201171875,-7673.10498046875,-4954.337890625,62.78356170654297,601.6095581054688,-5095.0048828125,-923.474609375,231.26602172851562,-5472.50146484375,2384.185791015625,814.5968017578125,2023.3790283203125,-5702.97265625,208.21888732910156,0.0,-2262.59228515625,0.0,-2522.468505859375,-0.0,81.06231689453125
-7200.2412109375,-7310.70849609375,-4848.63916015625,1498.858154296875,2775.1923828125,18492.541015625,-2657.572509765625,1666.5458984375,-1354.217529296875,5359.6494140625,-6823.53955078125,-5367.59716796875,-3712.971923828125,4072.189453125,344.11749267578125,-3765.424072265625,-199.4768829345703,1928.8062744140625,3973.642822265625,15653.7685546875,2748.171630859375,11503.6962890625,476.04241943359375,14892.4189453125,-3521.4423828125,-4372.5966796875,-3120.899169921875,-1205.603271484375,-5358.85498046875,1157.1248779296875,5973.974609375,6268.8193359375,3177.324951171875,4799.3662109375,-844.7965087890625,5417.6650390625,-1287.4603271484375,18226.3046875,-1494.0897216796875,-0.0,-1719.792724609375,7750.193359375,-3048.578857421875,-611.1463012695312,1854.896484375,7625.4208984375,-4646.7783203125,2779.166015625,-5664.8251953125,-1684.0299072265625,-1094.34130859375,8807.9765625,-6174.24609375,-7687.40966796875,-4952.74853515625,58.80991744995117,604.7884521484375,-5087.0576171875,-921.8851928710938,253.5184326171875,-5482.0380859375,2389.748779296875,819.3651733398438,2040.068359375,-5701.38330078125,207.42416381835938,0.0,-2256.234375,0.0,-2507.368896484375,-0.0,96.9568862915039
-7160.5048828125,-7316.271484375,-4857.38134765625,1491.70556640625,2779.166015625,18486.181640625,-2652.00927734375,1663.366943359375,-1338.322998046875,5365.212890625,-6854.5341796875,-5370.77587890625,-3713.766845703125,4094.44189453125,358.422607421875,-3767.013671875,-200.2716064453125,1929.60107421875,3976.82177734375,15663.3056640625,2745.787353515625,11501.3125,478.4266052246094,14891.6240234375,-3509.521484375,-4374.98095703125,-3115.336181640625,-1207.9874267578125,-5361.23876953125,1149.9722900390625,5970.7958984375,6266.43505859375,3172.556640625,4798.5712890625,-844.0017700195312,5416.0751953125,-1281.1025390625,18225.51171875,-1504.4212646484375,-0.0,-1720.58740234375,7747.0146484375,-3045.39990234375,-611.1463012695312,1862.8438720703125,7624.6259765625,-4646.7783203125,2771.218505859375,-5665.6201171875,-1682.4404296875,-1081.6256103515625,8805.5927734375,-6183.783203125,-7706.4833984375,-4957.51708984375,59.604644775390625,610.3515625,-5079.11083984375,-902.0169677734375,250.33950805664062,-5472.50146484375,2391.33837890625,824.133544921875,2046.426025390625,-5705.3564453125,209.0136260986328,0.0,-2253.0556640625,0.0,-2505.779296875,-0.0,90.59906005859375
-7130.3046875,-7321.03955078125,-4858.970703125,1496.473876953125,2775.98681640625,18489.361328125,-2652.00927734375,1666.5458984375,-1339.912353515625,5353.2919921875,-6870.4287109375,-5373.95458984375,-3734.4296875,4082.52099609375,353.65423583984375,-3767.013671875,-200.2716064453125,1931.9852294921875,3978.4111328125,15654.5634765625,2744.992431640625,11502.90234375,477.63189697265625,14893.2138671875,-3521.4423828125,-4373.3916015625,-3122.48876953125,-1204.80859375,-5371.57080078125,1157.9195556640625,5972.38525390625,6266.43505859375,3170.967041015625,4799.3662109375,-843.20703125,5419.25439453125,-1282.69189453125,18226.3046875,-1533.826171875,-0.0,-1724.56103515625,7749.39892578125,-3046.19482421875,-608.7620849609375,1862.049072265625,7623.03662109375,-4640.42041015625,2777.576416015625,-5676.74658203125,-1671.314208984375,-1085.5992431640625,8806.3876953125,-6168.68359375,-7696.94677734375,-4967.84814453125,65.1677474975586,596.0464477539062,-5065.60009765625,-893.2749633789062,242.39222717285156,-5476.474609375,2392.133056640625,824.133544921875,2038.4788818359375,-5707.74072265625,216.96090698242188,0.0,-2252.260986328125,0.0,-2510.547607421875,-0.0,81.85704803466797
-7153.35205078125,-7336.1396484375,-4864.53369140625,1494.884521484375,2773.602783203125,18483.796875,-2655.188232421875,1661.7774658203125,-1342.296630859375,5358.060546875,-6854.5341796875,-5376.3388671875,-3743.96630859375,4068.2158203125,350.4753112792969,-3769.397705078125,-205.83470153808594,1931.1904296875,3976.82177734375,15656.15234375,2741.01904296875,11497.337890625,476.04241943359375,14888.4462890625,-3529.3896484375,-4392.46533203125,-3124.872802734375,-1209.576904296875,-5377.1337890625,1153.151123046875,5968.412109375,6263.255859375,3166.993408203125,4794.59765625,-845.5912475585938,5414.48583984375,-1285.076171875,18223.126953125,-1518.726318359375,-0.0,-1729.3294677734375,7739.06689453125,-3047.7841796875,-613.5304565429688,1861.25439453125,7620.65283203125,-4646.7783203125,2774.397705078125,-5679.92529296875,-1674.4931640625,-1085.5992431640625,8800.82421875,-6173.45166015625,-7685.02587890625,-4972.61669921875,57.220458984375,580.15185546875,-5070.3681640625,-888.506591796875,243.98167419433594,-5488.3955078125,2388.159423828125,823.3388061523438,2023.3790283203125,-5716.482421875,209.808349609375,0.0,-2256.234375,0.0,-2511.34228515625,-0.0,84.2412338256836
-7158.9150390625,-7334.55029296875,-4835.923828125,1500.4476318359375,2795.060302734375,18502.076171875,-2636.909423828125,1682.4404296875,-1324.8125,5384.28662109375,-6817.18212890625,-5353.2919921875,-3720.12451171875,4089.673583984375,371.9329833984375,-3753.503173828125,-188.35067749023438,1950.263916015625,3995.8955078125,15677.6103515625,2760.092529296875,11514.02734375,495.91064453125,14906.7236328125,-3507.931884765625,-4376.5703125,-3105.79931640625,-1189.708740234375,-5368.3916015625,1165.8668212890625,5989.86962890625,6277.56103515625,3186.06689453125,4812.08203125,-826.5177612304688,5433.5595703125,-1268.3868408203125,18242.201171875,-1517.136962890625,-0.0,-1707.0770263671875,7754.1669921875,-3030.300048828125,-595.251708984375,1877.14892578125,7645.2890625,-4616.57861328125,2779.166015625,-5662.44140625,-1660.9827880859375,-1068.115234375,8820.693359375,-6159.94140625,-7658.7998046875,-4963.080078125,77.8833999633789,600.8148193359375,-5056.85791015625,-890.0960083007812,273.3866271972656,-5476.474609375,2408.027587890625,842.4122924804688,2044.8367919921875,-5697.4091796875,223.31874084472656,0.0,-2236.3662109375,0.0,-2486.705810546875,-0.0,108.87781524658203
-7159.7099609375,-7328.9873046875,-4840.69189453125,1498.0634765625,2795.060302734375,18506.05078125,-2637.7041015625,1686.4140625,-1327.19677734375,5389.0546875,-6821.9501953125,-5346.93408203125,-3723.303466796875,4102.388671875,363.9856872558594,-3745.555908203125,-189.14540100097656,1953.44287109375,3995.1005859375,15678.40625,2762.4765625,11515.6171875,495.91064453125,14909.9033203125,-3509.521484375,-4370.21240234375,-3109.77294921875,-1183.3509521484375,-5367.59716796875,1171.429931640625,5990.6640625,6278.35595703125,3187.656494140625,4810.4921875,-826.5177612304688,5437.53271484375,-1269.181640625,18245.37890625,-1519.5211181640625,-0.0,-1710.2559814453125,7758.935546875,-3031.8896484375,-590.4833374023438,1872.380615234375,7648.4677734375,-4627.70458984375,2775.98681640625,-5666.41455078125,-1654.625,-1075.267822265625,8828.6396484375,-6151.994140625,-7650.85205078125,-4964.669921875,89.00960540771484,596.0464477539062,-5051.294921875,-905.9906005859375,277.36029052734375,-5473.2958984375,2408.027587890625,841.6175537109375,2054.37353515625,-5697.4091796875,230.47129821777344,0.0,-2232.392578125,0.0,-2481.142822265625,-0.0,116.82510375976562
-7171.630859375,-7302.76123046875,-4845.46044921875,1499.65283203125,2791.0869140625,18507.638671875,-2640.08837890625,1692.77197265625,-1317.6600341796875,5411.306640625,-6843.408203125,-5342.96044921875,-3734.4296875,4121.46240234375,340.1438293457031,-3733.635009765625,-189.14540100097656,1955.0323486328125,3995.8955078125,15695.890625,2760.88720703125,11516.412109375,494.3211669921875,14913.08203125,-3511.111083984375,-4363.85498046875,-3120.899169921875,-1174.60888671875,-5362.82861328125,1174.60888671875,5990.6640625,6275.1767578125,3186.86181640625,4812.08203125,-828.107177734375,5438.32763671875,-1269.976318359375,18247.76171875,-1527.4683837890625,-0.0,-1711.845458984375,7760.52490234375,-3034.27392578125,-585.7149658203125,1873.17529296875,7656.41552734375,-4630.8837890625,2779.166015625,-5668.00439453125,-1649.8565673828125,-1096.7254638671875,8836.5869140625,-6145.63623046875,-7649.2626953125,-4959.1064453125,88.21487426757812,588.0991821289062,-5039.3740234375,-907.580078125,286.102294921875,-5470.1171875,2408.822265625,847.9754028320312,2078.21533203125,-5696.61474609375,235.2396697998047,0.0,-2228.4189453125,0.0,-2462.864013671875,-0.0,142.2564239501953
-7205.80419921875,-7274.94580078125,-4831.94970703125,1507.6002197265625,2804.59716796875,18519.560546875,-2625.783203125,1707.871826171875,-1296.9970703125,5434.3544921875,-6853.7392578125,-5331.83447265625,-3721.714111328125,4132.5888671875,360.0120544433594,-3712.971923828125,-181.1981201171875,1964.569091796875,4009.405517578125,15719.732421875,2771.218505859375,11525.154296875,505.4473876953125,14925.0029296875,-3488.8583984375,-4351.13916015625,-3108.18359375,-1160.3037109375,-5351.7021484375,1183.3509521484375,5998.611328125,6280.740234375,3195.603515625,4821.61865234375,-816.9810180664062,5447.86474609375,-1256.4659423828125,18261.2734375,-1507.6002197265625,-0.0,-1693.566650390625,7769.2666015625,-3019.173828125,-572.9993286132812,1892.248779296875,7674.69384765625,-4605.4521484375,2786.318603515625,-5657.6728515625,-1639.5250244140625,-1078.44677734375,8851.6875,-6144.841796875,-7638.93115234375,-4946.390625,93.7779769897461,603.9937133789062,-5029.8369140625,-884.532958984375,297.2284851074219,-5457.4013671875,2419.948486328125,864.6647338867188,2087.752197265625,-5688.66748046875,246.36587524414062,0.0,-2226.82958984375,0.0,-2453.3271484375,-0.0,140.66696166992188
-7203.419921875,-7267.79296875,-4809.69775390625,1517.931640625,2818.107666015625,18525.919921875,-2617.8359375,1707.871826171875,-1291.4339599609375,5427.99609375,-6832.28173828125,-5327.8603515625,-3703.435302734375,4130.9990234375,381.4697265625,-3724.892822265625,-168.4824676513672,1973.3111572265625,4014.96875,15719.732421875,2783.934326171875,11533.896484375,514.1893920898438,14930.5654296875,-3472.169189453125,-4339.21826171875,-3092.2890625,-1160.3037109375,-5339.78125,1188.9139404296875,6008.94287109375,6292.6611328125,3209.114013671875,4830.3603515625,-806.6495361328125,5454.22216796875,-1248.5185546875,18264.451171875,-1476.605712890625,-0.0,-1676.8773193359375,7780.39306640625,-3010.431884765625,-571.4098510742188,1897.8118896484375,7673.8994140625,-4614.1943359375,2795.855224609375,-5643.36767578125,-1628.39892578125,-1058.5784912109375,8850.09765625,-6159.94140625,-7630.98388671875,-4932.88037109375,78.67813110351562,614.3251953125,-5036.1953125,-871.8172607421875,292.4601135253906,-5448.6591796875,2425.51171875,868.6383666992188,2085.367919921875,-5685.48828125,252.72369384765625,0.0,-2230.00830078125,0.0,-2475.57958984375,-0.0,120.79874420166016
-7138.25244140625,-7276.53515625,-4820.82373046875,1521.9052734375,2809.365478515625,18522.740234375,-2624.988525390625,1699.1297607421875,-1308.91796875,5408.12841796875,-6809.234375,-5327.06591796875,-3717.740234375,4110.33642578125,372.72772216796875,-3736.813720703125,-166.89300537109375,1970.927001953125,4007.81640625,15700.6591796875,2779.166015625,11534.6904296875,509.4210510253906,14925.7978515625,-3488.063720703125,-4340.8076171875,-3097.85205078125,-1169.8404541015625,-5338.98681640625,1192.8876953125,6005.76416015625,6298.22412109375,3207.524658203125,4833.53955078125,-810.6231689453125,5451.837890625,-1258.0552978515625,18259.68359375,-1482.963623046875,-0.0,-1689.593017578125,7781.1875,-3016.789794921875,-576.17822265625,1889.0699462890625,7665.1572265625,-4614.98876953125,2799.828857421875,-5643.36767578125,-1631.577880859375,-1064.936279296875,8839.7666015625,-6134.51025390625,-7630.98388671875,-4933.67529296875,83.44650268554688,600.8148193359375,-5039.3740234375,-882.9434814453125,298.8179626464844,-5441.5068359375,2419.948486328125,857.5121459960938,2090.930908203125,-5671.97802734375,255.10787963867188,0.0,-2206.16650390625,0.0,-2450.94287109375,-0.0,142.2564239501953
-7127.1259765625,-7294.8134765625,-4835.12890625,1506.805419921875,2793.47119140625,18510.0234375,-2642.472412109375,1683.235107421875,-1331.17041015625,5383.49169921875,-6813.2080078125,-5338.19189453125,-3732.04541015625,4099.21044921875,350.4753112792969,-3746.3505859375,-180.4033966064453,1955.8270263671875,3991.126953125,15677.6103515625,2764.06591796875,11522.76953125,491.9369812011719,14909.9033203125,-3507.13720703125,-4353.5234375,-3115.336181640625,-1184.9403076171875,-5350.11279296875,1177.787841796875,5990.6640625,6282.32958984375,3194.014404296875,4821.61865234375,-828.107177734375,5438.32763671875,-1274.74462890625,18242.201171875,-1510.779052734375,-0.0,-1707.0770263671875,7768.47216796875,-3035.86328125,-590.4833374023438,1869.20166015625,7644.49462890625,-4621.34716796875,2786.318603515625,-5658.4677734375,-1647.472412109375,-1086.3939208984375,8823.8720703125,-6133.71533203125,-7646.87890625,-4945.59619140625,92.18851470947266,588.8939208984375,-5056.06298828125,-902.8117065429688,278.1549987792969,-5454.22216796875,2405.6435546875,839.2333984375,2078.21533203125,-5682.3095703125,239.2133026123047,0.0,-2225.239990234375,0.0,-2466.042724609375,-0.0,135.89859008789062
-7166.0673828125,-7312.2978515625,-4855.79150390625,1487.73193359375,2773.602783203125,18494.923828125,-2658.3671875,1669.724853515625,-1343.09130859375,5369.1865234375,-6829.8974609375,-5356.470703125,-3737.608642578125,4096.03125,344.11749267578125,-3757.476806640625,-198.68214416503906,1939.1378173828125,3974.437744140625,15660.9208984375,2745.787353515625,11503.6962890625,473.6582336425781,14894.0087890625,-3526.210693359375,-4371.8017578125,-3128.846435546875,-1197.656005859375,-5365.212890625,1153.151123046875,5973.974609375,6263.255859375,3175.7353515625,4802.544921875,-846.385986328125,5423.22802734375,-1290.6392822265625,18225.51171875,-1519.5211181640625,-0.0,-1728.53466796875,7753.3720703125,-3053.347412109375,-607.1726684570312,1854.896484375,7629.39453125,-4642.8046875,2767.2451171875,-5681.5146484375,-1664.9564208984375,-1093.5465087890625,8812.7451171875,-6169.47802734375,-7673.10498046875,-4958.3115234375,77.8833999633789,590.4833374023438,-5069.57373046875,-909.9642333984375,256.69732666015625,-5470.1171875,2388.9541015625,824.133544921875,2052.783935546875,-5704.5615234375,222.5240020751953,0.0,-2238.75048828125,0.0,-2487.50048828125,-0.0,113.64618682861328
-7176.3994140625,-7307.529296875,-4852.61279296875,1501.2423095703125,2780.75537109375,18499.693359375,-2654.3935546875,1672.9036865234375,-1342.296630859375,5366.00732421875,-6825.12890625,-5351.7021484375,-3733.635009765625,4100.7998046875,354.4489440917969,-3750.32421875,-192.32432556152344,1944.7008056640625,3979.2060546875,15657.7431640625,2750.5556640625,11511.6435546875,479.2213439941406,14900.3671875,-3519.852783203125,-4363.06005859375,-3120.899169921875,-1188.1192626953125,-5362.03369140625,1160.3037109375,5981.12744140625,6271.20361328125,3181.298583984375,4808.90283203125,-840.8228759765625,5427.99609375,-1285.870849609375,18230.279296875,-1510.779052734375,-0.0,-1722.1768798828125,7761.31982421875,-3045.39990234375,-600.0200805664062,1858.8701171875,7630.189453125,-4641.21484375,2779.960693359375,-5675.1572265625,-1670.51953125,-1082.42041015625,8818.30859375,-6151.19921875,-7681.8466796875,-4953.54296875,75.49921417236328,595.251708984375,-5062.42138671875,-904.401123046875,252.72369384765625,-5461.375,2392.133056640625,825.7230224609375,2049.605224609375,-5700.58837890625,236.03439331054688,0.0,-2235.571533203125,0.0,-2489.884521484375,-0.0,109.67254638671875
-7154.94140625,-7301.171875,-4847.8447265625,1517.136962890625,2791.0869140625,18513.203125,-2646.4462890625,1685.619384765625,-1331.965087890625,5376.3388671875,-6822.74462890625,-5339.78125,-3716.945556640625,4101.59423828125,363.9856872558594,-3732.84033203125,-181.9928436279297,1956.621826171875,3988.742919921875,15666.484375,2760.88720703125,11524.359375,490.3475646972656,14912.2880859375,-3508.726806640625,-4340.01318359375,-3112.1572265625,-1174.60888671875,-5354.08642578125,1163.482666015625,5992.25390625,6283.9189453125,3190.04052734375,4824.79736328125,-829.6966552734375,5439.9169921875,-1274.74462890625,18241.40625,-1494.884521484375,-0.0,-1711.845458984375,7778.80322265625,-3037.45263671875,-585.7149658203125,1867.6121826171875,7639.72607421875,-4633.26806640625,2795.855224609375,-5669.59375,-1661.7774658203125,-1074.4730224609375,8830.2294921875,-6125.76806640625,-7673.8994140625,-4948.77490234375,76.2939453125,600.8148193359375,-5047.3212890625,-896.453857421875,271.00244140625,-5453.427734375,2403.25927734375,833.6702880859375,2060.731201171875,-5691.84619140625,247.955322265625,0.0,-2223.650634765625,0.0,-2473.990234375,-0.0,120.00402069091797
-7177.1943359375,-7309.91357421875,-4834.333984375,1517.931640625,2791.0869140625,18510.0234375,-2647.240966796875,1683.235107421875,-1331.965087890625,5379.51806640625,-6841.818359375,-5338.19189453125,-3720.12451171875,4103.978515625,360.0120544433594,-3736.01904296875,-186.76121520996094,1953.44287109375,3986.358642578125,15669.6640625,2762.4765625,11520.3857421875,490.3475646972656,14909.1083984375,-3507.931884765625,-4346.37060546875,-3112.951904296875,-1186.52978515625,-5351.7021484375,1157.9195556640625,5989.86962890625,6277.56103515625,3191.630126953125,4820.02880859375,-830.4913940429688,5435.14892578125,-1277.1287841796875,18239.021484375,-1519.5211181640625,-0.0,-1707.871826171875,7772.44580078125,-3038.247314453125,-592.8675537109375,1866.8175048828125,7640.5205078125,-4626.115234375,2795.855224609375,-5665.6201171875,-1648.26708984375,-1080.0361328125,8824.666015625,-6133.71533203125,-7665.9521484375,-4946.390625,81.85704803466797,597.6359252929688,-5043.34765625,-902.0169677734375,272.5919189453125,-5466.14306640625,2400.080322265625,832.080810546875,2068.6787109375,-5691.05126953125,238.4185791015625,0.0,-2226.034912109375,0.0,-2471.60595703125,-0.0,121.59347534179688
-7208.1884765625,-7331.37109375,-4831.1552734375,1518.726318359375,2791.881591796875,18507.638671875,-2646.4462890625,1680.8509521484375,-1328.7862548828125,5382.69677734375,-6856.12353515625,-5338.98681640625,-3719.329833984375,4104.77294921875,366.369873046875,-3738.4033203125,-187.5559539794922,1953.44287109375,3987.947998046875,15673.6376953125,2761.681884765625,11518.7958984375,490.3475646972656,14905.9296875,-3507.13720703125,-4352.728515625,-3110.56787109375,-1188.9139404296875,-5354.08642578125,1158.71435546875,5988.27978515625,6278.35595703125,3191.630126953125,4817.64453125,-830.4913940429688,5431.97021484375,-1275.5394287109375,18239.81640625,-1504.4212646484375,-0.0,-1707.871826171875,7771.65087890625,-3035.86328125,-594.4569702148438,1869.9964599609375,7640.5205078125,-4622.93603515625,2799.828857421875,-5662.44140625,-1652.24072265625,-1071.294189453125,8824.666015625,-6159.94140625,-7661.18359375,-4948.77490234375,89.80432891845703,602.404296875,-5054.4736328125,-899.6327514648438,269.4129943847656,-5464.5537109375,2397.6962890625,835.259765625,2071.062744140625,-5692.640625,234.44493103027344,0.0,-2231.597900390625,0.0,-2480.347900390625,-0.0,121.59347534179688
-7212.162109375,-7331.37109375,-4835.923828125,1512.3685302734375,2792.67626953125,18508.43359375,-2645.651611328125,1676.8773193359375,-1327.991455078125,5386.67041015625,-6847.3818359375,-5339.78125,-3716.15087890625,4107.1572265625,372.72772216796875,-3752.70849609375,-188.35067749023438,1950.263916015625,3983.974365234375,15679.201171875,2759.297607421875,11515.6171875,486.3739013671875,14903.544921875,-3507.931884765625,-4356.7021484375,-3108.18359375,-1192.0928955078125,-5351.7021484375,1169.8404541015625,5984.30615234375,6280.740234375,3189.245849609375,4816.85009765625,-832.080810546875,5427.99609375,-1276.3341064453125,18234.25390625,-1506.0106201171875,-0.0,-1709.461181640625,7770.0615234375,-3035.068603515625,-596.0464477539062,1869.9964599609375,7636.546875,-4609.42578125,2791.0869140625,-5660.05712890625,-1644.29345703125,-1064.1416015625,8817.513671875,-6178.22021484375,-7653.236328125,-4947.185546875,88.21487426757812,611.1463012695312,-5064.8056640625,-896.453857421875,267.02880859375,-5448.6591796875,2394.51708984375,836.0545043945312,2075.036376953125,-5693.435546875,236.82911682128906,0.0,-2233.1875,0.0,-2479.55322265625,-0.0,124.77238464355469
-7215.34130859375,-7317.86083984375,-4834.333984375,1511.57373046875,2794.265625,18510.818359375,-2640.88330078125,1684.0299072265625,-1320.044189453125,5393.8232421875,-6833.87158203125,-5335.8076171875,-3705.8193359375,4119.078125,371.9329833984375,-3753.503173828125,-181.9928436279297,1955.0323486328125,3989.53759765625,15687.1474609375,2763.271240234375,11521.9755859375,491.14227294921875,14907.51953125,-3505.5478515625,-4355.9072265625,-3104.2099609375,-1184.9403076171875,-5351.7021484375,1187.324462890625,5990.6640625,6284.7138671875,3191.630126953125,4820.02880859375,-827.3125,5433.5595703125,-1270.77099609375,18239.81640625,-1495.67919921875,-0.0,-1706.2822265625,7772.44580078125,-3030.300048828125,-592.0728149414062,1877.14892578125,7643.69970703125,-4616.57861328125,2790.2919921875,-5660.05712890625,-1641.1146240234375,-1066.5257568359375,8822.2822265625,-6198.8828125,-7642.1103515625,-4945.59619140625,91.39379119873047,613.5304565429688,-5055.2685546875,-886.9171142578125,268.6182556152344,-5443.09619140625,2400.875,841.6175537109375,2079.010009765625,-5695.81982421875,241.5974884033203,0.0,-2230.80322265625,0.0,-2474.784912109375,-0.0,130.3354949951172
-7213.75146484375,-7304.3505859375,-4835.12890625,1504.4212646484375,2790.2919921875,18506.05078125,-2643.267333984375,1683.235107421875,-1321.6336669921875,5389.84912109375,-6831.4873046875,-5347.728515625,-3723.303466796875,4119.873046875,367.16461181640625,-3748.734619140625,-186.76121520996094,1953.44287109375,3987.153564453125,15684.7626953125,2760.092529296875,11519.591796875,487.9633483886719,14905.134765625,-3511.90576171875,-4361.470703125,-3112.1572265625,-1187.324462890625,-5361.23876953125,1190.50341796875,5987.4853515625,6279.150390625,3188.451171875,4816.05517578125,-829.6966552734375,5433.5595703125,-1273.1552734375,18239.021484375,-1517.931640625,-0.0,-1711.0506591796875,7765.29296875,-3035.068603515625,-596.0464477539062,1872.380615234375,7642.90478515625,-4610.22021484375,2783.139404296875,-5668.00439453125,-1648.26708984375,-1071.294189453125,8823.8720703125,-6191.73046875,-7648.4677734375,-4953.54296875,77.08867645263672,603.9937133789062,-5062.42138671875,-890.0960083007812,263.8498840332031,-5459.78564453125,2399.28564453125,839.2333984375,2069.47314453125,-5705.3564453125,235.2396697998047,0.0,-2237.160888671875,0.0,-2482.732177734375,-0.0,124.77238464355469
-7199.4462890625,-7324.21875,-4856.58642578125,1482.963623046875,2774.397705078125,18484.591796875,-2662.3408203125,1657.8038330078125,-1343.09130859375,5369.9814453125,-6847.3818359375,-5377.1337890625,-3740.78759765625,4093.64697265625,353.65423583984375,-3767.013671875,-208.21888732910156,1935.9588623046875,3965.69580078125,15660.9208984375,2742.6083984375,11498.927734375,470.4793395996094,14883.677734375,-3524.621337890625,-4382.13330078125,-3129.641357421875,-1209.576904296875,-5375.5439453125,1155.535400390625,5969.20654296875,6259.28271484375,3170.17236328125,4794.59765625,-847.1806640625,5412.1015625,-1293.0234375,18216.767578125,-1537.7998046875,-0.0,-1726.1505126953125,7743.04052734375,-3053.347412109375,-619.8883056640625,1850.9229736328125,7619.85791015625,-4643.59912109375,2765.655517578125,-5679.13037109375,-1674.4931640625,-1085.5992431640625,8796.8515625,-6177.42529296875,-7677.873046875,-4968.64306640625,41.32588577270508,596.8411865234375,-5092.62109375,-915.52734375,249.54476928710938,-5499.52197265625,2379.41748046875,817.7757568359375,2048.015625,-5718.072265625,209.808349609375,0.0,-2258.61865234375,0.0,-2497.83203125,-0.0,107.28836059570312
-7180.37255859375,-7325.013671875,-4853.4072265625,1488.5267333984375,2784.72900390625,18493.333984375,-2652.80419921875,1671.314208984375,-1333.5545654296875,5385.87548828125,-6845.79248046875,-5368.3916015625,-3722.5087890625,4107.9521484375,357.62786865234375,-3755.092529296875,-200.2716064453125,1944.7008056640625,3976.027099609375,15675.2265625,2752.14501953125,11507.669921875,480.810791015625,14894.802734375,-3515.87939453125,-4374.18603515625,-3120.899169921875,-1197.656005859375,-5362.82861328125,1149.177490234375,5981.92236328125,6265.64013671875,3177.324951171875,4804.13427734375,-838.4386596679688,5422.43359375,-1282.69189453125,18227.896484375,-1525.87890625,-0.0,-1715.8189697265625,7751.78271484375,-3044.605224609375,-608.7620849609375,1860.459716796875,7632.57373046875,-4657.10986328125,2768.83447265625,-5668.798828125,-1664.16162109375,-1081.6256103515625,8810.361328125,-6168.68359375,-7680.25732421875,-4957.51708984375,61.98883056640625,611.1463012695312,-5079.9052734375,-906.7853393554688,261.4656982421875,-5498.7275390625,2388.9541015625,828.9019165039062,2068.6787109375,-5708.53564453125,209.808349609375,0.0,-2245.1083984375,0.0,-2485.1162109375,-0.0,127.15657043457031
