-12273.7880859375,-12018.6806640625,-3682.7724609375,2171.198486328125,2954.006103515625,20786.919921875,-1871.5858154296875,3491.24267578125,-2868.97021484375,4374.98095703125,-7452.96484375,-5154.60986328125,-4943.2119140625,3283.02392578125,1100.6990966796875,-3039.042236328125,-42.91534423828125,3700.25634765625,5214.21435546875,17037.392578125,3367.264892578125,12959.6396484375,2150.53564453125,16559.759765625,-5337.39697265625,-5656.08349609375,-3312.4287109375,-974.3372802734375,-6171.06787109375,1168.2509765625,6171.06787109375,7344.88134765625,4020.5322265625,5259.513671875,797.9075317382812,6163.1201171875,-491.14227294921875,20145.57421875,-1998.7423095703125,-0.0,-1622.8358154296875,9743.373046875,-1835.0283203125,352.8594970703125,2032.1209716796875,9401.638671875,-5402.56494140625,3426.074951171875,-5144.27783203125,-468.09515380859375,-354.4489440917969,10446.7080078125,-13929.2080078125,-14648.4375,-5801.51904296875,-1601.3780517578125,1.5894571542739868,-6008.1484375,-1671.314208984375,-240.00804138183594,-8783.3408203125,3821.05517578125,1260.4395751953125,1406.669677734375,-5284.94482421875,991.8212890625,0.0,-2634.525390625,0.0,-1725.355712890625,-0.0,-438.690185546875
-12254.71484375,-12048.880859375,-3667.67236328125,2183.11962890625,2972.284912109375,20813.146484375,-1856.4859619140625,3515.87939453125,-2853.870361328125,4387.69677734375,-7441.8388671875,-5141.099609375,-4944.00634765625,3302.89208984375,1114.20947265625,-2996.126953125,-23.047128677368164,3718.53515625,5230.10888671875,17052.4921875,3383.954345703125,12979.5078125,2167.224853515625,16579.62890625,-5313.55517578125,-5633.0361328125,-3293.355224609375,-936.1903076171875,-6163.1201171875,1192.8876953125,6186.9619140625,7355.21337890625,4034.04248046875,5276.203125,813.00732421875,6183.783203125,-472.06878662109375,20166.23828125,-1993.9739990234375,-0.0,-1605.351806640625,9769.5986328125,-1817.5443115234375,383.0591735839844,2048.810302734375,9419.91796875,-5395.41259765625,3434.022216796875,-5125.99951171875,-437.89544677734375,-341.7333068847656,10479.291015625,-13938.744140625,-14656.384765625,-5792.7763671875,-1587.86767578125,5.563100337982178,-5984.30615234375,-1657.8038330078125,-249.54476928710938,-8769.03515625,3836.94970703125,1277.1287841796875,1424.9483642578125,-5284.150390625,1019.6367797851562,0.0,-2650.419921875,0.0,-1727.739990234375,-0.0,-431.5376281738281
-12263.45703125,-12094.1796875,-3650.983154296875,2205.371826171875,2985.00048828125,20828.24609375,-1844.5650634765625,3529.3896484375,-2845.923095703125,4390.0810546875,-7459.322265625,-5141.099609375,-4924.138671875,3310.83935546875,1133.282958984375,-2976.258544921875,-10.33147144317627,3725.687744140625,5237.26123046875,17058.849609375,3393.490966796875,12992.22265625,2176.76171875,16591.548828125,-5288.9189453125,-5609.1943359375,-3271.8974609375,-921.0904541015625,-6152.78857421875,1185.735107421875,6196.4990234375,7359.9814453125,4045.16845703125,5288.1240234375,822.5440673828125,6194.11474609375,-462.53204345703125,20174.98046875,-1989.20556640625,-0.0,-1589.4571533203125,9792.6455078125,-1804.033935546875,394.9801025390625,2057.55224609375,9427.865234375,-5377.1337890625,3453.095703125,-5106.130859375,-441.0743713378906,-322.6598205566406,10497.5703125,-13926.8232421875,-14695.3271484375,-5782.4453125,-1593.430908203125,34.1733283996582,-5962.8486328125,-1650.6513671875,-249.54476928710938,-8775.3935546875,3845.691650390625,1285.076171875,1444.0218505859375,-5284.94482421875,1016.4578857421875,0.0,-2644.856689453125,0.0,-1725.355712890625,-0.0,-422.7956237792969
-12249.15234375,-12079.080078125,-3627.141357421875,2226.034912109375,2987.384765625,20817.12109375,-1845.35986328125,3507.931884765625,-2853.870361328125,4375.77587890625,-7475.21728515625,-5139.509765625,-4910.6279296875,3305.276123046875,1134.07763671875,-3022.35302734375,-4.76837158203125,3728.86669921875,5230.90380859375,17045.33984375,3400.6435546875,12991.4287109375,2173.582763671875,16583.6015625,-5272.2294921875,-5587.73681640625,-3276.666015625,-959.2374267578125,-6156.7626953125,1172.224609375,6201.26708984375,7367.92919921875,4053.11572265625,5293.6875,827.3125,6187.7568359375,-464.1214904785156,20163.05859375,-2002.716064453125,-0.0,-1575.152099609375,9795.029296875,-1804.033935546875,372.72772216796875,2056.757568359375,9414.35546875,-5337.39697265625,3480.11669921875,-5102.95263671875,-470.4793395996094,-322.6598205566406,10462.6015625,-13919.6708984375,-14705.658203125,-5788.00830078125,-1641.9093017578125,38.14697265625,-5963.6435546875,-1635.551513671875,-232.85548400878906,-8767.4453125,3843.3076171875,1277.1287841796875,1447.2008056640625,-5286.53466796875,1003.7421875,0.0,-2606.709716796875,0.0,-1710.2559814453125,-0.0,-416.4377746582031
-12216.568359375,-12029.01171875,-3586.610107421875,2230.80322265625,2998.510986328125,20809.173828125,-1839.796630859375,3503.95849609375,-2857.04931640625,4368.623046875,-7443.42822265625,-5123.615234375,-4916.98583984375,3283.02392578125,1134.8724365234375,-3058.11572265625,8.74201488494873,3735.224365234375,5234.08251953125,17032.623046875,3414.94873046875,12994.607421875,2181.530029296875,16584.396484375,-5250.77197265625,-5619.52587890625,-3279.844970703125,-965.59521484375,-6145.63623046875,1202.4244384765625,6210.80419921875,7382.23388671875,4072.984130859375,5300.044921875,839.2333984375,6187.7568359375,-457.763671875,20164.6484375,-1998.7423095703125,-0.0,-1553.6943359375,9779.9296875,-1799.2655029296875,368.7540588378906,2059.141845703125,9411.17578125,-5267.46142578125,3489.6533203125,-5095.7998046875,-472.06878662109375,-321.0703430175781,10450.6806640625,-13914.90234375,-14660.3583984375,-5776.88232421875,-1633.9620361328125,14.30511474609375,-5980.3330078125,-1629.98828125,-233.65020751953125,-8751.5517578125,3848.87060546875,1274.74462890625,1413.8221435546875,-5284.150390625,1021.2262573242188,0.0,-2578.894287109375,0.0,-1700.71923828125,-0.0,-426.7692565917969
-12194.3154296875,-12003.5810546875,-3605.68359375,2232.392578125,2993.74267578125,20811.55859375,-1841.38623046875,3506.342529296875,-2865.791259765625,4377.365234375,-7420.380859375,-5114.87353515625,-4905.859375,3271.8974609375,1134.8724365234375,-3041.426513671875,12.715657234191895,3735.224365234375,5235.671875,17031.828125,3410.97509765625,12994.607421875,2183.11962890625,16584.396484375,-5267.46142578125,-5637.01025390625,-3275.871337890625,-963.2110595703125,-6140.86767578125,1226.2662353515625,6210.00927734375,7391.77099609375,4069.80517578125,5300.83984375,836.0545043945312,6189.34619140625,-458.55841064453125,20167.033203125,-1986.0267333984375,-0.0,-1564.8206787109375,9774.3671875,-1799.2655029296875,374.3171691894531,2056.757568359375,9413.5595703125,-5327.06591796875,3489.6533203125,-5100.568359375,-450.6111145019531,-321.0703430175781,10453.8603515625,-13934.771484375,-14628.5693359375,-5770.5244140625,-1589.4571533203125,26.226043701171875,-5962.8486328125,-1641.1146240234375,-212.9872589111328,-8734.8623046875,3846.486328125,1277.1287841796875,1403.49072265625,-5288.9189453125,1026.789306640625,0.0,-2578.894287109375,0.0,-1687.208740234375,-0.0,-420.41143798828125
-12236.435546875,-12024.2431640625,-3635.088623046875,2222.06103515625,2979.4375,20805.994140625,-1848.5386962890625,3501.57421875,-2870.5595703125,4369.41748046875,-7437.86474609375,-5124.41015625,-4913.80712890625,3259.9765625,1133.282958984375,-3043.810546875,1.5894571542739868,3725.687744140625,5226.93017578125,17026.265625,3394.285888671875,12982.6865234375,2169.609130859375,16575.654296875,-5296.0712890625,-5644.16259765625,-3283.818603515625,-966.3899536132812,-6146.43115234375,1224.6767578125,6195.7041015625,7382.23388671875,4054.705078125,5291.30322265625,824.133544921875,6179.8095703125,-467.3004150390625,20161.470703125,-1988.410888671875,-0.0,-1587.86767578125,9765.625,-1809.5970458984375,367.16461181640625,2051.9892578125,9404.818359375,-5342.96044921875,3476.9375,-5110.8994140625,-451.4058532714844,-322.6598205566406,10448.296875,-13941.12890625,-14623.80078125,-5776.88232421875,-1568.794189453125,27.815500259399414,-5966.02783203125,-1645.8829345703125,-232.0607452392578,-8745.193359375,3832.18115234375,1267.592041015625,1410.6431884765625,-5276.998046875,1010.894775390625,0.0,-2605.9150390625,0.0,-1708.66650390625,-0.0,-437.1007385253906
-12303.193359375,-12076.6953125,-3647.009521484375,2194.24560546875,2955.595703125,20782.947265625,-1875.5594482421875,3481.705810546875,-2879.3017578125,4350.34423828125,-7478.39599609375,-5137.12548828125,-4950.36474609375,3273.487060546875,1082.42041015625,-3059.705078125,-18.278757095336914,3704.22998046875,5204.677734375,17013.55078125,3368.059814453125,12961.228515625,2144.97265625,16554.990234375,-5315.939453125,-5667.20947265625,-3315.607666015625,-980.6951293945312,-6171.06787109375,1207.1927490234375,6172.6572265625,7358.39208984375,4034.837158203125,5268.255859375,798.7022705078125,6156.7626953125,-495.1159362792969,20140.806640625,-2004.3055419921875,-0.0,-1609.325439453125,9743.373046875,-1836.6177978515625,347.29638671875,2024.1737060546875,9387.333984375,-5332.62890625,3449.1220703125,-5136.3310546875,-474.4529724121094,-373.5224304199219,10432.40234375,-13976.8916015625,-14633.337890625,-5802.3134765625,-1583.099365234375,-7.9472856521606445,-5985.8955078125,-1698.3350830078125,-255.10787963867188,-8778.572265625,3809.13427734375,1250.90283203125,1392.364501953125,-5296.86572265625,987.0529174804688,0.0,-2628.962158203125,0.0,-1738.8662109375,-0.0,-466.50567626953125
-12273.7880859375,-12082.2587890625,-3627.141357421875,2211.729736328125,2977.053466796875,20803.609375,-1858.075439453125,3496.805908203125,-2866.5859375,4353.5234375,-7452.96484375,-5104.5419921875,-4937.64892578125,3290.970947265625,1095.9306640625,-3044.605224609375,2.384185791015625,3726.482421875,5222.9560546875,17019.90625,3388.72265625,12981.09765625,2165.63525390625,16574.064453125,-5289.71337890625,-5647.34130859375,-3294.150146484375,-962.4163208007812,-6157.55712890625,1239.776611328125,6194.11474609375,7382.23388671875,4056.294921875,5290.50830078125,821.7493896484375,6176.63037109375,-476.04241943359375,20157.49609375,-1998.7423095703125,-0.0,-1585.4835205078125,9760.8564453125,-1815.16015625,364.7804260253906,2040.863037109375,9400.8447265625,-5323.091796875,3466.606201171875,-5117.2578125,-454.5847473144531,-360.0120544433594,10441.1435546875,-13908.5458984375,-14603.9326171875,-5788.00830078125,-1564.02587890625,-0.7947285771369934,-5964.43798828125,-1684.0299072265625,-236.82911682128906,-8776.982421875,3827.412841796875,1264.4132080078125,1394.7486572265625,-5276.203125,1018.8421020507812,0.0,-2603.53076171875,0.0,-1715.0242919921875,-0.0,-456.1742248535156
-12273.7880859375,-11999.607421875,-3624.757080078125,2206.96142578125,2981.02685546875,20805.994140625,-1851.7176513671875,3499.98486328125,-2866.5859375,4347.16552734375,-7446.60693359375,-5105.33642578125,-4911.4228515625,3304.4814453125,1120.5673828125,-3039.8369140625,0.0,3724.892822265625,5224.5458984375,17015.93359375,3387.13330078125,12978.712890625,2169.609130859375,16576.44921875,-5294.48193359375,-5644.95703125,-3281.434326171875,-960.0321655273438,-6148.0205078125,1240.5714111328125,6189.34619140625,7372.697265625,4050.731689453125,5285.73974609375,823.3388061523438,6175.041015625,-469.6846008300781,20160.67578125,-2016.2265625,-0.0,-1583.8941650390625,9760.8564453125,-1808.80224609375,369.5487976074219,2047.220947265625,9402.4345703125,-5323.091796875,3461.837890625,-5108.51513671875,-452.99530029296875,-339.34912109375,10445.912109375,-13908.5458984375,-14595.19140625,-5780.06103515625,-1569.5889892578125,20.66294288635254,-5958.080078125,-1664.16162109375,-239.2133026123047,-8775.3935546875,3829.00244140625,1266.002685546875,1403.49072265625,-5284.150390625,1020.4315185546875,0.0,-2597.173095703125,0.0,-1718.2032470703125,-0.0,-449.02166748046875
-12237.2314453125,-11964.638671875,-3626.3466796875,2214.90869140625,2988.974365234375,20816.326171875,-1840.5914306640625,3515.87939453125,-2847.512451171875,4367.828125,-7440.2490234375,-5097.38916015625,-4911.4228515625,3330.70751953125,1126.9251708984375,-3023.1474609375,6.357828617095947,3733.635009765625,5235.671875,17034.212890625,3392.6962890625,12986.66015625,2178.35107421875,16587.576171875,-5287.3291015625,-5634.6259765625,-3276.666015625,-944.9323120117188,-6147.22607421875,1246.1343994140625,6197.2939453125,7376.6708984375,4054.705078125,5291.30322265625,833.6702880859375,6181.39892578125,-457.763671875,20174.185546875,-1999.5372314453125,-0.0,-1582.3045654296875,9768.0087890625,-1799.2655029296875,381.4697265625,2061.526123046875,9420.712890625,-5329.4501953125,3469.784912109375,-5098.18408203125,-444.2532958984375,-331.4018249511719,10463.3974609375,-13926.029296875,-14581.6806640625,-5779.2666015625,-1565.6153564453125,19.073486328125,-5946.9541015625,-1641.1146240234375,-217.75563049316406,-8747.578125,3837.744384765625,1278.7183837890625,1432.8956298828125,-5269.845703125,1034.736572265625,0.0,-2586.046875,0.0,-1704.69287109375,-0.0,-430.7428894042969
-12133.916015625,-11961.4599609375,-3592.968017578125,2262.59228515625,3034.27392578125,20864.8046875,-1794.4971923828125,3557.205078125,-2802.212890625,4419.4853515625,-7379.05517578125,-5056.06298828125,-4889.96484375,3384.749267578125,1170.63525390625,-2978.642822265625,54.04154586791992,3779.729248046875,5280.9716796875,17084.279296875,3439.58544921875,13031.9599609375,2222.06103515625,16632.080078125,-5242.82470703125,-5582.173828125,-3228.982177734375,-895.6591186523438,-6117.02587890625,1284.2813720703125,6244.1826171875,7429.91796875,4101.59423828125,5338.98681640625,878.1751098632812,6224.314453125,-411.6694030761719,20217.89453125,-1927.2169189453125,-0.0,-1539.3892822265625,9819.6669921875,-1752.3765869140625,427.5639953613281,2106.03076171875,9459.6552734375,-5280.9716796875,3517.46875,-5048.91064453125,-398.1590270996094,-285.30755615234375,10505.5166015625,-13835.4296875,-14539.5595703125,-5747.47705078125,-1525.0841064453125,43.7100715637207,-5912.78076171875,-1606.941162109375,-184.3770294189453,-8684.7939453125,3876.68603515625,1324.017822265625,1484.552978515625,-5220.57177734375,1076.0625,0.0,-2553.462890625,0.0,-1664.9564208984375,-0.0,-380.67498779296875
-12106.8955078125,-12028.2177734375,-3615.22021484375,2225.239990234375,3014.405517578125,20841.755859375,-1812.7760009765625,3530.979248046875,-2820.49169921875,4407.564453125,-7380.64453125,-5076.7265625,-4897.11767578125,3352.165283203125,1155.535400390625,-3001.68994140625,31.789142608642578,3758.271484375,5259.513671875,17069.974609375,3418.127685546875,13012.8857421875,2202.193115234375,16608.23828125,-5254.74560546875,-5593.2998046875,-3244.876953125,-927.4482421875,-6129.74169921875,1246.1343994140625,6224.314453125,7409.25439453125,4081.72607421875,5320.7080078125,857.5121459960938,6202.8564453125,-430.7428894042969,20196.4375,-1976.489990234375,-0.0,-1559.257568359375,9809.3349609375,-1768.2711181640625,399.74847412109375,2087.752197265625,9439.7861328125,-5327.8603515625,3474.553466796875,-5067.189453125,-441.0743713378906,-302.7915954589844,10477.7021484375,-13826.6875,-14568.96484375,-5759.39794921875,-1551.3101806640625,31.789142608642578,-5931.8544921875,-1625.219970703125,-205.83470153808594,-8725.3251953125,3846.486328125,1306.5338134765625,1465.4794921875,-5249.18212890625,1055.3995361328125,0.0,-2569.357666015625,0.0,-1680.0562744140625,-0.0,-397.3642883300781
-12137.095703125,-12079.875,-3653.3671875,2205.371826171875,2974.669189453125,20816.326171875,-1846.154541015625,3504.753173828125,-2844.333740234375,4383.72265625,-7415.61279296875,-5104.5419921875,-4910.6279296875,3322.76025390625,1099.9044189453125,-3028.710693359375,1.5894571542739868,3727.277099609375,5230.90380859375,17050.90234375,3381.570068359375,12985.0703125,2168.01953125,16578.0390625,-5292.09765625,-5624.29443359375,-3291.765869140625,-956.8532104492188,-6151.19921875,1216.7294921875,6194.11474609375,7385.41259765625,4049.142333984375,5292.892578125,823.3388061523438,6174.24609375,-465.7109680175781,20168.623046875,-2004.3055419921875,-0.0,-1593.430908203125,9779.1357421875,-1805.6234130859375,371.9329833984375,2055.962890625,9414.35546875,-5350.90771484375,3460.248291015625,-5118.05224609375,-457.763671875,-357.62786865234375,10450.6806640625,-13871.9873046875,-14615.05859375,-5780.85546875,-1578.3310546875,7.9472856521606445,-5955.6962890625,-1654.625,-229.6765594482422,-8765.8564453125,3813.107666015625,1280.3077392578125,1441.6376953125,-5295.27685546875,1032.3524169921875,0.0,-2593.994140625,0.0,-1703.1033935546875,-0.0,-425.9745178222656
-12160.1416015625,-12027.4228515625,-3649.393798828125,2230.80322265625,2971.490234375,20813.146484375,-1848.5386962890625,3504.753173828125,-2854.6650390625,4382.13330078125,-7405.28125,-5104.5419921875,-4916.19091796875,3308.455322265625,1105.4674072265625,-3022.35302734375,3.9736428260803223,3732.04541015625,5227.724609375,17042.16015625,3381.570068359375,12983.4814453125,2167.224853515625,16577.244140625,-5307.99267578125,-5629.0625,-3295.739501953125,-954.4690551757812,-6153.58349609375,1223.0872802734375,6192.525390625,7393.3603515625,4050.731689453125,5291.30322265625,824.133544921875,6172.6572265625,-467.3004150390625,20164.6484375,-2004.3055419921875,-0.0,-1598.19921875,9768.8037109375,-1804.033935546875,375.1119079589844,2050.39990234375,9411.970703125,-5352.4970703125,3488.8583984375,-5164.94140625,-463.3267822265625,-351.2700500488281,10449.88671875,-13851.3251953125,-14626.185546875,-5785.6240234375,-1575.152099609375,6.357828617095947,-5944.56982421875,-1658.5985107421875,-236.82911682128906,-8766.6513671875,3809.928955078125,1276.3341064453125,1420.9747314453125,-5278.58740234375,1031.5577392578125,0.0,-2601.146728515625,0.0,-1710.2559814453125,-0.0,-435.5112609863281
-12191.931640625,-11982.91796875,-3653.3671875,2238.75048828125,2987.384765625,20827.451171875,-1837.4124755859375,3515.87939453125,-2857.04931640625,4379.74951171875,-7400.5126953125,-5087.0576171875,-4904.27001953125,3300.5078125,1122.9515380859375,-3008.0478515625,8.74201488494873,3745.555908203125,5236.466796875,17035.802734375,3388.72265625,12991.4287109375,2182.32470703125,16589.1640625,-5331.03955078125,-5613.962890625,-3275.07666015625,-938.574462890625,-6133.71533203125,1242.95556640625,6200.47216796875,7396.5390625,4056.294921875,5299.25,836.8492431640625,6180.6044921875,-455.3794860839844,20174.98046875,-1993.1793212890625,-0.0,-1592.6361083984375,9783.1083984375,-1785.755126953125,389.4170227050781,2057.55224609375,9420.712890625,-5366.80224609375,3493.626953125,-5166.53076171875,-443.45855712890625,-332.99127197265625,10461.0126953125,-13841.7880859375,-14612.6748046875,-5766.55078125,-1564.8206787109375,18.278757095336914,-5934.23828125,-1652.24072265625,-235.2396697998047,-8748.3720703125,3816.286865234375,1283.4866943359375,1406.669677734375,-5255.54052734375,1042.6839599609375,0.0,-2604.325439453125,0.0,-1715.0242919921875,-0.0,-446.6374816894531
-12199.083984375,-11976.5595703125,-3642.2412109375,2237.160888671875,3013.61083984375,20833.810546875,-1825.4915771484375,3520.647705078125,-2852.28076171875,4387.69677734375,-7434.68603515625,-5079.9052734375,-4923.34375,3313.2236328125,1138.0513916015625,-3013.61083984375,11.920928955078125,3752.70849609375,5244.4140625,17040.5703125,3399.05419921875,12996.1962890625,2195.04052734375,16596.31640625,-5300.83984375,-5611.57861328125,-3257.592529296875,-934.600830078125,-6143.251953125,1254.87646484375,6203.6513671875,7394.94921875,4061.857666015625,5302.42919921875,849.5648803710938,6187.7568359375,-442.663818359375,20178.953125,-1969.33740234375,-0.0,-1570.3836669921875,9788.6728515625,-1762.7080078125,394.1853942871094,2066.29443359375,9421.5078125,-5342.16552734375,3492.832275390625,-5104.5419921875,-430.7428894042969,-317.8914489746094,10462.6015625,-13852.9140625,-14590.4228515625,-5776.08740234375,-1562.4364013671875,20.66294288635254,-5941.39111328125,-1644.29345703125,-232.0607452392578,-8729.298828125,3825.028564453125,1289.0498046875,1428.9219970703125,-5265.0771484375,1046.6575927734375,0.0,-2593.199462890625,0.0,-1699.1297607421875,-0.0,-426.7692565917969
-12211.7998046875,-12006.759765625,-3639.062255859375,2225.239990234375,3008.842529296875,20825.068359375,-1829.4652099609375,3505.5478515625,-2856.254638671875,4374.18603515625,-7416.4072265625,-5092.62109375,-4920.95947265625,3315.607666015625,1144.4091796875,-3040.631591796875,1.5894571542739868,3747.1455078125,5235.671875,17035.802734375,3393.490966796875,12987.4541015625,2188.6826171875,16585.984375,-5276.998046875,-5622.705078125,-3261.566162109375,-952.0848388671875,-6145.63623046875,1250.108154296875,6182.98876953125,7382.23388671875,4055.5,5292.09765625,844.7965087890625,6176.63037109375,-446.6374816894531,20169.416015625,-1980.4637451171875,-0.0,-1570.3836669921875,9778.3408203125,-1762.7080078125,381.4697265625,2063.91015625,9407.203125,-5327.8603515625,3480.9111328125,-5095.7998046875,-443.45855712890625,-311.5335998535156,10443.5283203125,-13864.8349609375,-14590.4228515625,-5776.08740234375,-1570.3836669921875,27.815500259399414,-5979.5380859375,-1640.31982421875,-245.57113647460938,-8743.603515625,3818.6708984375,1279.5130615234375,1427.33251953125,-5283.35546875,1030.7630615234375,0.0,-2607.504638671875,0.0,-1718.9979248046875,-0.0,-434.716552734375
-12246.767578125,-12036.9599609375,-3675.619873046875,2187.887939453125,2955.595703125,20792.484375,-1862.8438720703125,3480.11669921875,-2879.3017578125,4347.9599609375,-7461.70654296875,-5117.2578125,-4916.19091796875,3285.407958984375,1111.8253173828125,-3054.936767578125,-33.37860107421875,3715.356201171875,5206.26708984375,17011.166015625,3353.754638671875,12954.076171875,2149.740966796875,16556.58203125,-5307.19775390625,-5652.10986328125,-3299.713134765625,-979.1055908203125,-6153.58349609375,1212.755859375,6144.841796875,7347.265625,4017.35302734375,5259.513671875,802.6759033203125,6144.046875,-482.4002685546875,20143.986328125,-2023.3790283203125,-0.0,-1621.246337890625,9746.5517578125,-1812.7760009765625,351.2700500488281,2034.505126953125,9383.361328125,-5383.49169921875,3442.76416015625,-5110.8994140625,-480.0160827636719,-345.7069396972656,10422.0703125,-13907.75,-14615.05859375,-5782.4453125,-1589.4571533203125,18.278757095336914,-6008.1484375,-1669.724853515625,-269.4129943847656,-8775.3935546875,3789.265869140625,1251.697509765625,1397.9276123046875,-5287.3291015625,1012.4841918945312,0.0,-2632.935791015625,0.0,-1752.3765869140625,-0.0,-462.53204345703125
-12230.873046875,-12045.701171875,-3679.59326171875,2178.35107421875,2932.548583984375,20782.947265625,-1881.9173583984375,3470.579833984375,-2893.60693359375,4344.78125,-7464.8857421875,-5133.15185546875,-4920.95947265625,3275.871337890625,1084.009765625,-3058.910400390625,-43.7100715637207,3702.640625,5191.9619140625,17000.041015625,3340.244384765625,12942.9501953125,2126.69384765625,16543.0703125,-5316.734375,-5653.69921875,-3310.83935546875,-987.0529174804688,-6149.60986328125,1194.47705078125,6130.53662109375,7337.72900390625,4008.611083984375,5249.18212890625,783.6024169921875,6130.53662109375,-502.26849365234375,20132.859375,-2043.2471923828125,-0.0,-1633.167236328125,9738.6044921875,-1847.7440185546875,340.1438293457031,2017.8157958984375,9376.2080078125,-5385.0810546875,3434.022216796875,-5099.7734375,-478.4266052246094,-371.9329833984375,10416.5078125,-13919.6708984375,-14626.9794921875,-5780.06103515625,-1606.941162109375,4.76837158203125,-6016.89013671875,-1686.4140625,-277.36029052734375,-8774.59765625,3774.960693359375,1239.776611328125,1386.0067138671875,-5284.94482421875,995.794921875,0.0,-2648.03564453125,0.0,-1761.913330078125,-0.0,-476.04241943359375
-12210.2099609375,-12056.033203125,-3662.904052734375,2201.398193359375,2954.006103515625,20803.609375,-1862.049072265625,3488.063720703125,-2882.480712890625,4356.7021484375,-7444.22314453125,-5120.43603515625,-4928.11181640625,3283.818603515625,1103.083251953125,-3052.552490234375,-23.84185791015625,3724.09814453125,5208.65087890625,17012.75390625,3358.523193359375,12962.818359375,2148.1513671875,16561.349609375,-5311.1708984375,-5621.115234375,-3288.5869140625,-970.3636474609375,-6144.046875,1221.4979248046875,6146.43115234375,7359.1865234375,4027.6845703125,5269.05078125,803.4705810546875,6148.81494140625,-480.810791015625,20151.138671875,-2018.6107177734375,-0.0,-1618.8621826171875,9760.8564453125,-1819.1337890625,357.62786865234375,2035.300048828125,9391.3076171875,-5362.03369140625,3457.864013671875,-5098.18408203125,-464.9162292480469,-352.8594970703125,10431.607421875,-13905.3662109375,-14619.033203125,-5774.498046875,-1593.430908203125,15.894571304321289,-6008.94287109375,-1669.724853515625,-267.02880859375,-8765.8564453125,3795.623779296875,1255.671142578125,1403.49072265625,-5275.408203125,1009.3053588867188,0.0,-2629.7568359375,0.0,-1744.42919921875,-0.0,-460.9425964355469
-12203.8525390625,-12034.5751953125,-3643.83056640625,2224.4453125,2980.232177734375,20824.2734375,-1835.822998046875,3510.316162109375,-2861.817626953125,4368.623046875,-7442.63330078125,-5108.51513671875,-4910.6279296875,3298.91845703125,1138.0513916015625,-3025.53173828125,-5.563100337982178,3745.555908203125,5231.69873046875,17029.443359375,3381.570068359375,12982.6865234375,2175.172119140625,16584.396484375,-5280.9716796875,-5593.2998046875,-3259.9765625,-941.75341796875,-6134.51025390625,1252.4923095703125,6167.09375,7380.64453125,4047.552490234375,5288.1240234375,829.6966552734375,6167.888671875,-454.5847473144531,20174.185546875,-1986.0267333984375,-0.0,-1590.251953125,9777.5458984375,-1788.139404296875,381.4697265625,2060.731201171875,9410.380859375,-5350.11279296875,3479.32177734375,-5077.52099609375,-441.0743713378906,-317.8914489746094,10454.654296875,-13897.4189453125,-14619.033203125,-5764.96142578125,-1569.5889892578125,31.789142608642578,-5985.8955078125,-1642.7039794921875,-255.90261840820312,-8759.4990234375,3819.465576171875,1276.3341064453125,1414.616943359375,-5273.02392578125,1025.99462890625,0.0,-2618.630615234375,0.0,-1729.3294677734375,-0.0,-447.43218994140625
-12222.130859375,-12035.3701171875,-3670.8515625,2195.04052734375,2953.21142578125,20795.6640625,-1855.6912841796875,3488.8583984375,-2879.3017578125,4346.37060546875,-7467.27001953125,-5128.3837890625,-4926.52294921875,3275.07666015625,1124.5408935546875,-3039.042236328125,-32.5838737487793,3720.12451171875,5211.830078125,17008.78125,3356.93359375,12958.0498046875,2153.71435546875,16559.759765625,-5316.734375,-5637.8046875,-3278.25537109375,-967.1846923828125,-6157.55712890625,1220.703125,6141.66259765625,7356.0078125,4019.7373046875,5262.69287109375,805.06005859375,6144.841796875,-474.4529724121094,20151.93359375,-2003.5107421875,-0.0,-1618.8621826171875,9748.935546875,-1810.3917236328125,356.8331298828125,2040.863037109375,9391.3076171875,-5375.5439453125,3448.327392578125,-5104.5419921875,-480.0160827636719,-332.1965637207031,10435.5810546875,-13922.8505859375,-14647.6435546875,-5790.392578125,-1609.325439453125,4.76837158203125,-6008.94287109375,-1663.366943359375,-267.02880859375,-8767.4453125,3798.008056640625,1254.87646484375,1386.0067138671875,-5289.71337890625,1002.1527709960938,0.0,-2639.293701171875,0.0,-1753.1712646484375,-0.0,-472.06878662109375
-12255.509765625,-12052.0595703125,-3667.67236328125,2178.35107421875,2941.29052734375,20784.537109375,-1862.8438720703125,3485.6796875,-2875.328125,4359.880859375,-7462.50146484375,-5139.509765625,-4929.701171875,3286.20263671875,1107.0570068359375,-3059.705078125,-40.531158447265625,3712.17724609375,5207.8564453125,17016.728515625,3348.19140625,12949.3076171875,2144.97265625,16554.197265625,-5331.03955078125,-5673.5673828125,-3288.5869140625,-975.9266967773438,-6173.45166015625,1202.4244384765625,6132.1259765625,7344.0869140625,4011.789794921875,5250.77197265625,797.9075317382812,6136.89404296875,-480.0160827636719,20146.369140625,-2020.994873046875,-0.0,-1629.98828125,9739.3994140625,-1817.5443115234375,347.29638671875,2036.8892822265625,9393.6923828125,-5361.23876953125,3431.637939453125,-5114.87353515625,-503.85791015625,-348.8858642578125,10426.8388671875,-13919.6708984375,-14644.4638671875,-5803.1083984375,-1620.4515380859375,3.9736428260803223,-6018.47998046875,-1668.9300537109375,-256.69732666015625,-8775.3935546875,3794.0341796875,1255.671142578125,1402.696044921875,-5300.044921875,995.794921875,0.0,-2623.39892578125,0.0,-1736.4820556640625,-0.0,-458.55841064453125
-12282.53125,-12085.4375,-3665.288330078125,2187.093017578125,2932.548583984375,20785.33203125,-1868.4068603515625,3486.474365234375,-2882.480712890625,4361.470703125,-7474.42236328125,-5133.15185546875,-4936.85400390625,3291.765869140625,1101.493896484375,-3058.910400390625,-43.7100715637207,3713.766845703125,5202.29345703125,17015.138671875,3345.0126953125,12949.3076171875,2139.409423828125,16552.607421875,-5386.67041015625,-5657.6728515625,-3302.097412109375,-982.2845458984375,-6167.09375,1192.0928955078125,6132.1259765625,7341.703125,4010.200439453125,5253.15625,794.7285766601562,6136.09912109375,-484.7844543457031,20145.57421875,-2020.994873046875,-0.0,-1633.9620361328125,9745.7568359375,-1824.6968994140625,346.5016784667969,2030.5316162109375,9394.486328125,-5349.31787109375,3438.79052734375,-5136.3310546875,-494.3211669921875,-356.0384216308594,10426.044921875,-13949.87109375,-14652.4111328125,-5795.95556640625,-1641.1146240234375,6.357828617095947,-6004.96923828125,-1665.7510986328125,-256.69732666015625,-8783.3408203125,3794.8291015625,1252.4923095703125,1401.9012451171875,-5305.6083984375,997.3843994140625,0.0,-2626.578125,0.0,-1734.8924560546875,-0.0,-460.1478576660156
-12326.240234375,-12102.126953125,-3647.80419921875,2202.98779296875,2959.5693359375,20795.6640625,-1858.8701171875,3489.6533203125,-2892.81201171875,4345.57568359375,-7487.13818359375,-5127.5888671875,-4936.85400390625,3276.666015625,1113.414794921875,-3043.015625,-37.35224533081055,3724.09814453125,5207.0615234375,16995.271484375,3361.701904296875,12960.43359375,2152.125,16559.759765625,-5344.5498046875,-5643.36767578125,-3290.17626953125,-971.9530639648438,-6166.29931640625,1188.1192626953125,6144.841796875,7348.060546875,4019.7373046875,5265.0771484375,811.4179077148438,6145.63623046875,-477.63189697265625,20151.138671875,-2014.636962890625,-0.0,-1604.5570068359375,9756.8828125,-1807.212890625,353.65423583984375,2034.505126953125,9392.1025390625,-5347.728515625,3454.685302734375,-5112.4892578125,-483.1949768066406,-343.32275390625,10433.9912109375,-13991.1962890625,-14669.8955078125,-5796.75048828125,-1645.088134765625,11.920928955078125,-5996.22705078125,-1649.8565673828125,-273.3866271972656,-8789.6982421875,3803.571044921875,1247.723876953125,1386.0067138671875,-5307.99267578125,998.1790771484375,0.0,-2640.08837890625,0.0,-1759.529052734375,-0.0,-480.810791015625
-12286.50390625,-12079.080078125,-3600.915283203125,2231.597900390625,3009.63720703125,20836.1953125,-1817.5443115234375,3523.031982421875,-2866.5859375,4370.21240234375,-7458.52783203125,-5096.59423828125,-4889.96484375,3294.150146484375,1165.0721435546875,-3008.0478515625,1.5894571542739868,3763.039794921875,5245.208984375,17017.5234375,3403.82275390625,12999.375,2196.6298828125,16596.31640625,-5253.15625,-5609.1943359375,-3234.54541015625,-932.2166748046875,-6147.22607421875,1227.0609130859375,6184.578125,7388.591796875,4061.857666015625,5304.0185546875,856.7174072265625,6182.19384765625,-437.1007385253906,20186.900390625,-1973.3111572265625,-0.0,-1556.873291015625,9791.056640625,-1758.734375,391.80120849609375,2069.47314453125,9424.6865234375,-5319.91357421875,3485.6796875,-5049.70556640625,-439.48492431640625,-288.4864807128906,10468.1650390625,-13930.7978515625,-14642.875,-5777.67724609375,-1567.204833984375,56.42573165893555,-5968.412109375,-1629.98828125,-240.00804138183594,-8768.2412109375,3842.512939453125,1281.897216796875,1402.696044921875,-5287.3291015625,1029.1734619140625,0.0,-2608.29931640625,0.0,-1726.9453125,-0.0,-456.1742248535156
-12270.609375,-12075.9013671875,-3605.68359375,2236.3662109375,3004.07421875,20841.755859375,-1813.5706787109375,3533.36328125,-2852.28076171875,4389.2861328125,-7449.78564453125,-5087.8525390625,-4885.99169921875,3313.2236328125,1153.9459228515625,-2991.3583984375,3.9736428260803223,3761.450439453125,5249.18212890625,17035.0078125,3401.4384765625,13000.1708984375,2197.424560546875,16601.880859375,-5270.64013671875,-5612.37353515625,-3235.340087890625,-922.679931640625,-6148.0205078125,1244.544921875,6184.578125,7390.97607421875,4061.857666015625,5304.8134765625,857.5121459960938,6185.373046875,-433.92181396484375,20194.052734375,-1965.36376953125,-0.0,-1569.5889892578125,9790.26171875,-1759.529052734375,401.33795166015625,2073.447021484375,9433.4287109375,-5318.32373046875,3492.03759765625,-5057.65283203125,-433.92181396484375,-300.40740966796875,10480.880859375,-13875.1669921875,-14617.443359375,-5778.4716796875,-1542.5682373046875,53.2468147277832,-5951.72265625,-1644.29345703125,-228.0871124267578,-8765.8564453125,3840.92333984375,1295.4075927734375,1421.76953125,-5288.9189453125,1039.5050048828125,0.0,-2595.583740234375,0.0,-1713.434814453125,-0.0,-437.89544677734375
-12298.4248046875,-12042.5224609375,-3632.70458984375,2235.571533203125,2959.5693359375,20829.8359375,-1833.4388427734375,3529.3896484375,-2853.07568359375,4393.259765625,-7435.48046875,-5090.23681640625,-4928.90673828125,3322.76025390625,1105.4674072265625,-2996.921630859375,-8.74201488494873,3747.1455078125,5236.466796875,17038.1875,3379.980712890625,12985.865234375,2175.172119140625,16592.34375,-5294.48193359375,-5622.705078125,-3273.487060546875,-929.0377197265625,-6150.404296875,1248.5185546875,6168.68359375,7383.0283203125,4045.16845703125,5291.30322265625,831.2861328125,6171.06787109375,-454.5847473144531,20185.3125,-1956.621826171875,-0.0,-1600.5833740234375,9778.3408203125,-1789.728759765625,392.5959167480469,2060.731201171875,9431.8388671875,-5354.08642578125,3492.03759765625,-5097.38916015625,-442.663818359375,-350.4753112792969,10477.7021484375,-13876.755859375,-14592.806640625,-5778.4716796875,-1557.6680908203125,3.1789143085479736,-5953.31201171875,-1662.572265625,-224.11346435546875,-8759.4990234375,3818.6708984375,1289.844482421875,1429.7166748046875,-5282.56103515625,1036.3260498046875,0.0,-2583.662841796875,0.0,-1706.2822265625,-0.0,-432.3323669433594
-12268.2255859375,-12004.375,-3653.3671875,2223.650634765625,2930.958984375,20826.658203125,-1840.5914306640625,3525.416015625,-2853.870361328125,4396.4384765625,-7429.123046875,-5099.7734375,-4910.6279296875,3328.3232421875,1107.8516845703125,-3007.2529296875,-15.09984302520752,3740.78759765625,5234.08251953125,17042.955078125,3367.264892578125,12977.91796875,2164.8408203125,16585.984375,-5309.58154296875,-5619.52587890625,-3283.818603515625,-936.1903076171875,-6148.0205078125,1254.081787109375,6161.53076171875,7383.8232421875,4034.837158203125,5284.94482421875,820.9546508789062,6163.9150390625,-460.1478576660156,20182.927734375,-1961.3902587890625,-0.0,-1616.47802734375,9772.77734375,-1800.85498046875,387.0328369140625,2060.731201171875,9435.8125,-5365.212890625,3478.527099609375,-5110.8994140625,-454.5847473144531,-348.09112548828125,10470.5498046875,-13891.060546875,-14569.759765625,-5779.2666015625,-1575.94677734375,8.74201488494873,-5954.10693359375,-1656.21435546875,-208.21888732910156,-8745.193359375,3812.31298828125,1289.844482421875,1436.8692626953125,-5271.4345703125,1039.5050048828125,0.0,-2573.3310546875,0.0,-1693.566650390625,-0.0,-423.59033203125
-12319.8828125,-12056.8271484375,-3658.930419921875,2211.729736328125,2934.9326171875,20820.298828125,-1840.5914306640625,3521.4423828125,-2859.433349609375,4392.46533203125,-7435.48046875,-5109.31005859375,-4904.27001953125,3317.991943359375,1123.7462158203125,-3015.9951171875,-18.278757095336914,3736.813720703125,5231.69873046875,17035.0078125,3366.47021484375,12974.7392578125,2164.046142578125,16582.01171875,-5317.529296875,-5624.29443359375,-3283.02392578125,-944.1375732421875,-6152.78857421875,1239.776611328125,6159.14697265625,7379.05517578125,4032.453125,5281.7666015625,820.159912109375,6161.53076171875,-460.1478576660156,20178.16015625,-1953.44287109375,-0.0,-1618.0673828125,9768.8037109375,-1802.4444580078125,380.67498779296875,2059.9365234375,9431.044921875,-5369.1865234375,3465.0166015625,-5112.4892578125,-465.7109680175781,-332.1965637207031,10461.0126953125,-13897.4189453125,-14578.501953125,-5783.23974609375,-1579.125732421875,20.66294288635254,-5961.25927734375,-1649.061767578125,-209.0136260986328,-8772.2138671875,3808.33935546875,1286.66552734375,1428.9219970703125,-5272.2294921875,1033.147216796875,0.0,-2578.099609375,0.0,-1696.7454833984375,-0.0,-429.94818115234375
-12307.1669921875,-12114.0478515625,-3647.009521484375,2212.5244140625,2933.34326171875,20821.890625,-1841.38623046875,3521.4423828125,-2856.254638671875,4401.20703125,-7436.275390625,-5090.23681640625,-4902.6806640625,3324.349609375,1117.388427734375,-3008.0478515625,-13.51038646697998,3739.992919921875,5232.4931640625,17043.748046875,3371.23876953125,12977.91796875,2165.63525390625,16584.396484375,-5315.939453125,-5626.6787109375,-3289.3818359375,-940.1639404296875,-6158.35205078125,1219.1136474609375,6161.53076171875,7379.05517578125,4038.810791015625,5285.73974609375,821.7493896484375,6161.53076171875,-461.7373046875,20176.568359375,-1948.674560546875,-0.0,-1613.299072265625,9773.572265625,-1802.4444580078125,382.26446533203125,2058.346923828125,9431.8388671875,-5342.16552734375,3465.8115234375,-5117.2578125,-467.3004150390625,-336.9649353027344,10464.986328125,-13855.2978515625,-14606.31640625,-5788.00830078125,-1569.5889892578125,19.868215560913086,-5948.54345703125,-1649.8565673828125,-215.37144470214844,-8790.4931640625,3809.13427734375,1288.255126953125,1440.0482177734375,-5287.3291015625,1026.789306640625,0.0,-2576.51025390625,0.0,-1698.3350830078125,-0.0,-419.61669921875
-12284.119140625,-12071.1328125,-3643.035888671875,2221.2666015625,2934.9326171875,20822.68359375,-1842.180908203125,3523.031982421875,-2849.896728515625,4406.77001953125,-7447.4013671875,-5084.67333984375,-4910.6279296875,3331.502197265625,1107.8516845703125,-3007.2529296875,-13.51038646697998,3742.376953125,5230.90380859375,17051.697265625,3371.23876953125,12979.5078125,2166.43017578125,16582.806640625,-5318.32373046875,-5631.44677734375,-3283.818603515625,-942.548095703125,-6173.45166015625,1227.855712890625,6161.53076171875,7379.85009765625,4036.426513671875,5285.73974609375,820.9546508789062,6161.53076171875,-459.3531188964844,20179.748046875,-1968.5428466796875,-0.0,-1611.7095947265625,9769.5986328125,-1801.649658203125,383.0591735839844,2060.731201171875,9434.2236328125,-5347.728515625,3476.142822265625,-5120.43603515625,-460.9425964355469,-346.5016784667969,10467.3701171875,-13858.4775390625,-14619.8271484375,-5804.69775390625,-1563.2310791015625,22.25240135192871,-5937.41748046875,-1649.8565673828125,-219.3450927734375,-8770.625,3808.33935546875,1289.844482421875,1444.0218505859375,-5296.0712890625,1030.7630615234375,0.0,-2578.894287109375,0.0,-1694.361328125,-0.0,-415.64306640625
-12327.830078125,-12036.1640625,-3631.114990234375,2218.88232421875,2942.085205078125,20817.12109375,-1846.94921875,3515.08447265625,-2858.638671875,4398.82275390625,-7441.8388671875,-5097.38916015625,-4918.5751953125,3316.40234375,1101.493896484375,-3021.55810546875,-21.457672119140625,3739.197998046875,5224.5458984375,17037.392578125,3372.033447265625,12977.123046875,2162.45654296875,16577.244140625,-5309.58154296875,-5637.01025390625,-3282.229248046875,-944.9323120117188,-6173.45166015625,1231.03466796875,6159.94140625,7373.49169921875,4037.221435546875,5281.7666015625,822.5440673828125,6157.55712890625,-464.9162292480469,20171.0078125,-1962.1849365234375,-0.0,-1605.351806640625,9765.625,-1802.4444580078125,379.8802795410156,2055.962890625,9423.8916015625,-5351.7021484375,3476.142822265625,-5101.36279296875,-457.763671875,-352.8594970703125,10456.244140625,-13919.6708984375,-14612.6748046875,-5804.69775390625,-1559.257568359375,14.30511474609375,-5967.6171875,-1660.1881103515625,-228.8818359375,-8767.4453125,3802.7763671875,1281.897216796875,1419.38525390625,-5297.66064453125,1018.8421020507812,0.0,-2604.325439453125,0.0,-1715.0242919921875,-0.0,-437.1007385253906
-12367.56640625,-12060.005859375,-3647.80419921875,2212.5244140625,2937.31689453125,20811.55859375,-1854.896484375,3503.95849609375,-2871.354248046875,4382.13330078125,-7445.81201171875,-5115.66796875,-4928.90673828125,3307.660400390625,1107.8516845703125,-3046.19482421875,-30.19968605041504,3732.84033203125,5214.21435546875,17020.703125,3364.880859375,12968.380859375,2154.50927734375,16570.88671875,-5316.734375,-5639.39404296875,-3286.20263671875,-953.67431640625,-6165.50439453125,1221.4979248046875,6151.994140625,7369.51806640625,4027.6845703125,5275.408203125,815.3915405273438,6151.19921875,-473.6582336425781,20163.05859375,-1947.0850830078125,-0.0,-1617.272705078125,9760.0625,-1807.212890625,370.3435363769531,2048.015625,9410.380859375,-5361.23876953125,3471.37451171875,-5103.7470703125,-468.8898620605469,-348.09112548828125,10444.3232421875,-13964.17578125,-14610.291015625,-5796.75048828125,-1588.6624755859375,7.152557373046875,-5976.35888671875,-1664.16162109375,-241.5974884033203,-8784.9306640625,3788.47119140625,1269.181640625,1404.285400390625,-5310.37646484375,1009.3053588867188,0.0,-2617.041259765625,0.0,-1726.1505126953125,-0.0,-454.5847473144531
-12338.1611328125,-12097.3583984375,-3661.314697265625,2208.55078125,2931.75390625,20802.021484375,-1858.075439453125,3496.010986328125,-2878.5068359375,4366.2392578125,-7457.7333984375,-5116.462890625,-4940.033203125,3302.89208984375,1113.414794921875,-3039.042236328125,-34.96805953979492,3728.072021484375,5207.8564453125,17008.78125,3358.523193359375,12962.0234375,2151.330322265625,16564.52734375,-5320.7080078125,-5641.7783203125,-3285.407958984375,-967.1846923828125,-6169.47802734375,1214.3453369140625,6144.841796875,7367.13427734375,4021.32666015625,5268.255859375,810.6231689453125,6143.251953125,-476.837158203125,20157.49609375,-1965.36376953125,-0.0,-1623.6304931640625,9753.7041015625,-1811.1864013671875,359.2173156738281,2045.63134765625,9402.4345703125,-5370.77587890625,3463.42724609375,-5111.6943359375,-488.7580871582031,-342.52801513671875,10437.1708984375,-13933.9765625,-14606.31640625,-5800.72412109375,-1598.993896484375,7.152557373046875,-5961.25927734375,-1652.24072265625,-242.39222717285156,-8800.82421875,3782.908203125,1263.618408203125,1409.8485107421875,-5308.787109375,1003.7421875,0.0,-2603.53076171875,0.0,-1720.58740234375,-0.0,-454.5847473144531
-12305.5771484375,-12067.1591796875,-3669.261962890625,2210.14013671875,2932.548583984375,20807.583984375,-1854.896484375,3503.95849609375,-2871.354248046875,4373.3916015625,-7450.58056640625,-5100.568359375,-4923.34375,3319.581298828125,1103.8780517578125,-3033.47900390625,-31.789142608642578,3729.6611328125,5215.8037109375,17020.703125,3361.701904296875,12966.7919921875,2159.277587890625,16568.501953125,-5322.29736328125,-5642.57275390625,-3281.434326171875,-957.64794921875,-6166.29931640625,1234.2135009765625,6148.81494140625,7373.49169921875,4024.505615234375,5272.2294921875,813.00732421875,6147.22607421875,-472.863525390625,20161.470703125,-1946.2904052734375,-0.0,-1619.6568603515625,9758.47265625,-1806.4180908203125,366.369873046875,2050.39990234375,9411.970703125,-5374.74951171875,3462.63232421875,-5108.51513671875,-483.9897155761719,-348.09112548828125,10444.3232421875,-13891.8564453125,-14585.654296875,-5796.75048828125,-1573.5626220703125,11.920928955078125,-5959.66943359375,-1658.5985107421875,-234.44493103027344,-8785.724609375,3790.85546875,1271.5657958984375,1422.564208984375,-5300.044921875,1014.868408203125,0.0,-2605.120361328125,0.0,-1730.1241455078125,-0.0,-451.4058532714844
-12281.7353515625,-12023.44921875,-3647.009521484375,2203.7822265625,2936.522216796875,20814.73828125,-1847.7440185546875,3513.4951171875,-2864.99658203125,4381.33837890625,-7449.78564453125,-5090.23681640625,-4932.08544921875,3315.607666015625,1114.20947265625,-3028.710693359375,-25.43131446838379,3736.813720703125,5222.16162109375,17026.265625,3369.649169921875,12973.1494140625,2162.45654296875,16576.44921875,-5323.88671875,-5642.57275390625,-3281.434326171875,-944.9323120117188,-6163.9150390625,1254.081787109375,6154.37841796875,7379.05517578125,4032.453125,5279.38232421875,819.3651733398438,6156.7626953125,-465.7109680175781,20170.2109375,-1953.44287109375,-0.0,-1615.6832275390625,9764.8310546875,-1803.2392578125,377.49609375,2057.55224609375,9418.328125,-5332.62890625,3457.864013671875,-5110.8994140625,-470.4793395996094,-338.55438232421875,10455.44921875,-13886.2919921875,-14572.9375,-5795.95556640625,-1549.720703125,11.126200675964355,-5962.8486328125,-1645.8829345703125,-227.29237365722656,-8781.7509765625,3801.186767578125,1276.3341064453125,1424.1536865234375,-5292.892578125,1024.4051513671875,0.0,-2608.29931640625,0.0,-1730.9189453125,-0.0,-452.2005615234375
-12308.7568359375,-12049.6748046875,-3641.4462890625,2205.371826171875,2949.23779296875,20817.12109375,-1845.35986328125,3508.726806640625,-2862.612548828125,4387.69677734375,-7472.0380859375,-5098.978515625,-4928.11181640625,3322.76025390625,1117.388427734375,-3023.1474609375,-25.43131446838379,3738.4033203125,5219.77734375,17028.650390625,3372.033447265625,12972.3544921875,2165.63525390625,16577.244140625,-5307.99267578125,-5640.9833984375,-3276.666015625,-947.3164672851562,-6167.09375,1246.1343994140625,6154.37841796875,7379.85009765625,4034.04248046875,5278.58740234375,822.5440673828125,6155.9677734375,-464.9162292480469,20169.416015625,-1960.5953369140625,-0.0,-1606.146484375,9764.03515625,-1798.4708251953125,375.1119079589844,2056.757568359375,9413.5595703125,-5342.96044921875,3460.248291015625,-5092.62109375,-453.7900390625,-339.34912109375,10451.4765625,-13895.8291015625,-14577.7060546875,-5796.75048828125,-1556.07861328125,16.689300537109375,-5950.927734375,-1655.419677734375,-232.85548400878906,-8773.8037109375,3802.7763671875,1277.923583984375,1425.7431640625,-5299.25,1023.6104736328125,0.0,-2599.55712890625,0.0,-1716.61376953125,-0.0,-445.0480041503906
-12381.0771484375,-12113.25390625,-3647.80419921875,2198.21923828125,2950.032470703125,20806.7890625,-1849.3333740234375,3503.16357421875,-2869.76513671875,4375.77587890625,-7481.5751953125,-5112.4892578125,-4917.7802734375,3300.5078125,1125.335693359375,-3027.916015625,-34.96805953979492,3732.84033203125,5214.21435546875,17021.498046875,3369.649169921875,12964.408203125,2161.661865234375,16569.294921875,-5296.0712890625,-5644.16259765625,-3271.10302734375,-956.0584716796875,-6167.09375,1225.471435546875,6148.0205078125,7369.51806640625,4027.6845703125,5271.4345703125,816.9810180664062,6145.63623046875,-468.09515380859375,20160.67578125,-1968.5428466796875,-0.0,-1605.351806640625,9756.087890625,-1797.676025390625,365.5751647949219,2052.783935546875,9407.203125,-5365.212890625,3450.71142578125,-5087.0576171875,-473.6582336425781,-333.7860107421875,10446.7080078125,-13903.77734375,-14608.701171875,-5795.16064453125,-1577.5362548828125,24.636587142944336,-5964.43798828125,-1657.0091552734375,-244.77639770507812,-8794.466796875,3795.623779296875,1271.5657958984375,1410.6431884765625,-5318.32373046875,1022.0209350585938,0.0,-2611.47802734375,0.0,-1731.713623046875,-0.0,-452.99530029296875
-12383.4609375,-12085.4375,-3651.778076171875,2202.193115234375,2942.8798828125,20807.583984375,-1855.6912841796875,3503.16357421875,-2880.89111328125,4374.18603515625,-7468.859375,-5105.33642578125,-4923.34375,3275.07666015625,1118.18310546875,-3022.35302734375,-35.762786865234375,3729.6611328125,5210.24072265625,17014.345703125,3362.49658203125,12961.228515625,2155.303955078125,16566.119140625,-5302.42919921875,-5642.57275390625,-3279.844970703125,-948.9059448242188,-6168.68359375,1224.6767578125,6143.251953125,7370.31298828125,4022.916259765625,5267.46142578125,814.5968017578125,6141.66259765625,-474.4529724121094,20159.0859375,-1939.1378173828125,-0.0,-1610.914794921875,9753.7041015625,-1804.033935546875,367.9593505859375,2045.63134765625,9405.61328125,-5355.67626953125,3455.47998046875,-5098.18408203125,-473.6582336425781,-338.55438232421875,10450.6806640625,-13907.75,-14623.80078125,-5799.134765625,-1577.5362548828125,22.25240135192871,-5970.0009765625,-1672.1090087890625,-249.54476928710938,-8800.82421875,3792.44482421875,1265.2078857421875,1393.1593017578125,-5315.939453125,1014.07373046875,0.0,-2628.962158203125,0.0,-1734.8924560546875,-0.0,-454.5847473144531
-12338.9560546875,-12041.7275390625,-3662.904052734375,2193.450927734375,2919.8330078125,20796.45703125,-1865.22802734375,3494.421630859375,-2887.2490234375,4372.5966796875,-7464.0908203125,-5101.36279296875,-4932.88037109375,3275.07666015625,1097.520263671875,-3026.326416015625,-43.7100715637207,3715.356201171875,5201.49853515625,17007.193359375,3349.781005859375,12950.8974609375,2144.97265625,16557.375,-5346.1396484375,-5650.5205078125,-3299.713134765625,-963.2110595703125,-6169.47802734375,1221.4979248046875,6132.9208984375,7361.57080078125,4011.789794921875,5260.30859375,801.8811645507812,6132.9208984375,-485.57916259765625,20152.7265625,-1966.9532470703125,-0.0,-1631.577880859375,9742.5771484375,-1819.1337890625,356.0384216308594,2036.8892822265625,9400.8447265625,-5362.82861328125,3448.327392578125,-5125.20458984375,-491.14227294921875,-358.422607421875,10442.7333984375,-13914.1083984375,-14634.1328125,-5799.134765625,-1576.7415771484375,10.33147144317627,-5962.0537109375,-1682.4404296875,-254.31314086914062,-8808.7724609375,3784.49755859375,1258.85009765625,1380.443603515625,-5307.99267578125,1012.4841918945312,0.0,-2642.472412109375,0.0,-1752.3765869140625,-0.0,-477.63189697265625
-12296.041015625,-12031.3955078125,-3658.1357421875,2199.808837890625,2927.7802734375,20797.251953125,-1858.075439453125,3493.626953125,-2881.68603515625,4365.4443359375,-7460.1171875,-5091.826171875,-4924.93310546875,3286.99755859375,1118.18310546875,-3031.8896484375,-41.32588577270508,3722.5087890625,5205.47265625,16998.44921875,3354.54931640625,12955.666015625,2152.919677734375,16558.169921875,-5336.6025390625,-5650.5205078125,-3285.407958984375,-965.59521484375,-6166.29931640625,1235.00830078125,6136.09912109375,7363.16064453125,4014.174072265625,5265.87158203125,808.239013671875,6135.3046875,-477.63189697265625,20154.318359375,-1965.36376953125,-0.0,-1624.42529296875,9744.9619140625,-1810.3917236328125,356.8331298828125,2043.2471923828125,9400.0498046875,-5366.00732421875,3456.274658203125,-5111.6943359375,-495.1159362792969,-336.9649353027344,10439.5546875,-13899.0087890625,-14608.701171875,-5795.16064453125,-1566.4100341796875,19.073486328125,-5972.38525390625,-1669.724853515625,-253.5184326171875,-8786.51953125,3790.060791015625,1259.6448974609375,1389.185546875,-5307.19775390625,1018.8421020507812,0.0,-2628.962158203125,0.0,-1741.2503662109375,-0.0,-481.60552978515625
-12335.77734375,-12036.1640625,-3656.54638671875,2205.371826171875,2935.727294921875,20802.81640625,-1852.5123291015625,3492.832275390625,-2878.5068359375,4357.49658203125,-7434.68603515625,-5087.8525390625,-4927.3173828125,3301.302734375,1126.9251708984375,-3025.53173828125,-36.55751419067383,3727.277099609375,5208.65087890625,16994.4765625,3362.49658203125,12958.84375,2156.0986328125,16560.5546875,-5328.6552734375,-5647.34130859375,-3276.666015625,-960.0321655273438,-6160.736328125,1240.5714111328125,6140.0732421875,7367.13427734375,4018.14794921875,5268.255859375,813.8020629882812,6136.09912109375,-475.2477111816406,20155.90625,-1990.00048828125,-0.0,-1618.8621826171875,9749.73046875,-1804.82861328125,362.396240234375,2045.63134765625,9395.2822265625,-5353.2919921875,3460.248291015625,-5102.95263671875,-477.63189697265625,-329.01763916015625,10441.939453125,-13923.64453125,-14594.3955078125,-5789.59814453125,-1559.257568359375,29.404958724975586,-5972.38525390625,-1667.340576171875,-273.3866271972656,-8769.830078125,3794.0341796875,1260.4395751953125,1415.41162109375,-5301.63427734375,1021.2262573242188,0.0,-2621.014892578125,0.0,-1738.0714111328125,-0.0,-460.9425964355469
-12421.6083984375,-12065.5703125,-3657.341064453125,2200.603515625,2927.7802734375,20802.021484375,-1857.28076171875,3492.03759765625,-2880.89111328125,4358.29150390625,-7443.42822265625,-5095.0048828125,-4919.3701171875,3307.660400390625,1126.9251708984375,-3032.684326171875,-36.55751419067383,3726.482421875,5205.47265625,16995.271484375,3360.9072265625,12956.4599609375,2152.919677734375,16559.759765625,-5335.8076171875,-5645.751953125,-3284.61328125,-964.0057983398438,-6175.041015625,1236.59765625,6139.2783203125,7367.13427734375,4019.7373046875,5266.66650390625,810.6231689453125,6134.51025390625,-477.63189697265625,20155.111328125,-1964.569091796875,-0.0,-1622.0411376953125,9749.73046875,-1809.5970458984375,358.422607421875,2044.0418701171875,9394.486328125,-5353.2919921875,3454.685302734375,-5118.8466796875,-485.57916259765625,-329.8123779296875,10438.759765625,-13969.7392578125,-14600.75390625,-5803.1083984375,-1565.6153564453125,24.636587142944336,-5980.3330078125,-1660.9827880859375,-267.02880859375,-8780.9560546875,3790.060791015625,1258.85009765625,1419.38525390625,-5309.58154296875,1018.04736328125,0.0,-2615.451904296875,0.0,-1735.687255859375,-0.0,-456.1742248535156
-12433.529296875,-12118.021484375,-3673.235595703125,2183.11962890625,2910.296142578125,20790.099609375,-1873.969970703125,3476.142822265625,-2892.81201171875,4352.728515625,-7474.42236328125,-5110.8994140625,-4936.0595703125,3309.25,1091.95703125,-3061.29443359375,-50.86262893676758,3711.382568359375,5191.16748046875,16988.912109375,3349.781005859375,12945.333984375,2137.820068359375,16544.66015625,-5349.31787109375,-5649.7255859375,-3307.660400390625,-983.0792846679688,-6189.34619140625,1214.3453369140625,6125.76806640625,7354.41845703125,4007.81640625,5256.3349609375,796.3180541992188,6119.41015625,-494.3211669921875,20140.013671875,-1960.5953369140625,-0.0,-1639.5250244140625,9742.5771484375,-1827.875732421875,342.52801513671875,2028.1474609375,9381.771484375,-5377.1337890625,3434.817138671875,-5137.12548828125,-510.21575927734375,-363.19097900390625,10420.4814453125,-13974.5078125,-14631.748046875,-5818.2080078125,-1592.6361083984375,-1.5894571542739868,-6007.353515625,-1662.572265625,-271.00244140625,-8810.361328125,3776.55029296875,1245.3397216796875,1409.8485107421875,-5338.98681640625,1002.9474487304688,0.0,-2624.19384765625,0.0,-1750.787109375,-0.0,-473.6582336425781
-12373.1298828125,-12122.7900390625,-3666.0830078125,2208.55078125,2925.39599609375,20808.37890625,-1862.049072265625,3487.26904296875,-2876.91748046875,4362.26513671875,-7456.9384765625,-5099.7734375,-4943.2119140625,3320.376220703125,1097.520263671875,-3057.32080078125,-35.762786865234375,3724.09814453125,5203.08837890625,17001.62890625,3364.086181640625,12961.228515625,2150.53564453125,16558.169921875,-5330.24462890625,-5620.32080078125,-3296.5341796875,-970.3636474609375,-6180.6044921875,1220.703125,6141.66259765625,7367.92919921875,4020.5322265625,5273.02392578125,809.03369140625,6132.1259765625,-479.2213439941406,20153.5234375,-1951.0587158203125,-0.0,-1624.42529296875,9765.625,-1814.3653564453125,356.0384216308594,2043.2471923828125,9393.6923828125,-5380.3125,3461.043212890625,-5113.28369140625,-491.14227294921875,-356.8331298828125,10428.4287109375,-13895.03515625,-14619.8271484375,-5809.4658203125,-1587.86767578125,-2.384185791015625,-6009.7373046875,-1645.8829345703125,-262.26043701171875,-8797.6455078125,3790.060791015625,1257.2606201171875,1422.564208984375,-5337.39697265625,1010.894775390625,0.0,-2613.067626953125,0.0,-1741.2503662109375,-0.0,-468.09515380859375
-12400.9443359375,-12118.021484375,-3669.261962890625,2203.7822265625,2915.064453125,20793.279296875,-1870.7911376953125,3480.9111328125,-2880.89111328125,4351.93408203125,-7463.29638671875,-5103.7470703125,-4942.4169921875,3321.1708984375,1097.520263671875,-3052.552490234375,-45.299530029296875,3712.971923828125,5191.9619140625,16994.4765625,3354.54931640625,12947.71875,2138.61474609375,16548.6328125,-5339.78125,-5646.546875,-3305.276123046875,-975.9266967773438,-6191.73046875,1211.1663818359375,6130.53662109375,7359.1865234375,4012.584716796875,5261.10302734375,799.4969482421875,6121.0,-488.7580871582031,20143.189453125,-1974.1058349609375,-0.0,-1633.9620361328125,9744.9619140625,-1823.902099609375,345.7069396972656,2033.71044921875,9384.1552734375,-5385.87548828125,3460.248291015625,-5127.5888671875,-499.08953857421875,-356.8331298828125,10426.044921875,-13870.3984375,-14619.033203125,-5821.38671875,-1584.6888427734375,0.0,-5998.611328125,-1668.9300537109375,-271.00244140625,-8796.0556640625,3777.344970703125,1250.108154296875,1417.7957763671875,-5340.576171875,1002.1527709960938,0.0,-2618.630615234375,0.0,-1751.581787109375,-0.0,-477.63189697265625
-12447.833984375,-12087.02734375,-3689.130126953125,2184.708740234375,2894.401611328125,20773.41015625,-1882.7120361328125,3466.606201171875,-2895.1962890625,4347.16552734375,-7487.9326171875,-5118.8466796875,-4941.6220703125,3305.276123046875,1087.188720703125,-3047.7841796875,-65.1677474975586,3698.666748046875,5177.65673828125,16981.759765625,3337.860107421875,12932.6181640625,2123.514892578125,16531.943359375,-5372.365234375,-5679.13037109375,-3315.607666015625,-993.4107055664062,-6198.08837890625,1199.2454833984375,6113.05224609375,7341.703125,3995.1005859375,5242.82470703125,782.012939453125,6103.515625,-503.0632019042969,20127.296875,-1985.2320556640625,-0.0,-1657.8038330078125,9720.3251953125,-1839.796630859375,329.01763916015625,2020.2000732421875,9370.64453125,-5397.001953125,3441.1748046875,-5153.0205078125,-514.1893920898438,-364.7804260253906,10411.7392578125,-13913.3134765625,-14621.4169921875,-5826.9501953125,-1587.072998046875,-3.1789143085479736,-5989.86962890625,-1676.0826416015625,-284.5128479003906,-8807.1826171875,3759.06640625,1235.00830078125,1406.669677734375,-5345.3447265625,989.4371337890625,0.0,-2633.730712890625,0.0,-1753.9659423828125,-0.0,-476.837158203125
-12427.1708984375,-12038.548828125,-3676.41455078125,2206.16650390625,2915.064453125,20801.2265625,-1862.049072265625,3489.6533203125,-2885.659423828125,4367.828125,-7448.9912109375,-5097.38916015625,-4936.0595703125,3302.097412109375,1103.8780517578125,-3023.1474609375,-42.91534423828125,3723.303466796875,5199.9091796875,16996.064453125,3358.523193359375,12957.2548828125,2147.356689453125,16555.78515625,-5367.59716796875,-5646.546875,-3295.739501953125,-965.59521484375,-6164.70947265625,1229.445068359375,6136.89404296875,7363.16064453125,4014.174072265625,5265.0771484375,808.239013671875,6128.94677734375,-481.60552978515625,20150.34375,-1951.8533935546875,-0.0,-1643.498779296875,9747.345703125,-1814.3653564453125,354.4489440917969,2036.8892822265625,9393.6923828125,-5392.2333984375,3461.043212890625,-5172.09375,-486.3739013671875,-349.6805725097656,10437.1708984375,-13910.134765625,-14591.216796875,-5794.3662109375,-1559.257568359375,8.74201488494873,-5969.20654296875,-1664.16162109375,-267.02880859375,-8796.0556640625,3782.11328125,1254.87646484375,1420.179931640625,-5303.22412109375,1010.894775390625,0.0,-2615.451904296875,0.0,-1735.687255859375,-0.0,-455.3794860839844
-12430.3505859375,-12016.296875,-3671.64599609375,2211.729736328125,2930.164306640625,20809.173828125,-1849.3333740234375,3497.6005859375,-2875.328125,4378.16015625,-7447.4013671875,-5090.23681640625,-4939.23828125,3313.2236328125,1109.441162109375,-3038.247314453125,-36.55751419067383,3730.4560546875,5209.44580078125,17007.986328125,3366.47021484375,12963.6123046875,2161.661865234375,16562.939453125,-5372.365234375,-5633.0361328125,-3286.20263671875,-961.62158203125,-6167.09375,1238.9818115234375,6145.63623046875,7371.107421875,4018.9423828125,5273.02392578125,812.212646484375,6136.09912109375,-472.06878662109375,20161.470703125,-1934.369384765625,-0.0,-1637.140869140625,9755.2939453125,-1796.88134765625,360.8067932128906,2044.8367919921875,9401.638671875,-5385.87548828125,3467.40087890625,-5172.88818359375,-477.63189697265625,-344.11749267578125,10443.5283203125,-13910.134765625,-14580.8857421875,-5798.33984375,-1562.4364013671875,14.30511474609375,-5977.94873046875,-1664.16162109375,-265.4393615722656,-8799.2353515625,3793.239501953125,1266.002685546875,1423.35888671875,-5292.09765625,1012.4841918945312,0.0,-2612.27294921875,0.0,-1732.50830078125,-0.0,-449.02166748046875
-12451.0126953125,-12014.70703125,-3655.75146484375,2214.114013671875,2961.15869140625,20816.326171875,-1835.0283203125,3514.289794921875,-2858.638671875,4395.6435546875,-7456.14404296875,-5081.49462890625,-4928.90673828125,3336.2705078125,1129.309326171875,-3022.35302734375,-26.226043701171875,3743.171630859375,5222.9560546875,17026.265625,3380.775390625,12972.3544921875,2179.145751953125,16574.064453125,-5345.3447265625,-5635.42041015625,-3265.539794921875,-950.4954223632812,-6179.8095703125,1249.3133544921875,6153.58349609375,7376.6708984375,4031.658203125,5279.38232421875,824.9282836914062,6145.63623046875,-452.2005615234375,20174.98046875,-1931.1904296875,-0.0,-1616.47802734375,9761.6513671875,-1770.6552734375,370.3435363769531,2063.91015625,9417.5341796875,-5377.92822265625,3471.37451171875,-5101.36279296875,-473.6582336425781,-329.01763916015625,10460.2177734375,-13921.2607421875,-14572.9375,-5811.85009765625,-1559.257568359375,22.25240135192871,-5970.0009765625,-1646.6776123046875,-257.4920654296875,-8811.951171875,3799.597412109375,1278.7183837890625,1432.1009521484375,-5306.40283203125,1023.6104736328125,0.0,-2602.736328125,0.0,-1723.766357421875,-0.0,-433.1270751953125
-12456.576171875,-12033.7802734375,-3664.49365234375,2199.013916015625,2937.31689453125,20806.7890625,-1846.154541015625,3504.753173828125,-2863.4072265625,4392.46533203125,-7465.6806640625,-5094.2099609375,-4935.2646484375,3327.52880859375,1117.388427734375,-3019.173828125,-38.14697265625,3732.04541015625,5214.21435546875,17018.318359375,3365.67578125,12962.0234375,2166.43017578125,16566.912109375,-5354.88134765625,-5644.16259765625,-3290.970947265625,-954.4690551757812,-6186.9619140625,1235.802978515625,6142.45751953125,7364.75,4018.9423828125,5267.46142578125,814.5968017578125,6134.51025390625,-464.1214904785156,20167.033203125,-1950.263916015625,-0.0,-1633.167236328125,9751.3203125,-1786.5499267578125,363.9856872558594,2055.962890625,9413.5595703125,-5379.51806640625,3456.274658203125,-5122.02587890625,-486.3739013671875,-340.1438293457031,10452.2705078125,-13928.4130859375,-14587.2431640625,-5819.00244140625,-1567.99951171875,5.563100337982178,-5972.38525390625,-1656.21435546875,-243.98167419433594,-8821.4873046875,3787.676513671875,1270.77099609375,1420.9747314453125,-5319.11865234375,1018.04736328125,0.0,-2603.53076171875,0.0,-1722.1768798828125,-0.0,-450.6111145019531
-12456.576171875,-12051.2646484375,-3655.75146484375,2195.835205078125,2911.885498046875,20799.63671875,-1858.8701171875,3495.21630859375,-2872.149169921875,4380.5439453125,-7461.70654296875,-5097.38916015625,-4928.90673828125,3319.581298828125,1104.6727294921875,-3043.015625,-38.94169998168945,3724.892822265625,5202.29345703125,17007.193359375,3360.9072265625,12956.4599609375,2149.740966796875,16558.169921875,-5338.19189453125,-5656.08349609375,-3300.5078125,-966.3899536132812,-6171.06787109375,1228.650390625,6136.89404296875,7364.75,4017.35302734375,5265.87158203125,803.4705810546875,6128.15234375,-478.4266052246094,20159.0859375,-1939.9324951171875,-0.0,-1629.98828125,9746.5517578125,-1815.16015625,354.4489440917969,2045.63134765625,9401.638671875,-5355.67626953125,3451.50634765625,-5109.31005859375,-493.5264587402344,-351.2700500488281,10434.787109375,-13918.08203125,-14588.0380859375,-5800.72412109375,-1572.767822265625,0.7947285771369934,-5986.6904296875,-1664.9564208984375,-246.36587524414062,-8814.3349609375,3778.139892578125,1261.2342529296875,1420.179931640625,-5314.35009765625,1014.07373046875,0.0,-2605.9150390625,0.0,-1726.9453125,-0.0,-465.7109680175781
-12474.8544921875,-12052.0595703125,-3644.62548828125,2195.04052734375,2915.859130859375,20798.841796875,-1864.433349609375,3489.6533203125,-2885.659423828125,4362.26513671875,-7482.3701171875,-5094.2099609375,-4927.3173828125,3307.660400390625,1111.8253173828125,-3044.605224609375,-38.14697265625,3720.91943359375,5198.31982421875,16991.296875,3364.880859375,12954.076171875,2144.97265625,16554.197265625,-5309.58154296875,-5654.49365234375,-3284.61328125,-971.1583251953125,-6167.09375,1232.6240234375,6138.4833984375,7366.33935546875,4022.121337890625,5266.66650390625,801.8811645507812,6124.17822265625,-482.4002685546875,20152.7265625,-1937.54833984375,-0.0,-1615.6832275390625,9747.345703125,-1824.6968994140625,352.06475830078125,2040.068359375,9391.3076171875,-5361.23876953125,3450.71142578125,-5082.2890625,-499.8843078613281,-344.9122009277344,10433.9912109375,-13937.9501953125,-14588.0380859375,-5797.544921875,-1572.767822265625,17.48402976989746,-5985.10107421875,-1668.13525390625,-268.6182556152344,-8814.3349609375,3772.57666015625,1252.4923095703125,1414.616943359375,-5312.7607421875,1013.2789306640625,0.0,-2611.47802734375,0.0,-1741.2503662109375,-0.0,-458.55841064453125
-12463.728515625,-12040.9326171875,-3633.4990234375,2210.934814453125,2927.7802734375,20813.146484375,-1855.6912841796875,3506.342529296875,-2884.070068359375,4385.3125,-7489.5224609375,-5084.67333984375,-4931.291015625,3309.25,1107.0570068359375,-3022.35302734375,-27.815500259399414,3731.250732421875,5209.44580078125,17007.193359375,3373.622802734375,12966.7919921875,2156.8935546875,16566.912109375,-5316.734375,-5633.8310546875,-3286.20263671875,-952.8795776367188,-6166.29931640625,1242.1607666015625,6146.43115234375,7376.6708984375,4032.453125,5277.79248046875,811.4179077148438,6135.3046875,-472.863525390625,20164.6484375,-1933.57470703125,-0.0,-1610.914794921875,9761.6513671875,-1808.80224609375,365.5751647949219,2045.63134765625,9412.765625,-5347.728515625,3465.8115234375,-5089.44189453125,-491.14227294921875,-348.8858642578125,10454.654296875,-13930.0029296875,-14583.2705078125,-5797.544921875,-1561.6417236328125,10.33147144317627,-5974.76953125,-1670.51953125,-247.16058349609375,-8799.2353515625,3786.0869140625,1262.82373046875,1424.9483642578125,-5307.19775390625,1024.4051513671875,0.0,-2596.37841796875,0.0,-1723.766357421875,-0.0,-437.1007385253906
-12474.8544921875,-12064.7744140625,-3640.651611328125,2220.4716796875,2926.985595703125,20820.298828125,-1850.9229736328125,3511.111083984375,-2880.89111328125,4386.90185546875,-7478.39599609375,-5091.826171875,-4924.93310546875,3306.86572265625,1123.7462158203125,-3018.379150390625,-28.6102294921875,3736.01904296875,5211.03515625,17009.576171875,3370.444091796875,12968.380859375,2156.8935546875,16570.88671875,-5331.03955078125,-5616.3466796875,-3282.229248046875,-940.9586791992188,-6170.27294921875,1238.1871337890625,6144.046875,7374.28662109375,4026.889892578125,5280.1767578125,813.00732421875,6138.4833984375,-469.6846008300781,20168.623046875,-1935.1640625,-0.0,-1617.272705078125,9770.3935546875,-1804.82861328125,373.5224304199219,2051.9892578125,9415.1494140625,-5339.78125,3475.34814453125,-5098.978515625,-491.9369812011719,-332.99127197265625,10459.4228515625,-13950.6650390625,-14603.1376953125,-5798.33984375,-1569.5889892578125,24.636587142944336,-5977.94873046875,-1653.0355224609375,-251.928955078125,-8799.2353515625,3789.265869140625,1264.4132080078125,1416.206298828125,-5311.9658203125,1028.3787841796875,0.0,-2610.683349609375,0.0,-1733.3031005859375,-0.0,-460.1478576660156
-12517.76953125,-12090.2060546875,-3643.035888671875,2223.650634765625,2925.39599609375,20816.326171875,-1854.896484375,3502.368896484375,-2881.68603515625,4373.3916015625,-7464.8857421875,-5097.38916015625,-4904.27001953125,3306.86572265625,1127.7198486328125,-3021.55810546875,-31.789142608642578,3732.04541015625,5203.8828125,16997.65625,3365.67578125,12964.408203125,2152.919677734375,16562.939453125,-5340.576171875,-5614.75732421875,-3282.229248046875,-955.2637939453125,-6174.24609375,1226.2662353515625,6141.66259765625,7368.7236328125,4022.916259765625,5278.58740234375,806.6495361328125,6134.51025390625,-473.6582336425781,20163.05859375,-1923.2431640625,-0.0,-1623.6304931640625,9771.1875,-1807.212890625,368.7540588378906,2048.015625,9403.228515625,-5333.423828125,3477.732421875,-5103.7470703125,-485.57916259765625,-329.01763916015625,10449.091796875,-13964.17578125,-14618.2373046875,-5803.1083984375,-1586.2783203125,25.43131446838379,-5949.33837890625,-1655.419677734375,-263.8498840332031,-8819.8974609375,3782.908203125,1258.0552978515625,1426.537841796875,-5313.55517578125,1019.6367797851562,0.0,-2619.425537109375,0.0,-1742.0450439453125,-0.0,-469.6846008300781
-12574.990234375,-12091.0009765625,-3653.3671875,2210.14013671875,2905.52783203125,20796.45703125,-1874.7647705078125,3480.9111328125,-2889.63330078125,4351.13916015625,-7497.46923828125,-5101.36279296875,-4922.548828125,3321.1708984375,1093.5465087890625,-3046.19482421875,-45.299530029296875,3711.382568359375,5186.39892578125,16984.14453125,3349.781005859375,12946.9228515625,2136.23046875,16546.25,-5355.67626953125,-5642.57275390625,-3308.455322265625,-976.721435546875,-6186.16748046875,1219.9083251953125,6124.97314453125,7359.1865234375,4010.200439453125,5264.2822265625,774.065673828125,6117.82080078125,-494.3211669921875,20145.57421875,-1915.2958984375,-0.0,-1637.9356689453125,9748.935546875,-1828.6705322265625,349.6805725097656,2031.3262939453125,9382.5654296875,-5340.576171875,3466.606201171875,-5130.767578125,-495.91064453125,-360.0120544433594,10424.455078125,-13983.25,-14615.853515625,-5815.82421875,-1591.046630859375,-7.152557373046875,-5962.0537109375,-1670.51953125,-271.79718017578125,-8836.5869140625,3762.2451171875,1242.1607666015625,1437.6640625,-5338.19189453125,1009.3053588867188,0.0,-2617.041259765625,0.0,-1742.83984375,-0.0,-466.50567626953125
-12591.6796875,-12061.595703125,-3650.983154296875,2201.398193359375,2907.1171875,20793.279296875,-1872.380615234375,3480.11669921875,-2880.89111328125,4355.9072265625,-7481.5751953125,-5097.38916015625,-4947.185546875,3319.581298828125,1096.7254638671875,-3039.8369140625,-42.91534423828125,3712.971923828125,5187.193359375,16993.681640625,3351.37060546875,12945.333984375,2138.61474609375,16547.044921875,-5371.57080078125,-5660.05712890625,-3302.097412109375,-976.721435546875,-6181.39892578125,1217.524169921875,6124.97314453125,7362.36572265625,4014.174072265625,5261.89794921875,764.5289306640625,6116.2314453125,-492.73175048828125,20146.369140625,-1899.4013671875,-0.0,-1636.34619140625,9742.5771484375,-1827.0810546875,346.5016784667969,2036.8892822265625,9385.7451171875,-5346.93408203125,3457.0693359375,-5135.5361328125,-506.2420959472656,-356.8331298828125,10426.044921875,-13941.12890625,-14599.1640625,-5812.64501953125,-1580.7152099609375,-3.9736428260803223,-5961.25927734375,-1661.7774658203125,-271.79718017578125,-8815.9248046875,3761.450439453125,1246.92919921875,1436.0745849609375,-5318.32373046875,1010.1000366210938,0.0,-2617.8359375,0.0,-1745.2239990234375,-0.0,-464.1214904785156
-12536.048828125,-12053.6494140625,-3666.0830078125,2200.603515625,2903.938232421875,20794.869140625,-1877.14892578125,3479.32177734375,-2886.454345703125,4351.93408203125,-7448.9912109375,-5092.62109375,-4952.74853515625,3305.276123046875,1097.520263671875,-3038.247314453125,-42.91534423828125,3713.766845703125,5183.2197265625,16986.529296875,3348.19140625,12944.5390625,2135.435791015625,16545.453125,-5427.99609375,-5664.8251953125,-3309.25,-975.9266967773438,-6175.8359375,1226.2662353515625,6122.5888671875,7364.75,4014.174072265625,5260.30859375,762.939453125,6115.4365234375,-495.91064453125,20143.986328125,-1906.5538330078125,-0.0,-1648.26708984375,9740.193359375,-1831.8494873046875,345.7069396972656,2029.73681640625,9385.7451171875,-5380.3125,3454.685302734375,-5156.19921875,-503.85791015625,-357.62786865234375,10429.22265625,-13899.802734375,-14588.8330078125,-5803.9033203125,-1568.794189453125,-7.152557373046875,-5962.0537109375,-1674.4931640625,-274.9761047363281,-8811.951171875,3756.68212890625,1243.750244140625,1412.2327880859375,-5312.7607421875,1002.1527709960938,0.0,-2630.551513671875,0.0,-1756.3502197265625,-0.0,-478.4266052246094
-12482.0068359375,-12089.412109375,-3697.8720703125,2175.967041015625,2907.912109375,20778.974609375,-1893.8382568359375,3460.248291015625,-2923.806396484375,4319.349609375,-7447.4013671875,-5111.6943359375,-4963.875,3264.7451171875,1084.8045654296875,-3056.526123046875,-60.39937210083008,3699.461669921875,5163.3515625,16944.408203125,3333.886474609375,12927.849609375,2122.719970703125,16527.970703125,-5400.1806640625,-5678.33544921875,-3323.554931640625,-994.2054443359375,-6210.00927734375,1212.755859375,6108.2841796875,7349.64990234375,3994.30615234375,5245.208984375,751.813232421875,6098.7470703125,-514.1893920898438,20124.1171875,-1935.9588623046875,-0.0,-1655.419677734375,9723.50390625,-1839.796630859375,328.222900390625,2003.5107421875,9360.3134765625,-5424.8173828125,3429.25390625,-5164.94140625,-519.7525024414062,-369.5487976074219,10406.1767578125,-13905.3662109375,-14603.9326171875,-5839.666015625,-1583.8941650390625,-18.278757095336914,-5981.12744140625,-1696.7454833984375,-303.5863342285156,-8833.408203125,3741.582275390625,1215.1400146484375,1368.522705078125,-5345.3447265625,985.4635009765625,0.0,-2655.98291015625,0.0,-1782.576171875,-0.0,-509.4210510253906
-12509.8232421875,-12081.4638671875,-3688.33544921875,2174.37744140625,2924.601318359375,20782.15234375,-1891.4541015625,3465.0166015625,-2927.7802734375,4325.7080078125,-7477.6015625,-5111.6943359375,-4959.9013671875,3269.513427734375,1085.5992431640625,-3057.32080078125,-58.80991744995117,3701.845947265625,5167.32568359375,16942.8203125,3341.833740234375,12931.82421875,2129.87255859375,16531.943359375,-5377.1337890625,-5671.18310546875,-3315.607666015625,-991.8212890625,-6214.77734375,1214.3453369140625,6113.05224609375,7347.265625,3995.8955078125,5247.5927734375,761.3499755859375,6103.515625,-509.4210510253906,20129.6796875,-1968.5428466796875,-0.0,-1643.498779296875,9728.2724609375,-1830.2598876953125,332.99127197265625,2005.8948974609375,9365.8759765625,-5391.43896484375,3428.459228515625,-5143.4833984375,-522.931396484375,-369.5487976074219,10411.7392578125,-13926.029296875,-14602.34375,-5844.43408203125,-1585.4835205078125,-16.689300537109375,-5994.63818359375,-1695.9508056640625,-304.38104248046875,-8831.0244140625,3744.76123046875,1215.1400146484375,1386.0067138671875,-5345.3447265625,990.2318725585938,0.0,-2640.08837890625,0.0,-1767.4764404296875,-0.0,-492.73175048828125
-12520.154296875,-12033.7802734375,-3647.009521484375,2204.5771484375,2958.774658203125,20811.55859375,-1858.075439453125,3503.95849609375,-2895.1962890625,4355.9072265625,-7484.75390625,-5088.6474609375,-4938.44384765625,3309.25,1116.59375,-3017.58447265625,-34.96805953979492,3728.072021484375,5199.1142578125,16977.787109375,3373.622802734375,12958.84375,2162.45654296875,16564.52734375,-5319.91357421875,-5639.39404296875,-3280.6396484375,-954.4690551757812,-6194.90966796875,1242.1607666015625,6140.86767578125,7366.33935546875,4026.094970703125,5274.61376953125,791.5496826171875,6132.1259765625,-476.837158203125,20163.05859375,-1935.1640625,-0.0,-1606.941162109375,9758.47265625,-1794.4971923828125,365.5751647949219,2039.2735595703125,9407.9970703125,-5337.39697265625,3461.043212890625,-5100.568359375,-499.08953857421875,-338.55438232421875,10452.2705078125,-13922.8505859375,-14579.2958984375,-5823.77099609375,-1563.2310791015625,12.715657234191895,-5970.0009765625,-1666.5458984375,-262.26043701171875,-8823.8720703125,3774.960693359375,1250.108154296875,1423.35888671875,-5335.8076171875,1014.07373046875,0.0,-2615.451904296875,0.0,-1745.2239990234375,-0.0,-460.9425964355469
-12489.955078125,-12006.759765625,-3626.3466796875,2235.571533203125,2958.774658203125,20839.373046875,-1827.875732421875,3530.979248046875,-2864.201904296875,4390.0810546875,-7431.50732421875,-5055.2685546875,-4896.32275390625,3330.70751953125,1159.509033203125,-2998.510986328125,-3.1789143085479736,3758.271484375,5226.93017578125,17008.78125,3395.08056640625,12989.0439453125,2187.887939453125,16591.548828125,-5272.2294921875,-5610.7841796875,-3249.645263671875,-929.0377197265625,-6163.1201171875,1269.976318359375,6169.47802734375,7402.89697265625,4053.91064453125,5304.8134765625,813.8020629882812,6159.94140625,-447.43218994140625,20190.875,-1872.380615234375,-0.0,-1592.6361083984375,9787.876953125,-1770.6552734375,391.80120849609375,2069.47314453125,9435.017578125,-5343.75537109375,3490.447998046875,-5059.2421875,-466.50567626953125,-294.84429931640625,10476.1123046875,-13869.603515625,-14556.2490234375,-5791.1875,-1535.4156494140625,47.6837158203125,-5926.291015625,-1636.34619140625,-225.7029266357422,-8788.1083984375,3801.186767578125,1277.923583984375,1448.7901611328125,-5300.044921875,1049.041748046875,0.0,-2576.51025390625,0.0,-1701.513916015625,-0.0,-429.94818115234375
-12478.0341796875,-12017.8857421875,-3631.114990234375,2243.518798828125,2946.05908203125,20845.732421875,-1827.0810546875,3530.1845703125,-2853.870361328125,4409.94873046875,-7424.3544921875,-5041.75830078125,-4909.03857421875,3343.423095703125,1149.177490234375,-3004.07421875,2.384185791015625,3762.2451171875,5230.90380859375,17027.05859375,3393.490966796875,12996.9912109375,2187.887939453125,16594.728515625,-5292.892578125,-5598.068359375,-3254.41357421875,-929.8324584960938,-6163.9150390625,1269.976318359375,6172.6572265625,7410.04931640625,4056.294921875,5310.37646484375,813.00732421875,6164.70947265625,-448.2269287109375,20194.849609375,-1874.7647705078125,-0.0,-1606.146484375,9796.619140625,-1779.3973388671875,394.9801025390625,2072.652099609375,9433.4287109375,-5347.728515625,3499.190185546875,-5054.4736328125,-460.9425964355469,-305.17578125,10472.138671875,-13871.9873046875,-14548.3017578125,-5790.392578125,-1536.21044921875,22.25240135192871,-5914.3701171875,-1638.7303466796875,-222.5240020751953,-8775.3935546875,3805.16064453125,1286.66552734375,1469.4532470703125,-5284.94482421875,1062.5521240234375,0.0,-2560.615478515625,0.0,-1680.0562744140625,-0.0,-412.4641418457031
-12494.7236328125,-12023.44921875,-3629.525390625,2248.287109375,2940.495849609375,20844.140625,-1835.822998046875,3525.416015625,-2863.4072265625,4398.82275390625,-7398.92333984375,-5044.93701171875,-4929.701171875,3345.0126953125,1131.6934814453125,-3005.66357421875,0.7947285771369934,3759.06640625,5224.5458984375,17018.318359375,3390.312255859375,12993.0185546875,2182.32470703125,16590.75390625,-5304.8134765625,-5598.86328125,-3270.308349609375,-933.0113525390625,-6150.404296875,1270.77099609375,6171.8623046875,7410.04931640625,4053.91064453125,5307.99267578125,809.8284301757812,6162.3251953125,-456.1742248535156,20186.900390625,-1889.0699462890625,-0.0,-1606.146484375,9794.2353515625,-1790.5235595703125,393.3906555175781,2064.704833984375,9424.6865234375,-5335.0126953125,3503.95849609375,-5077.52099609375,-454.5847473144531,-323.45452880859375,10467.3701171875,-13866.4248046875,-14554.66015625,-5780.85546875,-1525.0841064453125,-1.5894571542739868,-5924.70166015625,-1641.1146240234375,-241.5974884033203,-8781.7509765625,3804.365966796875,1280.3077392578125,1459.1217041015625,-5288.9189453125,1060.16796875,0.0,-2576.51025390625,0.0,-1707.0770263671875,-0.0,-431.5376281738281
-12528.1015625,-12040.9326171875,-3644.62548828125,2232.392578125,2927.7802734375,20833.015625,-1842.180908203125,3517.46875,-2868.175537109375,4391.67041015625,-7408.4599609375,-5063.2158203125,-4932.88037109375,3321.1708984375,1140.435546875,-3011.2265625,-14.30511474609375,3747.1455078125,5216.5986328125,17013.55078125,3376.8017578125,12977.91796875,2171.9931640625,16578.83203125,-5315.939453125,-5617.9365234375,-3282.229248046875,-940.9586791992188,-6145.63623046875,1263.618408203125,6156.7626953125,7394.94921875,4039.605712890625,5292.09765625,798.7022705078125,6150.404296875,-461.7373046875,20179.748046875,-1889.0699462890625,-0.0,-1617.272705078125,9778.3408203125,-1799.2655029296875,383.8539123535156,2062.32080078125,9419.1240234375,-5350.11279296875,3488.8583984375,-5102.15771484375,-466.50567626953125,-315.50726318359375,10460.2177734375,-13891.8564453125,-14561.8125,-5777.67724609375,-1524.2894287109375,7.152557373046875,-5940.59619140625,-1627.6041259765625,-246.36587524414062,-8805.5927734375,3799.597412109375,1273.1552734375,1442.432373046875,-5297.66064453125,1037.91552734375,0.0,-2598.762451171875,0.0,-1726.1505126953125,-0.0,-444.2532958984375
-12544.791015625,-12063.185546875,-3673.235595703125,2208.55078125,2899.964599609375,20810.76171875,-1868.4068603515625,3501.57421875,-2870.5595703125,4389.2861328125,-7450.58056640625,-5092.62109375,-4952.74853515625,3330.70751953125,1089.5728759765625,-3025.53173828125,-43.7100715637207,3720.91943359375,5192.7568359375,17013.55078125,3348.986328125,12954.076171875,2146.561767578125,16556.58203125,-5350.11279296875,-5635.42041015625,-3321.1708984375,-960.826904296875,-6172.6572265625,1235.00830078125,6128.15234375,7365.544921875,4010.995361328125,5264.2822265625,772.4761962890625,6125.76806640625,-485.57916259765625,20161.470703125,-1920.8590087890625,-0.0,-1645.088134765625,9756.087890625,-1828.6705322265625,362.396240234375,2040.863037109375,9409.5869140625,-5380.3125,3465.0166015625,-5136.3310546875,-488.7580871582031,-363.9856872558594,10444.3232421875,-13905.3662109375,-14582.474609375,-5804.69775390625,-1557.6680908203125,-15.894571304321289,-5963.6435546875,-1667.340576171875,-252.72369384765625,-8835.79296875,3778.9345703125,1261.2342529296875,1432.1009521484375,-5311.9658203125,1008.5106201171875,0.0,-2630.551513671875,0.0,-1746.8134765625,-0.0,-453.7900390625
-12549.5595703125,-12074.3115234375,-3691.51416015625,2189.477294921875,2884.070068359375,20791.689453125,-1881.9173583984375,3487.26904296875,-2872.94384765625,4387.69677734375,-7494.291015625,-5111.6943359375,-4947.185546875,3327.52880859375,1076.0625,-3050.963134765625,-65.96247100830078,3703.435302734375,5180.041015625,17009.576171875,3330.70751953125,12936.591796875,2131.462158203125,16541.48046875,-5383.49169921875,-5653.69921875,-3331.502197265625,-981.4898071289062,-6194.11474609375,1214.3453369140625,6109.87353515625,7348.85546875,3991.921875,5247.5927734375,756.5816040039062,6106.69482421875,-499.8843078613281,20145.57421875,-1947.0850830078125,-0.0,-1667.340576171875,9738.6044921875,-1841.38623046875,342.52801513671875,2028.942138671875,9399.2548828125,-5411.306640625,3446.738037109375,-5151.4306640625,-516.5736083984375,-379.0855407714844,10429.22265625,-13892.650390625,-14603.1376953125,-5826.1552734375,-1586.2783203125,-14.30511474609375,-5987.4853515625,-1687.208740234375,-263.05517578125,-8849.3037109375,3764.62939453125,1250.108154296875,1424.9483642578125,-5334.21826171875,986.2581787109375,0.0,-2638.4990234375,0.0,-1755.5555419921875,-0.0,-473.6582336425781
-12572.6064453125,-12078.28515625,-3684.36181640625,2179.145751953125,2894.401611328125,20786.126953125,-1870.7911376953125,3483.29541015625,-2867.380859375,4383.72265625,-7476.806640625,-5116.462890625,-4917.7802734375,3325.14453125,1110.23583984375,-3058.910400390625,-67.55193328857422,3702.640625,5183.2197265625,17008.78125,3334.68115234375,12932.6181640625,2137.025146484375,16538.30078125,-5377.92822265625,-5670.388671875,-3305.276123046875,-984.668701171875,-6182.19384765625,1212.755859375,6109.87353515625,7345.67626953125,3995.8955078125,5243.61962890625,759.7605590820312,6104.310546875,-489.55279541015625,20143.189453125,-1948.674560546875,-0.0,-1660.1881103515625,9732.24609375,-1829.4652099609375,339.34912109375,2038.4788818359375,9392.1025390625,-5398.59130859375,3433.2275390625,-5135.5361328125,-522.931396484375,-345.7069396972656,10424.455078125,-13899.0087890625,-14607.1123046875,-5815.029296875,-1578.3310546875,22.25240135192871,-5995.4326171875,-1661.7774658203125,-278.9497375488281,-8850.8916015625,3767.80810546875,1249.3133544921875,1426.537841796875,-5330.24462890625,981.4898071289062,0.0,-2648.03564453125,0.0,-1759.529052734375,-0.0,-479.2213439941406
-12621.0849609375,-12075.1064453125,-3694.693359375,2164.8408203125,2882.480712890625,20775.0,-1882.7120361328125,3464.221923828125,-2888.838623046875,4352.728515625,-7491.11181640625,-5128.3837890625,-4939.23828125,3290.970947265625,1101.493896484375,-3070.03662109375,-80.26758575439453,3689.130126953125,5167.32568359375,16979.375,3323.554931640625,12919.1083984375,2121.92529296875,16523.99609375,-5381.107421875,-5687.87255859375,-3319.581298828125,-996.5896606445312,-6201.26708984375,1202.4244384765625,6099.5419921875,7332.96044921875,3984.769287109375,5230.90380859375,748.6343383789062,6089.21044921875,-504.6526794433594,20128.091796875,-1951.8533935546875,-0.0,-1668.9300537109375,9717.94140625,-1842.180908203125,325.8387145996094,2025.7633056640625,9369.0556640625,-5408.12841796875,3417.3330078125,-5149.04638671875,-530.083984375,-355.2436828613281,10408.560546875,-13946.6923828125,-14629.3642578125,-5832.51318359375,-1586.2783203125,-0.7947285771369934,-6026.4267578125,-1658.5985107421875,-311.5335998535156,-8868.376953125,3752.70849609375,1229.445068359375,1401.1064453125,-5347.728515625,966.3899536132812,0.0,-2670.2880859375,0.0,-1785.755126953125,-0.0,-491.14227294921875
-12664.794921875,-12079.875,-3707.408935546875,2160.072265625,2859.433349609375,20763.078125,-1916.8853759765625,3445.1484375,-2947.648193359375,4306.63427734375,-7522.10595703125,-5133.94677734375,-4982.1533203125,3218.65087890625,1044.2734375,-3076.394287109375,-91.39379119873047,3673.235595703125,5140.3046875,16922.15625,3307.660400390625,12905.59765625,2100.4677734375,16508.1015625,-5401.77001953125,-5694.23046875,-3364.086181640625,-1014.07373046875,-6228.2880859375,1198.45068359375,6086.826171875,7324.21875,3969.66943359375,5221.36669921875,728.76611328125,6072.52099609375,-535.6470947265625,20110.607421875,-1953.44287109375,-0.0,-1686.4140625,9706.0205078125,-1871.5858154296875,309.1494140625,1981.2584228515625,9344.4189453125,-5421.638671875,3413.359375,-5176.0673828125,-534.8523559570312,-412.4641418457031,10390.28125,-13980.865234375,-14638.1064453125,-5859.53369140625,-1588.6624755859375,-49.27317428588867,-6047.08984375,-1723.766357421875,-329.01763916015625,-8876.3232421875,3732.84033203125,1194.47705078125,1327.19677734375,-5370.77587890625,958.4426879882812,0.0,-2674.26171875,0.0,-1802.4444580078125,-0.0,-528.4945068359375
-12688.63671875,-12082.2587890625,-3696.28271484375,2163.251220703125,2868.97021484375,20767.84765625,-1916.090576171875,3453.095703125,-2965.92724609375,4313.787109375,-7515.74853515625,-5128.3837890625,-4982.9482421875,3206.72998046875,1037.120849609375,-3071.6259765625,-84.2412338256836,3678.798583984375,5141.89404296875,16907.056640625,3317.991943359375,12912.75,2106.03076171875,16513.666015625,-5389.0546875,-5687.87255859375,-3361.701904296875,-1004.5369873046875,-6235.44091796875,1199.2454833984375,6093.18408203125,7329.7822265625,3980.79541015625,5226.93017578125,735.918701171875,6078.87890625,-534.8523559570312,20114.580078125,-1951.8533935546875,-0.0,-1676.8773193359375,9709.19921875,-1866.8175048828125,316.3019714355469,1974.9005126953125,9351.5712890625,-5412.896484375,3415.74365234375,-5167.32568359375,-530.8787231445312,-417.2325134277344,10398.228515625,-13971.3291015625,-14626.9794921875,-5865.09716796875,-1587.86767578125,-43.7100715637207,-6027.2216796875,-1740.45556640625,-310.7388916015625,-8870.7607421875,3737.608642578125,1192.8876953125,1310.5074462890625,-5382.69677734375,965.59521484375,0.0,-2657.572509765625,0.0,-1775.4237060546875,-0.0,-518.957763671875
-12671.947265625,-12068.748046875,-3666.0830078125,2180.7353515625,2899.169921875,20789.3046875,-1893.04345703125,3472.964111328125,-2952.416748046875,4324.9130859375,-7506.2119140625,-5106.92578125,-4962.28564453125,3228.1875,1067.3204345703125,-3048.578857421875,-58.80991744995117,3702.640625,5164.94140625,16916.59375,3346.602294921875,12938.181640625,2131.462158203125,16535.123046875,-5354.88134765625,-5668.00439453125,-3333.886474609375,-980.6951293945312,-6223.52001953125,1216.7294921875,6118.61572265625,7352.8291015625,4005.43212890625,5250.77197265625,763.7341918945312,6102.720703125,-511.0104675292969,20136.037109375,-1919.26953125,-0.0,-1645.088134765625,9733.041015625,-1840.5914306640625,338.55438232421875,1996.358154296875,9369.0556640625,-5376.3388671875,3435.61181640625,-5136.3310546875,-514.984130859375,-389.4170227050781,10419.6865234375,-13947.4873046875,-14599.958984375,-5853.17626953125,-1573.5626220703125,-25.43131446838379,-5994.63818359375,-1712.64013671875,-292.4601135253906,-8856.4560546875,3756.68212890625,1210.37158203125,1351.8333740234375,-5366.80224609375,988.642333984375,0.0,-2634.525390625,0.0,-1753.1712646484375,-0.0,-491.9369812011719
-12636.9794921875,-12067.1591796875,-3643.035888671875,2197.424560546875,2926.985595703125,20816.326171875,-1863.6385498046875,3494.421630859375,-2913.47509765625,4347.16552734375,-7495.8798828125,-5092.62109375,-4944.80126953125,3275.07666015625,1092.7518310546875,-3034.27392578125,-34.96805953979492,3728.86669921875,5192.7568359375,16952.35546875,3372.033447265625,12963.6123046875,2159.277587890625,16561.349609375,-5331.03955078125,-5636.21533203125,-3308.455322265625,-963.2110595703125,-6195.7041015625,1233.4188232421875,6144.046875,7373.49169921875,4030.06884765625,5276.203125,792.3444213867188,6128.94677734375,-482.4002685546875,20161.470703125,-1917.68017578125,-0.0,-1618.8621826171875,9760.8564453125,-1812.7760009765625,360.8067932128906,2026.557861328125,9396.076171875,-5361.23876953125,3451.50634765625,-5133.94677734375,-498.2948303222656,-364.7804260253906,10441.1435546875,-13945.1025390625,-14595.19140625,-5824.56591796875,-1559.257568359375,-21.457672119140625,-5985.10107421875,-1682.4404296875,-272.5919189453125,-8853.2763671875,3782.11328125,1240.5714111328125,1384.417236328125,-5358.85498046875,1010.1000366210938,0.0,-2609.093994140625,0.0,-1749.992431640625,-0.0,-487.9633483886719
-12642.54296875,-12062.390625,-3631.90966796875,2223.650634765625,2943.6748046875,20843.34765625,-1832.6441650390625,3525.416015625,-2868.97021484375,4385.3125,-7461.70654296875,-5074.34228515625,-4932.88037109375,3337.860107421875,1125.335693359375,-3009.63720703125,-12.715657234191895,3754.2978515625,5225.34033203125,16996.861328125,3388.72265625,12987.4541015625,2184.708740234375,16589.9609375,-5360.4443359375,-5608.39990234375,-3290.17626953125,-932.2166748046875,-6178.22021484375,1254.87646484375,6166.29931640625,7398.12841796875,4049.936767578125,5301.63427734375,814.5968017578125,6155.9677734375,-452.2005615234375,20193.2578125,-1887.4803466796875,-0.0,-1617.272705078125,9786.2880859375,-1786.5499267578125,390.21173095703125,2063.115478515625,9427.865234375,-5346.93408203125,3480.11669921875,-5168.1201171875,-478.4266052246094,-330.6070861816406,10471.34375,-13945.1025390625,-14588.0380859375,-5807.08154296875,-1540.18408203125,-4.76837158203125,-5965.23291015625,-1645.088134765625,-241.5974884033203,-8826.255859375,3815.491943359375,1277.1287841796875,1447.2008056640625,-5321.5029296875,1035.5313720703125,0.0,-2572.536376953125,0.0,-1711.0506591796875,-0.0,-452.2005615234375
-12683.07421875,-12079.875,-3661.314697265625,2222.855712890625,2938.111572265625,20829.04296875,-1838.207275390625,3517.46875,-2869.76513671875,4373.3916015625,-7472.0380859375,-5085.46826171875,-4968.64306640625,3344.218017578125,1119.7725830078125,-3008.0478515625,-28.6102294921875,3743.171630859375,5215.8037109375,16988.912109375,3372.828125,12974.7392578125,2177.556396484375,16578.83203125,-5391.43896484375,-5632.24169921875,-3302.097412109375,-945.72705078125,-6207.625,1242.95556640625,6152.78857421875,7383.8232421875,4035.631591796875,5288.1240234375,803.4705810546875,6141.66259765625,-458.55841064453125,20183.720703125,-1886.6856689453125,-0.0,-1640.31982421875,9768.0087890625,-1788.93408203125,378.2908020019531,2060.731201171875,9419.91796875,-5375.5439453125,3479.32177734375,-5145.86767578125,-481.60552978515625,-336.9649353027344,10463.3974609375,-13958.61328125,-14602.34375,-5837.28173828125,-1548.926025390625,-11.920928955078125,-5947.74853515625,-1643.498779296875,-250.33950805664062,-8845.3291015625,3810.7236328125,1269.976318359375,1450.3797607421875,-5338.19189453125,1024.4051513671875,0.0,-2572.536376953125,0.0,-1712.64013671875,-0.0,-455.3794860839844
-12643.3369140625,-12079.080078125,-3674.0302734375,2202.98779296875,2921.42236328125,20800.431640625,-1861.25439453125,3488.063720703125,-2897.580322265625,4338.42333984375,-7486.34326171875,-5102.15771484375,-4975.0009765625,3306.86572265625,1101.493896484375,-3034.27392578125,-50.86262893676758,3716.945556640625,5187.98828125,16955.533203125,3355.343994140625,12950.8974609375,2156.8935546875,16551.8125,-5382.69677734375,-5660.05712890625,-3317.197021484375,-975.1319580078125,-6206.03564453125,1227.855712890625,6129.74169921875,7365.544921875,4014.96875,5263.4873046875,784.3970947265625,6115.4365234375,-480.810791015625,20156.701171875,-1897.01708984375,-0.0,-1651.446044921875,9744.9619140625,-1803.2392578125,348.8858642578125,2034.505126953125,9389.7177734375,-5384.28662109375,3457.864013671875,-5133.94677734375,-516.5736083984375,-356.0384216308594,10433.197265625,-13945.1025390625,-14605.5224609375,-5835.69189453125,-1566.4100341796875,-26.226043701171875,-5974.76953125,-1664.9564208984375,-280.5391845703125,-8868.376953125,3785.29248046875,1238.9818115234375,1405.0802001953125,-5353.2919921875,1004.5369873046875,0.0,-2606.709716796875,0.0,-1743.634521484375,-0.0,-483.9897155761719
-12635.390625,-12062.390625,-3682.7724609375,2191.861328125,2886.454345703125,20791.689453125,-1882.7120361328125,3471.37451171875,-2914.269775390625,4330.47607421875,-7476.01171875,-5101.36279296875,-4965.46435546875,3298.91845703125,1087.188720703125,-3050.963134765625,-64.37301635742188,3700.25634765625,5168.9150390625,16942.8203125,3338.65478515625,12936.591796875,2131.462158203125,16537.5078125,-5385.0810546875,-5657.6728515625,-3334.68115234375,-987.84765625,-6214.77734375,1227.0609130859375,6113.84716796875,7354.41845703125,3999.868896484375,5249.18212890625,758.1710815429688,6100.33642578125,-502.26849365234375,20140.806640625,-1931.1904296875,-0.0,-1665.7510986328125,9738.6044921875,-1837.4124755859375,334.58074951171875,2016.2265625,9376.2080078125,-5404.94921875,3446.738037109375,-5126.79443359375,-520.5472412109375,-369.5487976074219,10419.6865234375,-13933.181640625,-14594.3955078125,-5844.43408203125,-1573.5626220703125,-30.994415283203125,-6012.12158203125,-1678.466796875,-293.2548522949219,-8859.634765625,3761.450439453125,1221.4979248046875,1395.54345703125,-5355.67626953125,996.5896606445312,0.0,-2618.630615234375,0.0,-1751.581787109375,-0.0,-485.57916259765625
-12620.2900390625,-12067.9541015625,-3679.59326171875,2202.193115234375,2882.480712890625,20796.45703125,-1883.5068359375,3475.34814453125,-2910.296142578125,4335.24462890625,-7452.169921875,-5086.26318359375,-4939.23828125,3301.302734375,1102.28857421875,-3044.605224609375,-54.836273193359375,3701.051025390625,5167.32568359375,16947.587890625,3341.0390625,12938.9765625,2123.514892578125,16537.5078125,-5368.3916015625,-5652.904296875,-3317.197021484375,-980.6951293945312,-6210.00927734375,1238.1871337890625,6118.61572265625,7367.13427734375,4005.43212890625,5260.30859375,756.5816040039062,6101.92626953125,-503.0632019042969,20141.6015625,-1895.427734375,-0.0,-1660.1881103515625,9743.373046875,-1852.5123291015625,340.1438293457031,2019.4053955078125,9378.5927734375,-5381.90234375,3457.0693359375,-5091.03173828125,-521.3419799804688,-353.65423583984375,10424.455078125,-13918.876953125,-14580.8857421875,-5838.87109375,-1564.02587890625,-14.30511474609375,-6015.30078125,-1672.1090087890625,-295.6390380859375,-8834.998046875,3753.503173828125,1223.0872802734375,1401.1064453125,-5338.98681640625,1008.5106201171875,0.0,-2628.16748046875,0.0,-1755.5555419921875,-0.0,-484.7844543457031
-12594.0634765625,-12030.6015625,-3633.4990234375,2232.392578125,2919.8330078125,20823.478515625,-1857.28076171875,3502.368896484375,-2892.017333984375,4363.85498046875,-7425.94384765625,-5056.06298828125,-4920.95947265625,3311.634033203125,1126.9251708984375,-3015.200439453125,-24.636587142944336,3732.04541015625,5191.9619140625,16974.607421875,3372.033447265625,12968.380859375,2152.125,16564.52734375,-5335.8076171875,-5627.47314453125,-3292.560546875,-952.8795776367188,-6158.35205078125,1266.002685546875,6150.404296875,7397.33349609375,4039.605712890625,5291.30322265625,789.16552734375,6131.3310546875,-476.04241943359375,20167.033203125,-1873.17529296875,-0.0,-1624.42529296875,9771.9833984375,-1818.3389892578125,367.16461181640625,2040.068359375,9402.4345703125,-5314.35009765625,3488.063720703125,-5083.87890625,-480.810791015625,-328.222900390625,10452.2705078125,-13906.9560546875,-14544.328125,-5789.59814453125,-1536.21044921875,2.384185791015625,-5981.92236328125,-1653.0355224609375,-265.4393615722656,-8799.2353515625,3769.397705078125,1247.723876953125,1426.537841796875,-5299.25,1035.5313720703125,0.0,-2602.736328125,0.0,-1728.53466796875,-0.0,-456.96893310546875
-12604.3955078125,-12003.5810546875,-3639.85693359375,2226.82958984375,2913.47509765625,20822.68359375,-1862.8438720703125,3502.368896484375,-2890.427734375,4371.8017578125,-7429.123046875,-5060.037109375,-4936.85400390625,3313.2236328125,1113.414794921875,-3014.405517578125,-26.226043701171875,3729.6611328125,5188.783203125,16980.966796875,3366.47021484375,12966.7919921875,2147.356689453125,16559.759765625,-5344.5498046875,-5629.857421875,-3303.686767578125,-954.4690551757812,-6159.94140625,1254.87646484375,6144.841796875,7396.5390625,4035.631591796875,5284.150390625,783.6024169921875,6128.94677734375,-480.810791015625,20166.23828125,-1881.12255859375,-0.0,-1629.193603515625,9771.9833984375,-1822.312744140625,367.16461181640625,2036.8892822265625,9406.4072265625,-5338.19189453125,3482.500732421875,-5108.51513671875,-483.1949768066406,-340.1438293457031,10453.064453125,-13850.529296875,-14540.3544921875,-5788.00830078125,-1534.620849609375,-2.384185791015625,-5970.0009765625,-1654.625,-258.28680419921875,-8792.876953125,3752.70849609375,1247.723876953125,1437.6640625,-5285.73974609375,1029.96826171875,0.0,-2592.404541015625,0.0,-1713.434814453125,-0.0,-439.48492431640625
-12653.66796875,-12016.296875,-3659.72509765625,2207.756103515625,2903.1435546875,20805.201171875,-1878.7384033203125,3484.885009765625,-2899.964599609375,4361.470703125,-7444.22314453125,-5090.23681640625,-4943.2119140625,3307.660400390625,1097.520263671875,-3037.45263671875,-41.32588577270508,3708.99853515625,5172.88818359375,16966.662109375,3349.781005859375,12950.1025390625,2130.66748046875,16543.0703125,-5351.7021484375,-5640.9833984375,-3317.197021484375,-975.1319580078125,-6182.98876953125,1226.2662353515625,6126.5625,7383.0283203125,4019.7373046875,5265.0771484375,767.7078247070312,6111.462890625,-496.7053527832031,20151.138671875,-1882.7120361328125,-0.0,-1642.7039794921875,9756.087890625,-1837.4124755859375,347.29638671875,2020.994873046875,9393.6923828125,-5363.623046875,3464.221923828125,-5117.2578125,-507.8315734863281,-357.62786865234375,10433.9912109375,-13854.50390625,-14571.349609375,-5811.0556640625,-1556.07861328125,-15.894571304321289,-5991.458984375,-1663.366943359375,-273.3866271972656,-8807.1826171875,3731.250732421875,1233.4188232421875,1427.33251953125,-5330.24462890625,1006.1264038085938,0.0,-2611.47802734375,0.0,-1729.3294677734375,-0.0,-450.6111145019531
-12641.7470703125,-12071.1328125,-3668.46728515625,2202.98779296875,2898.375244140625,20802.81640625,-1878.7384033203125,3484.090087890625,-2896.78564453125,4362.26513671875,-7453.759765625,-5110.10498046875,-4954.337890625,3306.86572265625,1105.4674072265625,-3037.45263671875,-47.6837158203125,3706.6142578125,5169.70947265625,16966.662109375,3345.0126953125,12948.5126953125,2130.66748046875,16543.0703125,-5395.41259765625,-5640.9833984375,-3323.554931640625,-977.5161743164062,-6173.45166015625,1216.7294921875,6124.17822265625,7375.08154296875,4013.379638671875,5262.69287109375,763.7341918945312,6109.0791015625,-495.91064453125,20150.34375,-1896.222412109375,-0.0,-1649.8565673828125,9754.498046875,-1839.001953125,344.9122009277344,2023.3790283203125,9393.6923828125,-5381.107421875,3457.0693359375,-5133.94677734375,-517.3682861328125,-350.4753112792969,10435.5810546875,-13897.4189453125,-14604.7275390625,-5803.1083984375,-1569.5889892578125,-22.25240135192871,-5982.716796875,-1657.0091552734375,-279.7444763183594,-8829.4345703125,3729.6611328125,1234.2135009765625,1424.9483642578125,-5334.21826171875,1000.5632934570312,0.0,-2616.24658203125,0.0,-1730.1241455078125,-0.0,-456.1742248535156
-12620.2900390625,-12103.716796875,-3661.314697265625,2201.398193359375,2911.885498046875,20810.76171875,-1871.5858154296875,3497.6005859375,-2888.838623046875,4363.06005859375,-7465.6806640625,-5101.36279296875,-4960.69580078125,3310.83935546875,1104.6727294921875,-3015.200439453125,-42.1206169128418,3717.740234375,5179.24658203125,16973.01953125,3354.54931640625,12956.4599609375,2140.2041015625,16551.8125,-5412.1015625,-5637.8046875,-3315.607666015625,-964.0057983398438,-6186.9619140625,1218.3189697265625,6135.3046875,7379.05517578125,4018.14794921875,5268.255859375,775.6550903320312,6117.02587890625,-490.3475646972656,20159.0859375,-1897.8118896484375,-0.0,-1645.088134765625,9763.2412109375,-1827.875732421875,355.2436828613281,2029.73681640625,9402.4345703125,-5381.90234375,3453.890625,-5133.15185546875,-519.7525024414062,-351.2700500488281,10453.8603515625,-13896.625,-14614.2646484375,-5817.4130859375,-1568.794189453125,-12.715657234191895,-5966.822265625,-1666.5458984375,-285.30755615234375,-8838.1767578125,3739.197998046875,1239.776611328125,1424.1536865234375,-5311.9658203125,1003.7421875,0.0,-2624.19384765625,0.0,-1738.8662109375,-0.0,-470.4793395996094
-12645.7216796875,-12074.3115234375,-3650.1884765625,2219.677001953125,2935.727294921875,20817.9140625,-1862.049072265625,3503.95849609375,-2882.480712890625,4355.9072265625,-7464.8857421875,-5087.0576171875,-4947.185546875,3319.581298828125,1114.20947265625,-3008.0478515625,-29.404958724975586,3726.482421875,5187.193359375,16975.40234375,3367.264892578125,12966.7919921875,2151.330322265625,16560.5546875,-5354.88134765625,-5635.42041015625,-3300.5078125,-954.4690551757812,-6193.31982421875,1229.445068359375,6143.251953125,7388.591796875,4030.86328125,5278.58740234375,787.5760498046875,6126.5625,-481.60552978515625,20166.23828125,-1878.7384033203125,-0.0,-1632.37255859375,9769.5986328125,-1815.954833984375,364.7804260253906,2036.0947265625,9404.0234375,-5368.3916015625,3474.553466796875,-5109.31005859375,-498.2948303222656,-342.52801513671875,10462.6015625,-13861.65625,-14602.34375,-5824.56591796875,-1561.6417236328125,-4.76837158203125,-5958.080078125,-1664.16162109375,-301.9968566894531,-8828.6396484375,3748.734619140625,1243.750244140625,1424.1536865234375,-5304.8134765625,1010.1000366210938,0.0,-2626.578125,0.0,-1771.4500732421875,-0.0,-490.3475646972656
-12686.2529296875,-12040.9326171875,-3651.778076171875,2245.903076171875,2946.853515625,20832.220703125,-1848.5386962890625,3511.90576171875,-2866.5859375,4380.5439453125,-7448.1962890625,-5086.26318359375,-4927.3173828125,3334.68115234375,1134.07763671875,-3015.9951171875,-16.689300537109375,3739.197998046875,5199.1142578125,16993.681640625,3376.007080078125,12977.123046875,2164.8408203125,16573.271484375,-5350.11279296875,-5616.3466796875,-3286.20263671875,-950.4954223632812,-6176.63037109375,1241.3660888671875,6152.78857421875,7400.5126953125,4038.810791015625,5290.50830078125,800.2916870117188,6139.2783203125,-467.3004150390625,20178.16015625,-1844.5650634765625,-0.0,-1630.7830810546875,9782.314453125,-1802.4444580078125,375.9066162109375,2051.1943359375,9415.1494140625,-5352.4970703125,3501.57421875,-5102.15771484375,-478.4266052246094,-321.8650817871094,10464.986328125,-13829.8671875,-14584.064453125,-5805.4921875,-1545.7471923828125,7.152557373046875,-5959.66943359375,-1641.1146240234375,-266.23406982421875,-8825.4609375,3764.62939453125,1258.85009765625,1449.5849609375,-5291.30322265625,1015.6631469726562,0.0,-2602.736328125,0.0,-1733.3031005859375,-0.0,-455.3794860839844
-12694.19921875,-12079.080078125,-3654.162109375,2230.00830078125,2924.601318359375,20818.7109375,-1858.8701171875,3495.21630859375,-2890.427734375,4365.4443359375,-7452.96484375,-5093.41552734375,-4909.03857421875,3302.89208984375,1145.9986572265625,-3020.763427734375,-30.994415283203125,3724.09814453125,5184.0146484375,16967.455078125,3362.49658203125,12962.818359375,2148.946044921875,16557.375,-5335.0126953125,-5630.65185546875,-3288.5869140625,-964.800537109375,-6167.888671875,1230.2398681640625,6140.0732421875,7390.18115234375,4026.094970703125,5276.203125,785.1918334960938,6122.5888671875,-478.4266052246094,20163.05859375,-1868.4068603515625,-0.0,-1641.1146240234375,9767.21484375,-1811.1864013671875,360.0120544433594,2038.4788818359375,9398.4599609375,-5362.03369140625,3486.474365234375,-5095.7998046875,-489.55279541015625,-311.5335998535156,10448.296875,-13826.6875,-14593.6015625,-5797.544921875,-1551.3101806640625,20.66294288635254,-5985.10107421875,-1639.5250244140625,-274.9761047363281,-8843.7392578125,3746.3505859375,1240.5714111328125,1418.590576171875,-5300.044921875,995.794921875,0.0,-2621.809814453125,0.0,-1742.83984375,-0.0,-471.2740478515625
-12684.6630859375,-12106.8955078125,-3656.54638671875,2214.90869140625,2892.81201171875,20799.63671875,-1881.9173583984375,3475.34814453125,-2911.0908203125,4340.8076171875,-7458.52783203125,-5095.7998046875,-4941.6220703125,3279.050048828125,1110.23583984375,-3058.910400390625,-42.91534423828125,3704.22998046875,5163.3515625,16943.61328125,3347.39697265625,12950.1025390625,2127.48828125,16539.892578125,-5345.3447265625,-5650.5205078125,-3321.1708984375,-984.668701171875,-6182.19384765625,1222.2926025390625,6124.97314453125,7379.05517578125,4015.763671875,5262.69287109375,765.3236083984375,6106.69482421875,-500.67901611328125,20142.396484375,-1880.327880859375,-0.0,-1650.6513671875,9752.1142578125,-1835.0283203125,341.7333068847656,2016.2265625,9380.181640625,-5369.1865234375,3470.579833984375,-5114.87353515625,-515.7788696289062,-345.7069396972656,10422.8662109375,-13860.06640625,-14611.0849609375,-5811.85009765625,-1566.4100341796875,-6.357828617095947,-6008.1484375,-1668.9300537109375,-290.075927734375,-8851.6875,3726.482421875,1219.1136474609375,1394.7486572265625,-5296.0712890625,995.794921875,0.0,-2634.525390625,0.0,-1767.4764404296875,-0.0,-500.67901611328125
-12656.84765625,-12044.90625,-3631.90966796875,2230.80322265625,2922.217041015625,20827.451171875,-1862.049072265625,3502.368896484375,-2879.3017578125,4373.3916015625,-7417.2021484375,-5066.39501953125,-4949.56982421875,3333.091796875,1095.9306640625,-3027.916015625,-14.30511474609375,3732.04541015625,5189.57763671875,16978.58203125,3375.21240234375,12977.123046875,2151.330322265625,16566.912109375,-5337.39697265625,-5622.705078125,-3311.634033203125,-958.4426879882812,-6170.27294921875,1249.3133544921875,6151.994140625,7408.4599609375,4042.7841796875,5292.892578125,791.5496826171875,6134.51025390625,-480.0160827636719,20170.2109375,-1842.9755859375,-0.0,-1627.6041259765625,9786.2880859375,-1814.3653564453125,367.9593505859375,2036.8892822265625,9407.9970703125,-5338.19189453125,3483.29541015625,-5098.978515625,-491.14227294921875,-358.422607421875,10451.4765625,-13844.1728515625,-14576.1171875,-5799.92919921875,-1536.21044921875,-27.02077293395996,-5964.43798828125,-1659.393310546875,-263.8498840332031,-8811.951171875,3751.913818359375,1248.5185546875,1444.816650390625,-5268.255859375,1028.3787841796875,0.0,-2593.994140625,0.0,-1728.53466796875,-0.0,-456.96893310546875
-12655.2578125,-12029.01171875,-3643.83056640625,2218.08740234375,2919.0380859375,20827.451171875,-1861.25439453125,3504.753173828125,-2877.712158203125,4374.98095703125,-7421.17529296875,-5071.1630859375,-4958.3115234375,3329.912841796875,1094.34130859375,-3015.200439453125,-13.51038646697998,3736.813720703125,5191.16748046875,16980.966796875,3372.828125,12977.123046875,2151.330322265625,16567.70703125,-5347.728515625,-5623.49951171875,-3311.634033203125,-959.2374267578125,-6175.8359375,1251.697509765625,6153.58349609375,7410.04931640625,4041.98974609375,5294.48193359375,792.3444213867188,6134.51025390625,-478.4266052246094,20171.0078125,-1839.796630859375,-0.0,-1631.577880859375,9783.1083984375,-1812.7760009765625,369.5487976074219,2038.4788818359375,9408.7919921875,-5359.6494140625,3473.7587890625,-5103.7470703125,-483.1949768066406,-359.2173156738281,10458.62890625,-13829.072265625,-14569.759765625,-5806.287109375,-1527.4683837890625,-35.762786865234375,-5946.9541015625,-1653.8302001953125,-278.1549987792969,-8801.619140625,3755.092529296875,1250.108154296875,1450.3797607421875,-5276.998046875,1022.815673828125,0.0,-2589.225830078125,0.0,-1727.739990234375,-0.0,-449.02166748046875
-12671.1533203125,-12040.138671875,-3662.904052734375,2206.96142578125,2899.964599609375,20805.994140625,-1880.327880859375,3490.447998046875,-2891.22265625,4361.470703125,-7453.759765625,-5096.59423828125,-4967.0537109375,3321.1708984375,1072.0888671875,-3028.710693359375,-34.96805953979492,3717.740234375,5172.88818359375,16967.455078125,3353.754638671875,12954.076171875,2132.2568359375,16550.22265625,-5361.23876953125,-5656.8779296875,-3337.860107421875,-974.3372802734375,-6182.19384765625,1238.9818115234375,6132.1259765625,7388.591796875,4022.121337890625,5268.255859375,774.8603515625,6115.4365234375,-497.5001220703125,20155.90625,-1865.22802734375,-0.0,-1649.061767578125,9753.7041015625,-1836.6177978515625,352.8594970703125,2020.2000732421875,9395.2822265625,-5370.77587890625,3465.0166015625,-5131.5625,-504.6526794433594,-381.4697265625,10448.296875,-13847.3515625,-14585.654296875,-5812.64501953125,-1542.5682373046875,-44.50480270385742,-5978.7431640625,-1676.8773193359375,-295.6390380859375,-8826.255859375,3736.813720703125,1235.00830078125,1434.485107421875,-5295.27685546875,995.000244140625,0.0,-2609.888671875,0.0,-1746.8134765625,-0.0,-464.1214904785156
-12700.5576171875,-12040.9326171875,-3664.49365234375,2188.6826171875,2895.990966796875,20791.689453125,-1889.8646240234375,3475.34814453125,-2901.55419921875,4351.13916015625,-7469.654296875,-5122.02587890625,-4963.080078125,3309.25,1076.857177734375,-3050.168212890625,-51.6573600769043,3706.6142578125,5160.96728515625,16955.533203125,3344.218017578125,12939.7705078125,2122.719970703125,16536.712890625,-5362.82861328125,-5683.89892578125,-3338.65478515625,-985.4635009765625,-6192.525390625,1221.4979248046875,6120.205078125,7370.31298828125,4008.611083984375,5251.56640625,765.3236083984375,6101.13134765625,-507.8315734863281,20143.189453125,-1890.6593017578125,-0.0,-1656.21435546875,9734.630859375,-1843.7703857421875,339.34912109375,2013.0474853515625,9382.5654296875,-5342.16552734375,3445.1484375,-5133.94677734375,-518.1630249023438,-379.0855407714844,10431.607421875,-13862.4501953125,-14605.5224609375,-5821.38671875,-1560.05224609375,-30.994415283203125,-6010.5322265625,-1676.8773193359375,-294.84429931640625,-8846.9189453125,3723.303466796875,1223.882080078125,1419.38525390625,-5309.58154296875,975.9266967773438,0.0,-2632.935791015625,0.0,-1759.529052734375,-0.0,-480.0160827636719
-12703.736328125,-12016.296875,-3645.420166015625,2187.093017578125,2903.938232421875,20794.072265625,-1884.301513671875,3480.9111328125,-2901.55419921875,4350.34423828125,-7452.96484375,-5117.2578125,-4959.9013671875,3306.071044921875,1087.9835205078125,-3035.068603515625,-47.6837158203125,3709.79296875,5166.53076171875,16957.125,3351.37060546875,12945.333984375,2129.077880859375,16541.48046875,-5356.470703125,-5679.13037109375,-3327.52880859375,-983.0792846679688,-6183.783203125,1227.0609130859375,6124.97314453125,7375.8759765625,4018.9423828125,5256.3349609375,771.6814575195312,6103.515625,-502.26849365234375,20147.166015625,-1898.606689453125,-0.0,-1646.6776123046875,9736.220703125,-1836.6177978515625,341.7333068847656,2015.431640625,9390.513671875,-5332.62890625,3442.76416015625,-5125.20458984375,-514.984130859375,-367.16461181640625,10440.349609375,-13878.345703125,-14590.4228515625,-5812.64501953125,-1558.4627685546875,-23.047128677368164,-5995.4326171875,-1671.314208984375,-288.4864807128906,-8843.7392578125,3728.86669921875,1227.0609130859375,1417.7957763671875,-5294.48193359375,981.4898071289062,0.0,-2638.4990234375,0.0,-1760.3238525390625,-0.0,-481.60552978515625
-12701.3525390625,-12028.2177734375,-3654.162109375,2185.503662109375,2892.81201171875,20788.51171875,-1891.4541015625,3473.7587890625,-2903.938232421875,4350.34423828125,-7464.0908203125,-5119.6416015625,-4948.77490234375,3306.86572265625,1074.4730224609375,-3031.8896484375,-55.63100051879883,3698.666748046875,5158.5830078125,16956.330078125,3340.244384765625,12937.38671875,2117.156982421875,16531.943359375,-5369.9814453125,-5675.1572265625,-3340.244384765625,-988.642333984375,-6190.935546875,1224.6767578125,6112.25732421875,7369.51806640625,4010.200439453125,5249.18212890625,760.5552978515625,6093.18408203125,-512.5999755859375,20139.216796875,-1888.275146484375,-0.0,-1655.419677734375,9731.4521484375,-1846.94921875,332.1965637207031,2007.484375,9380.9765625,-5343.75537109375,3440.380126953125,-5141.89404296875,-524.5208740234375,-379.8802795410156,10436.3759765625,-13905.3662109375,-14588.8330078125,-5821.38671875,-1569.5889892578125,-31.789142608642578,-6004.96923828125,-1676.0826416015625,-294.84429931640625,-8850.8916015625,3717.740234375,1219.1136474609375,1424.9483642578125,-5297.66064453125,976.721435546875,0.0,-2632.14111328125,0.0,-1751.581787109375,-0.0,-471.2740478515625
-12720.42578125,-12004.375,-3650.1884765625,2195.835205078125,2903.1435546875,20794.869140625,-1879.533203125,3479.32177734375,-2892.017333984375,4371.00732421875,-7448.9912109375,-5106.130859375,-4947.185546875,3318.78662109375,1080.0361328125,-3043.015625,-42.1206169128418,3708.99853515625,5169.70947265625,16974.607421875,3352.165283203125,12946.9228515625,2129.077880859375,16541.48046875,-5365.212890625,-5662.44140625,-3329.912841796875,-987.84765625,-6183.783203125,1236.59765625,6124.17822265625,7386.20751953125,4022.916259765625,5260.30859375,771.6814575195312,6103.515625,-498.2948303222656,20147.958984375,-1844.5650634765625,-0.0,-1649.8565673828125,9743.373046875,-1836.6177978515625,339.34912109375,2020.2000732421875,9390.513671875,-5365.212890625,3453.095703125,-5132.35693359375,-518.1630249023438,-375.1119079589844,10439.5546875,-13870.3984375,-14563.4013671875,-5815.029296875,-1566.4100341796875,-27.02077293395996,-6009.7373046875,-1663.366943359375,-284.5128479003906,-8823.0771484375,3728.072021484375,1231.829345703125,1434.485107421875,-5283.35546875,988.642333984375,0.0,-2614.6572265625,0.0,-1731.713623046875,-0.0,-453.7900390625
-12727.578125,-11994.0439453125,-3634.293701171875,2213.319091796875,2932.548583984375,20821.09375,-1848.5386962890625,3506.342529296875,-2872.94384765625,4388.4912109375,-7440.2490234375,-5091.03173828125,-4941.6220703125,3328.3232421875,1115.004150390625,-3013.61083984375,-15.09984302520752,3736.813720703125,5195.935546875,16994.4765625,3378.391357421875,12975.533203125,2158.48291015625,16567.70703125,-5341.37109375,-5637.01025390625,-3294.94482421875,-956.8532104492188,-6170.27294921875,1248.5185546875,6152.78857421875,7414.02294921875,4049.142333984375,5284.94482421875,801.08642578125,6132.9208984375,-468.8898620605469,20175.775390625,-1798.4708251953125,-0.0,-1629.193603515625,9772.77734375,-1804.82861328125,367.16461181640625,2046.426025390625,9417.5341796875,-5346.1396484375,3468.195556640625,-5094.2099609375,-495.1159362792969,-340.9385681152344,10467.3701171875,-13847.3515625,-14559.427734375,-5799.92919921875,-1546.5418701171875,-3.9736428260803223,-5975.564453125,-1635.551513671875,-262.26043701171875,-8787.314453125,3754.2978515625,1258.0552978515625,1444.816650390625,-5269.845703125,1014.07373046875,0.0,-2603.53076171875,0.0,-1721.382080078125,-0.0,-445.8427429199219
-12716.4521484375,-12021.859375,-3640.651611328125,2217.292724609375,2926.190673828125,20818.7109375,-1855.6912841796875,3504.753173828125,-2883.275390625,4369.41748046875,-7440.2490234375,-5102.95263671875,-4932.08544921875,3312.4287109375,1117.388427734375,-3009.63720703125,-19.868215560913086,3735.224365234375,5188.783203125,16977.787109375,3370.444091796875,12973.1494140625,2151.330322265625,16563.734375,-5358.060546875,-5647.34130859375,-3302.89208984375,-954.4690551757812,-6175.8359375,1231.03466796875,6150.404296875,7406.87060546875,4044.3740234375,5280.9716796875,797.11279296875,6129.74169921875,-475.2477111816406,20171.0078125,-1801.649658203125,-0.0,-1635.551513671875,9768.0087890625,-1809.5970458984375,366.369873046875,2040.068359375,9409.5869140625,-5340.576171875,3471.37451171875,-5100.568359375,-493.5264587402344,-338.55438232421875,10465.78125,-13849.7353515625,-14589.626953125,-5807.08154296875,-1540.978759765625,0.0,-5981.12744140625,-1645.8829345703125,-279.7444763183594,-8786.51953125,3747.1455078125,1249.3133544921875,1434.485107421875,-5289.71337890625,1006.1264038085938,0.0,-2615.451904296875,0.0,-1743.634521484375,-0.0,-470.4793395996094
-12683.8681640625,-12047.291015625,-3641.4462890625,2230.00830078125,2912.680419921875,20811.55859375,-1869.9964599609375,3495.21630859375,-2892.81201171875,4348.7548828125,-7442.63330078125,-5110.10498046875,-4938.44384765625,3315.607666015625,1099.109619140625,-3020.763427734375,-24.636587142944336,3728.072021484375,5178.45166015625,16964.27734375,3363.29150390625,12966.7919921875,2140.998779296875,16556.58203125,-5370.77587890625,-5652.10986328125,-3325.939208984375,-961.62158203125,-6175.8359375,1223.0872802734375,6145.63623046875,7399.7177734375,4037.221435546875,5277.79248046875,788.3707885742188,6122.5888671875,-488.7580871582031,20159.87890625,-1839.001953125,-0.0,-1645.8829345703125,9764.03515625,-1823.902099609375,358.422607421875,2024.9683837890625,9396.87109375,-5344.5498046875,3483.29541015625,-5119.6416015625,-509.4210510253906,-358.422607421875,10457.8330078125,-13850.529296875,-14600.75390625,-5808.67138671875,-1544.952392578125,-12.715657234191895,-5981.92236328125,-1675.287841796875,-293.2548522949219,-8810.361328125,3738.4033203125,1235.802978515625,1427.33251953125,-5300.83984375,998.973876953125,0.0,-2632.14111328125,0.0,-1769.860595703125,-0.0,-484.7844543457031
