-11204.0830078125,-9372.234375,-3631.90966796875,2211.729736328125,3062.884033203125,20586.6484375,-2445.3798828125,3011.2265625,-2717.9716796875,3721.714111328125,-7871.787109375,-5314.35009765625,-5034.60546875,3236.9296875,1366.9332275390625,-3108.978271484375,-410.0799560546875,2650.419921875,4324.9130859375,15680.7900390625,2868.175537109375,12614.7265625,892.480224609375,15778.5419921875,-4424.25390625,-5708.53564453125,-3874.302001953125,-958.4426879882812,-6152.78857421875,895.6591186523438,4735.7880859375,7295.6083984375,3837.744384765625,4776.31884765625,-328.222900390625,5525.74755859375,-1035.5313720703125,19436.677734375,-1134.8724365234375,-0.0,-1982.847900390625,9483.4970703125,-2494.653076171875,89.00960540771484,1955.0323486328125,8601.34765625,-4884.40185546875,3444.353759765625,-5550.384765625,-1034.736572265625,-71.52557373046875,9918.212890625,-10230.541015625,-13400.7138671875,-5702.97265625,-2179.9404296875,490.3475646972656,-6878.3759765625,-1304.149658203125,34.1733283996582,-6909.37060546875,2550.2841796875,755.786865234375,1201.629638671875,-5703.76708984375,549.157470703125,0.0,-2967.5166015625,0.0,-1809.5970458984375,-0.0,-910.7589721679688
-11167.5263671875,-9362.697265625,-3633.4990234375,2226.034912109375,3059.705078125,20588.240234375,-2449.353515625,3007.2529296875,-2719.561279296875,3715.356201171875,-7847.9453125,-5294.48193359375,-5034.60546875,3244.876953125,1364.549072265625,-3116.130859375,-407.6957702636719,2648.830322265625,4323.32373046875,15677.6103515625,2868.175537109375,12615.521484375,890.0960083007812,15777.74609375,-4429.8173828125,-5698.2041015625,-3877.480712890625,-963.2110595703125,-6146.43115234375,909.1694946289062,4738.96630859375,7304.3505859375,3840.128662109375,4779.49755859375,-329.8123779296875,5524.953125,-1037.120849609375,19432.703125,-1127.7198486328125,-0.0,-1986.0267333984375,9490.6494140625,-2497.037109375,87.4201431274414,1954.2376708984375,8595.7841796875,-4884.40185546875,3457.0693359375,-5555.15283203125,-1029.96826171875,-69.93611907958984,9911.8544921875,-10203.5205078125,-13387.203125,-5697.4091796875,-2163.251220703125,482.4002685546875,-6883.14453125,-1301.765380859375,30.994415283203125,-6888.70751953125,2550.2841796875,753.4027099609375,1207.9874267578125,-5683.10400390625,553.9258422851562,0.0,-2966.7216796875,0.0,-1806.4180908203125,-0.0,-914.7326049804688
-11160.3740234375,-9361.9033203125,-3638.267578125,2231.597900390625,3052.552490234375,20583.470703125,-2454.916748046875,3000.100341796875,-2726.7138671875,3694.693359375,-7842.38134765625,-5296.86572265625,-5048.1162109375,3242.49267578125,1366.138427734375,-3111.362548828125,-410.87469482421875,2644.856689453125,4318.55517578125,15666.484375,2862.612548828125,12613.1376953125,884.532958984375,15770.59375,-4432.99609375,-5693.435546875,-3883.0439453125,-971.9530639648438,-6148.0205078125,909.9642333984375,4734.9931640625,7303.55615234375,3836.155029296875,4775.52392578125,-332.99127197265625,5518.59521484375,-1041.88916015625,19424.7578125,-1132.48828125,-0.0,-1990.00048828125,9489.853515625,-2501.8056640625,81.06231689453125,1947.8797607421875,8585.453125,-4888.3759765625,3463.42724609375,-5561.5107421875,-1045.86279296875,-69.93611907958984,9907.0859375,-10198.751953125,-13386.4091796875,-5698.9990234375,-2172.787841796875,473.6582336425781,-6874.40234375,-1303.3548583984375,10.33147144317627,-6884.73388671875,2546.310546875,741.4818115234375,1208.7822265625,-5683.89892578125,558.6942138671875,0.0,-2981.02685546875,0.0,-1826.286376953125,-0.0,-931.4219360351562
-11181.037109375,-9390.513671875,-3645.420166015625,2217.292724609375,3047.7841796875,20571.55078125,-2458.095458984375,2992.94775390625,-2729.892822265625,3684.36181640625,-7852.71337890625,-5320.7080078125,-5047.3212890625,3232.9560546875,1378.059326171875,-3112.1572265625,-421.2061462402344,2636.11474609375,4311.40283203125,15665.689453125,2853.870361328125,12604.3955078125,877.38037109375,15764.236328125,-4440.943359375,-5729.1982421875,-3881.45458984375,-981.4898071289062,-6153.58349609375,891.6854858398438,4723.86669921875,7289.2509765625,3824.23388671875,4762.80810546875,-338.55438232421875,5507.46923828125,-1043.4786376953125,19419.193359375,-1151.561767578125,-0.0,-1995.5634765625,9473.9599609375,-2504.189697265625,70.73084259033203,1944.7008056640625,8580.6845703125,-4886.7861328125,3448.327392578125,-5559.92138671875,-1053.81005859375,-63.578285217285156,9897.5498046875,-10216.236328125,-13405.482421875,-5704.5615234375,-2183.11962890625,477.63189697265625,-6873.607421875,-1301.765380859375,11.126200675964355,-6908.57568359375,2537.568359375,737.5081176757812,1211.1663818359375,-5697.4091796875,538.8259887695312,0.0,-2988.974365234375,0.0,-1836.6177978515625,-0.0,-936.1903076171875
-11195.341796875,-9415.1494140625,-3649.393798828125,2210.14013671875,3052.552490234375,20571.55078125,-2454.121826171875,2991.3583984375,-2728.30322265625,3682.7724609375,-7855.09765625,-5331.03955078125,-5038.57958984375,3213.88232421875,1384.417236328125,-3129.641357421875,-422.7956237792969,2636.909423828125,4311.40283203125,15664.896484375,2857.843994140625,12604.3955078125,880.5592651367188,15765.0322265625,-4436.1748046875,-5732.37744140625,-3872.71240234375,-987.0529174804688,-6150.404296875,884.532958984375,4725.4560546875,7286.07177734375,3823.439453125,4763.60302734375,-337.7596435546875,5509.05859375,-1040.2998046875,19420.78125,-1157.1248779296875,-0.0,-1993.1793212890625,9473.9599609375,-2500.21630859375,70.73084259033203,1948.674560546875,8580.6845703125,-4901.8857421875,3441.9697265625,-5552.7685546875,-1064.936279296875,-56.42573165893555,9891.9873046875,-10231.3359375,-13417.4033203125,-5700.58837890625,-2183.9140625,487.9633483886719,-6878.3759765625,-1297.7918701171875,10.33147144317627,-6926.0595703125,2537.568359375,739.0975952148438,1196.861328125,-5699.79345703125,533.2628784179688,0.0,-2993.74267578125,0.0,-1844.5650634765625,-0.0,-940.1639404296875
-11200.1103515625,-9407.203125,-3641.4462890625,2199.013916015625,3053.347412109375,20569.166015625,-2459.68505859375,2987.384765625,-2743.403076171875,3675.619873046875,-7877.349609375,-5334.21826171875,-5039.3740234375,3188.451171875,1372.4962158203125,-3139.177978515625,-425.9745178222656,2635.320068359375,4306.63427734375,15653.7685546875,2856.254638671875,12601.216796875,878.9698486328125,15762.6474609375,-4425.84375,-5731.58251953125,-3878.275634765625,-989.4371337890625,-6153.58349609375,878.9698486328125,4725.4560546875,7281.30322265625,3822.64453125,4761.21923828125,-340.1438293457031,5508.26416015625,-1048.2469482421875,19416.80859375,-1161.0985107421875,-0.0,-1991.58984375,9472.3701171875,-2504.189697265625,67.55193328857422,1939.9324951171875,8575.1220703125,-4893.9384765625,3432.432861328125,-5551.9736328125,-1067.3204345703125,-65.96247100830078,9887.21875,-10251.9990234375,-13426.14453125,-5703.76708984375,-2183.9140625,485.57916259765625,-6890.296875,-1315.2757568359375,7.152557373046875,-6934.00732421875,2533.5947265625,731.1503295898438,1165.8668212890625,-5705.3564453125,532.4681396484375,0.0,-3000.100341796875,0.0,-1850.9229736328125,-0.0,-961.62158203125
-11219.18359375,-9404.0234375,-3642.2412109375,2195.835205078125,3047.7841796875,20562.013671875,-2467.63232421875,2977.84814453125,-2760.88720703125,3671.64599609375,-7895.62890625,-5333.423828125,-5044.14208984375,3177.324951171875,1357.396484375,-3139.177978515625,-427.5639953613281,2629.7568359375,4298.68701171875,15639.4638671875,2852.28076171875,12595.6533203125,872.6119995117188,15753.111328125,-4431.40673828125,-5736.35107421875,-3893.37548828125,-993.4107055664062,-6155.1728515625,871.0225219726562,4722.27734375,7278.91943359375,3819.465576171875,4756.45068359375,-344.9122009277344,5503.49560546875,-1058.5784912109375,19406.4765625,-1151.561767578125,-0.0,-1994.768798828125,9466.8076171875,-2512.13720703125,59.604644775390625,1925.6273193359375,8565.5849609375,-4885.99169921875,3429.25390625,-5561.5107421875,-1069.7047119140625,-81.06231689453125,9880.06640625,-10267.0986328125,-13430.9130859375,-5704.5615234375,-2187.093017578125,483.1949768066406,-6885.5283203125,-1328.7862548828125,3.1789143085479736,-6934.8017578125,2527.23681640625,721.6135864257812,1155.535400390625,-5714.0986328125,530.083984375,0.0,-3000.895263671875,0.0,-1846.94921875,-0.0,-963.2110595703125
-11227.130859375,-9427.865234375,-3613.631103515625,2218.08740234375,3066.06298828125,20576.318359375,-2455.71142578125,2991.3583984375,-2748.171630859375,3687.540771484375,-7869.40283203125,-5317.529296875,-5040.9638671875,3198.78271484375,1360.5753173828125,-3120.1044921875,-412.4641418457031,2644.06201171875,4312.197265625,15655.359375,2869.76513671875,12612.3427734375,885.32763671875,15767.416015625,-4413.9228515625,-5712.50927734375,-3880.659912109375,-978.3109130859375,-6140.86767578125,898.8380126953125,4734.9931640625,7291.63525390625,3837.744384765625,4772.34521484375,-328.222900390625,5517.005859375,-1045.068115234375,19420.78125,-1134.8724365234375,-0.0,-1974.1058349609375,9483.4970703125,-2497.83203125,74.7044906616211,1937.54833984375,8580.6845703125,-4858.970703125,3450.71142578125,-5544.8212890625,-1060.962646484375,-78.67813110351562,9894.37109375,-10248.8203125,-13424.5556640625,-5691.84619140625,-2168.814453125,478.4266052246094,-6862.4814453125,-1318.4547119140625,19.868215560913086,-6926.8544921875,2539.95263671875,735.1239624023438,1189.708740234375,-5706.94580078125,543.5943603515625,0.0,-2978.642822265625,0.0,-1821.5179443359375,-0.0,-935.3955688476562
-11219.978515625,-9432.6337890625,-3616.01513671875,2218.08740234375,3078.778564453125,20589.828125,-2447.76416015625,3001.68994140625,-2737.04541015625,3691.51416015625,-7844.765625,-5306.40283203125,-5045.73193359375,3223.419189453125,1366.9332275390625,-3108.978271484375,-402.9273986816406,2652.80419921875,4320.14453125,15662.51171875,2876.122802734375,12621.8798828125,892.480224609375,15779.3369140625,-4402.001953125,-5694.23046875,-3873.50732421875,-969.5689086914062,-6134.51025390625,917.1168212890625,4743.73486328125,7304.3505859375,3845.691650390625,4783.4716796875,-322.6598205566406,5527.33740234375,-1037.120849609375,19430.318359375,-1096.7254638671875,-0.0,-1967.7479248046875,9498.595703125,-2489.08984375,85.8306884765625,1948.674560546875,8586.2470703125,-4865.328125,3445.943115234375,-5535.28466796875,-1031.5577392578125,-71.52557373046875,9904.7021484375,-10245.640625,-13415.8134765625,-5684.69384765625,-2156.0986328125,475.2477111816406,-6856.91845703125,-1308.123291015625,22.25240135192871,-6919.7021484375,2548.694580078125,742.2764892578125,1204.80859375,-5698.2041015625,554.7205810546875,0.0,-2965.92724609375,0.0,-1810.3917236328125,-0.0,-921.8851928710938
-11195.341796875,-9387.333984375,-3613.631103515625,2214.90869140625,3080.3681640625,20592.212890625,-2441.40625,3011.2265625,-2728.30322265625,3699.461669921875,-7834.4345703125,-5288.9189453125,-5038.57958984375,3236.9296875,1378.8541259765625,-3097.85205078125,-398.9537658691406,2656.777587890625,4325.7080078125,15668.869140625,2877.712158203125,12621.8798828125,896.453857421875,15783.3095703125,-4410.74365234375,-5707.74072265625,-3868.73876953125,-957.64794921875,-6133.71533203125,926.653564453125,4746.119140625,7310.70849609375,3850.4599609375,4782.6767578125,-320.275634765625,5529.7216796875,-1030.7630615234375,19437.470703125,-1109.441162109375,-0.0,-1968.5428466796875,9493.033203125,-2486.705810546875,93.7779769897461,1955.8270263671875,8593.400390625,-4851.81787109375,3448.327392578125,-5540.052734375,-1022.815673828125,-59.604644775390625,9918.212890625,-10232.130859375,-13388.79296875,-5682.3095703125,-2147.356689453125,487.9633483886719,-6856.91845703125,-1299.3812255859375,30.19968605041504,-6910.16552734375,2554.257568359375,750.2238159179688,1218.3189697265625,-5687.078125,569.8204345703125,0.0,-2958.774658203125,0.0,-1805.6234130859375,-0.0,-907.580078125
-11150.04296875,-9322.9609375,-3600.12060546875,2238.75048828125,3091.494384765625,20600.16015625,-2431.074951171875,3015.9951171875,-2714.79296875,3716.15087890625,-7829.666015625,-5280.9716796875,-5019.505859375,3246.46630859375,1395.54345703125,-3091.494384765625,-391.0064697265625,2665.519775390625,4336.833984375,15685.55859375,2889.63330078125,12629.826171875,907.580078125,15792.0517578125,-4400.412109375,-5700.58837890625,-3854.433837890625,-952.0848388671875,-6130.53662109375,950.4954223632812,4754.06640625,7321.83447265625,3859.996826171875,4788.23974609375,-309.94415283203125,5537.6689453125,-1018.8421020507812,19445.419921875,-1104.6727294921875,-0.0,-1960.5953369140625,9494.6220703125,-2477.1689453125,100.93053436279297,1966.1585693359375,8605.3212890625,-4842.28125,3475.34814453125,-5532.900390625,-1014.07373046875,-42.1206169128418,9923.775390625,-10193.984375,-13364.15625,-5682.3095703125,-2136.23046875,499.8843078613281,-6842.61328125,-1287.4603271484375,46.09425735473633,-6887.91259765625,2564.58935546875,761.3499755859375,1228.650390625,-5673.5673828125,580.15185546875,0.0,-2952.416748046875,0.0,-1799.2655029296875,-0.0,-896.453857421875
-11110.3056640625,-9314.2197265625,-3604.09423828125,2257.823974609375,3098.64697265625,20609.697265625,-2422.332763671875,3025.53173828125,-2710.024658203125,3721.714111328125,-7830.46044921875,-5285.73974609375,-5011.55859375,3252.823974609375,1405.0802001953125,-3084.341796875,-384.6486511230469,2675.85107421875,4345.57568359375,15691.1220703125,2895.990966796875,12639.36328125,915.52734375,15802.3837890625,-4397.2333984375,-5679.92529296875,-3844.89697265625,-942.548095703125,-6124.97314453125,946.521728515625,4765.9873046875,7328.1923828125,3864.76513671875,4796.18701171875,-300.40740966796875,5548.00048828125,-1010.1000366210938,19454.16015625,-1104.6727294921875,-0.0,-1955.0323486328125,9509.72265625,-2467.63232421875,107.28836059570312,1976.489990234375,8614.0634765625,-4867.71240234375,3494.421630859375,-5526.54248046875,-1014.07373046875,-29.404958724975586,9932.517578125,-10163.7841796875,-13355.4140625,-5675.1572265625,-2143.383056640625,503.0632019042969,-6838.6396484375,-1277.923583984375,46.88898849487305,-6879.1708984375,2574.920654296875,769.2973022460938,1226.2662353515625,-5663.236328125,586.5097045898438,0.0,-2949.23779296875,0.0,-1791.3182373046875,-0.0,-898.0433349609375
-11115.07421875,-9342.830078125,-3622.372802734375,2251.466064453125,3093.083740234375,20601.75,-2427.10107421875,3024.737060546875,-2715.587646484375,3712.971923828125,-7829.666015625,-5293.6875,-5020.30029296875,3247.260986328125,1397.9276123046875,-3074.01025390625,-391.0064697265625,2668.698486328125,4340.01318359375,15683.9697265625,2886.454345703125,12633.005859375,908.374755859375,15794.435546875,-4406.77001953125,-5684.69384765625,-3853.638916015625,-945.72705078125,-6130.53662109375,920.2957153320312,4758.8349609375,7319.4501953125,3854.433837890625,4789.0341796875,-309.1494140625,5541.642578125,-1016.4578857421875,19448.599609375,-1100.6990966796875,-0.0,-1964.569091796875,9505.7490234375,-2474.784912109375,102.51998901367188,1970.132080078125,8610.884765625,-4885.19677734375,3484.885009765625,-5532.10595703125,-1033.94189453125,-38.14697265625,9934.90234375,-10160.60546875,-13357.0029296875,-5679.92529296875,-2173.582763671875,493.5264587402344,-6841.02392578125,-1281.897216796875,42.1206169128418,-6886.3232421875,2566.973388671875,762.939453125,1223.882080078125,-5671.18310546875,580.9465942382812,0.0,-2955.595703125,0.0,-1797.676025390625,-0.0,-902.8117065429688
-11151.6318359375,-9365.08203125,-3624.757080078125,2235.571533203125,3086.725830078125,20593.80078125,-2432.6640625,3020.763427734375,-2714.79296875,3706.6142578125,-7847.9453125,-5285.73974609375,-5017.12158203125,3249.645263671875,1387.59619140625,-3082.752197265625,-397.3642883300781,2662.3408203125,4336.0390625,15682.37890625,2880.89111328125,12626.6484375,900.427490234375,15788.8740234375,-4404.38623046875,-5693.435546875,-3863.970458984375,-952.0848388671875,-6141.66259765625,908.374755859375,4751.68212890625,7312.2978515625,3845.691650390625,4784.26611328125,-321.8650817871094,5533.6953125,-1023.6104736328125,19443.830078125,-1115.7989501953125,-0.0,-1967.7479248046875,9497.8017578125,-2481.142822265625,96.16216278076172,1965.36376953125,8606.9111328125,-4874.865234375,3468.195556640625,-5540.84765625,-1036.3260498046875,-49.27317428588867,9926.955078125,-10189.2158203125,-13363.361328125,-5692.640625,-2176.76171875,487.16864013671875,-6848.970703125,-1289.844482421875,42.1206169128418,-6890.296875,2560.615478515625,759.7605590820312,1229.445068359375,-5679.92529296875,572.20458984375,0.0,-2965.132568359375,0.0,-1808.80224609375,-0.0,-900.427490234375
-11177.0625,-9365.8759765625,-3618.3994140625,2230.80322265625,3079.573486328125,20587.443359375,-2439.02197265625,3013.61083984375,-2721.945556640625,3705.024658203125,-7860.66064453125,-5292.09765625,-5017.916015625,3245.671630859375,1381.23828125,-3096.2626953125,-402.9273986816406,2658.3671875,4328.09228515625,15678.40625,2875.328125,12621.0849609375,894.8643798828125,15782.5146484375,-4414.71728515625,-5698.9990234375,-3869.533447265625,-956.8532104492188,-6142.45751953125,907.580078125,4744.52978515625,7305.1455078125,3844.10205078125,4781.8818359375,-332.99127197265625,5529.7216796875,-1027.5841064453125,19437.470703125,-1137.256591796875,-0.0,-1973.3111572265625,9493.033203125,-2488.29541015625,92.18851470947266,1960.5953369140625,8601.34765625,-4873.27587890625,3464.221923828125,-5548.79541015625,-1032.3524169921875,-55.63100051879883,9918.212890625,-10218.6201171875,-13380.8447265625,-5694.23046875,-2175.172119140625,492.73175048828125,-6849.765625,-1291.4339599609375,30.19968605041504,-6899.03857421875,2555.84716796875,754.9921875,1223.0872802734375,-5683.10400390625,564.25732421875,0.0,-2974.669189453125,0.0,-1813.5706787109375,-0.0,-904.401123046875
-11181.8310546875,-9351.5712890625,-3618.3994140625,2223.650634765625,3077.98388671875,20586.6484375,-2441.40625,3008.0478515625,-2723.534912109375,3700.25634765625,-7863.044921875,-5300.044921875,-5029.8369140625,3232.9560546875,1388.390869140625,-3107.388671875,-406.1063232421875,2652.80419921875,4324.9130859375,15675.2265625,2872.149169921875,12617.111328125,891.6854858398438,15776.953125,-4416.30712890625,-5699.79345703125,-3867.944091796875,-962.4163208007812,-6144.046875,909.9642333984375,4738.96630859375,7301.171875,3842.512939453125,4776.31884765625,-336.9649353027344,5525.74755859375,-1029.96826171875,19432.703125,-1138.0513916015625,-0.0,-1975.6953125,9489.0595703125,-2491.47412109375,88.21487426757812,1958.211181640625,8595.7841796875,-4873.27587890625,3457.864013671875,-5544.8212890625,-1033.147216796875,-48.47844314575195,9912.650390625,-10236.1044921875,-13387.998046875,-5694.23046875,-2168.01953125,495.1159362792969,-6862.4814453125,-1289.0498046875,24.636587142944336,-6903.0126953125,2550.2841796875,750.2238159179688,1214.3453369140625,-5684.69384765625,554.7205810546875,0.0,-2976.258544921875,0.0,-1819.928466796875,-0.0,-913.1431884765625
-11191.3681640625,-9369.0556640625,-3622.372802734375,2213.319091796875,3081.95751953125,20579.49609375,-2442.200927734375,2998.510986328125,-2722.740234375,3701.845947265625,-7870.197265625,-5307.19775390625,-5028.248046875,3234.54541015625,1384.417236328125,-3126.462158203125,-410.0799560546875,2649.625,4323.32373046875,15675.2265625,2871.354248046875,12613.1376953125,892.480224609375,15772.1845703125,-4404.38623046875,-5711.71435546875,-3867.1494140625,-975.1319580078125,-6136.89404296875,904.401123046875,4736.58251953125,7301.96630859375,3838.5390625,4773.14013671875,-336.9649353027344,5522.5693359375,-1032.3524169921875,19429.525390625,-1138.0513916015625,-0.0,-1973.3111572265625,9481.1123046875,-2490.679443359375,80.26758575439453,1955.0323486328125,8590.2216796875,-4858.970703125,3449.1220703125,-5537.6689453125,-1036.3260498046875,-52.45208740234375,9901.5234375,-10218.6201171875,-13384.8193359375,-5687.078125,-2161.661865234375,491.9369812011719,-6872.0185546875,-1301.765380859375,34.1733283996582,-6915.72802734375,2548.694580078125,751.0185546875,1210.37158203125,-5689.46240234375,547.5679931640625,0.0,-2974.669189453125,0.0,-1811.1864013671875,-0.0,-917.9114990234375
-11187.39453125,-9380.9765625,-3606.478515625,2224.4453125,3095.4677734375,20589.033203125,-2432.6640625,3010.431884765625,-2720.35595703125,3709.79296875,-7877.349609375,-5298.45556640625,-5027.453125,3232.9560546875,1395.54345703125,-3103.415283203125,-400.543212890625,2662.3408203125,4332.8603515625,15679.994140625,2882.480712890625,12624.263671875,903.6064453125,15784.8984375,-4386.10693359375,-5708.53564453125,-3857.612548828125,-960.826904296875,-6122.5888671875,915.52734375,4749.2978515625,7311.5029296875,3849.665283203125,4783.4716796875,-323.45452880859375,5534.490234375,-1022.815673828125,19439.0625,-1127.7198486328125,-0.0,-1960.5953369140625,9488.2646484375,-2477.963623046875,92.98324584960938,1962.9796142578125,8598.16796875,-4840.69189453125,3456.274658203125,-5527.33740234375,-1027.5841064453125,-42.91534423828125,9915.8291015625,-10199.546875,-13372.103515625,-5674.3623046875,-2149.740966796875,495.91064453125,-6854.5341796875,-1290.6392822265625,26.226043701171875,-6919.7021484375,2561.41015625,760.5552978515625,1213.550537109375,-5679.92529296875,560.28369140625,0.0,-2979.4375,0.0,-1817.5443115234375,-0.0,-913.1431884765625
-11184.2158203125,-9356.33984375,-3596.146728515625,2238.75048828125,3104.2099609375,20607.3125,-2422.332763671875,3031.0947265625,-2711.614013671875,3721.714111328125,-7874.17138671875,-5287.3291015625,-5019.505859375,3236.9296875,1403.49072265625,-3080.3681640625,-390.21173095703125,2676.64599609375,4347.9599609375,15690.3271484375,2895.1962890625,12638.5693359375,914.7326049804688,15799.2041015625,-4384.517578125,-5695.02490234375,-3847.28125,-940.1639404296875,-6121.0,921.0904541015625,4762.80810546875,7320.2451171875,3859.996826171875,4797.77685546875,-311.5335998535156,5549.58984375,-1010.1000366210938,19455.751953125,-1111.8253173828125,-0.0,-1951.0587158203125,9504.9541015625,-2467.63232421875,109.67254638671875,1974.1058349609375,8615.6533203125,-4849.43408203125,3470.579833984375,-5523.36376953125,-1012.4841918945312,-34.96805953979492,9935.6962890625,-10190.8046875,-13364.15625,-5668.798828125,-2160.866943359375,507.8315734863281,-6832.28173828125,-1284.2813720703125,44.50480270385742,-6903.80712890625,2579.68896484375,771.6814575195312,1220.703125,-5674.3623046875,581.7413330078125,0.0,-2973.07958984375,0.0,-1809.5970458984375,-0.0,-902.8117065429688
-11191.3681640625,-9333.29296875,-3599.325927734375,2247.492431640625,3112.951904296875,20620.02734375,-2410.411865234375,3041.426513671875,-2698.8984375,3739.992919921875,-7840.79248046875,-5278.58740234375,-4998.04833984375,3265.539794921875,1405.8748779296875,-3068.447021484375,-380.67498779296875,2686.977294921875,4358.29150390625,15710.1953125,2904.73291015625,12648.900390625,925.0640869140625,15810.3310546875,-4382.92822265625,-5673.5673828125,-3837.744384765625,-928.2429809570312,-6116.2314453125,932.2166748046875,4772.34521484375,7325.80810546875,3868.73876953125,4804.92919921875,-302.7915954589844,5560.71630859375,-1001.3580322265625,19467.671875,-1089.5728759765625,-0.0,-1943.1114501953125,9519.259765625,-2458.89013671875,121.59347534179688,1983.642578125,8627.57421875,-4869.30224609375,3480.11669921875,-5516.2109375,-1002.9474487304688,-30.994415283203125,9945.2333984375,-10177.294921875,-13357.0029296875,-5667.20947265625,-2156.8935546875,513.3946533203125,-6812.41357421875,-1284.2813720703125,71.52557373046875,-6887.91259765625,2592.404541015625,784.3970947265625,1238.9818115234375,-5684.69384765625,601.6095581054688,0.0,-2957.97998046875,0.0,-1783.3709716796875,-0.0,-884.532958984375
-11195.341796875,-9349.1865234375,-3613.631103515625,2238.75048828125,3099.44140625,20607.3125,-2420.7431640625,3023.942138671875,-2706.845458984375,3732.04541015625,-7818.53955078125,-5287.3291015625,-4986.12744140625,3259.181884765625,1407.46435546875,-3102.620361328125,-392.5959167480469,2673.467041015625,4347.9599609375,15700.6591796875,2888.838623046875,12636.9794921875,912.3484497070312,15797.615234375,-4395.6435546875,-5688.66748046875,-3848.075927734375,-945.72705078125,-6124.17822265625,921.0904541015625,4759.6298828125,7313.88720703125,3856.81787109375,4792.21337890625,-317.0967102050781,5545.6162109375,-1011.6895141601562,19455.751953125,-1099.9044189453125,-0.0,-1957.41650390625,9509.72265625,-2470.81103515625,105.69890594482422,1978.874267578125,8615.6533203125,-4866.91796875,3471.37451171875,-5532.10595703125,-1012.4841918945312,-29.404958724975586,9926.955078125,-10182.0634765625,-13369.7197265625,-5673.5673828125,-2145.76708984375,509.4210510253906,-6850.560546875,-1282.69189453125,58.01518630981445,-6898.244140625,2581.278564453125,775.6550903320312,1230.2398681640625,-5701.38330078125,573.7940673828125,0.0,-2953.21142578125,0.0,-1792.1129150390625,-0.0,-896.453857421875
-11202.494140625,-9369.8505859375,-3627.141357421875,2226.034912109375,3080.3681640625,20583.470703125,-2442.995849609375,3007.2529296875,-2729.892822265625,3708.99853515625,-7839.203125,-5296.86572265625,-5031.4267578125,3227.392822265625,1380.443603515625,-3126.462158203125,-410.87469482421875,2648.830322265625,4326.50244140625,15676.021484375,2869.76513671875,12617.9052734375,890.8907470703125,15776.953125,-4417.896484375,-5719.66162109375,-3875.0966796875,-965.59521484375,-6150.404296875,913.9378662109375,4742.1455078125,7296.4033203125,3836.94970703125,4774.7294921875,-336.9649353027344,5524.15869140625,-1030.7630615234375,19433.498046875,-1118.9779052734375,-0.0,-1977.28466796875,9486.6748046875,-2492.268798828125,85.8306884765625,1957.41650390625,8597.3740234375,-4859.765625,3461.043212890625,-5555.15283203125,-1047.4522705078125,-58.01518630981445,9905.4970703125,-10196.3681640625,-13397.5341796875,-5698.9990234375,-2168.01953125,487.16864013671875,-6878.3759765625,-1296.9970703125,38.14697265625,-6905.39697265625,2559.026123046875,753.4027099609375,1211.1663818359375,-5694.23046875,554.7205810546875,0.0,-2955.595703125,0.0,-1807.212890625,-0.0,-914.7326049804688
-11202.494140625,-9361.107421875,-3607.273193359375,2242.72412109375,3090.699462890625,20599.365234375,-2432.6640625,3023.1474609375,-2723.534912109375,3723.303466796875,-7840.79248046875,-5276.998046875,-5029.04248046875,3237.724365234375,1377.2646484375,-3101.031005859375,-396.569580078125,2657.572509765625,4339.21826171875,15688.73828125,2885.659423828125,12629.826171875,903.6064453125,15792.0517578125,-4402.79638671875,-5699.79345703125,-3867.944091796875,-944.9323120117188,-6143.251953125,932.2166748046875,4757.24560546875,7306.734375,3851.254638671875,4788.23974609375,-322.6598205566406,5540.052734375,-1020.4315185546875,19448.599609375,-1118.9779052734375,-0.0,-1963.7744140625,9502.5703125,-2481.142822265625,104.9041748046875,1962.1849365234375,8613.2685546875,-4847.0498046875,3479.32177734375,-5548.79541015625,-1030.7630615234375,-59.604644775390625,9927.75,-10197.95703125,-13397.5341796875,-5695.02490234375,-2140.2041015625,484.7844543457031,-6848.17626953125,-1301.765380859375,51.6573600769043,-6897.44970703125,2572.536376953125,764.5289306640625,1229.445068359375,-5675.95166015625,577.7677001953125,0.0,-2948.443115234375,0.0,-1793.7025146484375,-0.0,-895.6591186523438
-11205.6728515625,-9351.5712890625,-3600.915283203125,2247.492431640625,3103.415283203125,20607.3125,-2419.15380859375,3033.47900390625,-2710.8193359375,3737.608642578125,-7839.203125,-5270.64013671875,-5025.86376953125,3255.208251953125,1390.7750244140625,-3085.136474609375,-387.0328369140625,2667.90380859375,4350.34423828125,15706.220703125,2897.580322265625,12640.953125,916.3220825195312,15800.794921875,-4389.2861328125,-5687.078125,-3851.254638671875,-943.3428344726562,-6131.3310546875,931.4219360351562,4766.7822265625,7315.47705078125,3859.2021484375,4795.392578125,-309.94415283203125,5549.58984375,-1008.5106201171875,19458.9296875,-1114.20947265625,-0.0,-1950.263916015625,9509.72265625,-2467.63232421875,110.46727752685547,1974.9005126953125,8624.39453125,-4841.486328125,3482.500732421875,-5528.1318359375,-1018.8421020507812,-46.09425735473633,9937.2861328125,-10205.9052734375,-13384.0244140625,-5682.3095703125,-2125.104248046875,491.9369812011719,-6814.7978515625,-1289.0498046875,64.37301635742188,-6904.60205078125,2582.0732421875,777.2445678710938,1245.3397216796875,-5663.236328125,582.5360717773438,0.0,-2939.701171875,0.0,-1783.3709716796875,-0.0,-882.1487426757812
-11212.03125,-9357.134765625,-3595.35205078125,2239.545166015625,3102.620361328125,20597.77734375,-2423.92236328125,3023.942138671875,-2711.614013671875,3732.84033203125,-7849.5341796875,-5284.94482421875,-5031.4267578125,3248.0556640625,1391.5697021484375,-3083.546875,-390.21173095703125,2663.93017578125,4345.57568359375,15701.4521484375,2893.60693359375,12636.9794921875,912.3484497070312,15792.8466796875,-4393.259765625,-5702.177734375,-3852.049560546875,-956.0584716796875,-6130.53662109375,919.5009765625,4762.80810546875,7311.5029296875,3857.612548828125,4791.41845703125,-313.1230773925781,5544.8212890625,-1012.4841918945312,19452.572265625,-1110.23583984375,-0.0,-1949.46923828125,9501.7744140625,-2470.81103515625,101.72525787353516,1972.516357421875,8618.037109375,-4832.74462890625,3471.37451171875,-5528.9267578125,-1028.3787841796875,-44.50480270385742,9930.1337890625,-10217.0302734375,-13373.6923828125,-5682.3095703125,-2141.79345703125,491.9369812011719,-6818.771484375,-1290.6392822265625,52.45208740234375,-6917.31787109375,2576.51025390625,773.2709350585938,1236.59765625,-5671.97802734375,569.0256958007812,0.0,-2950.827392578125,0.0,-1791.3182373046875,-0.0,-889.30126953125
-11200.9052734375,-9359.5185546875,-3601.7099609375,2237.160888671875,3103.415283203125,20600.953125,-2427.10107421875,3023.1474609375,-2717.17724609375,3725.687744140625,-7836.0244140625,-5288.1240234375,-5025.86376953125,3236.134765625,1395.54345703125,-3085.93115234375,-390.21173095703125,2662.3408203125,4344.78125,15694.2998046875,2895.1962890625,12635.390625,909.1694946289062,15795.23046875,-4400.412109375,-5702.97265625,-3848.87060546875,-950.4954223632812,-6124.97314453125,924.2693481445312,4761.21923828125,7313.0927734375,3859.2021484375,4793.00830078125,-314.7125244140625,5546.4111328125,-1014.07373046875,19451.77734375,-1103.083251953125,-0.0,-1952.648193359375,9500.185546875,-2471.60595703125,103.3147201538086,1969.33740234375,8614.0634765625,-4855.79150390625,3470.579833984375,-5527.33740234375,-1014.07373046875,-39.73643112182617,9930.9287109375,-10190.8046875,-13357.0029296875,-5675.95166015625,-2144.97265625,495.91064453125,-6837.0498046875,-1296.2022705078125,43.7100715637207,-6910.16552734375,2578.894287109375,771.6814575195312,1224.6767578125,-5667.20947265625,569.8204345703125,0.0,-2960.364013671875,0.0,-1803.2392578125,-0.0,-900.427490234375
-11181.8310546875,-9352.3662109375,-3604.09423828125,2242.72412109375,3108.978271484375,20612.875,-2419.15380859375,3031.0947265625,-2711.614013671875,3731.250732421875,-7814.56640625,-5276.998046875,-5021.89013671875,3241.697998046875,1402.696044921875,-3088.315185546875,-381.4697265625,2668.698486328125,4352.728515625,15699.86328125,2901.55419921875,12643.3369140625,915.52734375,15804.767578125,-4399.61767578125,-5685.48828125,-3842.512939453125,-945.72705078125,-6122.5888671875,935.3955688476562,4767.57666015625,7323.423828125,3865.559814453125,4800.955078125,-307.5599670410156,5555.94775390625,-1006.921142578125,19458.9296875,-1103.8780517578125,-0.0,-1951.8533935546875,9512.9013671875,-2465.248046875,112.8514633178711,1977.28466796875,8622.009765625,-4862.14990234375,3477.732421875,-5520.9794921875,-1004.5369873046875,-32.5838737487793,9935.6962890625,-10162.9892578125,-13349.056640625,-5671.97802734375,-2144.177734375,495.91064453125,-6840.22900390625,-1286.66552734375,50.86262893676758,-6899.03857421875,2586.841552734375,776.4498291015625,1228.650390625,-5660.85205078125,584.12548828125,0.0,-2949.23779296875,0.0,-1792.1129150390625,-0.0,-894.8643798828125
-11178.65234375,-9353.1611328125,-3600.12060546875,2241.134765625,3110.56787109375,20612.08203125,-2419.948486328125,3026.326416015625,-2713.998046875,3729.6611328125,-7813.771484375,-5282.56103515625,-5021.09521484375,3239.313720703125,1398.7222900390625,-3092.2890625,-382.26446533203125,2667.90380859375,4349.5498046875,15697.4794921875,2901.55419921875,12642.54296875,914.7326049804688,15802.3837890625,-4394.05419921875,-5682.3095703125,-3842.512939453125,-948.9059448242188,-6117.02587890625,939.3692016601562,4768.37158203125,7324.21875,3864.76513671875,4799.3662109375,-309.94415283203125,5553.5634765625,-1010.1000366210938,19456.544921875,-1098.31494140625,-0.0,-1949.46923828125,9513.6953125,-2465.248046875,109.67254638671875,1974.9005126953125,8614.857421875,-4847.8447265625,3473.7587890625,-5514.62158203125,-1010.1000366210938,-38.14697265625,9930.9287109375,-10164.578125,-13362.5673828125,-5666.41455078125,-2139.409423828125,497.5001220703125,-6848.17626953125,-1285.870849609375,50.86262893676758,-6899.83349609375,2584.45751953125,771.6814575195312,1225.471435546875,-5660.85205078125,584.12548828125,0.0,-2952.416748046875,0.0,-1796.086669921875,-0.0,-898.8380126953125
-11193.751953125,-9373.0283203125,-3598.531005859375,2230.80322265625,3108.978271484375,20609.697265625,-2423.92236328125,3022.35302734375,-2718.766357421875,3724.892822265625,-7840.79248046875,-5288.9189453125,-5015.5322265625,3232.161376953125,1397.9276123046875,-3096.2626953125,-385.443359375,2663.135498046875,4343.19140625,15692.7109375,2898.375244140625,12640.953125,910.7589721679688,15796.0263671875,-4379.74951171875,-5679.13037109375,-3844.10205078125,-953.67431640625,-6118.61572265625,936.1903076171875,4765.9873046875,7317.86083984375,3862.380859375,4797.77685546875,-311.5335998535156,5548.79541015625,-1013.2789306640625,19450.1875,-1087.9835205078125,-0.0,-1947.0850830078125,9519.259765625,-2467.63232421875,105.69890594482422,1968.5428466796875,8609.294921875,-4839.89697265625,3461.043212890625,-5515.41650390625,-1013.2789306640625,-39.73643112182617,9925.365234375,-10162.1943359375,-13381.640625,-5667.20947265625,-2137.025146484375,498.2948303222656,-6865.66015625,-1289.0498046875,38.94169998168945,-6904.60205078125,2580.483642578125,766.1183471679688,1221.4979248046875,-5664.03076171875,569.0256958007812,0.0,-2961.953369140625,0.0,-1804.033935546875,-0.0,-901.2222290039062
-11207.2626953125,-9409.5869140625,-3594.5576171875,2247.492431640625,3109.77294921875,20609.697265625,-2424.717041015625,3026.326416015625,-2717.9716796875,3725.687744140625,-7869.40283203125,-5288.9189453125,-5002.81689453125,3234.54541015625,1401.9012451171875,-3077.98388671875,-388.6222839355469,2663.93017578125,4344.78125,15693.505859375,2900.759521484375,12640.953125,912.3484497070312,15797.615234375,-4371.00732421875,-5684.69384765625,-3843.3076171875,-943.3428344726562,-6117.02587890625,927.4482421875,4765.9873046875,7313.0927734375,3863.970458984375,4797.77685546875,-312.3283386230469,5545.6162109375,-1014.868408203125,19451.77734375,-1108.6463623046875,-0.0,-1940.727294921875,9515.28515625,-2466.042724609375,108.08309173583984,1967.7479248046875,8612.4736328125,-4835.923828125,3477.732421875,-5518.59521484375,-1019.6367797851562,-36.55751419067383,9933.3125,-10162.9892578125,-13396.740234375,-5665.6201171875,-2137.025146484375,505.4473876953125,-6855.3291015625,-1291.4339599609375,43.7100715637207,-6909.37060546875,2577.304931640625,766.1183471679688,1224.6767578125,-5662.44140625,569.0256958007812,0.0,-2971.490234375,0.0,-1808.007568359375,-0.0,-901.2222290039062
-11200.9052734375,-9411.17578125,-3592.968017578125,2249.876708984375,3106.593994140625,20604.9296875,-2423.12744140625,3027.121337890625,-2713.998046875,3734.4296875,-7866.22314453125,-5288.1240234375,-4997.25341796875,3243.287353515625,1405.8748779296875,-3085.136474609375,-385.443359375,2665.519775390625,4347.16552734375,15700.6591796875,2899.964599609375,12640.158203125,910.7589721679688,15797.615234375,-4371.00732421875,-5696.61474609375,-3848.075927734375,-947.3164672851562,-6116.2314453125,916.3220825195312,4768.37158203125,7317.86083984375,3865.559814453125,4796.98193359375,-311.5335998535156,5545.6162109375,-1012.4841918945312,19453.3671875,-1095.9306640625,-0.0,-1939.1378173828125,9508.927734375,-2467.63232421875,104.10944366455078,1971.7216796875,8617.2421875,-4829.5654296875,3479.32177734375,-5528.1318359375,-1028.3787841796875,-31.789142608642578,9932.517578125,-10182.857421875,-13392.765625,-5667.20947265625,-2142.58837890625,511.80523681640625,-6847.3818359375,-1289.0498046875,58.80991744995117,-6913.34375,2578.099609375,770.88671875,1232.6240234375,-5664.03076171875,580.15185546875,0.0,-2944.469482421875,0.0,-1786.5499267578125,-0.0,-892.480224609375
-11215.2099609375,-9395.2822265625,-3592.17333984375,2246.69775390625,3103.415283203125,20597.77734375,-2428.690673828125,3020.763427734375,-2716.38232421875,3730.4560546875,-7835.22900390625,-5289.71337890625,-5011.55859375,3244.876953125,1399.51708984375,-3102.620361328125,-383.8539123535156,2666.314453125,4343.19140625,15699.068359375,2897.580322265625,12636.1845703125,905.9906005859375,15792.0517578125,-4382.13330078125,-5705.3564453125,-3852.049560546875,-956.8532104492188,-6123.3837890625,905.9906005859375,4766.7822265625,7320.2451171875,3865.559814453125,4798.5712890625,-314.7125244140625,5541.642578125,-1017.2525634765625,19450.1875,-1088.7781982421875,-0.0,-1946.2904052734375,9503.3642578125,-2472.400634765625,96.9568862915039,1966.9532470703125,8611.6787109375,-4838.3076171875,3478.527099609375,-5530.51611328125,-1039.5050048828125,-38.14697265625,9923.775390625,-10185.2421875,-13386.4091796875,-5675.1572265625,-2165.63525390625,503.85791015625,-6852.94482421875,-1290.6392822265625,51.6573600769043,-6919.7021484375,2577.304931640625,768.5025634765625,1227.855712890625,-5673.5673828125,585.7149658203125,0.0,-2943.6748046875,0.0,-1788.93408203125,-0.0,-898.0433349609375
-11223.9521484375,-9359.5185546875,-3594.5576171875,2253.0556640625,3103.415283203125,20608.107421875,-2426.306396484375,3028.710693359375,-2718.766357421875,3719.329833984375,-7817.7451171875,-5281.7666015625,-5008.37939453125,3239.313720703125,1394.7486572265625,-3093.87841796875,-379.8802795410156,2670.2880859375,4344.78125,15696.68359375,2899.169921875,12640.953125,909.9642333984375,15798.41015625,-4392.46533203125,-5688.66748046875,-3850.4599609375,-945.72705078125,-6124.97314453125,917.9114990234375,4772.34521484375,7328.1923828125,3868.73876953125,4804.92919921875,-310.7388916015625,5550.384765625,-1014.07373046875,19455.751953125,-1079.241455078125,-0.0,-1949.46923828125,9510.517578125,-2470.81103515625,106.4936294555664,1966.1585693359375,8613.2685546875,-4851.81787109375,3490.447998046875,-5528.1318359375,-1012.4841918945312,-42.91534423828125,9934.90234375,-10172.5263671875,-13372.8984375,-5676.74658203125,-2164.8408203125,499.8843078613281,-6845.79248046875,-1294.6129150390625,30.19968605041504,-6912.54931640625,2583.662841796875,768.5025634765625,1221.4979248046875,-5679.92529296875,587.304443359375,0.0,-2974.669189453125,0.0,-1821.5179443359375,-0.0,-909.9642333984375
-11217.59375,-9334.8818359375,-3590.583740234375,2253.0556640625,3098.64697265625,20616.849609375,-2423.12744140625,3038.247314453125,-2719.561279296875,3723.303466796875,-7822.513671875,-5271.4345703125,-5008.37939453125,3236.9296875,1386.0067138671875,-3067.65234375,-377.49609375,2674.26171875,4349.5498046875,15698.2744140625,2903.938232421875,12645.7216796875,915.52734375,15807.947265625,-4390.0810546875,-5679.92529296875,-3850.4599609375,-930.627197265625,-6117.82080078125,940.1639404296875,4775.52392578125,7331.37109375,3872.71240234375,4805.7236328125,-305.17578125,5555.94775390625,-1010.894775390625,19464.4921875,-1087.188720703125,-0.0,-1944.7008056640625,9517.669921875,-2468.427001953125,116.82510375976562,1968.5428466796875,8621.2158203125,-4835.923828125,3490.447998046875,-5527.33740234375,-1001.3580322265625,-50.067901611328125,9951.591796875,-10175.705078125,-13360.1826171875,-5670.388671875,-2141.79345703125,492.73175048828125,-6839.43408203125,-1287.4603271484375,27.02077293395996,-6899.83349609375,2589.225830078125,773.2709350585938,1223.882080078125,-5678.33544921875,584.12548828125,0.0,-2968.311279296875,0.0,-1818.3389892578125,-0.0,-905.9906005859375
-11220.7724609375,-9365.08203125,-3604.09423828125,2237.160888671875,3079.573486328125,20596.98046875,-2432.6640625,3016.789794921875,-2728.30322265625,3722.5087890625,-7831.255859375,-5282.56103515625,-5025.06884765625,3223.419189453125,1378.8541259765625,-3101.031005859375,-391.80120849609375,2660.75146484375,4339.21826171875,15687.9423828125,2891.22265625,12629.0322265625,902.8117065429688,15790.462890625,-4405.9755859375,-5706.1513671875,-3860.79150390625,-956.8532104492188,-6121.79443359375,933.8060913085938,4759.6298828125,7314.68212890625,3858.4072265625,4787.4453125,-319.48089599609375,5538.46337890625,-1022.815673828125,19447.802734375,-1108.6463623046875,-0.0,-1956.621826171875,9495.41796875,-2479.55322265625,98.54634857177734,1959.80078125,8606.9111328125,-4839.89697265625,3472.964111328125,-5536.07958984375,-1025.99462890625,-58.01518630981445,9922.9814453125,-10195.5732421875,-13368.1298828125,-5672.77294921875,-2160.072265625,487.9633483886719,-6864.07080078125,-1288.255126953125,30.19968605041504,-6907.78125,2574.920654296875,762.1447143554688,1215.1400146484375,-5677.541015625,570.6151123046875,0.0,-2960.364013671875,0.0,-1808.007568359375,-0.0,-907.580078125
-11227.92578125,-9377.796875,-3604.888916015625,2232.392578125,3074.01025390625,20590.623046875,-2439.02197265625,3008.0478515625,-2732.27685546875,3720.91943359375,-7845.56103515625,-5288.1240234375,-5036.1953125,3221.034912109375,1370.9068603515625,-3122.48876953125,-399.74847412109375,2653.598876953125,4332.8603515625,15688.73828125,2885.659423828125,12625.05859375,894.8643798828125,15784.8984375,-4405.9755859375,-5714.0986328125,-3871.123046875,-963.2110595703125,-6140.0732421875,932.2166748046875,4754.861328125,7309.91357421875,3851.254638671875,4781.8818359375,-328.222900390625,5533.6953125,-1026.789306640625,19440.650390625,-1122.15673828125,-0.0,-1957.41650390625,9485.880859375,-2485.9111328125,92.98324584960938,1954.2376708984375,8602.9365234375,-4838.3076171875,3466.606201171875,-5543.23193359375,-1025.199951171875,-66.7572021484375,9908.67578125,-10199.546875,-13377.666015625,-5689.46240234375,-2157.688232421875,478.4266052246094,-6872.0185546875,-1300.176025390625,44.50480270385742,-6913.34375,2568.562744140625,757.3763427734375,1215.1400146484375,-5691.05126953125,569.8204345703125,0.0,-2963.54296875,0.0,-1801.649658203125,-0.0,-908.374755859375
-11216.7998046875,-9357.9296875,-3611.246826171875,2230.80322265625,3072.4208984375,20598.5703125,-2436.637939453125,3015.200439453125,-2725.9189453125,3727.277099609375,-7843.1767578125,-5290.50830078125,-5032.22119140625,3232.9560546875,1366.9332275390625,-3115.336181640625,-399.74847412109375,2654.3935546875,4335.24462890625,15694.2998046875,2884.070068359375,12627.4423828125,897.2485961914062,15788.078125,-4404.38623046875,-5702.97265625,-3874.302001953125,-953.67431640625,-6144.841796875,933.0113525390625,4754.861328125,7313.0927734375,3852.049560546875,4783.4716796875,-328.222900390625,5537.6689453125,-1028.3787841796875,19443.830078125,-1118.18310546875,-0.0,-1962.9796142578125,9493.828125,-2486.705810546875,98.54634857177734,1954.2376708984375,8607.705078125,-4860.56005859375,3465.8115234375,-5547.20556640625,-1014.07373046875,-69.93611907958984,9916.623046875,-10191.599609375,-13375.2822265625,-5692.640625,-2142.58837890625,480.0160827636719,-6870.4287109375,-1302.5601806640625,48.47844314575195,-6907.78125,2569.357666015625,761.3499755859375,1223.882080078125,-5692.640625,567.4362182617188,0.0,-2959.5693359375,0.0,-1797.676025390625,-0.0,-898.0433349609375
-11212.826171875,-9365.8759765625,-3619.194091796875,2225.239990234375,3070.831298828125,20594.59765625,-2436.637939453125,3016.789794921875,-2721.150634765625,3732.04541015625,-7835.22900390625,-5294.48193359375,-5026.65869140625,3243.287353515625,1375.6751708984375,-3104.2099609375,-399.74847412109375,2652.00927734375,4336.0390625,15701.4521484375,2881.68603515625,12625.05859375,898.0433349609375,15786.4892578125,-4411.53857421875,-5700.58837890625,-3871.123046875,-957.64794921875,-6146.43115234375,913.1431884765625,4753.271484375,7309.91357421875,3849.665283203125,4782.6767578125,-327.4281921386719,5536.07958984375,-1026.789306640625,19444.623046875,-1111.8253173828125,-0.0,-1968.5428466796875,9497.0068359375,-2485.1162109375,93.7779769897461,1958.211181640625,8610.0888671875,-4874.07080078125,3457.864013671875,-5551.17919921875,-1041.88916015625,-61.19409942626953,9919.802734375,-10165.3740234375,-13390.3818359375,-5695.02490234375,-2148.946044921875,483.9897155761719,-6871.2236328125,-1295.4075927734375,48.47844314575195,-6911.75439453125,2567.76806640625,763.7341918945312,1235.802978515625,-5688.66748046875,570.6151123046875,0.0,-2954.006103515625,0.0,-1791.3182373046875,-0.0,-885.32763671875
-11236.66796875,-9383.361328125,-3616.01513671875,2237.955810546875,3075.599609375,20598.5703125,-2427.895751953125,3026.326416015625,-2706.845458984375,3751.913818359375,-7836.0244140625,-5286.53466796875,-5030.6318359375,3260.771484375,1383.62255859375,-3092.2890625,-395.77484130859375,2659.161865234375,4343.986328125,15720.525390625,2885.659423828125,12631.416015625,904.401123046875,15793.6416015625,-4410.74365234375,-5694.23046875,-3862.380859375,-950.4954223632812,-6145.63623046875,918.7062377929688,4758.8349609375,7311.5029296875,3853.638916015625,4786.650390625,-321.0703430175781,5542.43701171875,-1018.04736328125,19453.3671875,-1108.6463623046875,-0.0,-1963.7744140625,9500.98046875,-2476.374267578125,101.72525787353516,1967.7479248046875,8621.2158203125,-4866.123046875,3470.579833984375,-5546.4111328125,-1032.3524169921875,-53.2468147277832,9930.1337890625,-10158.2216796875,-13410.2509765625,-5695.02490234375,-2153.71435546875,488.7580871582031,-6856.12353515625,-1285.870849609375,65.96247100830078,-6918.1123046875,2574.1259765625,775.6550903320312,1258.0552978515625,-5683.89892578125,576.9729614257812,0.0,-2950.032470703125,0.0,-1774.6290283203125,-0.0,-859.8963623046875
-11239.8466796875,-9378.5927734375,-3613.631103515625,2252.260986328125,3084.341796875,20606.517578125,-2415.18017578125,3039.8369140625,-2690.15625,3774.960693359375,-7832.05029296875,-5278.58740234375,-5013.94287109375,3274.28173828125,1394.7486572265625,-3084.341796875,-387.0328369140625,2668.698486328125,4356.7021484375,15741.9833984375,2893.60693359375,12639.36328125,912.3484497070312,15803.1787109375,-4401.20703125,-5694.23046875,-3850.4599609375,-938.574462890625,-6133.71533203125,933.0113525390625,4766.7822265625,7318.6552734375,3860.79150390625,4796.18701171875,-312.3283386230469,5551.17919921875,-1005.3316650390625,19463.697265625,-1099.109619140625,-0.0,-1955.0323486328125,9504.1591796875,-2467.63232421875,113.64618682861328,1983.642578125,8635.5205078125,-4861.35498046875,3487.26904296875,-5535.28466796875,-1015.6631469726562,-41.32588577270508,9942.0546875,-10182.0634765625,-13415.0185546875,-5683.10400390625,-2150.53564453125,497.5001220703125,-6840.22900390625,-1275.5394287109375,83.44650268554688,-6910.9599609375,2583.662841796875,790.7549438476562,1267.592041015625,-5674.3623046875,588.0991821289062,0.0,-2942.085205078125,0.0,-1760.3238525390625,-0.0,-840.8228759765625
-11227.130859375,-9368.2607421875,-3608.862548828125,2261.797607421875,3088.315185546875,20612.08203125,-2410.411865234375,3046.19482421875,-2686.1826171875,3775.755615234375,-7832.05029296875,-5273.81884765625,-5006.7900390625,3275.07666015625,1405.0802001953125,-3083.546875,-383.0591735839844,2671.877685546875,4362.26513671875,15743.57421875,2896.78564453125,12642.54296875,917.9114990234375,15807.947265625,-4402.79638671875,-5684.69384765625,-3844.89697265625,-933.0113525390625,-6126.5625,924.2693481445312,4767.57666015625,7321.83447265625,3863.970458984375,4800.16064453125,-309.94415283203125,5555.15283203125,-999.7686157226562,19467.671875,-1099.109619140625,-0.0,-1952.648193359375,9514.4912109375,-2463.65869140625,117.61983489990234,1989.20556640625,8641.87890625,-4847.8447265625,3497.6005859375,-5529.7216796875,-1018.04736328125,-31.789142608642578,9950.001953125,-10196.3681640625,-13405.482421875,-5675.95166015625,-2151.330322265625,499.8843078613281,-6822.74462890625,-1267.592041015625,77.08867645263672,-6909.37060546875,2586.841552734375,794.7285766601562,1254.081787109375,-5671.18310546875,591.278076171875,0.0,-2943.6748046875,0.0,-1771.4500732421875,-0.0,-863.8699951171875
-11229.5146484375,-9372.234375,-3616.01513671875,2253.0556640625,3080.3681640625,20604.9296875,-2420.7431640625,3030.300048828125,-2704.46142578125,3736.01904296875,-7842.38134765625,-5285.73974609375,-5018.7109375,3251.23486328125,1405.8748779296875,-3098.64697265625,-392.5959167480469,2661.5458984375,4347.16552734375,15714.1689453125,2888.838623046875,12636.9794921875,909.1694946289062,15797.615234375,-4410.74365234375,-5689.46240234375,-3848.87060546875,-941.75341796875,-6126.5625,921.0904541015625,4757.24560546875,7313.0927734375,3852.84423828125,4790.6240234375,-318.6861572265625,5544.8212890625,-1009.3053588867188,19454.16015625,-1111.8253173828125,-0.0,-1960.5953369140625,9508.927734375,-2472.400634765625,108.08309173583984,1975.6953125,8621.2158203125,-4856.58642578125,3485.6796875,-5530.51611328125,-1021.2262573242188,-33.37860107421875,9935.6962890625,-10199.546875,-13395.150390625,-5676.74658203125,-2148.946044921875,497.5001220703125,-6842.61328125,-1269.181640625,50.067901611328125,-6922.08642578125,2576.51025390625,777.2445678710938,1222.2926025390625,-5676.74658203125,575.3834838867188,0.0,-2964.337646484375,0.0,-1818.3389892578125,-0.0,-921.0904541015625
-11227.130859375,-9385.7451171875,-3619.98876953125,2232.392578125,3072.4208984375,20593.0078125,-2438.227294921875,3001.68994140625,-2725.9189453125,3696.28271484375,-7843.97119140625,-5293.6875,-5025.06884765625,3230.57177734375,1387.59619140625,-3120.899169921875,-401.33795166015625,2650.419921875,4330.47607421875,15681.5849609375,2879.3017578125,12624.263671875,894.8643798828125,15782.5146484375,-4409.154296875,-5705.3564453125,-3863.175537109375,-960.0321655273438,-6129.74169921875,913.1431884765625,4746.9140625,7304.3505859375,3845.691650390625,4780.29248046875,-329.01763916015625,5530.51611328125,-1027.5841064453125,19435.087890625,-1124.5408935546875,-0.0,-1966.9532470703125,9495.41796875,-2485.1162109375,90.59906005859375,1956.621826171875,8588.6318359375,-4871.6865234375,3465.0166015625,-5536.87451171875,-1022.0209350585938,-50.86262893676758,9907.8818359375,-10191.599609375,-13392.765625,-5679.13037109375,-2151.330322265625,492.73175048828125,-6869.63427734375,-1293.0234375,13.51038646697998,-6924.47021484375,2562.205078125,753.4027099609375,1204.80859375,-5682.3095703125,562.6678466796875,0.0,-2975.4638671875,0.0,-1833.4388427734375,-0.0,-944.1375732421875
-11235.078125,-9396.87109375,-3627.93603515625,2206.16650390625,3062.089111328125,20575.5234375,-2452.532470703125,2985.795166015625,-2747.376708984375,3680.38818359375,-7854.30224609375,-5307.19775390625,-5026.65869140625,3196.3984375,1373.291015625,-3143.151611328125,-414.84832763671875,2637.7041015625,4316.17138671875,15662.51171875,2868.175537109375,12606.7802734375,881.35400390625,15766.62109375,-4413.1279296875,-5726.814453125,-3875.0966796875,-980.6951293945312,-6136.89404296875,904.401123046875,4734.1982421875,7292.4296875,3833.770751953125,4766.7822265625,-342.52801513671875,5514.62158203125,-1042.6839599609375,19419.193359375,-1138.0513916015625,-0.0,-1975.6953125,9473.9599609375,-2497.037109375,71.52557373046875,1938.343017578125,8575.1220703125,-4876.45458984375,3439.58544921875,-5549.58984375,-1044.2734375,-63.578285217285156,9891.1923828125,-10198.751953125,-13389.587890625,-5689.46240234375,-2163.251220703125,493.5264587402344,-6881.55517578125,-1312.8916015625,-1.5894571542739868,-6926.8544921875,2548.694580078125,736.71337890625,1188.9139404296875,-5692.640625,549.157470703125,0.0,-2979.4375,0.0,-1836.6177978515625,-0.0,-942.548095703125
-11255.7412109375,-9410.380859375,-3635.088623046875,2194.24560546875,3052.552490234375,20565.19140625,-2461.2744140625,2979.4375,-2765.655517578125,3677.209228515625,-7865.4287109375,-5312.7607421875,-5021.89013671875,3170.967041015625,1365.34375,-3148.71484375,-422.0008850097656,2628.16748046875,4308.2236328125,15650.5908203125,2861.02294921875,12594.0634765625,872.6119995117188,15757.083984375,-4422.66455078125,-5732.37744140625,-3881.45458984375,-991.0265502929688,-6138.4833984375,895.6591186523438,4725.4560546875,7283.6875,3825.823486328125,4758.0400390625,-349.6805725097656,5507.46923828125,-1050.6312255859375,19412.041015625,-1147.588134765625,-0.0,-1983.642578125,9465.2177734375,-2505.779296875,61.19409942626953,1928.0115966796875,8571.9423828125,-4878.8388671875,3430.048583984375,-5558.33203125,-1068.115234375,-73.11502838134766,9883.244140625,-10226.5673828125,-13392.765625,-5689.46240234375,-2180.7353515625,488.7580871582031,-6886.3232421875,-1326.402099609375,1.5894571542739868,-6942.7490234375,2540.747314453125,726.3819580078125,1180.9666748046875,-5691.05126953125,547.5679931640625,0.0,-2983.4111328125,0.0,-1837.4124755859375,-0.0,-943.3428344726562
-11292.2978515625,-9419.91796875,-3631.114990234375,2194.24560546875,3043.810546875,20562.013671875,-2466.837646484375,2977.053466796875,-2772.80810546875,3677.209228515625,-7886.88671875,-5315.939453125,-5028.248046875,3171.76171875,1361.3701171875,-3145.53564453125,-427.5639953613281,2622.6044921875,4304.25,15645.822265625,2854.6650390625,12589.294921875,867.0488891601562,15753.111328125,-4436.1748046875,-5733.171875,-3887.812255859375,-995.000244140625,-6145.63623046875,891.6854858398438,4718.3037109375,7275.740234375,3821.849853515625,4753.271484375,-355.2436828613281,5502.70068359375,-1056.1943359375,19408.068359375,-1150.7669677734375,-0.0,-1990.795166015625,9459.6552734375,-2513.7265625,58.01518630981445,1921.65380859375,8567.173828125,-4871.6865234375,3430.048583984375,-5569.4580078125,-1066.5257568359375,-76.2939453125,9882.4501953125,-10244.0517578125,-13401.5087890625,-5697.4091796875,-2186.29833984375,482.4002685546875,-6883.14453125,-1328.7862548828125,0.7947285771369934,-6962.6171875,2534.389404296875,724.79248046875,1175.403564453125,-5700.58837890625,547.5679931640625,0.0,-2986.590087890625,0.0,-1837.4124755859375,-0.0,-944.1375732421875
-11308.9873046875,-9416.7392578125,-3618.3994140625,2203.7822265625,3055.7314453125,20579.49609375,-2452.532470703125,2994.537353515625,-2753.734619140625,3693.8984375,-7874.9658203125,-5313.55517578125,-5010.763671875,3193.219482421875,1382.8277587890625,-3129.641357421875,-419.61669921875,2632.935791015625,4316.9658203125,15664.896484375,2865.791259765625,12601.216796875,879.7645263671875,15766.62109375,-4422.66455078125,-5712.50927734375,-3872.71240234375,-971.9530639648438,-6139.2783203125,890.0960083007812,4730.224609375,7283.6875,3831.386474609375,4763.60302734375,-345.7069396972656,5516.2109375,-1042.6839599609375,19422.373046875,-1134.8724365234375,-0.0,-1978.07958984375,9479.5224609375,-2499.42138671875,74.7044906616211,1938.343017578125,8582.2744140625,-4858.970703125,3436.406494140625,-5559.12646484375,-1046.6575927734375,-54.836273193359375,9902.318359375,-10209.8779296875,-13414.2236328125,-5691.05126953125,-2175.172119140625,499.08953857421875,-6895.8603515625,-1309.7127685546875,8.74201488494873,-6956.25927734375,2547.89990234375,739.0975952148438,1187.324462890625,-5693.435546875,560.28369140625,0.0,-2984.2060546875,0.0,-1832.6441650390625,-0.0,-927.4482421875
-11293.8876953125,-9399.2548828125,-3594.5576171875,2232.392578125,3074.01025390625,20608.107421875,-2431.86962890625,3019.96875,-2725.124267578125,3730.4560546875,-7853.5078125,-5291.30322265625,-5007.5849609375,3231.366455078125,1389.9803466796875,-3098.64697265625,-395.77484130859375,2656.777587890625,4339.21826171875,15699.86328125,2886.454345703125,12628.2373046875,898.0433349609375,15790.462890625,-4397.2333984375,-5674.3623046875,-3862.380859375,-947.3164672851562,-6126.5625,894.8643798828125,4754.06640625,7303.55615234375,3853.638916015625,4789.8291015625,-324.249267578125,5539.25830078125,-1022.815673828125,19446.21484375,-1115.004150390625,-0.0,-1958.211181640625,9516.080078125,-2481.142822265625,100.93053436279297,1962.1849365234375,8612.4736328125,-4837.51318359375,3463.42724609375,-5543.23193359375,-1019.6367797851562,-46.88898849487305,9927.75,-10194.7783203125,-13439.6552734375,-5678.33544921875,-2164.8408203125,498.2948303222656,-6853.7392578125,-1289.844482421875,50.86262893676758,-6931.623046875,2571.74169921875,763.7341918945312,1219.1136474609375,-5685.48828125,577.7677001953125,0.0,-2961.15869140625,0.0,-1799.2655029296875,-0.0,-894.0697021484375
-11248.5888671875,-9400.8447265625,-3598.531005859375,2249.876708984375,3070.03662109375,20600.953125,-2431.074951171875,3019.173828125,-2721.150634765625,3735.224365234375,-7860.66064453125,-5283.35546875,-5019.505859375,3232.9560546875,1378.8541259765625,-3102.620361328125,-389.4170227050781,2659.161865234375,4340.8076171875,15703.8369140625,2890.427734375,12627.4423828125,902.0169677734375,15790.462890625,-4391.67041015625,-5695.02490234375,-3865.559814453125,-957.64794921875,-6125.76806640625,910.7589721679688,4756.45068359375,7314.68212890625,3855.228515625,4793.802734375,-321.8650817871094,5541.642578125,-1021.2262573242188,19447.802734375,-1107.8516845703125,-0.0,-1953.44287109375,9508.1328125,-2480.347900390625,96.16216278076172,1966.9532470703125,8615.6533203125,-4837.51318359375,3482.500732421875,-5541.642578125,-1027.5841064453125,-57.220458984375,9925.365234375,-10189.2158203125,-13438.861328125,-5679.13037109375,-2164.046142578125,483.9897155761719,-6837.8447265625,-1286.66552734375,61.19409942626953,-6914.138671875,2573.3310546875,767.7078247070312,1210.37158203125,-5679.13037109375,577.7677001953125,0.0,-2954.006103515625,0.0,-1796.88134765625,-0.0,-904.401123046875
-11228.720703125,-9409.5869140625,-3606.478515625,2245.903076171875,3066.06298828125,20595.392578125,-2434.253662109375,3016.789794921875,-2728.30322265625,3734.4296875,-7847.9453125,-5277.79248046875,-5029.04248046875,3224.2138671875,1375.6751708984375,-3114.541259765625,-390.21173095703125,2656.777587890625,4337.62890625,15701.4521484375,2888.838623046875,12625.05859375,900.427490234375,15788.8740234375,-4402.001953125,-5714.8935546875,-3867.944091796875,-960.826904296875,-6133.71533203125,921.8851928710938,4754.06640625,7318.6552734375,3853.638916015625,4791.41845703125,-325.04400634765625,5537.6689453125,-1022.815673828125,19445.419921875,-1089.5728759765625,-0.0,-1957.41650390625,9498.595703125,-2481.9375,92.98324584960938,1962.9796142578125,8614.0634765625,-4847.0498046875,3480.11669921875,-5543.23193359375,-1027.5841064453125,-61.98883056640625,9919.0068359375,-10186.8310546875,-13404.6865234375,-5685.48828125,-2160.072265625,480.810791015625,-6847.3818359375,-1292.228759765625,55.63100051879883,-6912.54931640625,2570.947021484375,766.1183471679688,1215.1400146484375,-5666.41455078125,581.7413330078125,0.0,-2950.032470703125,0.0,-1790.5235595703125,-0.0,-903.6064453125
-11224.7470703125,-9402.4345703125,-3607.273193359375,2234.77685546875,3068.447021484375,20596.98046875,-2431.074951171875,3019.173828125,-2722.740234375,3730.4560546875,-7820.923828125,-5279.38232421875,-5023.4794921875,3240.1083984375,1382.032958984375,-3106.593994140625,-391.0064697265625,2657.572509765625,4340.01318359375,15704.6318359375,2888.838623046875,12623.4697265625,902.8117065429688,15788.078125,-4406.77001953125,-5710.125,-3862.380859375,-955.2637939453125,-6133.71533203125,929.0377197265625,4754.06640625,7315.47705078125,3854.433837890625,4789.0341796875,-324.249267578125,5539.25830078125,-1018.8421020507812,19447.0078125,-1104.6727294921875,-0.0,-1960.5953369140625,9497.0068359375,-2479.55322265625,97.75161743164062,1966.1585693359375,8615.6533203125,-4842.28125,3468.990234375,-5537.6689453125,-1022.815673828125,-55.63100051879883,9921.3916015625,-10182.857421875,-13380.05078125,-5683.89892578125,-2148.1513671875,487.9633483886719,-6844.20263671875,-1289.0498046875,52.45208740234375,-6916.52294921875,2573.3310546875,768.5025634765625,1250.90283203125,-5671.97802734375,582.5360717773438,0.0,-2938.111572265625,0.0,-1780.1920166015625,-0.0,-877.38037109375
-11238.2578125,-9400.0498046875,-3616.809814453125,2220.4716796875,3062.884033203125,20592.212890625,-2433.458984375,3014.405517578125,-2725.9189453125,3720.91943359375,-7819.3349609375,-5291.30322265625,-5034.60546875,3232.9560546875,1384.417236328125,-3109.77294921875,-399.74847412109375,2652.00927734375,4338.42333984375,15700.6591796875,2879.3017578125,12617.111328125,898.0433349609375,15784.8984375,-4418.69091796875,-5714.8935546875,-3863.970458984375,-956.8532104492188,-6134.51025390625,930.627197265625,4746.9140625,7306.734375,3845.691650390625,4779.49755859375,-329.01763916015625,5533.6953125,-1022.0209350585938,19443.03515625,-1113.414794921875,-0.0,-1970.927001953125,9487.4697265625,-2481.9375,95.367431640625,1962.1849365234375,8611.6787109375,-4849.43408203125,3454.685302734375,-5545.6162109375,-1023.6104736328125,-54.836273193359375,9919.802734375,-10172.5263671875,-13376.0771484375,-5686.283203125,-2151.330322265625,487.16864013671875,-6852.94482421875,-1290.6392822265625,34.96805953979492,-6918.1123046875,2568.562744140625,764.5289306640625,1242.95556640625,-5676.74658203125,576.9729614257812,0.0,-2950.032470703125,0.0,-1800.060302734375,-0.0,-887.7118530273438
-11259.71484375,-9396.87109375,-3630.3203125,2212.5244140625,3057.32080078125,20583.470703125,-2438.227294921875,3007.2529296875,-2737.83984375,3707.408935546875,-7833.64013671875,-5296.86572265625,-5033.01611328125,3223.419189453125,1382.8277587890625,-3119.3095703125,-409.28521728515625,2644.06201171875,4333.65478515625,15687.1474609375,2871.354248046875,12607.57421875,889.30126953125,15776.1572265625,-4425.84375,-5721.2509765625,-3865.559814453125,-964.800537109375,-6136.89404296875,924.2693481445312,4739.76123046875,7297.99267578125,3834.5654296875,4769.16650390625,-336.9649353027344,5524.15869140625,-1027.5841064453125,19435.8828125,-1119.7725830078125,-0.0,-1976.489990234375,9477.138671875,-2485.9111328125,86.62541961669922,1955.8270263671875,8600.552734375,-4877.2490234375,3447.53271484375,-5555.15283203125,-1033.94189453125,-56.42573165893555,9912.650390625,-10173.3203125,-13380.8447265625,-5686.283203125,-2167.224853515625,487.16864013671875,-6868.83935546875,-1293.818115234375,23.047128677368164,-6920.49658203125,2559.82080078125,756.5816040039062,1220.703125,-5679.13037109375,566.6414794921875,0.0,-2965.92724609375,0.0,-1815.954833984375,-0.0,-905.1958618164062
-11277.9931640625,-9398.4599609375,-3642.2412109375,2202.193115234375,3048.578857421875,20573.138671875,-2449.353515625,2996.921630859375,-2748.96630859375,3690.7197265625,-7851.1240234375,-5304.8134765625,-5025.06884765625,3209.114013671875,1376.469970703125,-3127.257080078125,-422.0008850097656,2632.14111328125,4323.32373046875,15673.6376953125,2860.228271484375,12597.2431640625,878.9698486328125,15766.62109375,-4436.1748046875,-5731.58251953125,-3874.302001953125,-974.3372802734375,-6148.81494140625,903.6064453125,4728.63525390625,7286.86669921875,3825.823486328125,4758.0400390625,-346.5016784667969,5513.0322265625,-1038.710205078125,19425.55078125,-1131.6934814453125,-0.0,-1986.8214111328125,9467.6015625,-2496.242431640625,73.90975952148438,1947.0850830078125,8588.6318359375,-4887.5810546875,3434.817138671875,-5567.07373046875,-1045.86279296875,-61.98883056640625,9901.5234375,-10196.3681640625,-13395.150390625,-5695.81982421875,-2165.63525390625,480.810791015625,-6884.73388671875,-1300.176025390625,15.894571304321289,-6934.8017578125,2549.4892578125,746.2501220703125,1204.80859375,-5691.05126953125,552.3363647460938,0.0,-2981.82177734375,0.0,-1829.4652099609375,-0.0,-921.0904541015625
-11280.376953125,-9404.818359375,-3629.525390625,2208.55078125,3056.526123046875,20577.908203125,-2446.174560546875,3002.484619140625,-2746.58203125,3694.693359375,-7861.455078125,-5308.787109375,-5024.2744140625,3212.29296875,1380.443603515625,-3120.899169921875,-418.0272521972656,2637.7041015625,4324.1181640625,15678.40625,2866.5859375,12602.01171875,885.32763671875,15769.7998046875,-4420.2802734375,-5729.9931640625,-3871.917724609375,-969.5689086914062,-6144.046875,897.2485961914062,4733.40380859375,7290.04541015625,3832.18115234375,4762.013671875,-343.32275390625,5517.005859375,-1034.736572265625,19431.11328125,-1130.10400390625,-0.0,-1975.6953125,9469.986328125,-2493.8583984375,77.8833999633789,1949.46923828125,8594.1953125,-4869.30224609375,3441.9697265625,-5556.7421875,-1042.6839599609375,-58.01518630981445,9908.67578125,-10209.083984375,-13408.6611328125,-5693.435546875,-2160.072265625,487.16864013671875,-6886.3232421875,-1300.176025390625,26.226043701171875,-6941.15966796875,2554.257568359375,749.4290771484375,1207.1927490234375,-5702.177734375,554.7205810546875,0.0,-2976.258544921875,0.0,-1823.107421875,-0.0,-921.8851928710938
-11281.1728515625,-9408.7919921875,-3614.42578125,2222.06103515625,3074.01025390625,20590.623046875,-2435.04833984375,3006.458251953125,-2737.04541015625,3713.766845703125,-7865.4287109375,-5304.8134765625,-5008.37939453125,3228.1875,1398.7222900390625,-3128.846435546875,-406.9010314941406,2647.240966796875,4332.0654296875,15693.505859375,2877.712158203125,12613.1376953125,895.6591186523438,15778.5419921875,-4401.20703125,-5706.1513671875,-3853.638916015625,-970.3636474609375,-6136.89404296875,902.0169677734375,4744.52978515625,7298.78759765625,3840.92333984375,4772.34521484375,-332.1965637207031,5525.74755859375,-1024.4051513671875,19438.267578125,-1130.10400390625,-0.0,-1962.1849365234375,9485.880859375,-2482.732177734375,84.2412338256836,1959.80078125,8599.7578125,-4860.56005859375,3455.47998046875,-5546.4111328125,-1042.6839599609375,-39.73643112182617,9906.2919921875,-10197.1630859375,-13416.607421875,-5686.283203125,-2163.251220703125,503.85791015625,-6893.47607421875,-1290.6392822265625,30.19968605041504,-6938.775390625,2561.41015625,758.1710815429688,1221.4979248046875,-5697.4091796875,560.28369140625,0.0,-2965.92724609375,0.0,-1806.4180908203125,-0.0,-905.1958618164062
-11274.814453125,-9401.638671875,-3600.12060546875,2234.77685546875,3092.2890625,20606.517578125,-2416.769775390625,3026.326416015625,-2718.766357421875,3733.635009765625,-7849.5341796875,-5290.50830078125,-5013.94287109375,3243.287353515625,1416.206298828125,-3101.031005859375,-388.6222839355469,2663.93017578125,4351.13916015625,15714.1689453125,2895.1962890625,12629.826171875,912.3484497070312,15797.615234375,-4383.72265625,-5689.46240234375,-3836.94970703125,-944.1375732421875,-6130.53662109375,906.7853393554688,4761.21923828125,7316.271484375,3857.612548828125,4790.6240234375,-314.7125244140625,5544.8212890625,-1006.1264038085938,19456.544921875,-1107.8516845703125,-0.0,-1946.2904052734375,9506.54296875,-2466.837646484375,106.4936294555664,1979.6688232421875,8621.2158203125,-4854.2021484375,3468.195556640625,-5524.953125,-1037.120849609375,-22.25240135192871,9928.5439453125,-10186.8310546875,-13409.455078125,-5680.7197265625,-2148.1513671875,504.6526794433594,-6862.4814453125,-1270.77099609375,51.6573600769043,-6928.44384765625,2579.68896484375,778.039306640625,1244.544921875,-5679.92529296875,572.20458984375,0.0,-2946.05908203125,0.0,-1787.3446044921875,-0.0,-882.9434814453125
-11281.1728515625,-9386.5390625,-3593.7626953125,2244.3134765625,3092.2890625,20611.287109375,-2414.385498046875,3038.247314453125,-2706.845458984375,3748.734619140625,-7832.8447265625,-5280.9716796875,-5021.89013671875,3256.7978515625,1409.8485107421875,-3085.136474609375,-384.6486511230469,2670.2880859375,4358.29150390625,15729.2685546875,2899.169921875,12636.1845703125,915.52734375,15804.767578125,-4388.4912109375,-5687.078125,-3847.28125,-938.574462890625,-6132.9208984375,916.3220825195312,4766.7822265625,7321.03955078125,3862.380859375,4795.392578125,-312.3283386230469,5551.17919921875,-1004.5369873046875,19466.876953125,-1094.34130859375,-0.0,-1945.49560546875,9512.9013671875,-2466.042724609375,113.64618682861328,1985.2320556640625,8633.931640625,-4858.17578125,3477.732421875,-5529.7216796875,-1030.7630615234375,-29.404958724975586,9942.0546875,-10201.13671875,-13395.9453125,-5684.69384765625,-2146.561767578125,500.67901611328125,-6833.87158203125,-1265.2078857421875,65.96247100830078,-6918.9072265625,2586.046875,789.16552734375,1259.6448974609375,-5673.5673828125,586.5097045898438,0.0,-2926.985595703125,0.0,-1774.6290283203125,-0.0,-865.45947265625
-11285.94140625,-9382.5654296875,-3597.736328125,2242.72412109375,3090.699462890625,20608.107421875,-2418.359130859375,3032.684326171875,-2708.43505859375,3746.3505859375,-7831.255859375,-5287.3291015625,-5024.2744140625,3258.38720703125,1397.1328125,-3094.673095703125,-391.80120849609375,2666.314453125,4353.5234375,15727.6787109375,2893.60693359375,12630.6220703125,910.7589721679688,15800.794921875,-4395.6435546875,-5694.23046875,-3850.4599609375,-944.9323120117188,-6128.15234375,914.7326049804688,4762.80810546875,7317.86083984375,3857.612548828125,4789.8291015625,-317.0967102050781,5547.20556640625,-1010.894775390625,19462.109375,-1103.8780517578125,-0.0,-1951.0587158203125,9504.9541015625,-2471.60595703125,109.67254638671875,1978.874267578125,8628.3681640625,-4841.486328125,3476.9375,-5533.6953125,-1015.6631469726562,-42.1206169128418,9937.2861328125,-10221.798828125,-13391.9716796875,-5679.13037109375,-2154.50927734375,497.5001220703125,-6844.20263671875,-1281.1025390625,58.80991744995117,-6918.9072265625,2583.662841796875,784.3970947265625,1257.2606201171875,-5668.00439453125,581.7413330078125,0.0,-2935.727294921875,0.0,-1779.3973388671875,-0.0,-869.43310546875
-11285.94140625,-9389.7177734375,-3597.736328125,2240.340087890625,3089.110107421875,20607.3125,-2425.51171875,3030.300048828125,-2714.79296875,3738.4033203125,-7839.203125,-5284.94482421875,-5023.4794921875,3254.41357421875,1383.62255859375,-3101.031005859375,-394.1853942871094,2663.135498046875,4348.7548828125,15722.1162109375,2891.22265625,12629.0322265625,908.374755859375,15797.615234375,-4396.4384765625,-5703.76708984375,-3852.049560546875,-946.521728515625,-6128.15234375,915.52734375,4761.21923828125,7316.271484375,3856.81787109375,4787.4453125,-318.6861572265625,5543.23193359375,-1014.868408203125,19458.9296875,-1095.135986328125,-0.0,-1951.0587158203125,9500.185546875,-2473.1953125,107.28836059570312,1969.33740234375,8624.39453125,-4835.923828125,3475.34814453125,-5532.900390625,-1013.2789306640625,-52.45208740234375,9936.4921875,-10221.798828125,-13393.5615234375,-5678.33544921875,-2155.303955078125,494.3211669921875,-6857.71337890625,-1299.3812255859375,42.1206169128418,-6922.08642578125,2578.894287109375,778.039306640625,1250.90283203125,-5675.1572265625,572.9993286132812,0.0,-2949.23779296875,0.0,-1792.1129150390625,-0.0,-878.9698486328125
-11290.7099609375,-9396.87109375,-3599.325927734375,2233.982177734375,3083.546875,20600.953125,-2431.074951171875,3027.121337890625,-2718.766357421875,3730.4560546875,-7840.79248046875,-5286.53466796875,-5028.248046875,3240.1083984375,1378.8541259765625,-3103.415283203125,-401.33795166015625,2656.777587890625,4343.986328125,15717.34765625,2885.659423828125,12621.0849609375,902.0169677734375,15793.6416015625,-4405.9755859375,-5708.53564453125,-3859.996826171875,-948.9059448242188,-6141.66259765625,909.9642333984375,4755.65576171875,7305.93994140625,3851.254638671875,4782.6767578125,-325.04400634765625,5539.25830078125,-1021.2262573242188,19454.16015625,-1119.7725830078125,-0.0,-1959.80078125,9494.6220703125,-2480.347900390625,102.51998901367188,1964.569091796875,8619.6259765625,-4862.14990234375,3467.40087890625,-5544.02685546875,-1020.4315185546875,-58.01518630981445,9934.107421875,-10225.7724609375,-13403.09765625,-5692.640625,-2160.072265625,491.9369812011719,-6860.09716796875,-1298.5865478515625,42.91534423828125,-6941.9541015625,2574.1259765625,775.6550903320312,1238.1871337890625,-5681.5146484375,568.23095703125,0.0,-2957.97998046875,0.0,-1802.4444580078125,-0.0,-889.30126953125
-11288.3251953125,-9404.818359375,-3623.96240234375,2217.292724609375,3070.03662109375,20587.443359375,-2438.227294921875,3013.61083984375,-2731.482177734375,3721.714111328125,-7849.5341796875,-5296.86572265625,-5036.1953125,3221.82958984375,1377.2646484375,-3114.541259765625,-414.0535888671875,2645.651611328125,4334.44970703125,15706.220703125,2873.738525390625,12608.369140625,890.8907470703125,15782.5146484375,-4419.4853515625,-5718.072265625,-3864.76513671875,-960.0321655273438,-6144.841796875,894.0697021484375,4743.73486328125,7293.22412109375,3833.770751953125,4769.9609375,-338.55438232421875,5527.33740234375,-1029.1734619140625,19443.830078125,-1134.8724365234375,-0.0,-1976.489990234375,9482.701171875,-2491.47412109375,91.39379119873047,1955.8270263671875,8610.0888671875,-4888.3759765625,3451.50634765625,-5553.5634765625,-1035.5313720703125,-60.39937210083008,9918.212890625,-10232.130859375,-13416.607421875,-5696.61474609375,-2154.50927734375,487.16864013671875,-6871.2236328125,-1296.9970703125,45.299530029296875,-6949.10693359375,2562.205078125,764.5289306640625,1217.524169921875,-5691.05126953125,561.078369140625,0.0,-2966.7216796875,0.0,-1803.2392578125,-0.0,-897.2485961914062
-11280.376953125,-9397.666015625,-3623.167724609375,2223.650634765625,3074.804931640625,20594.59765625,-2438.227294921875,3019.173828125,-2741.01904296875,3721.714111328125,-7856.6865234375,-5292.09765625,-5027.453125,3197.98779296875,1378.059326171875,-3099.44140625,-410.0799560546875,2648.830322265625,4337.62890625,15699.068359375,2876.91748046875,12613.1376953125,893.2749633789062,15784.8984375,-4411.53857421875,-5707.74072265625,-3861.58642578125,-950.4954223632812,-6131.3310546875,907.580078125,4746.119140625,7297.99267578125,3836.94970703125,4773.93505859375,-336.1701965332031,5530.51611328125,-1025.99462890625,19447.0078125,-1141.230224609375,-0.0,-1973.3111572265625,9489.853515625,-2488.29541015625,96.9568862915039,1952.648193359375,8610.0888671875,-4882.017578125,3456.274658203125,-5546.4111328125,-1029.1734619140625,-58.01518630981445,9925.365234375,-10221.0048828125,-13409.455078125,-5683.10400390625,-2144.177734375,483.1949768066406,-6865.66015625,-1302.5601806640625,40.531158447265625,-6935.5966796875,2566.178466796875,762.1447143554688,1207.1927490234375,-5685.48828125,569.8204345703125,0.0,-2966.7216796875,0.0,-1802.4444580078125,-0.0,-895.6591186523438
-11272.4306640625,-9392.8974609375,-3613.631103515625,2234.77685546875,3080.3681640625,20604.1328125,-2433.458984375,3026.326416015625,-2746.58203125,3724.892822265625,-7846.35546875,-5291.30322265625,-5002.81689453125,3192.4248046875,1385.2119140625,-3092.2890625,-403.7221374511719,2653.598876953125,4340.8076171875,15695.890625,2884.86474609375,12619.4951171875,898.0433349609375,15792.0517578125,-4402.79638671875,-5699.79345703125,-3858.4072265625,-941.75341796875,-6121.79443359375,937.7797241210938,4751.68212890625,7304.3505859375,3845.691650390625,4779.49755859375,-330.6070861816406,5538.46337890625,-1025.199951171875,19451.77734375,-1118.9779052734375,-0.0,-1963.7744140625,9497.8017578125,-2481.9375,105.69890594482422,1955.0323486328125,8614.0634765625,-4865.328125,3467.40087890625,-5541.642578125,-1023.6104736328125,-51.6573600769043,9932.517578125,-10199.546875,-13398.330078125,-5675.1572265625,-2137.820068359375,495.1159362792969,-6862.4814453125,-1304.149658203125,41.32588577270508,-6928.44384765625,2570.947021484375,765.3236083984375,1207.1927490234375,-5678.33544921875,579.357177734375,0.0,-2957.18505859375,0.0,-1803.2392578125,-0.0,-900.427490234375
-11275.609375,-9403.228515625,-3619.194091796875,2219.677001953125,3067.65234375,20593.0078125,-2439.02197265625,3014.405517578125,-2751.350341796875,3715.356201171875,-7837.61328125,-5293.6875,-5006.7900390625,3190.04052734375,1386.0067138671875,-3121.69384765625,-412.4641418457031,2644.856689453125,4332.0654296875,15691.9150390625,2875.328125,12609.1640625,888.506591796875,15780.92578125,-4416.30712890625,-5717.27734375,-3864.76513671875,-960.0321655273438,-6132.9208984375,927.4482421875,4742.1455078125,7295.6083984375,3837.744384765625,4769.16650390625,-340.1438293457031,5528.1318359375,-1033.147216796875,19439.85546875,-1118.9779052734375,-0.0,-1973.3111572265625,9484.291015625,-2493.063720703125,90.59906005859375,1950.263916015625,8606.1162109375,-4865.328125,3453.095703125,-5554.35791015625,-1029.96826171875,-52.45208740234375,9919.802734375,-10202.7255859375,-13415.8134765625,-5685.48828125,-2153.71435546875,498.2948303222656,-6872.81298828125,-1296.9970703125,33.37860107421875,-6941.15966796875,2562.999755859375,756.5816040039062,1208.7822265625,-5683.89892578125,573.7940673828125,0.0,-2952.416748046875,0.0,-1800.060302734375,-0.0,-902.0169677734375
-11270.0458984375,-9393.6923828125,-3612.836181640625,2230.00830078125,3078.778564453125,20602.544921875,-2433.458984375,3026.326416015625,-2741.01904296875,3718.53515625,-7812.18212890625,-5276.998046875,-5013.14794921875,3217.061279296875,1380.443603515625,-3105.79931640625,-399.74847412109375,2655.98291015625,4342.39697265625,15704.6318359375,2884.070068359375,12621.8798828125,900.427490234375,15792.8466796875,-4417.1015625,-5702.97265625,-3859.2021484375,-944.1375732421875,-6124.17822265625,929.0377197265625,4754.861328125,7310.70849609375,3848.075927734375,4781.08740234375,-327.4281921386719,5539.25830078125,-1025.199951171875,19452.572265625,-1097.520263671875,-0.0,-1966.1585693359375,9494.6220703125,-2482.732177734375,102.51998901367188,1955.0323486328125,8615.6533203125,-4854.9970703125,3462.63232421875,-5541.642578125,-1024.4051513671875,-57.220458984375,9934.90234375,-10193.1884765625,-13414.2236328125,-5675.95166015625,-2144.97265625,496.7053527832031,-6855.3291015625,-1304.149658203125,34.1733283996582,-6928.44384765625,2572.536376953125,765.3236083984375,1230.2398681640625,-5669.59375,584.9202270507812,0.0,-2950.827392578125,0.0,-1798.4708251953125,-0.0,-889.30126953125
-11274.0205078125,-9384.1552734375,-3596.941650390625,2248.287109375,3094.673095703125,20618.439453125,-2417.564453125,3040.631591796875,-2724.32958984375,3738.4033203125,-7791.51904296875,-5265.87158203125,-5001.22705078125,3236.9296875,1393.1593017578125,-3093.87841796875,-384.6486511230469,2673.467041015625,4357.49658203125,15721.3212890625,2900.759521484375,12639.36328125,915.52734375,15807.1513671875,-4399.61767578125,-5683.89892578125,-3844.10205078125,-929.0377197265625,-6111.462890625,935.3955688476562,4770.755859375,7325.013671875,3861.58642578125,4796.18701171875,-309.94415283203125,5555.15283203125,-1007.7158203125,19466.876953125,-1084.8045654296875,-0.0,-1950.263916015625,9512.1064453125,-2466.042724609375,116.82510375976562,1968.5428466796875,8629.1630859375,-4835.923828125,3482.500732421875,-5523.36376953125,-1012.4841918945312,-45.299530029296875,9946.8232421875,-10182.857421875,-13400.7138671875,-5662.44140625,-2132.2568359375,506.2420959472656,-6837.0498046875,-1300.970703125,50.067901611328125,-6910.9599609375,2588.43115234375,781.2182006835938,1245.3397216796875,-5651.3154296875,597.6359252929688,0.0,-2938.906494140625,0.0,-1790.5235595703125,-0.0,-874.9962158203125
-11291.50390625,-9400.8447265625,-3603.29931640625,2243.518798828125,3089.90478515625,20611.287109375,-2423.12744140625,3036.657958984375,-2729.09814453125,3732.84033203125,-7808.20849609375,-5277.79248046875,-4990.8955078125,3225.0087890625,1396.338134765625,-3094.673095703125,-394.1853942871094,2667.90380859375,4353.5234375,15718.9365234375,2893.60693359375,12631.416015625,909.9642333984375,15799.9990234375,-4402.001953125,-5690.2568359375,-3844.89697265625,-936.9849853515625,-6116.2314453125,921.8851928710938,4763.60302734375,7313.0927734375,3852.049560546875,4789.0341796875,-316.3019714355469,5546.4111328125,-1012.4841918945312,19462.904296875,-1106.26220703125,-0.0,-1955.0323486328125,9505.7490234375,-2470.81103515625,109.67254638671875,1966.1585693359375,8625.189453125,-4842.28125,3477.732421875,-5532.10595703125,-1016.4578857421875,-41.32588577270508,9941.2607421875,-10186.8310546875,-13404.6865234375,-5667.20947265625,-2144.177734375,507.036865234375,-6847.3818359375,-1298.5865478515625,51.6573600769043,-6927.64892578125,2581.278564453125,776.4498291015625,1237.3924560546875,-5655.28857421875,592.8675537109375,0.0,-2944.469482421875,0.0,-1796.086669921875,-0.0,-884.532958984375
-11284.3515625,-9396.87109375,-3600.12060546875,2250.67138671875,3093.87841796875,20617.642578125,-2419.948486328125,3043.015625,-2726.7138671875,3738.4033203125,-7820.12939453125,-5265.87158203125,-4986.921875,3232.161376953125,1399.51708984375,-3080.3681640625,-390.21173095703125,2671.082763671875,4356.7021484375,15721.3212890625,2899.169921875,12637.7744140625,916.3220825195312,15807.1513671875,-4396.4384765625,-5680.7197265625,-3838.5390625,-925.8588256835938,-6109.0791015625,925.8588256835938,4769.16650390625,7317.06640625,3856.81787109375,4795.392578125,-312.3283386230469,5553.5634765625,-1009.3053588867188,19466.08203125,-1105.4674072265625,-0.0,-1951.0587158203125,9513.6953125,-2466.042724609375,118.41455841064453,1968.5428466796875,8631.546875,-4843.87060546875,3484.090087890625,-5527.33740234375,-1008.5106201171875,-38.14697265625,9951.591796875,-10180.4736328125,-13395.150390625,-5660.85205078125,-2138.61474609375,507.8315734863281,-6836.25537109375,-1293.818115234375,57.220458984375,-6924.47021484375,2585.251953125,782.012939453125,1242.95556640625,-5651.3154296875,599.225341796875,0.0,-2943.6748046875,0.0,-1784.96044921875,-0.0,-876.5856323242188
-11255.7412109375,-9372.234375,-3578.662841796875,2274.51318359375,3116.925537109375,20639.896484375,-2399.28564453125,3058.910400390625,-2713.203369140625,3759.06640625,-7799.466796875,-5238.85107421875,-4986.12744140625,3248.8505859375,1415.41162109375,-3058.910400390625,-367.16461181640625,2691.745849609375,4375.77587890625,15738.8056640625,2919.8330078125,12657.642578125,937.7797241210938,15827.0205078125,-4374.18603515625,-5659.26220703125,-3818.6708984375,-907.580078125,-6092.3896484375,952.0848388671875,4790.6240234375,7340.908203125,3878.275634765625,4816.05517578125,-291.6654052734375,5575.81591796875,-990.2318725585938,19483.56640625,-1084.8045654296875,-0.0,-1929.60107421875,9537.537109375,-2443.79052734375,139.07749938964844,1987.6163330078125,8649.03125,-4826.38671875,3507.13720703125,-5498.7275390625,-979.900390625,-22.25240135192871,9968.28125,-10161.3994140625,-13372.103515625,-5643.36767578125,-2110.799072265625,518.957763671875,-6801.287109375,-1278.7183837890625,74.7044906616211,-6899.83349609375,2605.120361328125,797.9075317382812,1260.4395751953125,-5629.857421875,628.6303100585938,0.0,-2930.958984375,0.0,-1766.681640625,-0.0,-855.9227294921875
-11258.919921875,-9373.82421875,-3586.610107421875,2267.360595703125,3110.56787109375,20634.33203125,-2407.23291015625,3052.552490234375,-2721.150634765625,3751.913818359375,-7794.6982421875,-5246.7978515625,-4989.30615234375,3235.340087890625,1407.46435546875,-3068.447021484375,-375.1119079589844,2686.1826171875,4369.41748046875,15734.037109375,2912.680419921875,12650.490234375,931.4219360351562,15819.072265625,-4382.13330078125,-5667.20947265625,-3825.028564453125,-915.52734375,-6098.7470703125,952.0848388671875,4783.4716796875,7332.96044921875,3870.328125,4807.3134765625,-296.43377685546875,5567.86865234375,-996.5896606445312,19478.798828125,-1090.36767578125,-0.0,-1935.1640625,9530.384765625,-2449.353515625,130.3354949951172,1982.847900390625,8642.673828125,-4831.94970703125,3501.57421875,-5504.2900390625,-988.642333984375,-28.6102294921875,9961.1279296875,-10166.962890625,-13371.30859375,-5649.7255859375,-2113.97802734375,514.984130859375,-6809.234375,-1283.4866943359375,73.90975952148438,-6903.0126953125,2600.35205078125,791.5496826171875,1252.4923095703125,-5634.6259765625,616.7094116210938,0.0,-2925.39599609375,0.0,-1771.4500732421875,-0.0,-862.280517578125
-11281.1728515625,-9394.486328125,-3599.325927734375,2245.1083984375,3092.2890625,20613.669921875,-2425.51171875,3034.27392578125,-2734.6611328125,3737.608642578125,-7812.97705078125,-5266.66650390625,-5002.02197265625,3217.856201171875,1386.0067138671875,-3094.673095703125,-394.9801025390625,2670.2880859375,4350.34423828125,15721.3212890625,2895.990966796875,12632.2109375,914.7326049804688,15801.587890625,-4397.2333984375,-5683.10400390625,-3858.4072265625,-940.1639404296875,-6116.2314453125,936.9849853515625,4766.7822265625,7313.88720703125,3854.433837890625,4786.650390625,-313.91778564453125,5550.384765625,-1015.6631469726562,19458.9296875,-1120.5673828125,-0.0,-1951.0587158203125,9512.9013671875,-2467.63232421875,108.08309173583984,1964.569091796875,8622.009765625,-4840.69189453125,3478.527099609375,-5524.15869140625,-1013.2789306640625,-50.067901611328125,9940.46484375,-10189.2158203125,-13386.4091796875,-5665.6201171875,-2153.71435546875,497.5001220703125,-6838.6396484375,-1302.5601806640625,54.836273193359375,-6921.29150390625,2582.0732421875,773.2709350585938,1236.59765625,-5654.49365234375,590.4833374023438,0.0,-2928.57470703125,0.0,-1780.98681640625,-0.0,-878.1751098632812
-11301.041015625,-9399.2548828125,-3599.325927734375,2234.77685546875,3092.2890625,20612.08203125,-2427.10107421875,3028.710693359375,-2738.634765625,3737.608642578125,-7822.513671875,-5267.46142578125,-5005.9951171875,3217.856201171875,1388.390869140625,-3099.44140625,-395.77484130859375,2668.698486328125,4348.7548828125,15718.1416015625,2893.60693359375,12629.826171875,912.3484497070312,15800.794921875,-4397.2333984375,-5674.3623046875,-3870.328125,-942.548095703125,-6115.4365234375,933.0113525390625,4765.9873046875,7309.91357421875,3854.433837890625,4785.85595703125,-316.3019714355469,5548.00048828125,-1016.4578857421875,19456.544921875,-1128.5146484375,-0.0,-1949.46923828125,9512.9013671875,-2470.0166015625,106.4936294555664,1962.1849365234375,8618.037109375,-4845.46044921875,3466.606201171875,-5528.1318359375,-1018.04736328125,-46.88898849487305,9934.90234375,-10206.69921875,-13393.5615234375,-5665.6201171875,-2175.967041015625,499.08953857421875,-6836.25537109375,-1304.149658203125,53.2468147277832,-6927.64892578125,2579.68896484375,770.88671875,1232.6240234375,-5660.05712890625,595.251708984375,0.0,-2937.31689453125,0.0,-1784.96044921875,-0.0,-882.1487426757812
-11309.783203125,-9409.5869140625,-3608.06787109375,2236.3662109375,3091.494384765625,20612.875,-2426.306396484375,3027.916015625,-2740.22412109375,3731.250732421875,-7825.6923828125,-5273.81884765625,-5006.7900390625,3214.677001953125,1401.1064453125,-3098.64697265625,-397.3642883300781,2667.90380859375,4348.7548828125,15713.373046875,2891.22265625,12629.826171875,910.7589721679688,15799.9990234375,-4393.259765625,-5667.20947265625,-3867.1494140625,-937.7797241210938,-6121.0,929.0377197265625,4763.60302734375,7311.5029296875,3852.049560546875,4785.06103515625,-316.3019714355469,5546.4111328125,-1016.4578857421875,19454.95703125,-1114.20947265625,-0.0,-1951.8533935546875,9512.9013671875,-2470.0166015625,106.4936294555664,1963.7744140625,8615.6533203125,-4847.8447265625,3469.784912109375,-5528.1318359375,-1023.6104736328125,-35.762786865234375,9934.90234375,-10212.26171875,-13404.6865234375,-5671.18310546875,-2165.63525390625,500.67901611328125,-6833.07666015625,-1298.5865478515625,49.27317428588867,-6932.41748046875,2578.099609375,769.2973022460938,1226.2662353515625,-5667.20947265625,595.251708984375,0.0,-2947.648193359375,0.0,-1789.728759765625,-0.0,-886.9171142578125
-11320.1142578125,-9427.0703125,-3620.783447265625,2235.571533203125,3082.752197265625,20599.365234375,-2435.84326171875,3018.379150390625,-2744.19775390625,3723.303466796875,-7842.38134765625,-5284.150390625,-5020.30029296875,3221.034912109375,1386.0067138671875,-3108.978271484375,-407.6957702636719,2657.572509765625,4339.21826171875,15704.6318359375,2883.275390625,12619.4951171875,902.0169677734375,15788.8740234375,-4398.82275390625,-5696.61474609375,-3878.275634765625,-948.1112060546875,-6136.89404296875,911.5537109375,4753.271484375,7301.96630859375,3842.512939453125,4773.93505859375,-327.4281921386719,5536.07958984375,-1024.4051513671875,19445.419921875,-1117.388427734375,-0.0,-1959.80078125,9499.390625,-2478.758544921875,94.57270050048828,1955.8270263671875,8605.3212890625,-4860.56005859375,3467.40087890625,-5533.6953125,-1029.96826171875,-51.6573600769043,9926.16015625,-10221.798828125,-13421.3759765625,-5689.46240234375,-2160.072265625,488.7580871582031,-6845.79248046875,-1300.176025390625,40.531158447265625,-6941.9541015625,2566.973388671875,761.3499755859375,1220.703125,-5684.69384765625,580.9465942382812,0.0,-2952.416748046875,0.0,-1798.4708251953125,-0.0,-893.2749633789062
-11365.4140625,-9431.8388671875,-3614.42578125,2226.82958984375,3078.778564453125,20596.185546875,-2442.200927734375,3012.816162109375,-2744.992431640625,3721.714111328125,-7864.63427734375,-5289.71337890625,-5025.06884765625,3216.2666015625,1374.8804931640625,-3111.362548828125,-411.6694030761719,2652.00927734375,4335.24462890625,15703.8369140625,2880.096435546875,12615.521484375,895.6591186523438,15783.3095703125,-4400.412109375,-5704.5615234375,-3885.42822265625,-958.4426879882812,-6144.841796875,896.453857421875,4749.2978515625,7292.4296875,3839.333740234375,4768.37158203125,-331.4018249511719,5533.6953125,-1029.96826171875,19440.650390625,-1132.48828125,-0.0,-1959.80078125,9497.8017578125,-2483.52685546875,89.80432891845703,1952.648193359375,8602.142578125,-4858.17578125,3456.274658203125,-5542.43701171875,-1035.5313720703125,-61.19409942626953,9917.4189453125,-10239.283203125,-13434.0927734375,-5698.2041015625,-2157.688232421875,479.2213439941406,-6852.14990234375,-1297.7918701171875,34.96805953979492,-6956.25927734375,2560.615478515625,757.3763427734375,1211.1663818359375,-5691.84619140625,569.8204345703125,0.0,-2960.364013671875,0.0,-1809.5970458984375,-0.0,-900.427490234375
-11380.513671875,-9453.296875,-3608.862548828125,2230.80322265625,3081.16259765625,20604.9296875,-2435.04833984375,3022.35302734375,-2737.83984375,3734.4296875,-7864.63427734375,-5286.53466796875,-5016.3271484375,3213.88232421875,1382.032958984375,-3097.85205078125,-403.7221374511719,2659.956787109375,4342.39697265625,15716.552734375,2884.86474609375,12625.05859375,901.2222290039062,15791.2578125,-4403.59130859375,-5701.38330078125,-3877.480712890625,-948.1112060546875,-6134.51025390625,897.2485961914062,4754.861328125,7297.19775390625,3843.3076171875,4778.703125,-327.4281921386719,5540.84765625,-1023.6104736328125,19450.1875,-1117.388427734375,-0.0,-1955.0323486328125,9507.3388671875,-2477.963623046875,99.34107208251953,1960.5953369140625,8614.0634765625,-4856.58642578125,3461.837890625,-5537.6689453125,-1021.2262573242188,-53.2468147277832,9930.1337890625,-10224.978515625,-13441.2451171875,-5687.078125,-2153.71435546875,488.7580871582031,-6843.408203125,-1294.6129150390625,45.299530029296875,-6961.02783203125,2566.973388671875,766.9130859375,1216.7294921875,-5693.435546875,577.7677001953125,0.0,-2959.5693359375,0.0,-1804.82861328125,-0.0,-894.0697021484375
-11334.4189453125,-9475.548828125,-3608.862548828125,2239.545166015625,3085.136474609375,20608.90234375,-2435.04833984375,3031.0947265625,-2736.250732421875,3746.3505859375,-7867.81298828125,-5284.150390625,-5003.611328125,3209.114013671875,1376.469970703125,-3100.236083984375,-398.1590270996094,2663.135498046875,4345.57568359375,15726.884765625,2888.838623046875,12626.6484375,905.9906005859375,15795.23046875,-4404.38623046875,-5703.76708984375,-3875.0966796875,-941.75341796875,-6131.3310546875,914.7326049804688,4758.8349609375,7303.55615234375,3847.28125,4786.650390625,-322.6598205566406,5544.02685546875,-1024.4051513671875,19456.544921875,-1107.0570068359375,-0.0,-1955.0323486328125,9505.7490234375,-2475.57958984375,104.9041748046875,1962.1849365234375,8623.599609375,-4857.38134765625,3472.964111328125,-5531.31103515625,-1017.2525634765625,-57.220458984375,9938.8759765625,-10218.6201171875,-13429.32421875,-5683.89892578125,-2140.998779296875,491.9369812011719,-6847.3818359375,-1303.3548583984375,54.836273193359375,-6957.84912109375,2570.947021484375,774.065673828125,1226.2662353515625,-5698.2041015625,579.357177734375,0.0,-2950.827392578125,0.0,-1796.88134765625,-0.0,-886.1223754882812
-11297.8623046875,-9454.0908203125,-3605.68359375,2236.3662109375,3085.93115234375,20612.08203125,-2434.253662109375,3033.47900390625,-2744.19775390625,3738.4033203125,-7855.09765625,-5286.53466796875,-5002.02197265625,3199.577392578125,1381.23828125,-3092.2890625,-394.9801025390625,2664.72509765625,4344.78125,15719.732421875,2890.427734375,12627.4423828125,907.580078125,15795.23046875,-4401.20703125,-5695.02490234375,-3874.302001953125,-940.1639404296875,-6133.71533203125,920.2957153320312,4761.21923828125,7309.91357421875,3848.87060546875,4787.4453125,-321.0703430175781,5546.4111328125,-1025.199951171875,19457.33984375,-1113.414794921875,-0.0,-1955.8270263671875,9505.7490234375,-2473.990234375,106.4936294555664,1959.006103515625,8624.39453125,-4866.123046875,3468.990234375,-5528.9267578125,-1017.2525634765625,-55.63100051879883,9942.849609375,-10214.646484375,-13414.2236328125,-5686.283203125,-2137.820068359375,495.1159362792969,-6846.5869140625,-1310.5074462890625,54.836273193359375,-6953.875,2573.3310546875,771.6814575195312,1224.6767578125,-5697.4091796875,576.17822265625,0.0,-2950.827392578125,0.0,-1793.7025146484375,-0.0,-891.6854858398438
-11312.9619140625,-9428.66015625,-3629.525390625,2210.934814453125,3066.06298828125,20589.828125,-2449.353515625,3004.07421875,-2760.88720703125,3713.766845703125,-7835.22900390625,-5300.044921875,-5026.65869140625,3190.835205078125,1378.8541259765625,-3112.951904296875,-413.2588806152344,2645.651611328125,4326.50244140625,15695.890625,2872.149169921875,12605.1904296875,889.30126953125,15775.3623046875,-4425.048828125,-5716.482421875,-3887.017578125,-965.59521484375,-6144.046875,902.8117065429688,4742.1455078125,7294.8134765625,3829.797119140625,4765.9873046875,-339.34912109375,5526.54248046875,-1039.5050048828125,19433.498046875,-1138.0513916015625,-0.0,-1977.28466796875,9484.291015625,-2489.08984375,81.85704803466797,1944.7008056640625,8593.400390625,-4884.40185546875,3444.353759765625,-5543.23193359375,-1042.6839599609375,-59.604644775390625,9911.8544921875,-10217.0302734375,-13418.9921875,-5693.435546875,-2161.661865234375,487.16864013671875,-6856.12353515625,-1314.4810791015625,26.226043701171875,-6961.02783203125,2554.257568359375,749.4290771484375,1207.9874267578125,-5698.9990234375,562.6678466796875,0.0,-2968.311279296875,0.0,-1804.82861328125,-0.0,-902.8117065429688
-11325.6767578125,-9411.17578125,-3643.83056640625,2207.756103515625,3051.7578125,20580.291015625,-2459.68505859375,2991.3583984375,-2772.013427734375,3687.540771484375,-7850.32958984375,-5302.42919921875,-5037.78466796875,3186.86181640625,1377.2646484375,-3132.025390625,-422.7956237792969,2635.320068359375,4316.17138671875,15671.2529296875,2861.02294921875,12598.83203125,878.9698486328125,15768.208984375,-4448.095703125,-5721.2509765625,-3894.96484375,-974.3372802734375,-6148.81494140625,898.0433349609375,4731.81396484375,7290.04541015625,3821.849853515625,4756.45068359375,-348.8858642578125,5517.005859375,-1047.4522705078125,19423.166015625,-1134.8724365234375,-0.0,-1991.58984375,9475.548828125,-2499.42138671875,71.52557373046875,1935.1640625,8577.505859375,-4890.759765625,3441.9697265625,-5559.92138671875,-1053.015380859375,-60.39937210083008,9900.7294921875,-10225.7724609375,-13416.607421875,-5699.79345703125,-2172.787841796875,483.9897155761719,-6859.302734375,-1316.070556640625,11.126200675964355,-6956.25927734375,2545.515869140625,736.71337890625,1192.8876953125,-5697.4091796875,565.8467407226562,0.0,-2973.07958984375,0.0,-1817.5443115234375,-0.0,-918.7062377929688
-11331.240234375,-9401.638671875,-3639.062255859375,2215.703369140625,3054.14208984375,20586.6484375,-2452.532470703125,2999.3056640625,-2760.88720703125,3698.666748046875,-7861.455078125,-5295.27685546875,-5030.6318359375,3201.166748046875,1381.23828125,-3129.641357421875,-418.0272521972656,2640.88330078125,4323.32373046875,15683.9697265625,2867.380859375,12603.6005859375,884.532958984375,15772.9775390625,-4436.9697265625,-5715.68798828125,-3887.812255859375,-965.59521484375,-6144.841796875,901.2222290039062,4738.96630859375,7295.6083984375,3829.00244140625,4762.013671875,-342.52801513671875,5524.15869140625,-1039.5050048828125,19430.318359375,-1132.48828125,-0.0,-1983.642578125,9481.1123046875,-2492.268798828125,81.85704803466797,1942.316650390625,8586.2470703125,-4886.7861328125,3450.71142578125,-5550.384765625,-1045.068115234375,-58.01518630981445,9910.265625,-10228.1572265625,-13413.4296875,-5696.61474609375,-2168.814453125,487.16864013671875,-6867.25,-1311.30224609375,21.457672119140625,-6955.46484375,2551.87353515625,745.4554443359375,1208.7822265625,-5691.05126953125,573.7940673828125,0.0,-2955.595703125,0.0,-1802.4444580078125,-0.0,-906.7853393554688
-11319.3193359375,-9397.666015625,-3613.631103515625,2231.597900390625,3064.473388671875,20600.953125,-2438.227294921875,3018.379150390625,-2739.429443359375,3722.5087890625,-7855.09765625,-5283.35546875,-5017.12158203125,3231.366455078125,1387.59619140625,-3106.593994140625,-400.543212890625,2657.572509765625,4338.42333984375,15710.1953125,2883.275390625,12619.4951171875,898.8380126953125,15787.283203125,-4413.9228515625,-5700.58837890625,-3874.302001953125,-948.9059448242188,-6132.9208984375,909.1694946289062,4755.65576171875,7309.11865234375,3845.691650390625,4777.908203125,-326.6334533691406,5540.052734375,-1026.789306640625,19447.802734375,-1127.7198486328125,-0.0,-1962.9796142578125,9496.2119140625,-2480.347900390625,97.75161743164062,1959.80078125,8604.5263671875,-4862.9443359375,3465.8115234375,-5536.87451171875,-1026.789306640625,-49.27317428588867,9927.75,-10224.1826171875,-13405.482421875,-5683.89892578125,-2154.50927734375,489.55279541015625,-6842.61328125,-1300.970703125,40.531158447265625,-6945.92822265625,2566.973388671875,764.5289306640625,1236.59765625,-5682.3095703125,592.0728149414062,0.0,-2945.26416015625,0.0,-1794.4971923828125,-0.0,-882.9434814453125
-11307.3984375,-9395.2822265625,-3602.504638671875,2246.69775390625,3072.4208984375,20612.875,-2429.4853515625,3029.50537109375,-2721.150634765625,3742.376953125,-7838.40869140625,-5276.203125,-4995.6640625,3252.823974609375,1392.364501953125,-3090.699462890625,-389.4170227050781,2668.698486328125,4348.7548828125,15729.2685546875,2894.401611328125,12632.2109375,910.7589721679688,15799.2041015625,-4402.79638671875,-5692.640625,-3869.533447265625,-939.3692016601562,-6130.53662109375,923.474609375,4768.37158203125,7321.83447265625,3858.4072265625,4792.21337890625,-316.3019714355469,5551.17919921875,-1018.04736328125,19458.134765625,-1118.9779052734375,-0.0,-1951.8533935546875,9508.927734375,-2472.400634765625,106.4936294555664,1973.3111572265625,8619.6259765625,-4848.63916015625,3479.32177734375,-5538.46337890625,-1016.4578857421875,-45.299530029296875,9938.0810546875,-10220.2099609375,-13394.35546875,-5682.3095703125,-2143.383056640625,493.5264587402344,-6820.36083984375,-1288.255126953125,53.2468147277832,-6932.41748046875,2578.099609375,777.2445678710938,1257.2606201171875,-5674.3623046875,601.6095581054688,0.0,-2936.522216796875,0.0,-1783.3709716796875,-0.0,-863.8699951171875
-11321.7041015625,-9388.923828125,-3592.17333984375,2257.823974609375,3080.3681640625,20624.796875,-2419.948486328125,3042.22119140625,-2712.40869140625,3753.503173828125,-7825.6923828125,-5255.54052734375,-4995.6640625,3263.15576171875,1401.1064453125,-3073.215576171875,-381.4697265625,2677.440673828125,4358.29150390625,15739.599609375,2905.52783203125,12640.953125,919.5009765625,15809.5361328125,-4395.6435546875,-5679.92529296875,-3864.76513671875,-925.0640869140625,-6124.97314453125,936.1903076171875,4778.703125,7331.37109375,3868.73876953125,4802.544921875,-308.3547058105469,5561.5107421875,-1009.3053588867188,19469.26171875,-1090.36767578125,-0.0,-1940.727294921875,9519.259765625,-2464.453369140625,117.61983489990234,1981.2584228515625,8630.7529296875,-4834.333984375,3490.447998046875,-5529.7216796875,-1004.5369873046875,-34.96805953979492,9952.3857421875,-10206.69921875,-13388.79296875,-5675.1572265625,-2125.104248046875,498.2948303222656,-6812.41357421875,-1284.2813720703125,58.80991744995117,-6927.64892578125,2588.43115234375,784.3970947265625,1260.4395751953125,-5665.6201171875,600.8148193359375,0.0,-2929.36962890625,0.0,-1768.2711181640625,-0.0,-857.5121459960938
-11339.982421875,-9397.666015625,-3592.17333984375,2241.92919921875,3076.394287109375,20616.0546875,-2427.10107421875,3031.8896484375,-2728.30322265625,3736.813720703125,-7836.0244140625,-5262.69287109375,-5013.14794921875,3236.9296875,1396.338134765625,-3089.90478515625,-388.6222839355469,2670.2880859375,4348.7548828125,15724.5009765625,2899.964599609375,12634.5947265625,913.1431884765625,15801.587890625,-4402.79638671875,-5686.283203125,-3872.71240234375,-936.1903076171875,-6122.5888671875,920.2957153320312,4770.755859375,7319.4501953125,3863.175537109375,4794.59765625,-314.7125244140625,5554.35791015625,-1018.04736328125,19458.134765625,-1096.7254638671875,-0.0,-1947.0850830078125,9510.517578125,-2470.81103515625,106.4936294555664,1970.132080078125,8618.037109375,-4824.79736328125,3475.34814453125,-5525.74755859375,-1019.6367797851562,-41.32588577270508,9941.2607421875,-10203.5205078125,-13403.892578125,-5671.18310546875,-2143.383056640625,499.8843078613281,-6837.8447265625,-1295.4075927734375,46.88898849487305,-6937.98046875,2582.0732421875,773.2709350585938,1235.00830078125,-5670.388671875,592.0728149414062,0.0,-2938.111572265625,0.0,-1782.576171875,-0.0,-879.7645263671875
-11363.82421875,-9392.8974609375,-3593.7626953125,2234.77685546875,3075.599609375,20615.259765625,-2432.6640625,3023.942138671875,-2741.01904296875,3725.687744140625,-7851.91845703125,-5269.845703125,-5009.96923828125,3221.034912109375,1387.59619140625,-3092.2890625,-390.21173095703125,2669.493408203125,4343.19140625,15712.580078125,2899.964599609375,12634.5947265625,907.580078125,15797.615234375,-4398.82275390625,-5679.92529296875,-3875.891357421875,-944.1375732421875,-6121.79443359375,915.52734375,4770.755859375,7319.4501953125,3859.2021484375,4791.41845703125,-316.3019714355469,5552.7685546875,-1022.815673828125,19452.572265625,-1090.36767578125,-0.0,-1948.674560546875,9514.4912109375,-2473.990234375,101.72525787353516,1962.9796142578125,8610.884765625,-4838.3076171875,3468.990234375,-5532.900390625,-1034.736572265625,-49.27317428588867,9934.107421875,-10224.978515625,-13403.892578125,-5671.18310546875,-2156.8935546875,495.91064453125,-6838.6396484375,-1301.765380859375,37.35224533081055,-6937.98046875,2578.099609375,764.5289306640625,1230.2398681640625,-5679.92529296875,591.278076171875,0.0,-2949.23779296875,0.0,-1796.086669921875,-0.0,-885.32763671875
-11366.2080078125,-9396.87109375,-3593.7626953125,2238.75048828125,3077.189208984375,20609.697265625,-2432.6640625,3021.55810546875,-2744.992431640625,3731.250732421875,-7857.48193359375,-5276.203125,-5003.611328125,3211.498291015625,1389.185546875,-3104.2099609375,-391.80120849609375,2667.109130859375,4344.78125,15711.7841796875,2899.964599609375,12631.416015625,908.374755859375,15796.0263671875,-4394.05419921875,-5698.2041015625,-3871.123046875,-946.521728515625,-6118.61572265625,919.5009765625,4768.37158203125,7318.6552734375,3859.996826171875,4789.0341796875,-317.0967102050781,5547.20556640625,-1021.2262573242188,19451.77734375,-1095.9306640625,-0.0,-1948.674560546875,9508.1328125,-2471.60595703125,99.34107208251953,1960.5953369140625,8612.4736328125,-4835.923828125,3472.169189453125,-5532.10595703125,-1026.789306640625,-46.09425735473633,9934.90234375,-10232.130859375,-13407.0712890625,-5668.798828125,-2153.71435546875,494.3211669921875,-6845.79248046875,-1308.123291015625,34.1733283996582,-6940.36474609375,2578.894287109375,763.7341918945312,1223.0872802734375,-5673.5673828125,585.7149658203125,0.0,-2951.6220703125,0.0,-1794.4971923828125,-0.0,-878.1751098632812
-11361.439453125,-9427.0703125,-3596.941650390625,2229.213623046875,3068.447021484375,20599.365234375,-2439.02197265625,3020.763427734375,-2745.787353515625,3744.76123046875,-7855.09765625,-5288.1240234375,-4998.8427734375,3208.3193359375,1391.5697021484375,-3110.56787109375,-403.7221374511719,2655.98291015625,4339.21826171875,15722.1162109375,2889.63330078125,12620.2900390625,901.2222290039062,15788.078125,-4409.154296875,-5715.68798828125,-3878.275634765625,-950.4954223632812,-6128.94677734375,912.3484497070312,4758.0400390625,7307.529296875,3851.254638671875,4777.11328125,-326.6334533691406,5538.46337890625,-1025.99462890625,19449.392578125,-1121.362060546875,-0.0,-1956.621826171875,9491.443359375,-2480.347900390625,93.7779769897461,1956.621826171875,8614.857421875,-4829.5654296875,3462.63232421875,-5543.23193359375,-1033.94189453125,-46.09425735473633,9930.9287109375,-10228.951171875,-13426.9404296875,-5680.7197265625,-2155.303955078125,496.7053527832031,-6857.71337890625,-1309.7127685546875,38.94169998168945,-6957.84912109375,2571.74169921875,764.5289306640625,1222.2926025390625,-5681.5146484375,572.9993286132812,0.0,-2963.54296875,0.0,-1798.4708251953125,-0.0,-871.8172607421875
-11362.2353515625,-9448.5283203125,-3604.888916015625,2226.82958984375,3061.29443359375,20595.392578125,-2442.200927734375,3015.9951171875,-2738.634765625,3754.2978515625,-7832.05029296875,-5302.42919921875,-5010.763671875,3213.087890625,1384.417236328125,-3114.541259765625,-409.28521728515625,2652.00927734375,4337.62890625,15731.6533203125,2883.275390625,12613.9326171875,897.2485961914062,15783.3095703125,-4421.0751953125,-5714.8935546875,-3883.838623046875,-957.64794921875,-6134.51025390625,918.7062377929688,4752.47705078125,7301.96630859375,3844.89697265625,4773.93505859375,-332.1965637207031,5534.490234375,-1029.96826171875,19447.0078125,-1117.388427734375,-0.0,-1962.1849365234375,9486.6748046875,-2486.705810546875,88.21487426757812,1957.41650390625,8614.857421875,-4843.87060546875,3461.837890625,-5546.4111328125,-1042.6839599609375,-52.45208740234375,9919.0068359375,-10213.0576171875,-13435.681640625,-5685.48828125,-2156.0986328125,489.55279541015625,-6864.07080078125,-1304.149658203125,50.067901611328125,-6968.18017578125,2567.76806640625,766.9130859375,1222.2926025390625,-5683.10400390625,563.4625854492188,0.0,-2966.7216796875,0.0,-1803.2392578125,-0.0,-883.7382202148438
-11347.134765625,-9433.4287109375,-3599.325927734375,2238.75048828125,3077.189208984375,20610.490234375,-2427.895751953125,3028.710693359375,-2730.6875,3757.476806640625,-7812.18212890625,-5292.09765625,-5025.06884765625,3227.392822265625,1387.59619140625,-3103.415283203125,-396.569580078125,2665.519775390625,4351.13916015625,15738.0107421875,2895.1962890625,12627.4423828125,909.1694946289062,15796.8193359375,-4405.1806640625,-5695.81982421875,-3869.533447265625,-945.72705078125,-6126.5625,931.4219360351562,4765.1923828125,7312.2978515625,3853.638916015625,4786.650390625,-319.48089599609375,5548.79541015625,-1018.04736328125,19459.724609375,-1103.8780517578125,-0.0,-1951.0587158203125,9502.5703125,-2471.60595703125,101.72525787353516,1970.132080078125,8625.189453125,-4840.69189453125,3472.964111328125,-5525.74755859375,-1023.6104736328125,-48.47844314575195,9933.3125,-10195.5732421875,-13418.197265625,-5678.33544921875,-2148.1513671875,487.16864013671875,-6849.765625,-1293.818115234375,57.220458984375,-6959.4384765625,2580.483642578125,778.8340454101562,1228.650390625,-5665.6201171875,575.3834838867188,0.0,-2950.827392578125,0.0,-1792.1129150390625,-0.0,-891.6854858398438
-11332.8291015625,-9411.17578125,-3594.5576171875,2241.92919921875,3086.725830078125,20618.439453125,-2423.12744140625,3030.300048828125,-2737.04541015625,3727.277099609375,-7801.8505859375,-5273.02392578125,-5021.09521484375,3230.57177734375,1394.7486572265625,-3090.699462890625,-390.21173095703125,2672.67236328125,4355.11279296875,15716.552734375,2903.1435546875,12636.1845703125,916.3220825195312,15803.1787109375,-4395.6435546875,-5682.3095703125,-3863.970458984375,-939.3692016601562,-6117.82080078125,932.2166748046875,4773.14013671875,7321.03955078125,3859.2021484375,4793.802734375,-311.5335998535156,5555.94775390625,-1014.07373046875,19464.4921875,-1080.8309326171875,-0.0,-1944.7008056640625,9513.6953125,-2465.248046875,108.87781524658203,1971.7216796875,8618.83203125,-4823.2080078125,3475.34814453125,-5514.62158203125,-1024.4051513671875,-42.1206169128418,9937.2861328125,-10198.751953125,-13398.330078125,-5670.388671875,-2156.8935546875,494.3211669921875,-6840.22900390625,-1292.228759765625,47.6837158203125,-6945.13330078125,2586.841552734375,774.065673828125,1230.2398681640625,-5660.85205078125,589.6885986328125,0.0,-2939.701171875,0.0,-1792.1129150390625,-0.0,-904.401123046875
-11333.625,-9412.765625,-3588.994384765625,2242.72412109375,3091.494384765625,20626.38671875,-2416.769775390625,3032.684326171875,-2734.6611328125,3720.12451171875,-7793.9033203125,-5261.89794921875,-4996.45849609375,3240.1083984375,1403.49072265625,-3087.5205078125,-384.6486511230469,2679.82470703125,4358.29150390625,15710.9892578125,2907.912109375,12641.7470703125,921.8851928710938,15809.5361328125,-4383.72265625,-5669.59375,-3856.023193359375,-929.0377197265625,-6115.4365234375,926.653564453125,4777.908203125,7322.62939453125,3865.559814453125,4796.98193359375,-305.17578125,5560.71630859375,-1007.7158203125,19466.876953125,-1089.5728759765625,-0.0,-1939.1378173828125,9520.0537109375,-2459.68505859375,115.23564910888672,1976.489990234375,8614.0634765625,-4821.61865234375,3474.553466796875,-5513.82666015625,-1007.7158203125,-31.789142608642578,9939.6708984375,-10182.0634765625,-13390.3818359375,-5667.20947265625,-2163.251220703125,505.4473876953125,-6843.408203125,-1281.897216796875,42.91534423828125,-6936.39111328125,2591.60986328125,776.4498291015625,1246.92919921875,-5663.236328125,600.8148193359375,0.0,-2934.137939453125,0.0,-1782.576171875,-0.0,-886.9171142578125
-11332.8291015625,-9411.17578125,-3598.531005859375,2245.903076171875,3090.699462890625,20624.796875,-2412.00146484375,3038.247314453125,-2728.30322265625,3732.04541015625,-7797.08251953125,-5265.87158203125,-4991.68994140625,3240.903076171875,1410.6431884765625,-3073.215576171875,-385.443359375,2680.619384765625,4363.06005859375,15720.525390625,2905.52783203125,12644.1318359375,923.474609375,15811.125,-4393.259765625,-5673.5673828125,-3849.665283203125,-928.2429809570312,-6112.25732421875,917.9114990234375,4776.31884765625,7321.83447265625,3860.79150390625,4795.392578125,-305.97052001953125,5561.5107421875,-1004.5369873046875,19470.849609375,-1087.188720703125,-0.0,-1945.49560546875,9520.0537109375,-2458.095458984375,119.20928955078125,1981.2584228515625,8623.599609375,-4833.53955078125,3476.9375,-5518.59521484375,-1005.3316650390625,-24.636587142944336,9949.20703125,-10154.2470703125,-13400.7138671875,-5663.236328125,-2146.561767578125,506.2420959472656,-6820.36083984375,-1281.897216796875,47.6837158203125,-6934.8017578125,2594.788818359375,782.8076782226562,1253.2869873046875,-5659.26220703125,605.5831909179688,0.0,-2933.34326171875,0.0,-1777.807861328125,-0.0,-874.9962158203125
-11339.982421875,-9411.970703125,-3600.915283203125,2249.876708984375,3085.136474609375,20625.591796875,-2418.359130859375,3040.631591796875,-2728.30322265625,3737.608642578125,-7807.41357421875,-5273.02392578125,-4987.716796875,3244.876953125,1392.364501953125,-3070.03662109375,-389.4170227050781,2676.64599609375,4361.470703125,15729.2685546875,2899.169921875,12641.7470703125,918.7062377929688,15809.5361328125,-4405.9755859375,-5659.26220703125,-3862.380859375,-926.653564453125,-6116.2314453125,917.9114990234375,4773.14013671875,7315.47705078125,3855.228515625,4794.59765625,-312.3283386230469,5560.71630859375,-1008.5106201171875,19470.849609375,-1093.5465087890625,-0.0,-1951.8533935546875,9527.2060546875,-2464.453369140625,118.41455841064453,1975.6953125,8625.984375,-4828.77099609375,3483.29541015625,-5525.74755859375,-1015.6631469726562,-42.91534423828125,9953.181640625,-10153.453125,-13412.634765625,-5667.20947265625,-2147.356689453125,498.2948303222656,-6828.30810546875,-1299.3812255859375,40.531158447265625,-6941.9541015625,2591.60986328125,782.8076782226562,1251.697509765625,-5649.7255859375,600.8148193359375,0.0,-2950.827392578125,0.0,-1788.93408203125,-0.0,-878.1751098632812
-11352.6982421875,-9424.6865234375,-3607.273193359375,2238.75048828125,3078.778564453125,20617.642578125,-2424.717041015625,3031.0947265625,-2727.508544921875,3729.6611328125,-7817.7451171875,-5283.35546875,-4994.07421875,3243.287353515625,1393.1593017578125,-3089.90478515625,-398.9537658691406,2665.519775390625,4353.5234375,15726.884765625,2890.427734375,12631.416015625,911.5537109375,15802.3837890625,-4408.359375,-5665.6201171875,-3865.559814453125,-939.3692016601562,-6118.61572265625,909.9642333984375,4762.80810546875,7305.93994140625,3848.87060546875,4785.85595703125,-318.6861572265625,5551.17919921875,-1014.07373046875,19462.904296875,-1105.4674072265625,-0.0,-1957.41650390625,9524.02734375,-2468.427001953125,108.08309173583984,1971.7216796875,8619.6259765625,-4844.66552734375,3471.37451171875,-5527.33740234375,-1027.5841064453125,-42.1206169128418,9944.4384765625,-10185.2421875,-13423.7607421875,-5670.388671875,-2164.046142578125,496.7053527832031,-6846.5869140625,-1298.5865478515625,26.226043701171875,-6950.6962890625,2581.278564453125,777.2445678710938,1246.92919921875,-5658.4677734375,584.12548828125,0.0,-2956.390380859375,0.0,-1805.6234130859375,-0.0,-890.0960083007812
-11360.6455078125,-9423.0966796875,-3620.783447265625,2226.034912109375,3072.4208984375,20601.75,-2429.4853515625,3026.326416015625,-2729.09814453125,3720.12451171875,-7821.71923828125,-5282.56103515625,-5005.9951171875,3240.1083984375,1392.364501953125,-3108.978271484375,-410.0799560546875,2655.98291015625,4347.16552734375,15723.705078125,2880.89111328125,12619.4951171875,903.6064453125,15792.8466796875,-4413.1279296875,-5717.27734375,-3869.533447265625,-953.67431640625,-6124.17822265625,905.9906005859375,4753.271484375,7299.58203125,3840.128662109375,4775.52392578125,-329.01763916015625,5539.25830078125,-1018.8421020507812,19454.95703125,-1115.7989501953125,-0.0,-1968.5428466796875,9498.595703125,-2473.1953125,96.9568862915039,1966.9532470703125,8618.037109375,-4870.8916015625,3457.864013671875,-5532.10595703125,-1022.815673828125,-43.7100715637207,9934.107421875,-10213.8515625,-13415.8134765625,-5675.1572265625,-2160.866943359375,491.9369812011719,-6862.4814453125,-1300.970703125,34.96805953979492,-6956.25927734375,2573.3310546875,770.88671875,1233.4188232421875,-5666.41455078125,578.5624389648438,0.0,-2954.80078125,0.0,-1813.5706787109375,-0.0,-909.1694946289062
-11347.134765625,-9411.17578125,-3628.730712890625,2231.597900390625,3069.24169921875,20604.9296875,-2430.280029296875,3020.763427734375,-2732.27685546875,3725.687744140625,-7820.12939453125,-5279.38232421875,-5002.81689453125,3230.57177734375,1389.9803466796875,-3115.336181640625,-408.4905090332031,2656.777587890625,4348.7548828125,15724.5009765625,2880.096435546875,12619.4951171875,902.8117065429688,15795.23046875,-4417.1015625,-5714.8935546875,-3869.533447265625,-952.0848388671875,-6124.97314453125,913.9378662109375,4754.861328125,7301.96630859375,3838.5390625,4773.93505859375,-330.6070861816406,5540.052734375,-1019.6367797851562,19454.95703125,-1113.414794921875,-0.0,-1971.7216796875,9494.6220703125,-2476.374267578125,97.75161743164062,1966.9532470703125,8615.6533203125,-4873.27587890625,3465.0166015625,-5534.490234375,-1021.2262573242188,-47.6837158203125,9926.955078125,-10212.26171875,-13404.6865234375,-5675.1572265625,-2140.2041015625,493.5264587402344,-6860.09716796875,-1295.4075927734375,43.7100715637207,-6950.6962890625,2570.947021484375,769.2973022460938,1231.829345703125,-5665.6201171875,579.357177734375,0.0,-2949.23779296875,0.0,-1795.2918701171875,-0.0,-901.2222290039062
-11343.9560546875,-9413.5595703125,-3621.578125,2233.982177734375,3075.599609375,20607.3125,-2427.895751953125,3020.763427734375,-2737.04541015625,3730.4560546875,-7829.666015625,-5278.58740234375,-4994.869140625,3221.034912109375,1398.7222900390625,-3108.978271484375,-406.9010314941406,2661.5458984375,4351.13916015625,15720.525390625,2883.275390625,12620.2900390625,906.7853393554688,15796.8193359375,-4402.001953125,-5706.1513671875,-3861.58642578125,-951.2901611328125,-6119.41015625,920.2957153320312,4757.24560546875,7305.1455078125,3840.128662109375,4774.7294921875,-325.8387145996094,5541.642578125,-1016.4578857421875,19455.751953125,-1120.5673828125,-0.0,-1962.9796142578125,9495.41796875,-2471.60595703125,100.13580322265625,1968.5428466796875,8612.4736328125,-4861.35498046875,3468.195556640625,-5524.953125,-1022.815673828125,-36.55751419067383,9924.5712890625,-10208.2890625,-13402.302734375,-5670.388671875,-2131.462158203125,503.85791015625,-6856.12353515625,-1291.4339599609375,38.14697265625,-6950.6962890625,2573.3310546875,770.092041015625,1233.4188232421875,-5662.44140625,578.5624389648438,0.0,-2949.23779296875,0.0,-1793.7025146484375,-0.0,-896.453857421875
-11363.029296875,-9420.712890625,-3625.552001953125,2218.08740234375,3074.804931640625,20598.5703125,-2432.6640625,3015.200439453125,-2746.58203125,3719.329833984375,-7842.38134765625,-5288.1240234375,-5001.22705078125,3214.677001953125,1403.49072265625,-3115.336181640625,-417.2325134277344,2655.188232421875,4343.986328125,15712.580078125,2877.712158203125,12613.1376953125,901.2222290039062,15788.078125,-4394.05419921875,-5718.86669921875,-3862.380859375,-958.4426879882812,-6124.97314453125,917.1168212890625,4750.88720703125,7297.99267578125,3836.155029296875,4766.7822265625,-330.6070861816406,5535.28466796875,-1021.2262573242188,19448.599609375,-1123.7462158203125,-0.0,-1965.36376953125,9485.0859375,-2472.400634765625,92.18851470947266,1962.9796142578125,8606.1162109375,-4864.53369140625,3451.50634765625,-5524.15869140625,-1034.736572265625,-32.5838737487793,9920.5966796875,-10217.0302734375,-13409.455078125,-5674.3623046875,-2150.53564453125,503.0632019042969,-6864.07080078125,-1295.4075927734375,28.6102294921875,-6962.6171875,2567.76806640625,764.5289306640625,1227.0609130859375,-5664.8251953125,572.9993286132812,0.0,-2959.5693359375,0.0,-1805.6234130859375,-0.0,-903.6064453125
