-2582.0732421875,-3627.93603515625,12150.60546875,-7730.3251953125,7718.404296875,2803.0078125,3571.51025390625,-5540.84765625,0.0,-5040.9638671875,-2217.292724609375,-11564.890625,0.0,0.0,0.0,-3507.931884765625,3062.884033203125,11925.697265625,-0.0,-1014.868408203125,5897.6806640625,9671.84765625,7306.734375,3092.2890625,2813.33935546875,-8255.640625,-5655.28857421875,7365.544921875,-580.15185546875,-2112.388671875,10318.755859375,-6086.03125,9090.900390625,7855.89208984375,5702.177734375,8240.5400390625,2826.849609375,-1551.3101806640625,5629.0625,-0.0,4623.73095703125,-15000.5029296875,2425.51171875,12962.818359375,2661.5458984375,-7208.98291015625,4505.31640625,5016.3271484375,3654.162109375,4304.25,3187.656494140625,-4382.92822265625,-10088.2841796875,-5303.22412109375,2291.20263671875,-4303.45556640625,0.0,-6211.5986328125,0.0,-6936.39111328125,-10267.8935546875,3952.97998046875,-10174.115234375,0.0,-13199.646484375,-1575.94677734375,0.0,-6620.8837890625,0.0,5172.88818359375,-0.0,-5874.6337890625
-2584.45751953125,-3624.757080078125,12152.9892578125,-7731.91455078125,7720.78857421875,2803.0078125,3570.715576171875,-5540.84765625,0.0,-5043.34765625,-2208.55078125,-11579.1962890625,0.0,0.0,0.0,-3507.931884765625,3062.884033203125,11925.697265625,-0.0,-1015.6631469726562,5898.4755859375,9671.0517578125,7307.529296875,3091.494384765625,2814.9287109375,-8258.8193359375,-5654.49365234375,7364.75,-578.5624389648438,-2122.719970703125,10320.345703125,-6087.62109375,9094.0791015625,7856.6865234375,5702.177734375,8242.1298828125,2826.849609375,-1550.5155029296875,5625.08935546875,-0.0,4626.115234375,-15003.681640625,2426.306396484375,12963.6123046875,2660.75146484375,-7209.77783203125,4503.72705078125,5015.5322265625,3654.162109375,4302.66064453125,3187.656494140625,-4383.72265625,-10078.748046875,-5307.19775390625,2295.17626953125,-4311.40283203125,0.0,-6217.16162109375,0.0,-6935.5966796875,-10253.5888671875,3951.390625,-10175.705078125,0.0,-13195.673828125,-1586.2783203125,0.0,-6611.34716796875,0.0,5181.63037109375,-0.0,-5878.607421875
-2569.357666015625,-3612.836181640625,12156.962890625,-7723.96728515625,7725.556640625,2810.955078125,3571.51025390625,-5537.6689453125,0.0,-5042.552734375,-2206.96142578125,-11564.095703125,0.0,0.0,0.0,-3504.753173828125,3070.03662109375,11929.6708984375,-0.0,-1014.07373046875,5901.65478515625,9676.615234375,7309.91357421875,3096.2626953125,2818.90234375,-8248.48828125,-5652.10986328125,7370.31298828125,-572.20458984375,-2102.05712890625,10325.908203125,-6081.26318359375,9098.84765625,7862.25048828125,5707.74072265625,8248.48828125,2826.849609375,-1548.926025390625,5625.8837890625,-0.0,4630.8837890625,-14991.759765625,2428.690673828125,12969.1767578125,2662.3408203125,-7205.80419921875,4506.90625,5027.453125,3658.930419921875,4308.2236328125,3187.656494140625,-4378.95458984375,-10097.0263671875,-5286.53466796875,2299.944580078125,-4299.48193359375,0.0,-6208.419921875,0.0,-6931.623046875,-10252.79296875,3954.5693359375,-10173.3203125,0.0,-13185.341796875,-1575.94677734375,0.0,-6612.14208984375,0.0,5178.45166015625,-0.0,-5882.5810546875
-2564.58935546875,-3612.836181640625,12164.1162109375,-7720.78857421875,7729.5302734375,2811.749755859375,3569.126220703125,-5536.87451171875,0.0,-5048.1162109375,-2194.24560546875,-11566.4794921875,0.0,0.0,0.0,-3508.726806640625,3074.804931640625,11931.259765625,-0.0,-1018.8421020507812,5905.62841796875,9679.0,7310.70849609375,3098.64697265625,2830.028564453125,-8240.5400390625,-5648.93115234375,7367.13427734375,-563.4625854492188,-2086.957275390625,10328.29296875,-6074.1103515625,9103.6162109375,7865.4287109375,5709.330078125,8251.6669921875,2825.26025390625,-1549.720703125,5637.01025390625,-0.0,4634.857421875,-14982.2236328125,2427.895751953125,12968.380859375,2661.5458984375,-7206.5986328125,4521.2109375,5032.22119140625,3662.904052734375,4310.60791015625,3185.272216796875,-4382.92822265625,-10108.947265625,-5279.38232421875,2309.4814453125,-4299.48193359375,0.0,-6206.03564453125,0.0,-6937.185546875,-10251.2041015625,3956.95361328125,-10174.91015625,0.0,-13167.8583984375,-1583.099365234375,0.0,-6620.8837890625,0.0,5162.55712890625,-0.0,-5896.09130859375
-2568.562744140625,-3619.194091796875,12172.0625,-7722.3779296875,7735.88818359375,2810.955078125,3568.33154296875,-5537.6689453125,0.0,-5054.4736328125,-2188.6826171875,-11575.2216796875,0.0,0.0,0.0,-3511.90576171875,3079.573486328125,11934.439453125,-0.0,-1025.199951171875,5911.98583984375,9682.97265625,7313.0927734375,3101.031005859375,2841.15478515625,-8240.5400390625,-5644.95703125,7363.955078125,-552.3363647460938,-2097.288818359375,10332.2666015625,-6069.34228515625,9108.3837890625,7867.81298828125,5711.71435546875,8254.845703125,2822.8759765625,-1548.926025390625,5644.16259765625,-0.0,4641.21484375,-14977.455078125,2430.280029296875,12968.380859375,2657.572509765625,-7208.1884765625,4533.1318359375,5017.12158203125,3670.056640625,4307.4287109375,3183.6826171875,-4386.90185546875,-10070.0068359375,-5296.0712890625,2320.607421875,-4306.63427734375,0.0,-6202.8564453125,0.0,-6945.13330078125,-10231.3359375,3959.337646484375,-10177.294921875,0.0,-13157.52734375,-1586.2783203125,0.0,-6628.03662109375,0.0,5141.099609375,-0.0,-5918.34423828125
-2560.615478515625,-3612.04150390625,12174.447265625,-7716.02001953125,7737.4775390625,2814.1337890625,3568.33154296875,-5534.490234375,0.0,-5053.67919921875,-2187.887939453125,-11562.5068359375,0.0,0.0,0.0,-3507.931884765625,3081.95751953125,11937.6181640625,-0.0,-1027.5841064453125,5914.3701171875,9686.947265625,7315.47705078125,3104.2099609375,2842.744140625,-8233.3876953125,-5642.57275390625,7364.75,-552.3363647460938,-2094.10986328125,10335.4453125,-6064.57373046875,9112.3583984375,7873.3759765625,5714.0986328125,8256.435546875,2824.465576171875,-1546.5418701171875,5652.904296875,-0.0,4644.39404296875,-14963.9443359375,2431.86962890625,12969.970703125,2658.3671875,-7206.5986328125,4529.953125,5024.2744140625,3674.824951171875,4308.2236328125,3184.4775390625,-4383.72265625,-10052.521484375,-5286.53466796875,2321.40234375,-4310.60791015625,0.0,-6197.2939453125,0.0,-6941.15966796875,-10225.7724609375,3963.311767578125,-10176.4990234375,0.0,-13159.9111328125,-1571.178466796875,0.0,-6629.6259765625,0.0,5142.68896484375,-0.0,-5915.1650390625
-2553.462890625,-3619.194091796875,12167.294921875,-7719.19873046875,7733.50390625,2812.544677734375,3573.89453125,-5533.6953125,0.0,-5045.73193359375,-2191.861328125,-11575.2216796875,0.0,0.0,0.0,-3503.95849609375,3077.189208984375,11934.439453125,-0.0,-1017.2525634765625,5908.80712890625,9681.3837890625,7314.68212890625,3101.031005859375,2835.591552734375,-8234.9775390625,-5645.751953125,7364.75,-559.4889526367188,-2111.593994140625,10330.6767578125,-6074.9052734375,9106.0,7867.0185546875,5712.50927734375,8253.2568359375,2830.8232421875,-1546.5418701171875,5649.7255859375,-0.0,4637.2412109375,-14963.150390625,2432.6640625,12968.380859375,2664.72509765625,-7201.83056640625,4516.44287109375,5022.6845703125,3670.8515625,4305.04443359375,3190.835205078125,-4380.5439453125,-10070.80078125,-5292.09765625,2313.454833984375,-4316.9658203125,0.0,-6193.31982421875,0.0,-6932.41748046875,-10236.8994140625,3962.516845703125,-10170.9365234375,0.0,-13171.83203125,-1578.3310546875,0.0,-6622.47314453125,0.0,5154.60986328125,-0.0,-5900.06494140625
-2542.336669921875,-3604.888916015625,12176.8310546875,-7700.919921875,7739.86181640625,2822.081298828125,3577.8681640625,-5524.15869140625,0.0,-5040.1689453125,-2187.887939453125,-11568.0693359375,0.0,0.0,0.0,-3497.6005859375,3086.725830078125,11942.38671875,-0.0,-1012.4841918945312,5916.75439453125,9691.71484375,7321.03955078125,3108.978271484375,2841.949462890625,-8221.466796875,-5644.16259765625,7375.08154296875,-552.3363647460938,-2097.288818359375,10338.6240234375,-6069.34228515625,9114.7421875,7882.1181640625,5720.45654296875,8265.9716796875,2834.002197265625,-1536.21044921875,5648.13623046875,-0.0,4645.9833984375,-14951.2294921875,2436.637939453125,12977.91796875,2668.698486328125,-7196.267578125,4526.77392578125,5042.552734375,3672.440673828125,4316.9658203125,3193.219482421875,-4374.18603515625,-10092.2587890625,-5275.408203125,2319.01806640625,-4294.71337890625,0.0,-6184.578125,0.0,-6927.64892578125,-10236.1044921875,3968.080078125,-10164.578125,0.0,-13167.0634765625,-1563.2310791015625,0.0,-6628.03662109375,0.0,5137.12548828125,-0.0,-5905.62841796875
-2551.87353515625,-3600.915283203125,12173.65234375,-7700.125,7739.86181640625,2824.465576171875,3575.484130859375,-5525.74755859375,0.0,-5044.14208984375,-2192.65625,-11558.533203125,0.0,0.0,0.0,-3498.395263671875,3086.725830078125,11942.38671875,-0.0,-1016.4578857421875,5915.1650390625,9692.509765625,7320.2451171875,3108.978271484375,2837.18115234375,-8210.341796875,-5643.36767578125,7375.8759765625,-557.8994750976562,-2083.7783203125,10338.6240234375,-6062.984375,9113.15234375,7883.7080078125,5719.66162109375,8265.177734375,2830.028564453125,-1537.7998046875,5641.7783203125,-0.0,4643.59912109375,-14948.05078125,2435.04833984375,12978.712890625,2664.72509765625,-7199.4462890625,4526.77392578125,5046.5263671875,3670.8515625,4319.349609375,3192.4248046875,-4374.18603515625,-10084.3115234375,-5279.38232421875,2314.249755859375,-4285.97119140625,0.0,-6183.783203125,0.0,-6931.623046875,-10247.23046875,3967.28515625,-10167.7578125,0.0,-13171.83203125,-1554.4891357421875,0.0,-6654.2626953125,0.0,5113.28369140625,-0.0,-5916.75439453125
-2584.45751953125,-3608.06787109375,12166.5,-7702.50927734375,7736.68310546875,2826.054931640625,3574.689208984375,-5524.953125,0.0,-5037.78466796875,-2203.7822265625,-11583.1689453125,0.0,0.0,0.0,-3496.805908203125,3081.95751953125,11942.38671875,-0.0,-1012.4841918945312,5909.6015625,9689.3310546875,7319.4501953125,3108.18359375,2827.644287109375,-8208.751953125,-5642.57275390625,7377.4658203125,-569.8204345703125,-2073.447021484375,10336.240234375,-6065.36865234375,9108.3837890625,7879.73388671875,5718.072265625,8262.7939453125,2828.43896484375,-1538.5946044921875,5637.8046875,-0.0,4640.42041015625,-14950.4345703125,2434.253662109375,12978.712890625,2663.93017578125,-7194.677734375,4525.1845703125,5054.4736328125,3667.67236328125,4320.939453125,3192.4248046875,-4373.3916015625,-10074.7744140625,-5298.45556640625,2303.918212890625,-4277.2294921875,0.0,-6185.373046875,0.0,-6927.64892578125,-10281.4033203125,3967.28515625,-10163.7841796875,0.0,-13192.494140625,-1578.3310546875,0.0,-6647.10986328125,0.0,5153.81494140625,-0.0,-5884.96533203125
-2574.920654296875,-3619.194091796875,12167.294921875,-7693.767578125,7735.88818359375,2827.644287109375,3576.27880859375,-5521.7744140625,0.0,-5033.01611328125,-2200.603515625,-11609.3955078125,0.0,0.0,0.0,-3489.6533203125,3081.95751953125,11940.001953125,-0.0,-1010.1000366210938,5910.396484375,9691.71484375,7318.6552734375,3109.77294921875,2822.081298828125,-8202.3935546875,-5644.16259765625,7380.64453125,-576.17822265625,-2044.0418701171875,10337.03515625,-6068.5478515625,9107.58984375,7881.32373046875,5718.072265625,8264.3828125,2830.028564453125,-1537.005126953125,5640.9833984375,-0.0,4638.83056640625,-14948.8447265625,2433.458984375,12981.09765625,2663.93017578125,-7191.4990234375,4531.54248046875,5069.57373046875,3663.698974609375,4325.7080078125,3190.835205078125,-4367.828125,-10094.642578125,-5297.66064453125,2297.560546875,-4270.07666015625,0.0,-6186.16748046875,0.0,-6918.9072265625,-10282.19921875,3966.490234375,-10162.9892578125,0.0,-13202.826171875,-1592.6361083984375,0.0,-6642.341796875,0.0,5181.63037109375,-0.0,-5873.04443359375
-2550.2841796875,-3626.3466796875,12164.1162109375,-7712.8408203125,7731.91455078125,2815.723388671875,3573.89453125,-5527.33740234375,0.0,-5038.57958984375,-2195.835205078125,-11550.5859375,0.0,0.0,0.0,-3502.368896484375,3075.599609375,11934.439453125,-0.0,-1013.2789306640625,5906.4228515625,9681.3837890625,7316.271484375,3101.82568359375,2826.849609375,-8227.8251953125,-5646.546875,7372.697265625,-571.4098510742188,-2101.262451171875,10333.0615234375,-6071.7265625,9100.4375,7870.197265625,5713.30419921875,8255.640625,2829.23388671875,-1543.3629150390625,5629.857421875,-0.0,4637.2412109375,-14967.1240234375,2433.458984375,12973.1494140625,2663.135498046875,-7197.85693359375,4531.54248046875,5024.2744140625,3662.904052734375,4313.787109375,3190.04052734375,-4374.98095703125,-10104.1796875,-5297.66064453125,2303.12353515625,-4309.0185546875,0.0,-6193.31982421875,0.0,-6930.828125,-10245.640625,3960.927490234375,-10165.3740234375,0.0,-13193.2900390625,-1568.794189453125,0.0,-6628.03662109375,0.0,5169.70947265625,-0.0,-5872.24951171875
-2556.641845703125,-3614.42578125,12169.6787109375,-7713.6357421875,7732.70947265625,2815.723388671875,3572.304931640625,-5528.9267578125,0.0,-5041.75830078125,-2202.193115234375,-11538.6650390625,0.0,0.0,0.0,-3501.57421875,3078.778564453125,11935.234375,-0.0,-1015.6631469726562,5908.80712890625,9682.97265625,7316.271484375,3103.415283203125,2828.43896484375,-8236.5673828125,-5648.93115234375,7374.28662109375,-568.23095703125,-2093.315185546875,10333.0615234375,-6071.7265625,9104.4111328125,7872.58154296875,5711.71435546875,8254.845703125,2829.23388671875,-1542.5682373046875,5643.36767578125,-0.0,4638.83056640625,-14967.1240234375,2431.074951171875,12972.3544921875,2662.3408203125,-7196.267578125,4530.748046875,5025.86376953125,3659.72509765625,4313.787109375,3189.245849609375,-4376.5703125,-10070.80078125,-5271.4345703125,2305.507568359375,-4309.81298828125,0.0,-6190.935546875,0.0,-6929.23876953125,-10233.7197265625,3960.927490234375,-10166.962890625,0.0,-13183.7529296875,-1559.257568359375,0.0,-6602.60546875,0.0,5168.1201171875,-0.0,-5879.40234375
-2560.615478515625,-3608.06787109375,12175.2421875,-7711.251953125,7735.88818359375,2822.081298828125,3573.099853515625,-5524.953125,0.0,-5038.57958984375,-2202.98779296875,-11539.458984375,0.0,0.0,0.0,-3497.6005859375,3082.752197265625,11940.796875,-0.0,-1014.07373046875,5912.78076171875,9688.537109375,7317.86083984375,3105.79931640625,2830.8232421875,-8227.0302734375,-5646.546875,7378.26025390625,-564.25732421875,-2079.010009765625,10337.03515625,-6070.93212890625,9111.5634765625,7874.9658203125,5715.68798828125,8258.8193359375,2829.23388671875,-1540.18408203125,5652.10986328125,-0.0,4642.009765625,-14961.560546875,2433.458984375,12977.123046875,2661.5458984375,-7194.677734375,4525.9794921875,5036.98974609375,3662.109375,4318.55517578125,3188.451171875,-4372.5966796875,-10036.6279296875,-5243.61962890625,2307.891845703125,-4292.3291015625,0.0,-6188.55126953125,0.0,-6922.08642578125,-10219.4150390625,3964.106201171875,-10166.16796875,0.0,-13179.779296875,-1555.283935546875,0.0,-6601.810546875,0.0,5172.88818359375,-0.0,-5885.759765625
-2555.052490234375,-3604.09423828125,12166.5,-7714.43017578125,7731.11962890625,2819.697021484375,3572.304931640625,-5525.74755859375,0.0,-5040.1689453125,-2208.55078125,-11547.40625,0.0,0.0,0.0,-3498.395263671875,3077.189208984375,11938.4130859375,-0.0,-1014.868408203125,5907.21728515625,9685.357421875,7317.06640625,3105.004638671875,2827.644287109375,-8227.0302734375,-5646.546875,7375.8759765625,-566.6414794921875,-2082.983642578125,10334.6513671875,-6078.87890625,9105.205078125,7872.58154296875,5714.0986328125,8257.2294921875,2827.644287109375,-1540.18408203125,5644.16259765625,-0.0,4636.4462890625,-14963.9443359375,2433.458984375,12977.123046875,2660.75146484375,-7197.85693359375,4517.2373046875,5037.78466796875,3659.72509765625,4318.55517578125,3187.656494140625,-4374.18603515625,-10035.0380859375,-5231.69873046875,2306.30224609375,-4289.9453125,0.0,-6189.34619140625,0.0,-6925.2646484375,-10210.6728515625,3962.516845703125,-10166.962890625,0.0,-13188.521484375,-1563.2310791015625,0.0,-6603.39990234375,0.0,5174.47802734375,-0.0,-5884.96533203125
-2558.2314453125,-3612.836181640625,12152.1953125,-7731.91455078125,7723.1728515625,2808.57080078125,3569.9208984375,-5536.87451171875,0.0,-5048.91064453125,-2216.498046875,-11564.095703125,0.0,0.0,0.0,-3511.90576171875,3064.473388671875,11928.0810546875,-0.0,-1020.4315185546875,5896.09130859375,9674.2314453125,7309.91357421875,3093.083740234375,2815.723388671875,-8244.5146484375,-5652.904296875,7363.955078125,-581.7413330078125,-2106.03076171875,10321.9345703125,-6093.18408203125,9093.2841796875,7857.48193359375,5704.5615234375,8246.1044921875,2825.26025390625,-1549.720703125,5627.47314453125,-0.0,4626.115234375,-14982.2236328125,2427.10107421875,12965.9970703125,2658.3671875,-7208.98291015625,4503.72705078125,5015.5322265625,3647.80419921875,4305.83935546875,3186.06689453125,-4385.3125,-10058.0849609375,-5269.05078125,2295.17626953125,-4301.0712890625,0.0,-6202.06201171875,0.0,-6939.56982421875,-10221.0048828125,3955.3642578125,-10173.3203125,0.0,-13200.4423828125,-1576.7415771484375,0.0,-6627.24169921875,0.0,5158.5830078125,-0.0,-5888.93896484375
-2574.920654296875,-3615.22021484375,12146.6318359375,-7735.09375,7719.19873046875,2804.59716796875,3568.33154296875,-5544.8212890625,0.0,-5057.65283203125,-2212.5244140625,-11564.890625,0.0,0.0,0.0,-3520.647705078125,3060.5,11923.3134765625,-0.0,-1025.199951171875,5892.1181640625,9669.462890625,7305.1455078125,3089.110107421875,2804.59716796875,-8249.283203125,-5654.49365234375,7359.1865234375,-593.6622314453125,-2115.5673828125,10315.5771484375,-6098.7470703125,9086.9267578125,7852.71337890625,5699.79345703125,8242.9248046875,2824.465576171875,-1554.4891357421875,5617.9365234375,-0.0,4621.34716796875,-14987.7861328125,2424.717041015625,12960.43359375,2658.3671875,-7213.75146484375,4498.95849609375,5011.55859375,3643.035888671875,4302.66064453125,3184.4775390625,-4390.87548828125,-10089.8740234375,-5294.48193359375,2283.25537109375,-4297.89208984375,0.0,-6206.03564453125,0.0,-6949.10693359375,-10244.0517578125,3949.801025390625,-10176.4990234375,0.0,-13205.2109375,-1574.357421875,0.0,-6651.08349609375,0.0,5143.4833984375,-0.0,-5908.01220703125
-2586.841552734375,-3614.42578125,12160.9375,-7722.3779296875,7731.11962890625,2810.955078125,3568.33154296875,-5541.642578125,0.0,-5056.85791015625,-2190.27197265625,-11566.4794921875,0.0,0.0,0.0,-3516.674072265625,3070.03662109375,11929.6708984375,-0.0,-1025.99462890625,5902.44921875,9676.615234375,7311.5029296875,3093.87841796875,2814.1337890625,-8243.7197265625,-5648.13623046875,7364.75,-583.330810546875,-2110.799072265625,10325.1142578125,-6087.62109375,9098.84765625,7862.25048828125,5710.125,8253.2568359375,2825.26025390625,-1549.720703125,5631.44677734375,-0.0,4633.26806640625,-14982.2236328125,2428.690673828125,12966.7919921875,2658.3671875,-7212.162109375,4515.64794921875,5027.453125,3654.162109375,4309.81298828125,3183.6826171875,-4385.3125,-10081.927734375,-5295.27685546875,2291.20263671875,-4285.97119140625,0.0,-6202.06201171875,0.0,-6945.92822265625,-10252.79296875,3955.3642578125,-10177.294921875,0.0,-13189.3154296875,-1567.204833984375,0.0,-6646.31494140625,0.0,5148.251953125,-0.0,-5911.19140625
-2569.357666015625,-3623.96240234375,12158.552734375,-7724.76171875,7736.68310546875,2809.365478515625,3568.33154296875,-5542.43701171875,0.0,-5056.06298828125,-2206.96142578125,-11579.990234375,0.0,0.0,0.0,-3516.674072265625,3071.6259765625,11932.0556640625,-0.0,-1023.6104736328125,5903.244140625,9677.41015625,7312.2978515625,3093.87841796875,2814.1337890625,-8243.7197265625,-5647.34130859375,7365.544921875,-581.7413330078125,-2110.799072265625,10325.1142578125,-6081.26318359375,9099.642578125,7861.455078125,5711.71435546875,8249.283203125,2825.26025390625,-1548.926025390625,5624.29443359375,-0.0,4634.857421875,-14986.197265625,2428.690673828125,12966.7919921875,2659.161865234375,-7212.162109375,4514.05859375,5023.4794921875,3662.109375,4309.0185546875,3185.272216796875,-4385.3125,-10082.7216796875,-5300.044921875,2291.20263671875,-4295.5078125,0.0,-6211.5986328125,0.0,-6943.5439453125,-10261.53515625,3956.1591796875,-10176.4990234375,0.0,-13149.5791015625,-1574.357421875,0.0,-6628.03662109375,0.0,5149.04638671875,-0.0,-5912.78076171875
-2564.58935546875,-3625.552001953125,12157.7578125,-7714.43017578125,7744.63037109375,2818.90234375,3570.715576171875,-5536.87451171875,0.0,-5056.06298828125,-2233.1875,-11607.806640625,0.0,0.0,0.0,-3511.111083984375,3075.599609375,11937.6181640625,-0.0,-1023.6104736328125,5908.80712890625,9686.15234375,7318.6552734375,3101.82568359375,2824.465576171875,-8211.9306640625,-5638.599609375,7372.697265625,-571.4098510742188,-2079.8046875,10331.4716796875,-6077.28955078125,9100.4375,7868.607421875,5715.68798828125,8254.845703125,2827.644287109375,-1544.952392578125,5622.705078125,-0.0,4639.62548828125,-14973.4814453125,2433.458984375,12974.7392578125,2659.956787109375,-7209.77783203125,4510.08447265625,5039.3740234375,3674.824951171875,4321.73388671875,3187.656494140625,-4383.72265625,-10105.76953125,-5290.50830078125,2301.533935546875,-4276.4345703125,0.0,-6213.98291015625,0.0,-6940.36474609375,-10264.7138671875,3960.927490234375,-10172.5263671875,0.0,-13184.5478515625,-1591.84130859375,0.0,-6620.0888671875,0.0,5140.3046875,-0.0,-5920.72802734375
-2542.336669921875,-3633.4990234375,12166.5,-7710.45703125,7741.451171875,2822.8759765625,3573.099853515625,-5534.490234375,0.0,-5052.08984375,-2207.756103515625,-11605.421875,0.0,0.0,0.0,-3508.726806640625,3081.16259765625,11940.796875,-0.0,-1019.6367797851562,5913.57568359375,9690.125,7321.03955078125,3105.79931640625,2835.591552734375,-8215.904296875,-5640.9833984375,7373.49169921875,-557.8994750976562,-2075.036376953125,10338.6240234375,-6075.7001953125,9107.58984375,7872.58154296875,5719.66162109375,8258.8193359375,2828.43896484375,-1540.978759765625,5637.8046875,-0.0,4641.21484375,-14972.6865234375,2433.458984375,12977.123046875,2663.93017578125,-7207.3935546875,4517.2373046875,5038.57958984375,3662.904052734375,4320.939453125,3188.451171875,-4380.5439453125,-10076.36328125,-5277.79248046875,2312.66015625,-4289.9453125,0.0,-6209.21484375,0.0,-6939.56982421875,-10246.4365234375,3964.106201171875,-10169.3466796875,0.0,-13168.65234375,-1580.7152099609375,0.0,-6632.009765625,0.0,5141.89404296875,-0.0,-5908.01220703125
-2516.110595703125,-3626.3466796875,12163.3212890625,-7714.43017578125,7734.298828125,2818.90234375,3574.689208984375,-5529.7216796875,0.0,-5042.552734375,-2193.450927734375,-11601.4482421875,0.0,0.0,0.0,-3503.16357421875,3081.16259765625,11938.4130859375,-0.0,-1008.5106201171875,5911.19140625,9686.15234375,7318.6552734375,3104.2099609375,2838.7705078125,-8242.1298828125,-5648.93115234375,7375.08154296875,-554.7205810546875,-2064.704833984375,10335.4453125,-6076.49462890625,9106.0,7871.787109375,5717.27734375,8258.025390625,2830.8232421875,-1537.7998046875,5629.0625,-0.0,4638.0361328125,-14979.044921875,2434.253662109375,12976.3291015625,2667.109130859375,-7198.65185546875,4518.8271484375,5039.3740234375,3652.57275390625,4313.787109375,3190.835205078125,-4374.98095703125,-10058.0849609375,-5274.61376953125,2317.4287109375,-4291.5341796875,0.0,-6201.26708984375,0.0,-6930.033203125,-10224.1826171875,3964.106201171875,-10163.7841796875,0.0,-13163.8837890625,-1578.3310546875,0.0,-6619.29443359375,0.0,5163.3515625,-0.0,-5888.93896484375
-2512.931884765625,-3614.42578125,12167.294921875,-7698.5361328125,7736.68310546875,2827.644287109375,3576.27880859375,-5524.15869140625,0.0,-5038.57958984375,-2192.65625,-11592.7060546875,0.0,0.0,0.0,-3496.805908203125,3085.93115234375,11943.9765625,-0.0,-1008.5106201171875,5914.3701171875,9697.2783203125,7322.62939453125,3112.1572265625,2836.386474609375,-8215.904296875,-5645.751953125,7383.0283203125,-560.28369140625,-2048.015625,10342.59765625,-6074.1103515625,9108.3837890625,7881.32373046875,5722.8408203125,8267.5615234375,2831.6181640625,-1532.2366943359375,5629.857421875,-0.0,4642.8046875,-14955.203125,2436.637939453125,12982.6865234375,2665.519775390625,-7195.47265625,4528.36376953125,5069.57373046875,3657.341064453125,4326.50244140625,3191.630126953125,-4369.41748046875,-10046.958984375,-5277.79248046875,2314.249755859375,-4264.513671875,0.0,-6189.34619140625,0.0,-6928.44384765625,-10222.5947265625,3970.464111328125,-10162.9892578125,0.0,-13183.7529296875,-1581.5098876953125,0.0,-6610.55224609375,0.0,5168.9150390625,-0.0,-5892.1181640625
-2554.257568359375,-3619.98876953125,12151.400390625,-7738.27197265625,7731.11962890625,2795.060302734375,3573.099853515625,-5544.02685546875,0.0,-5050.50048828125,-2207.756103515625,-11548.99609375,0.0,0.0,0.0,-3516.674072265625,3063.6787109375,11927.287109375,-0.0,-1015.6631469726562,5899.2705078125,9670.2578125,7310.70849609375,3093.083740234375,2824.465576171875,-8277.0986328125,-5647.34130859375,7354.41845703125,-570.6151123046875,-2152.919677734375,10321.9345703125,-6094.77392578125,9090.1064453125,7854.30224609375,5708.53564453125,8242.1298828125,2826.054931640625,-1548.926025390625,5617.9365234375,-0.0,4627.70458984375,-14997.3232421875,2430.280029296875,12956.4599609375,2663.135498046875,-7209.77783203125,4512.46875,5004.40576171875,3651.778076171875,4289.150390625,3190.04052734375,-4389.2861328125,-10067.6220703125,-5310.37646484375,2303.918212890625,-4348.7548828125,0.0,-6225.90380859375,0.0,-6945.13330078125,-10238.48828125,3956.1591796875,-10171.7314453125,0.0,-13195.673828125,-1595.8150634765625,0.0,-6629.6259765625,0.0,5158.5830078125,-0.0,-5897.6806640625
-2579.68896484375,-3616.01513671875,12150.60546875,-7735.09375,7725.556640625,2803.802490234375,3575.484130859375,-5539.25830078125,0.0,-5044.14208984375,-2223.650634765625,-11558.533203125,0.0,0.0,0.0,-3507.931884765625,3065.268310546875,11928.8759765625,-0.0,-1007.7158203125,5897.6806640625,9671.84765625,7312.2978515625,3097.85205078125,2812.544677734375,-8265.177734375,-5648.93115234375,7363.955078125,-581.7413330078125,-2115.5673828125,10322.73046875,-6090.00537109375,9091.6953125,7854.30224609375,5707.74072265625,8242.1298828125,2830.028564453125,-1544.952392578125,5625.08935546875,-0.0,4624.525390625,-14998.1181640625,2430.280029296875,12965.9970703125,2665.519775390625,-7204.21435546875,4511.67431640625,5014.73779296875,3644.62548828125,4300.2763671875,3191.630126953125,-4381.33837890625,-10080.337890625,-5310.37646484375,2291.20263671875,-4325.7080078125,0.0,-6239.4140625,0.0,-6935.5966796875,-10259.1513671875,3956.95361328125,-10164.578125,0.0,-13188.521484375,-1583.099365234375,0.0,-6637.5732421875,0.0,5165.73583984375,-0.0,-5883.37548828125
-2581.278564453125,-3627.93603515625,12164.1162109375,-7727.94091796875,7731.11962890625,2812.544677734375,3573.099853515625,-5533.6953125,0.0,-5041.75830078125,-2208.55078125,-11579.990234375,0.0,0.0,0.0,-3496.010986328125,3071.6259765625,11934.439453125,-0.0,-1006.1264038085938,5903.244140625,9679.0,7317.06640625,3103.415283203125,2818.107666015625,-8252.4619140625,-5648.93115234375,7376.6708984375,-576.9729614257812,-2101.262451171875,10329.0869140625,-6085.23681640625,9101.2314453125,7861.455078125,5712.50927734375,8247.693359375,2830.028564453125,-1540.978759765625,5632.24169921875,-0.0,4631.67822265625,-14992.5546875,2431.86962890625,12972.3544921875,2665.519775390625,-7202.62548828125,4536.310546875,5028.248046875,3647.009521484375,4312.9921875,3189.245849609375,-4371.8017578125,-10071.5947265625,-5325.47607421875,2294.38134765625,-4312.9921875,0.0,-6222.72509765625,0.0,-6930.033203125,-10286.966796875,3960.927490234375,-10159.810546875,0.0,-13179.779296875,-1591.046630859375,0.0,-6651.87841796875,0.0,5159.3779296875,-0.0,-5885.759765625
-2561.41015625,-3631.114990234375,12150.60546875,-7724.76171875,7727.94091796875,2810.955078125,3570.715576171875,-5536.87451171875,0.0,-5049.70556640625,-2229.213623046875,-11606.216796875,0.0,0.0,0.0,-3511.111083984375,3068.447021484375,11931.259765625,-0.0,-1013.2789306640625,5900.06494140625,9677.41015625,7313.0927734375,3100.236083984375,2812.544677734375,-8243.7197265625,-5654.49365234375,7369.51806640625,-584.9202270507812,-2083.7783203125,10325.908203125,-6091.5947265625,9092.490234375,7861.455078125,5708.53564453125,8246.8984375,2827.644287109375,-1543.3629150390625,5617.9365234375,-0.0,4626.115234375,-14985.40234375,2428.690673828125,12967.5869140625,2661.5458984375,-7208.98291015625,4511.67431640625,5037.78466796875,3644.62548828125,4309.81298828125,3187.656494140625,-4378.95458984375,-10081.1318359375,-5305.6083984375,2288.818359375,-4309.81298828125,0.0,-6221.1357421875,0.0,-6939.56982421875,-10271.072265625,3960.927490234375,-10165.3740234375,0.0,-13182.1630859375,-1594.2255859375,0.0,-6647.90478515625,0.0,5150.63623046875,-0.0,-5903.244140625
-2562.999755859375,-3638.267578125,12138.6845703125,-7731.11962890625,7723.96728515625,2803.802490234375,3569.126220703125,-5544.02685546875,0.0,-5049.70556640625,-2231.597900390625,-11582.375,0.0,0.0,0.0,-3525.416015625,3061.29443359375,11927.287109375,-0.0,-1013.2789306640625,5894.501953125,9670.2578125,7309.91357421875,3094.673095703125,2808.57080078125,-8246.1044921875,-5654.49365234375,7359.1865234375,-588.8939208984375,-2101.262451171875,10319.55078125,-6098.7470703125,9082.953125,7854.30224609375,5704.5615234375,8243.7197265625,2825.26025390625,-1547.3365478515625,5609.9892578125,-0.0,4620.55224609375,-14986.9921875,2427.10107421875,12962.818359375,2659.161865234375,-7207.3935546875,4491.01123046875,5025.06884765625,3643.035888671875,4304.25,3186.86181640625,-4387.69677734375,-10103.384765625,-5300.044921875,2286.43408203125,-4311.40283203125,0.0,-6210.80419921875,0.0,-6941.15966796875,-10247.23046875,3956.1591796875,-10168.552734375,0.0,-13186.13671875,-1583.099365234375,0.0,-6623.26806640625,0.0,5156.99365234375,-0.0,-5897.6806640625
-2577.304931640625,-3635.088623046875,12137.8896484375,-7732.70947265625,7723.1728515625,2803.0078125,3569.126220703125,-5542.43701171875,0.0,-5048.1162109375,-2222.06103515625,-11571.248046875,0.0,0.0,0.0,-3516.674072265625,3057.32080078125,11924.107421875,-0.0,-1013.2789306640625,5892.1181640625,9668.66796875,7308.32421875,3093.083740234375,2808.57080078125,-8248.48828125,-5655.28857421875,7359.1865234375,-588.0991821289062,-2140.998779296875,10316.3720703125,-6102.720703125,9081.36328125,7851.91845703125,5702.97265625,8243.7197265625,2825.26025390625,-1548.13134765625,5609.1943359375,-0.0,4620.55224609375,-14981.4287109375,2427.10107421875,12962.818359375,2659.956787109375,-7205.00927734375,4493.3955078125,5022.6845703125,3642.2412109375,4301.0712890625,3187.656494140625,-4386.90185546875,-10111.33203125,-5306.40283203125,2285.639404296875,-4331.2705078125,0.0,-6200.47216796875,0.0,-6935.5966796875,-10253.5888671875,3953.77490234375,-10169.3466796875,0.0,-13192.494140625,-1585.4835205078125,0.0,-6619.29443359375,0.0,5164.146484375,-0.0,-5891.3232421875
-2587.63623046875,-3618.3994140625,12145.8369140625,-7727.94091796875,7725.556640625,2807.776123046875,3571.51025390625,-5534.490234375,0.0,-5044.14208984375,-2207.756103515625,-11566.4794921875,0.0,0.0,0.0,-3510.316162109375,3063.6787109375,11928.8759765625,-0.0,-1011.6895141601562,5897.6806640625,9675.0263671875,7310.70849609375,3097.85205078125,2810.955078125,-8241.3359375,-5652.904296875,7361.57080078125,-584.9202270507812,-2135.435791015625,10321.9345703125,-6093.97900390625,9088.5166015625,7859.8662109375,5706.94580078125,8251.6669921875,2826.849609375,-1544.1575927734375,5617.9365234375,-0.0,4626.115234375,-14968.712890625,2428.690673828125,12966.7919921875,2661.5458984375,-7200.2412109375,4502.1376953125,5018.7109375,3642.2412109375,4304.25,3186.86181640625,-4381.33837890625,-10102.58984375,-5283.35546875,2288.818359375,-4325.7080078125,0.0,-6196.4990234375,0.0,-6930.828125,-10252.79296875,3958.543212890625,-10164.578125,0.0,-13198.05859375,-1583.099365234375,0.0,-6621.6787109375,0.0,5164.94140625,-0.0,-5876.22314453125
-2570.15234375,-3619.194091796875,12151.400390625,-7724.76171875,7734.298828125,2809.365478515625,3573.099853515625,-5530.51611328125,0.0,-5049.70556640625,-2198.21923828125,-11563.30078125,0.0,0.0,0.0,-3514.289794921875,3069.24169921875,11932.849609375,-0.0,-1015.6631469726562,5902.44921875,9680.5888671875,7313.88720703125,3101.82568359375,2819.697021484375,-8233.3876953125,-5646.546875,7363.16064453125,-575.3834838867188,-2102.05712890625,10327.498046875,-6086.826171875,9095.6689453125,7867.0185546875,5710.919921875,8254.845703125,2829.23388671875,-1542.5682373046875,5625.08935546875,-0.0,4632.47314453125,-14959.9716796875,2431.86962890625,12965.9970703125,2660.75146484375,-7203.419921875,4508.4951171875,5025.86376953125,3647.009521484375,4304.25,3188.451171875,-4383.72265625,-10087.490234375,-5271.4345703125,2298.35498046875,-4309.0185546875,0.0,-6196.4990234375,0.0,-6937.98046875,-10248.8203125,3960.927490234375,-10165.3740234375,0.0,-13182.9580078125,-1585.4835205078125,0.0,-6635.18896484375,0.0,5146.662109375,-0.0,-5894.501953125
-2564.58935546875,-3615.22021484375,12158.552734375,-7725.556640625,7737.4775390625,2812.544677734375,3575.484130859375,-5524.15869140625,0.0,-5039.3740234375,-2195.835205078125,-11570.4541015625,0.0,0.0,0.0,-3504.753173828125,3072.4208984375,11936.0283203125,-0.0,-1007.7158203125,5905.62841796875,9680.5888671875,7317.86083984375,3106.593994140625,2823.670654296875,-8229.4150390625,-5642.57275390625,7368.7236328125,-573.7940673828125,-2101.262451171875,10329.8828125,-6085.23681640625,9099.642578125,7869.40283203125,5716.482421875,8258.8193359375,2831.6181640625,-1537.005126953125,5625.8837890625,-0.0,4637.2412109375,-14955.203125,2434.253662109375,12969.1767578125,2665.519775390625,-7192.29345703125,4518.0322265625,5017.12158203125,3652.57275390625,4305.83935546875,3190.835205078125,-4374.98095703125,-10101.794921875,-5282.56103515625,2302.328857421875,-4309.0185546875,0.0,-6184.578125,0.0,-6927.64892578125,-10255.177734375,3965.69580078125,-10159.810546875,0.0,-13184.5478515625,-1591.046630859375,0.0,-6621.6787109375,0.0,5163.3515625,-0.0,-5876.22314453125
-2594.788818359375,-3597.736328125,12165.7060546875,-7717.609375,7742.24609375,2821.286376953125,3577.8681640625,-5521.7744140625,0.0,-5036.1953125,-2210.934814453125,-11566.4794921875,0.0,0.0,0.0,-3500.779296875,3078.778564453125,11942.38671875,-0.0,-1002.9474487304688,5911.19140625,9686.947265625,7322.62939453125,3110.56787109375,2825.26025390625,-8223.8515625,-5642.57275390625,7373.49169921875,-571.4098510742188,-2093.315185546875,10336.240234375,-6077.28955078125,9106.0,7874.9658203125,5721.2509765625,8265.9716796875,2832.41259765625,-1533.031494140625,5636.21533203125,-0.0,4641.21484375,-14947.2548828125,2437.4326171875,12974.7392578125,2667.109130859375,-7186.73095703125,4522.00537109375,5021.09521484375,3658.1357421875,4311.40283203125,3190.835205078125,-4372.5966796875,-10114.5107421875,-5268.255859375,2303.918212890625,-4302.66064453125,0.0,-6180.6044921875,0.0,-6923.67578125,-10265.509765625,3970.464111328125,-10156.6318359375,0.0,-13190.1103515625,-1587.072998046875,0.0,-6624.857421875,0.0,5160.96728515625,-0.0,-5874.6337890625
-2595.583740234375,-3584.225830078125,12172.8583984375,-7711.251953125,7746.2197265625,2823.670654296875,3577.0732421875,-5524.15869140625,0.0,-5041.75830078125,-2210.14013671875,-11554.55859375,0.0,0.0,0.0,-3503.16357421875,3085.93115234375,11947.1552734375,-0.0,-1010.1000366210938,5915.9599609375,9691.71484375,7324.21875,3110.56787109375,2826.849609375,-8219.8779296875,-5641.7783203125,7376.6708984375,-570.6151123046875,-2087.752197265625,10341.0078125,-6067.7529296875,9112.3583984375,7880.5283203125,5724.43017578125,8269.150390625,2832.41259765625,-1533.031494140625,5648.93115234375,-0.0,4645.9833984375,-14946.4609375,2438.227294921875,12977.91796875,2665.519775390625,-7190.7041015625,4526.77392578125,5029.8369140625,3659.72509765625,4316.17138671875,3193.219482421875,-4374.18603515625,-10090.6689453125,-5259.513671875,2304.712890625,-4305.83935546875,0.0,-6183.783203125,0.0,-6930.033203125,-10255.97265625,3972.053466796875,-10158.2216796875,0.0,-13190.1103515625,-1564.02587890625,0.0,-6624.06298828125,0.0,5149.04638671875,-0.0,-5902.44921875
-2597.173095703125,-3598.531005859375,12173.65234375,-7710.45703125,7743.04052734375,2822.8759765625,3574.689208984375,-5525.74755859375,0.0,-5047.3212890625,-2209.345458984375,-11548.99609375,0.0,0.0,0.0,-3503.95849609375,3085.136474609375,11947.1552734375,-0.0,-1013.2789306640625,5915.9599609375,9693.3046875,7322.62939453125,3108.978271484375,2820.49169921875,-8216.6982421875,-5643.36767578125,7377.4658203125,-575.3834838867188,-2089.34130859375,10341.0078125,-6073.31591796875,9110.7685546875,7879.73388671875,5723.63525390625,8267.5615234375,2830.8232421875,-1535.4156494140625,5649.7255859375,-0.0,4644.39404296875,-14946.4609375,2435.84326171875,12978.712890625,2664.72509765625,-7191.4990234375,4531.54248046875,5035.400390625,3655.75146484375,4316.9658203125,3190.835205078125,-4374.18603515625,-10079.54296875,-5265.0771484375,2297.560546875,-4311.40283203125,0.0,-6188.55126953125,0.0,-6932.41748046875,-10233.7197265625,3970.464111328125,-10160.60546875,0.0,-13202.03125,-1552.899658203125,0.0,-6620.8837890625,0.0,5145.86767578125,-0.0,-5923.90673828125
-2590.0205078125,-3607.273193359375,12165.7060546875,-7719.19873046875,7737.4775390625,2816.51806640625,3573.89453125,-5530.51611328125,0.0,-5049.70556640625,-2214.114013671875,-11560.9169921875,0.0,0.0,0.0,-3511.111083984375,3074.804931640625,11940.001953125,-0.0,-1014.868408203125,5911.19140625,9685.357421875,7319.4501953125,3104.2099609375,2814.1337890625,-8227.8251953125,-5647.34130859375,7370.31298828125,-582.5360717773438,-2090.13623046875,10333.85546875,-6084.4423828125,9102.02734375,7870.99169921875,5715.68798828125,8257.2294921875,2828.43896484375,-1540.18408203125,5630.65185546875,-0.0,4635.65185546875,-14956.7919921875,2432.6640625,12972.3544921875,2661.5458984375,-7198.65185546875,4533.92626953125,5025.86376953125,3648.598876953125,4312.197265625,3188.451171875,-4378.95458984375,-10086.6953125,-5265.87158203125,2291.997314453125,-4309.0185546875,0.0,-6196.4990234375,0.0,-6935.5966796875,-10216.236328125,3965.69580078125,-10166.16796875,0.0,-13194.083984375,-1581.5098876953125,0.0,-6630.4208984375,0.0,5143.4833984375,-0.0,-5912.78076171875
-2566.178466796875,-3612.04150390625,12145.8369140625,-7730.3251953125,7730.3251953125,2809.365478515625,3573.099853515625,-5536.07958984375,0.0,-5047.3212890625,-2218.88232421875,-11577.6064453125,0.0,0.0,0.0,-3514.289794921875,3062.884033203125,11932.0556640625,-0.0,-1013.2789306640625,5898.4755859375,9675.8203125,7311.5029296875,3099.44140625,2812.544677734375,-8237.3623046875,-5652.904296875,7365.544921875,-583.330810546875,-2095.69921875,10323.5244140625,-6093.18408203125,9087.7216796875,7859.07080078125,5709.330078125,8248.48828125,2826.849609375,-1545.7471923828125,5610.7841796875,-0.0,4626.90966796875,-14969.5078125,2427.895751953125,12965.9970703125,2660.75146484375,-7201.83056640625,4510.08447265625,5017.916015625,3641.4462890625,4305.04443359375,3188.451171875,-4382.92822265625,-10087.490234375,-5273.81884765625,2289.613037109375,-4308.2236328125,0.0,-6202.8564453125,0.0,-6936.39111328125,-10232.92578125,3959.337646484375,-10167.7578125,0.0,-13191.7001953125,-1595.8150634765625,0.0,-6636.7783203125,0.0,5146.662109375,-0.0,-5895.29638671875
-2539.95263671875,-3619.98876953125,12160.9375,-7723.1728515625,7739.86181640625,2818.107666015625,3573.89453125,-5528.1318359375,0.0,-5036.98974609375,-2201.398193359375,-11575.2216796875,0.0,0.0,0.0,-3501.57421875,3072.4208984375,11939.2080078125,-0.0,-1010.1000366210938,5909.6015625,9687.7412109375,7319.4501953125,3107.388671875,2826.054931640625,-8228.619140625,-5646.546875,7375.8759765625,-570.6151123046875,-2086.16259765625,10333.0615234375,-6090.7998046875,9101.2314453125,7868.607421875,5717.27734375,8258.8193359375,2830.028564453125,-1537.7998046875,5625.08935546875,-0.0,4641.21484375,-14959.9716796875,2435.04833984375,12975.533203125,2661.5458984375,-7192.29345703125,4521.2109375,5024.2744140625,3652.57275390625,4315.37646484375,3187.656494140625,-4373.3916015625,-10070.0068359375,-5276.998046875,2302.328857421875,-4297.09765625,0.0,-6191.73046875,0.0,-6924.47021484375,-10247.23046875,3967.28515625,-10159.810546875,0.0,-13186.13671875,-1587.86767578125,0.0,-6628.83154296875,0.0,5159.3779296875,-0.0,-5888.14404296875
-2546.310546875,-3638.267578125,12156.1689453125,-7728.7353515625,7736.68310546875,2812.544677734375,3572.304931640625,-5533.6953125,0.0,-5042.552734375,-2198.21923828125,-11591.9111328125,0.0,0.0,0.0,-3511.111083984375,3069.24169921875,11936.0283203125,-0.0,-1012.4841918945312,5903.244140625,9679.0,7316.271484375,3101.82568359375,2820.49169921875,-8232.59375,-5646.546875,7368.7236328125,-576.9729614257812,-2093.315185546875,10327.498046875,-6095.568359375,9095.6689453125,7864.63427734375,5712.50927734375,8254.845703125,2827.644287109375,-1541.7734375,5617.9365234375,-0.0,4635.65185546875,-14966.3291015625,2432.6640625,12969.970703125,2662.3408203125,-7199.4462890625,4514.05859375,5014.73779296875,3650.1884765625,4310.60791015625,3188.451171875,-4379.74951171875,-10071.5947265625,-5291.30322265625,2296.765625,-4309.0185546875,0.0,-6201.26708984375,0.0,-6930.828125,-10256.767578125,3962.516845703125,-10165.3740234375,0.0,-13200.4423828125,-1602.1728515625,0.0,-6643.13671875,0.0,5149.04638671875,-0.0,-5894.501953125
-2572.536376953125,-3647.009521484375,12141.068359375,-7733.50390625,7730.3251953125,2810.160400390625,3571.51025390625,-5534.490234375,0.0,-5046.5263671875,-2219.677001953125,-11591.1171875,0.0,0.0,0.0,-3510.316162109375,3062.884033203125,11928.8759765625,-0.0,-1012.4841918945312,5895.29638671875,9672.6416015625,7309.91357421875,3098.64697265625,2811.749755859375,-8232.59375,-5648.13623046875,7367.92919921875,-584.12548828125,-2098.08349609375,10321.140625,-6097.9521484375,9084.5419921875,7858.2763671875,5706.94580078125,8250.873046875,2826.054931640625,-1545.7471923828125,5614.75732421875,-0.0,4626.115234375,-14968.712890625,2429.4853515625,12967.5869140625,2659.161865234375,-7201.0361328125,4498.95849609375,5007.5849609375,3644.62548828125,4310.60791015625,3188.451171875,-4381.33837890625,-10088.2841796875,-5297.66064453125,2288.023681640625,-4302.66064453125,0.0,-6199.677734375,0.0,-6934.00732421875,-10279.01953125,3957.74853515625,-10168.552734375,0.0,-13198.8525390625,-1589.4571533203125,0.0,-6643.13671875,0.0,5145.07275390625,-0.0,-5887.349609375
-2582.0732421875,-3625.552001953125,12152.1953125,-7723.1728515625,7736.68310546875,2822.081298828125,3573.89453125,-5524.953125,0.0,-5036.98974609375,-2232.392578125,-11576.0166015625,0.0,0.0,0.0,-3492.832275390625,3070.831298828125,11937.6181640625,-0.0,-1009.3053588867188,5904.83349609375,9682.97265625,7316.271484375,3107.388671875,2819.697021484375,-8227.0302734375,-5648.13623046875,7381.439453125,-575.3834838867188,-2095.69921875,10329.8828125,-6090.00537109375,9095.6689453125,7870.197265625,5714.0986328125,8258.025390625,2830.028564453125,-1537.7998046875,5620.32080078125,-0.0,4633.26806640625,-14960.765625,2431.86962890625,12979.5078125,2662.3408203125,-7191.4990234375,4509.2900390625,5018.7109375,3647.80419921875,4324.1181640625,3187.656494140625,-4368.623046875,-10093.052734375,-5284.94482421875,2294.38134765625,-4305.04443359375,0.0,-6184.578125,0.0,-6921.29150390625,-10282.19921875,3965.69580078125,-10161.3994140625,0.0,-13184.5478515625,-1565.6153564453125,0.0,-6616.11572265625,0.0,5168.9150390625,-0.0,-5870.66015625
-2590.815185546875,-3612.836181640625,12159.34765625,-7718.404296875,7738.27197265625,2826.849609375,3575.484130859375,-5522.5693359375,0.0,-5038.57958984375,-2220.4716796875,-11593.5009765625,0.0,0.0,0.0,-3492.832275390625,3075.599609375,11940.796875,-0.0,-1008.5106201171875,5907.21728515625,9686.947265625,7321.03955078125,3111.362548828125,2816.51806640625,-8220.6728515625,-5648.93115234375,7390.97607421875,-579.357177734375,-2104.44140625,10335.4453125,-6088.41552734375,9101.2314453125,7872.58154296875,5716.482421875,8263.587890625,2830.8232421875,-1533.826171875,5627.47314453125,-0.0,4635.65185546875,-14959.9716796875,2435.04833984375,12986.66015625,2664.72509765625,-7190.7041015625,4518.0322265625,5026.65869140625,3647.009521484375,4336.0390625,3189.245849609375,-4365.4443359375,-10095.4375,-5276.998046875,2292.7919921875,-4293.12353515625,0.0,-6176.63037109375,0.0,-6923.67578125,-10267.0986328125,3969.66943359375,-10159.810546875,0.0,-13190.9052734375,-1602.1728515625,0.0,-6611.34716796875,0.0,5172.88818359375,-0.0,-5884.17041015625
-2599.55712890625,-3617.6044921875,12152.1953125,-7735.09375,7733.50390625,2806.186767578125,3571.51025390625,-5540.84765625,0.0,-5052.884765625,-2216.498046875,-11602.2421875,0.0,0.0,0.0,-3520.647705078125,3066.857666015625,11930.4658203125,-0.0,-1017.2525634765625,5900.06494140625,9675.8203125,7312.2978515625,3097.057373046875,2810.160400390625,-8244.5146484375,-5652.10986328125,7363.16064453125,-586.5097045898438,-2119.541259765625,10325.908203125,-6095.568359375,9095.6689453125,7860.66064453125,5708.53564453125,8250.0771484375,2826.849609375,-1546.5418701171875,5637.01025390625,-0.0,4630.8837890625,-14978.25,2430.280029296875,12965.9970703125,2660.75146484375,-7207.3935546875,4510.08447265625,5016.3271484375,3642.2412109375,4306.63427734375,3187.656494140625,-4386.10693359375,-10097.0263671875,-5281.7666015625,2287.228759765625,-4313.787109375,0.0,-6207.625,0.0,-6945.13330078125,-10271.8671875,3956.95361328125,-10170.9365234375,0.0,-13197.2626953125,-1595.8150634765625,0.0,-6631.21533203125,0.0,5148.251953125,-0.0,-5908.01220703125
-2600.35205078125,-3631.114990234375,12151.400390625,-7743.04052734375,7732.70947265625,2794.265625,3571.51025390625,-5549.58984375,0.0,-5052.884765625,-2213.319091796875,-11591.1171875,0.0,0.0,0.0,-3526.210693359375,3061.29443359375,11924.107421875,-0.0,-1018.04736328125,5896.88623046875,9668.66796875,7306.734375,3089.90478515625,2810.955078125,-8259.6142578125,-5651.3154296875,7348.85546875,-584.12548828125,-2121.130615234375,10319.55078125,-6101.13134765625,9090.1064453125,7853.5078125,5705.3564453125,8239.74609375,2827.644287109375,-1552.899658203125,5624.29443359375,-0.0,4629.2939453125,-14991.759765625,2427.895751953125,12954.076171875,2659.956787109375,-7212.162109375,4515.64794921875,5009.96923828125,3641.4462890625,4285.97119140625,3187.656494140625,-4395.6435546875,-10121.6630859375,-5296.0712890625,2289.613037109375,-4320.939453125,0.0,-6224.314453125,0.0,-6947.517578125,-10285.3779296875,3950.595947265625,-10173.3203125,0.0,-13209.18359375,-1595.020263671875,0.0,-6639.95751953125,0.0,5149.84130859375,-0.0,-5902.44921875
-2586.841552734375,-3644.62548828125,12152.1953125,-7740.65625,7735.88818359375,2799.0341796875,3572.304931640625,-5546.4111328125,0.0,-5051.294921875,-2194.24560546875,-11596.6796875,0.0,0.0,0.0,-3522.237060546875,3060.5,11926.4921875,-0.0,-1015.6631469726562,5899.2705078125,9668.66796875,7312.2978515625,3093.083740234375,2815.723388671875,-8257.2294921875,-5648.93115234375,7356.80224609375,-580.15185546875,-2121.130615234375,10321.140625,-6105.10498046875,9089.310546875,7854.30224609375,5706.94580078125,8239.74609375,2827.644287109375,-1550.5155029296875,5615.55224609375,-0.0,4630.8837890625,-14991.759765625,2429.4853515625,12959.6396484375,2661.5458984375,-7210.57275390625,4521.2109375,5007.5849609375,3643.035888671875,4294.71337890625,3186.86181640625,-4390.0810546875,-10113.7158203125,-5327.06591796875,2292.7919921875,-4327.29736328125,0.0,-6222.72509765625,0.0,-6944.33837890625,-10266.3037109375,3954.5693359375,-10172.5263671875,0.0,-13217.1318359375,-1603.7623291015625,0.0,-6640.75244140625,0.0,5151.4306640625,-0.0,-5898.4755859375
-2579.68896484375,-3631.90966796875,12149.0166015625,-7731.91455078125,7738.27197265625,2808.57080078125,3571.51025390625,-5539.25830078125,0.0,-5048.91064453125,-2208.55078125,-11601.4482421875,0.0,0.0,0.0,-3513.4951171875,3066.06298828125,11932.849609375,-0.0,-1014.868408203125,5900.06494140625,9676.615234375,7317.06640625,3101.82568359375,2817.31298828125,-8240.5400390625,-5644.95703125,7367.92919921875,-579.357177734375,-2116.3623046875,10326.703125,-6097.9521484375,9090.900390625,7863.83935546875,5711.71435546875,8250.873046875,2828.43896484375,-1544.952392578125,5615.55224609375,-0.0,4631.67822265625,-14978.25,2431.86962890625,12969.1767578125,2659.161865234375,-7205.80419921875,4506.90625,5018.7109375,3643.83056640625,4306.63427734375,3187.656494140625,-4382.92822265625,-10093.8486328125,-5313.55517578125,2294.38134765625,-4318.55517578125,0.0,-6212.39306640625,0.0,-6938.775390625,-10246.4365234375,3960.132568359375,-10169.3466796875,0.0,-13190.1103515625,-1593.430908203125,0.0,-6623.26806640625,0.0,5156.99365234375,-0.0,-5896.09130859375
-2576.51025390625,-3603.29931640625,12156.1689453125,-7713.6357421875,7741.451171875,2820.49169921875,3571.51025390625,-5525.74755859375,0.0,-5037.78466796875,-2214.90869140625,-11580.78515625,0.0,0.0,0.0,-3499.98486328125,3076.394287109375,11941.591796875,-0.0,-1011.6895141601562,5908.01220703125,9690.9208984375,7323.423828125,3112.951904296875,2819.697021484375,-8219.0830078125,-5643.36767578125,7379.05517578125,-576.9729614257812,-2106.03076171875,10337.03515625,-6083.6474609375,9098.84765625,7878.939453125,5720.45654296875,8265.177734375,2829.23388671875,-1535.4156494140625,5619.52587890625,-0.0,4636.4462890625,-14956.7919921875,2434.253662109375,12982.6865234375,2659.161865234375,-7195.47265625,4509.2900390625,5039.3740234375,3646.21484375,4320.14453125,3186.86181640625,-4369.41748046875,-10077.1591796875,-5292.892578125,2295.970947265625,-4318.55517578125,0.0,-6194.11474609375,0.0,-6923.67578125,-10264.7138671875,3968.87451171875,-10161.3994140625,0.0,-13182.1630859375,-1583.099365234375,0.0,-6613.7314453125,0.0,5166.53076171875,-0.0,-5880.99169921875
-2580.483642578125,-3596.146728515625,12163.3212890625,-7700.919921875,7745.4248046875,2826.849609375,3573.099853515625,-5521.7744140625,0.0,-5034.60546875,-2203.7822265625,-11587.9375,0.0,0.0,0.0,-3492.832275390625,3082.752197265625,11946.3603515625,-0.0,-1010.894775390625,5911.98583984375,9696.4833984375,7325.80810546875,3116.925537109375,2822.081298828125,-8200.8046875,-5643.36767578125,7384.6181640625,-572.9993286132812,-2133.84619140625,10341.0078125,-6081.26318359375,9104.4111328125,7885.296875,5724.43017578125,8269.150390625,2830.8232421875,-1533.826171875,5622.705078125,-0.0,4641.21484375,-14945.666015625,2435.84326171875,12988.25,2660.75146484375,-7189.90966796875,4518.8271484375,5067.189453125,3646.21484375,4327.29736328125,3188.451171875,-4366.2392578125,-10081.927734375,-5278.58740234375,2299.149658203125,-4318.55517578125,0.0,-6186.16748046875,0.0,-6918.1123046875,-10264.7138671875,3971.258544921875,-10159.810546875,0.0,-13196.46875,-1584.6888427734375,0.0,-6626.447265625,0.0,5164.146484375,-0.0,-5884.17041015625
-2578.099609375,-3597.736328125,12165.7060546875,-7701.71484375,7745.4248046875,2827.644287109375,3574.689208984375,-5528.1318359375,0.0,-5040.1689453125,-2194.24560546875,-11586.3486328125,0.0,0.0,0.0,-3501.57421875,3085.93115234375,11943.9765625,-0.0,-1014.07373046875,5914.3701171875,9695.689453125,7324.21875,3115.336181640625,2822.8759765625,-8207.95703125,-5643.36767578125,7385.41259765625,-572.20458984375,-2082.983642578125,10341.0078125,-6077.28955078125,9108.3837890625,7886.88671875,5722.8408203125,8266.7666015625,2830.028564453125,-1535.4156494140625,5635.42041015625,-0.0,4642.8046875,-14952.0234375,2435.04833984375,12987.4541015625,2663.135498046875,-7196.267578125,4522.00537109375,5083.083984375,3645.420166015625,4331.2705078125,3189.245849609375,-4371.00732421875,-10090.6689453125,-5256.3349609375,2299.149658203125,-4280.408203125,0.0,-6186.9619140625,0.0,-6930.033203125,-10241.66796875,3970.464111328125,-10163.7841796875,0.0,-13195.673828125,-1571.178466796875,0.0,-6635.98388671875,0.0,5157.78857421875,-0.0,-5893.70703125
-2574.1259765625,-3616.809814453125,12164.1162109375,-7737.4775390625,7745.4248046875,2806.186767578125,3574.689208984375,-5540.052734375,0.0,-5045.73193359375,-2209.345458984375,-11568.8642578125,0.0,0.0,0.0,-3516.674072265625,3074.01025390625,11938.4130859375,-0.0,-1014.07373046875,5908.80712890625,9676.615234375,7321.83447265625,3105.004638671875,2824.465576171875,-8263.587890625,-5642.57275390625,7369.51806640625,-572.20458984375,-2068.6787109375,10329.8828125,-6089.21044921875,9102.02734375,7868.607421875,5718.86669921875,8250.873046875,2830.8232421875,-1543.3629150390625,5631.44677734375,-0.0,4641.21484375,-14990.9658203125,2434.253662109375,12971.560546875,2664.72509765625,-7205.80419921875,4518.8271484375,5007.5849609375,3645.420166015625,4303.45556640625,3189.245849609375,-4382.92822265625,-10089.8740234375,-5281.7666015625,2299.944580078125,-4301.0712890625,0.0,-6203.6513671875,0.0,-6938.775390625,-10254.3828125,3964.106201171875,-10166.962890625,0.0,-13188.521484375,-1571.178466796875,0.0,-6626.447265625,0.0,5153.0205078125,-0.0,-5889.73388671875
-2566.178466796875,-3623.167724609375,12159.34765625,-7739.86181640625,7745.4248046875,2807.776123046875,3574.689208984375,-5536.87451171875,0.0,-5045.73193359375,-2220.4716796875,-11565.685546875,0.0,0.0,0.0,-3508.726806640625,3073.215576171875,11936.0283203125,-0.0,-1014.07373046875,5907.21728515625,9674.2314453125,7321.83447265625,3104.2099609375,2822.8759765625,-8259.6142578125,-5644.16259765625,7369.51806640625,-575.3834838867188,-2093.315185546875,10329.8828125,-6088.41552734375,9099.642578125,7868.607421875,5719.66162109375,8250.0771484375,2830.8232421875,-1540.978759765625,5625.8837890625,-0.0,4642.009765625,-14992.5546875,2434.253662109375,12972.3544921875,2664.72509765625,-7204.21435546875,4520.416015625,4989.30615234375,3643.035888671875,4303.45556640625,3189.245849609375,-4379.74951171875,-10076.36328125,-5296.86572265625,2298.35498046875,-4308.2236328125,0.0,-6202.8564453125,0.0,-6934.00732421875,-10272.662109375,3963.311767578125,-10166.16796875,0.0,-13181.369140625,-1579.92041015625,0.0,-6610.55224609375,0.0,5168.1201171875,-0.0,-5891.3232421875
-2566.973388671875,-3621.578125,12151.400390625,-7725.556640625,7743.04052734375,2817.31298828125,3574.689208984375,-5529.7216796875,0.0,-5036.98974609375,-2222.855712890625,-11566.4794921875,0.0,0.0,0.0,-3498.395263671875,3073.215576171875,11936.82421875,-0.0,-1010.1000366210938,5906.4228515625,9680.5888671875,7322.62939453125,3108.978271484375,2814.9287109375,-8233.3876953125,-5647.34130859375,7374.28662109375,-580.15185546875,-2087.752197265625,10332.2666015625,-6087.62109375,9095.6689453125,7874.17138671875,5718.86669921875,8258.8193359375,2830.028564453125,-1536.21044921875,5615.55224609375,-0.0,4636.4462890625,-14974.2763671875,2433.458984375,12977.123046875,2665.519775390625,-7197.06201171875,4507.70068359375,5017.916015625,3639.062255859375,4316.17138671875,3189.245849609375,-4371.8017578125,-10095.4375,-5282.56103515625,2291.997314453125,-4301.8662109375,0.0,-6192.525390625,0.0,-6923.67578125,-10267.0986328125,3964.106201171875,-10162.1943359375,0.0,-13200.4423828125,-1583.099365234375,0.0,-6608.962890625,0.0,5181.63037109375,-0.0,-5882.5810546875
-2572.536376953125,-3614.42578125,12155.3740234375,-7706.4833984375,7747.0146484375,2835.591552734375,3575.484130859375,-5517.80078125,0.0,-5031.4267578125,-2217.292724609375,-11603.0380859375,0.0,0.0,0.0,-3485.6796875,3078.778564453125,11944.7705078125,-0.0,-1004.5369873046875,5912.78076171875,9697.2783203125,7328.1923828125,3120.899169921875,2814.9287109375,-8190.47265625,-5646.546875,7390.18115234375,-580.9465942382812,-2068.6787109375,10339.4189453125,-6082.85302734375,9102.02734375,7886.09228515625,5725.22509765625,8271.53515625,2832.41259765625,-1529.057861328125,5616.3466796875,-0.0,4642.8046875,-14945.666015625,2437.4326171875,12993.0185546875,2666.314453125,-7188.3203125,4509.2900390625,5041.75830078125,3639.062255859375,4338.42333984375,3190.835205078125,-4361.470703125,-10121.6630859375,-5277.79248046875,2293.586669921875,-4274.84521484375,0.0,-6179.8095703125,0.0,-6914.138671875,-10245.640625,3972.053466796875,-10155.8369140625,0.0,-13212.36328125,-1587.86767578125,0.0,-6618.5,0.0,5180.8359375,-0.0,-5870.66015625
-2582.0732421875,-3610.451904296875,12170.4736328125,-7697.7412109375,7752.5771484375,2843.5390625,3576.27880859375,-5510.6484375,0.0,-5033.81103515625,-2206.96142578125,-11605.421875,0.0,0.0,0.0,-3480.11669921875,3087.5205078125,11953.5126953125,-0.0,-1007.7158203125,5919.93310546875,9705.2255859375,7332.96044921875,3129.641357421875,2821.286376953125,-8171.39892578125,-5643.36767578125,7398.92333984375,-572.9993286132812,-2059.141845703125,10348.1611328125,-6077.28955078125,9111.5634765625,7896.42333984375,5730.78759765625,8282.6611328125,2833.207275390625,-1523.4947509765625,5637.01025390625,-0.0,4652.34130859375,-14927.3876953125,2440.611572265625,13000.1708984375,2665.519775390625,-7182.7568359375,4525.9794921875,5052.08984375,3644.62548828125,4346.37060546875,3191.630126953125,-4355.11279296875,-10101.794921875,-5278.58740234375,2300.7392578125,-4260.5400390625,0.0,-6171.06787109375,0.0,-6908.57568359375,-10244.0517578125,3979.2060546875,-10154.2470703125,0.0,-13194.87890625,-1580.7152099609375,0.0,-6604.19482421875,0.0,5172.09375,-0.0,-5887.349609375
-2580.483642578125,-3611.246826171875,12173.65234375,-7728.7353515625,7754.1669921875,2811.749755859375,3576.27880859375,-5523.36376953125,0.0,-5033.01611328125,-2200.603515625,-11543.43359375,0.0,0.0,0.0,-3499.190185546875,3078.778564453125,11945.5654296875,-0.0,-1006.921142578125,5918.34423828125,9686.15234375,7328.9873046875,3116.130859375,2825.26025390625,-8251.6669921875,-5642.57275390625,7374.28662109375,-572.20458984375,-2118.74658203125,10338.6240234375,-6084.4423828125,9109.9736328125,7878.939453125,5728.40380859375,8265.9716796875,2831.6181640625,-1535.4156494140625,5638.599609375,-0.0,4655.52001953125,-14963.9443359375,2440.611572265625,12978.712890625,2664.72509765625,-7190.7041015625,4537.10546875,5004.40576171875,3647.009521484375,4306.63427734375,3192.4248046875,-4372.5966796875,-10081.1318359375,-5278.58740234375,2301.533935546875,-4327.29736328125,0.0,-6190.14111328125,0.0,-6920.49658203125,-10249.6142578125,3968.87451171875,-10159.015625,0.0,-13205.2109375,-1574.357421875,0.0,-6604.19482421875,0.0,5173.68310546875,-0.0,-5875.4287109375
-2597.173095703125,-3623.96240234375,12169.6787109375,-7735.09375,7753.3720703125,2808.57080078125,3574.689208984375,-5529.7216796875,0.0,-5034.60546875,-2206.16650390625,-11577.6064453125,0.0,0.0,0.0,-3506.342529296875,3074.01025390625,11939.2080078125,-0.0,-1008.5106201171875,5913.57568359375,9679.7939453125,7325.80810546875,3112.1572265625,2824.465576171875,-8249.283203125,-5643.36767578125,7368.7236328125,-571.4098510742188,-2117.95166015625,10333.0615234375,-6092.3896484375,9105.205078125,7874.17138671875,5726.814453125,8261.2041015625,2831.6181640625,-1540.978759765625,5637.8046875,-0.0,4653.1357421875,-14962.35546875,2439.02197265625,12974.7392578125,2663.135498046875,-7193.88330078125,4531.54248046875,5002.02197265625,3647.009521484375,4303.45556640625,3191.630126953125,-4377.365234375,-10086.6953125,-5291.30322265625,2301.533935546875,-4307.4287109375,0.0,-6192.525390625,0.0,-6925.2646484375,-10265.509765625,3965.69580078125,-10162.9892578125,0.0,-13213.1572265625,-1576.7415771484375,0.0,-6619.29443359375,0.0,5172.09375,-0.0,-5866.6865234375
-2616.24658203125,-3624.757080078125,12166.5,-7731.11962890625,7748.60400390625,2811.749755859375,3573.099853515625,-5529.7216796875,0.0,-5031.4267578125,-2212.5244140625,-11577.6064453125,0.0,0.0,0.0,-3503.16357421875,3074.01025390625,11937.6181640625,-0.0,-1006.921142578125,5911.19140625,9681.3837890625,7323.423828125,3111.362548828125,2819.697021484375,-8237.3623046875,-5645.751953125,7369.51806640625,-576.9729614257812,-2117.95166015625,10331.4716796875,-6089.21044921875,9104.4111328125,7874.9658203125,5723.63525390625,8261.998046875,2830.8232421875,-1540.18408203125,5646.546875,-0.0,4648.3671875,-14956.7919921875,2436.637939453125,12974.7392578125,2663.135498046875,-7192.29345703125,4520.416015625,5008.37939453125,3638.267578125,4307.4287109375,3190.04052734375,-4375.77587890625,-10077.1591796875,-5295.27685546875,2296.765625,-4309.81298828125,0.0,-6190.935546875,0.0,-6923.67578125,-10267.0986328125,3964.90087890625,-10162.9892578125,0.0,-13176.6005859375,-1583.8941650390625,0.0,-6614.5263671875,0.0,5174.47802734375,-0.0,-5859.53369140625
-2613.067626953125,-3620.783447265625,12156.1689453125,-7728.7353515625,7746.2197265625,2810.160400390625,3573.89453125,-5531.31103515625,0.0,-5036.1953125,-2209.345458984375,-11567.275390625,0.0,0.0,0.0,-3502.368896484375,3074.01025390625,11936.82421875,-0.0,-1009.3053588867188,5908.01220703125,9681.3837890625,7323.423828125,3108.978271484375,2818.90234375,-8239.74609375,-5644.16259765625,7368.7236328125,-577.7677001953125,-2121.92529296875,10330.6767578125,-6084.4423828125,9100.4375,7874.9658203125,5722.0458984375,8256.435546875,2830.028564453125,-1542.5682373046875,5633.8310546875,-0.0,4639.62548828125,-14959.9716796875,2435.04833984375,12973.1494140625,2663.135498046875,-7193.88330078125,4505.31640625,5014.73779296875,3633.4990234375,4305.83935546875,3190.04052734375,-4377.365234375,-10086.6953125,-5290.50830078125,2295.970947265625,-4321.73388671875,0.0,-6195.7041015625,0.0,-6923.67578125,-10271.072265625,3962.516845703125,-10166.16796875,0.0,-13176.6005859375,-1587.072998046875,0.0,-6615.32080078125,0.0,5171.298828125,-0.0,-5861.12353515625
-2581.278564453125,-3612.04150390625,12153.78515625,-7721.5830078125,7745.4248046875,2814.1337890625,3577.0732421875,-5530.51611328125,0.0,-5036.98974609375,-2216.498046875,-11566.4794921875,0.0,0.0,0.0,-3501.57421875,3074.01025390625,11938.4130859375,-0.0,-1010.894775390625,5906.4228515625,9684.5625,7325.013671875,3111.362548828125,2818.107666015625,-8230.208984375,-5640.1884765625,7373.49169921875,-579.357177734375,-2108.414794921875,10332.2666015625,-6082.85302734375,9098.84765625,7878.939453125,5721.2509765625,8254.845703125,2831.6181640625,-1541.7734375,5617.1416015625,-0.0,4636.4462890625,-14957.5869140625,2435.04833984375,12975.533203125,2664.72509765625,-7194.677734375,4501.3427734375,5030.6318359375,3630.3203125,4313.787109375,3191.630126953125,-4373.3916015625,-10093.8486328125,-5275.408203125,2294.38134765625,-4307.4287109375,0.0,-6192.525390625,0.0,-6923.67578125,-10293.32421875,3963.311767578125,-10167.7578125,0.0,-13180.5732421875,-1580.7152099609375,0.0,-6611.34716796875,0.0,5169.70947265625,-0.0,-5862.712890625
-2580.483642578125,-3610.451904296875,12156.962890625,-7727.94091796875,7747.0146484375,2806.9814453125,3573.099853515625,-5541.642578125,0.0,-5052.08984375,-2210.14013671875,-11574.427734375,0.0,0.0,0.0,-3515.08447265625,3070.831298828125,11934.439453125,-0.0,-1022.0209350585938,5904.83349609375,9681.3837890625,7321.03955078125,3104.2099609375,2820.49169921875,-8236.5673828125,-5640.1884765625,7363.955078125,-574.5887451171875,-2105.236083984375,10326.703125,-6087.62109375,9097.2587890625,7874.9658203125,5721.2509765625,8252.4619140625,2826.849609375,-1548.13134765625,5614.75732421875,-0.0,4638.83056640625,-14966.3291015625,2433.458984375,12969.970703125,2662.3408203125,-7206.5986328125,4514.85302734375,5026.65869140625,3630.3203125,4308.2236328125,3188.451171875,-4385.3125,-10093.8486328125,-5276.203125,2298.35498046875,-4315.37646484375,0.0,-6206.03564453125,0.0,-6940.36474609375,-10302.861328125,3957.74853515625,-10174.91015625,0.0,-13186.13671875,-1591.84130859375,0.0,-6628.83154296875,0.0,5152.2255859375,-0.0,-5900.85986328125
-2586.046875,-3618.3994140625,12149.0166015625,-7736.68310546875,7741.451171875,2803.802490234375,3572.304931640625,-5544.8212890625,0.0,-5056.06298828125,-2222.855712890625,-11583.9638671875,0.0,0.0,0.0,-3519.852783203125,3065.268310546875,11931.259765625,-0.0,-1023.6104736328125,5900.06494140625,9675.8203125,7318.6552734375,3100.236083984375,2813.33935546875,-8245.30859375,-5645.751953125,7359.9814453125,-584.12548828125,-2109.209716796875,10322.73046875,-6098.7470703125,9090.1064453125,7866.22314453125,5718.072265625,8250.0771484375,2826.054931640625,-1552.10498046875,5609.9892578125,-0.0,4634.857421875,-14974.2763671875,2431.86962890625,12968.380859375,2660.75146484375,-7208.98291015625,4506.90625,5011.55859375,3622.372802734375,4303.45556640625,3187.656494140625,-4387.69677734375,-10098.6162109375,-5289.71337890625,2291.997314453125,-4320.939453125,0.0,-6211.5986328125,0.0,-6945.13330078125,-10271.072265625,3955.3642578125,-10174.115234375,0.0,-13190.1103515625,-1595.8150634765625,0.0,-6642.341796875,0.0,5137.12548828125,-0.0,-5926.291015625
-2593.994140625,-3627.93603515625,12146.6318359375,-7728.7353515625,7738.27197265625,2810.160400390625,3573.89453125,-5540.052734375,0.0,-5048.91064453125,-2229.213623046875,-11582.375,0.0,0.0,0.0,-3511.111083984375,3064.473388671875,11933.64453125,-0.0,-1018.8421020507812,5900.06494140625,9678.2041015625,7320.2451171875,3104.2099609375,2805.39208984375,-8234.18359375,-5652.10986328125,7369.51806640625,-593.6622314453125,-2090.13623046875,10326.703125,-6100.33642578125,9089.310546875,7867.0185546875,5715.68798828125,8253.2568359375,2829.23388671875,-1548.926025390625,5608.39990234375,-0.0,4630.8837890625,-14968.712890625,2431.074951171875,12973.1494140625,2660.75146484375,-7204.21435546875,4504.52197265625,5027.453125,3615.22021484375,4312.9921875,3188.451171875,-4380.5439453125,-10108.1533203125,-5287.3291015625,2282.46044921875,-4309.81298828125,0.0,-6202.8564453125,0.0,-6935.5966796875,-10259.1513671875,3958.543212890625,-10171.7314453125,0.0,-13203.62109375,-1582.3045654296875,0.0,-6628.03662109375,0.0,5149.84130859375,-0.0,-5912.78076171875
-2585.251953125,-3612.04150390625,12157.7578125,-7702.50927734375,7745.4248046875,2823.670654296875,3573.89453125,-5536.87451171875,0.0,-5054.4736328125,-2218.08740234375,-11589.52734375,0.0,0.0,0.0,-3518.263671875,3079.573486328125,11941.591796875,-0.0,-1021.2262573242188,5910.396484375,9693.3046875,7326.60302734375,3112.1572265625,2810.955078125,-8208.751953125,-5650.5205078125,7377.4658203125,-585.7149658203125,-2034.505126953125,10337.03515625,-6084.4423828125,9102.02734375,7886.09228515625,5723.63525390625,8263.587890625,2829.23388671875,-1544.1575927734375,5633.0361328125,-0.0,4642.8046875,-14946.4609375,2434.253662109375,12980.3017578125,2661.5458984375,-7205.80419921875,4516.44287109375,5066.39501953125,3620.783447265625,4328.09228515625,3188.451171875,-4382.13330078125,-10088.2841796875,-5253.15625,2289.613037109375,-4274.84521484375,0.0,-6201.26708984375,0.0,-6945.92822265625,-10246.4365234375,3964.106201171875,-10172.5263671875,0.0,-13194.083984375,-1566.4100341796875,0.0,-6643.93115234375,0.0,5137.92041015625,-0.0,-5920.72802734375
-2570.15234375,-3604.09423828125,12168.08984375,-7714.43017578125,7753.3720703125,2820.49169921875,3572.304931640625,-5537.6689453125,0.0,-5060.037109375,-2200.603515625,-11543.43359375,0.0,0.0,0.0,-3519.05810546875,3081.16259765625,11943.1806640625,-0.0,-1022.815673828125,5912.78076171875,9690.9208984375,7328.1923828125,3110.56787109375,2822.8759765625,-8228.619140625,-5645.751953125,7374.28662109375,-573.7940673828125,-2086.16259765625,10337.830078125,-6080.46875,9109.1796875,7884.50244140625,5725.22509765625,8262.7939453125,2830.8232421875,-1545.7471923828125,5642.57275390625,-0.0,4648.3671875,-14951.2294921875,2434.253662109375,12978.712890625,2661.5458984375,-7208.1884765625,4528.36376953125,5029.8369140625,3627.93603515625,4322.52880859375,3187.656494140625,-4382.92822265625,-10063.6484375,-5261.89794921875,2299.944580078125,-4286.76611328125,0.0,-6205.24072265625,0.0,-6949.9013671875,-10235.3095703125,3964.106201171875,-10172.5263671875,0.0,-13181.369140625,-1557.6680908203125,0.0,-6648.69921875,0.0,5124.41015625,-0.0,-5931.8544921875
-2564.58935546875,-3611.246826171875,12170.4736328125,-7719.19873046875,7756.55126953125,2818.107666015625,3574.689208984375,-5538.46337890625,0.0,-5056.06298828125,-2195.04052734375,-11564.890625,0.0,0.0,0.0,-3515.87939453125,3081.16259765625,11943.9765625,-0.0,-1019.6367797851562,5915.1650390625,9690.125,7328.9873046875,3111.362548828125,2825.26025390625,-8242.1298828125,-5640.1884765625,7369.51806640625,-572.20458984375,-2140.2041015625,10336.240234375,-6079.673828125,9112.3583984375,7882.1181640625,5726.814453125,8263.587890625,2830.028564453125,-1543.3629150390625,5644.95703125,-0.0,4650.75146484375,-14949.6396484375,2438.227294921875,12976.3291015625,2663.135498046875,-7204.21435546875,4528.36376953125,5025.86376953125,3631.90966796875,4312.9921875,3190.04052734375,-4382.13330078125,-10059.673828125,-5293.6875,2303.12353515625,-4338.42333984375,0.0,-6213.98291015625,0.0,-6943.5439453125,-10251.2041015625,3964.90087890625,-10167.7578125,0.0,-13185.341796875,-1598.993896484375,0.0,-6638.3681640625,0.0,5138.71533203125,-0.0,-5920.72802734375
-2573.3310546875,-3625.552001953125,12166.5,-7732.70947265625,7754.96142578125,2807.776123046875,3574.689208984375,-5544.8212890625,0.0,-5057.65283203125,-2208.55078125,-11592.7060546875,0.0,0.0,0.0,-3521.4423828125,3076.394287109375,11936.0283203125,-0.0,-1021.2262573242188,5911.19140625,9681.3837890625,7325.80810546875,3105.004638671875,2820.49169921875,-8254.845703125,-5642.57275390625,7362.36572265625,-576.9729614257812,-2116.3623046875,10331.4716796875,-6085.23681640625,9106.0,7872.58154296875,5722.8408203125,8254.845703125,2828.43896484375,-1546.5418701171875,5639.39404296875,-0.0,4645.9833984375,-14974.2763671875,2437.4326171875,12969.1767578125,2663.135498046875,-7208.1884765625,4520.416015625,5021.89013671875,3628.730712890625,4305.04443359375,3186.86181640625,-4386.90185546875,-10081.927734375,-5317.529296875,2297.560546875,-4322.52880859375,0.0,-6221.93017578125,0.0,-6947.517578125,-10279.01953125,3960.927490234375,-10170.9365234375,0.0,-13203.62109375,-1607.7359619140625,0.0,-6640.75244140625,0.0,5143.4833984375,-0.0,-5915.9599609375
-2582.867919921875,-3641.4462890625,12175.2421875,-7732.70947265625,7758.935546875,2800.62353515625,3573.099853515625,-5550.384765625,0.0,-5064.0107421875,-2188.6826171875,-11613.369140625,0.0,0.0,0.0,-3530.979248046875,3074.01025390625,11933.64453125,-0.0,-1025.199951171875,5911.98583984375,9675.0263671875,7323.423828125,3099.44140625,2827.644287109375,-8242.1298828125,-5640.9833984375,7356.80224609375,-569.8204345703125,-2096.493896484375,10330.6767578125,-6086.826171875,9107.58984375,7870.197265625,5722.8408203125,8247.693359375,2828.43896484375,-1552.899658203125,5643.36767578125,-0.0,4655.52001953125,-14992.5546875,2436.637939453125,12963.6123046875,2662.3408203125,-7216.93017578125,4544.25830078125,5025.06884765625,3630.3203125,4302.66064453125,3186.06689453125,-4393.259765625,-10089.080078125,-5325.47607421875,2303.918212890625,-4316.9658203125,0.0,-6229.08251953125,0.0,-6953.875,-10290.1455078125,3956.1591796875,-10175.705078125,0.0,-13212.36328125,-1613.299072265625,0.0,-6655.85205078125,0.0,5133.15185546875,-0.0,-5925.49658203125
-2579.68896484375,-3649.393798828125,12172.8583984375,-7717.609375,7762.1142578125,2811.749755859375,3574.689208984375,-5544.8212890625,0.0,-5061.62646484375,-2197.424560546875,-11616.5478515625,0.0,0.0,0.0,-3524.621337890625,3077.98388671875,11940.001953125,-0.0,-1023.6104736328125,5913.57568359375,9685.357421875,7326.60302734375,3104.2099609375,2830.8232421875,-8230.208984375,-5641.7783203125,7364.75,-565.052001953125,-2082.983642578125,10336.240234375,-6085.23681640625,9107.58984375,7878.939453125,5726.814453125,8255.640625,2829.23388671875,-1551.3101806640625,5638.599609375,-0.0,4656.31494140625,-14974.2763671875,2436.637939453125,12969.970703125,2662.3408203125,-7214.54638671875,4541.0791015625,5047.3212890625,3631.114990234375,4315.37646484375,3188.451171875,-4389.2861328125,-10094.642578125,-5307.19775390625,2307.09716796875,-4308.2236328125,0.0,-6222.72509765625,0.0,-6953.08056640625,-10279.814453125,3961.721923828125,-10174.115234375,0.0,-13194.083984375,-1610.914794921875,0.0,-6659.82568359375,0.0,5134.7412109375,-0.0,-5926.291015625
-2565.3837890625,-3627.141357421875,12156.962890625,-7722.3779296875,7753.3720703125,2812.544677734375,3575.484130859375,-5539.25830078125,0.0,-5056.06298828125,-2217.292724609375,-11591.1171875,0.0,0.0,0.0,-3515.08447265625,3076.394287109375,11939.2080078125,-0.0,-1017.2525634765625,5908.01220703125,9686.15234375,7326.60302734375,3107.388671875,2821.286376953125,-8240.5400390625,-5642.57275390625,7368.7236328125,-572.9993286132812,-2098.878173828125,10333.85546875,-6086.826171875,9102.02734375,7876.5556640625,5724.43017578125,8254.845703125,2830.8232421875,-1548.13134765625,5628.267578125,-0.0,4642.8046875,-14977.455078125,2435.84326171875,12976.3291015625,2663.135498046875,-7209.77783203125,4515.64794921875,5029.04248046875,3621.578125,4314.58154296875,3189.245849609375,-4382.92822265625,-10077.953125,-5304.8134765625,2298.35498046875,-4312.197265625,0.0,-6210.80419921875,0.0,-6945.92822265625,-10270.2783203125,3964.106201171875,-10169.3466796875,0.0,-13167.0634765625,-1585.4835205078125,0.0,-6650.2890625,0.0,5140.3046875,-0.0,-5915.1650390625
-2587.63623046875,-3622.372802734375,12147.4267578125,-7739.06689453125,7745.4248046875,2802.212890625,3573.099853515625,-5546.4111328125,0.0,-5060.83154296875,-2217.292724609375,-11583.1689453125,0.0,0.0,0.0,-3521.4423828125,3062.884033203125,11928.8759765625,-0.0,-1022.0209350585938,5899.2705078125,9674.2314453125,7320.2451171875,3101.031005859375,2814.1337890625,-8251.6669921875,-5647.34130859375,7362.36572265625,-581.7413330078125,-2115.5673828125,10322.73046875,-6102.720703125,9090.900390625,7866.22314453125,5716.482421875,8246.8984375,2829.23388671875,-1553.6943359375,5614.75732421875,-0.0,4633.26806640625,-14990.9658203125,2432.6640625,12968.380859375,2662.3408203125,-7215.34130859375,4506.111328125,5011.55859375,3614.42578125,4302.66064453125,3187.656494140625,-4390.0810546875,-10095.4375,-5305.6083984375,2291.20263671875,-4321.73388671875,0.0,-6216.3671875,0.0,-6948.3125,-10268.6884765625,3955.3642578125,-10174.115234375,0.0,-13190.9052734375,-1587.86767578125,0.0,-6658.23583984375,0.0,5132.35693359375,-0.0,-5919.138671875
-2615.451904296875,-3630.3203125,12146.6318359375,-7748.60400390625,7745.4248046875,2794.265625,3573.099853515625,-5550.384765625,0.0,-5063.2158203125,-2222.06103515625,-11604.626953125,0.0,0.0,0.0,-3526.210693359375,3054.14208984375,11922.5185546875,-0.0,-1023.6104736328125,5893.70703125,9664.6943359375,7317.06640625,3096.2626953125,2814.1337890625,-8257.2294921875,-5647.34130859375,7355.21337890625,-582.5360717773438,-2124.3095703125,10317.166015625,-6112.25732421875,9085.337890625,7858.2763671875,5711.71435546875,8241.3359375,2826.054931640625,-1556.873291015625,5612.37353515625,-0.0,4630.8837890625,-14995.734375,2432.6640625,12962.0234375,2660.75146484375,-7217.72509765625,4503.72705078125,5002.81689453125,3615.22021484375,4295.5078125,3187.656494140625,-4394.84912109375,-10112.921875,-5315.939453125,2291.20263671875,-4329.681640625,0.0,-6220.3408203125,0.0,-6952.28564453125,-10267.0986328125,3951.390625,-10175.705078125,0.0,-13194.87890625,-1602.9676513671875,0.0,-6654.2626953125,0.0,5136.3310546875,-0.0,-5922.3173828125
-2597.9677734375,-3621.578125,12152.1953125,-7742.24609375,7747.0146484375,2799.0341796875,3572.304931640625,-5548.00048828125,0.0,-5062.42138671875,-2219.677001953125,-11598.26953125,0.0,0.0,0.0,-3527.00537109375,3061.29443359375,11927.287109375,-0.0,-1022.815673828125,5897.6806640625,9671.0517578125,7318.6552734375,3099.44140625,2817.31298828125,-8251.6669921875,-5645.751953125,7357.59716796875,-580.15185546875,-2110.00439453125,10320.345703125,-6102.720703125,9090.900390625,7863.83935546875,5714.8935546875,8242.9248046875,2827.644287109375,-1554.4891357421875,5617.1416015625,-0.0,4635.65185546875,-14991.759765625,2432.6640625,12966.7919921875,2660.75146484375,-7217.72509765625,4510.08447265625,5013.94287109375,3616.01513671875,4298.68701171875,3187.656494140625,-4392.46533203125,-10101.794921875,-5296.0712890625,2295.17626953125,-4336.833984375,0.0,-6219.5458984375,0.0,-6953.875,-10262.330078125,3954.5693359375,-10174.91015625,0.0,-13182.1630859375,-1596.6097412109375,0.0,-6644.7255859375,0.0,5142.68896484375,-0.0,-5918.34423828125
-2593.994140625,-3618.3994140625,12164.1162109375,-7747.0146484375,7754.96142578125,2799.0341796875,3572.304931640625,-5547.20556640625,0.0,-5061.62646484375,-2205.371826171875,-11586.3486328125,0.0,0.0,0.0,-3525.416015625,3066.06298828125,11930.4658203125,-0.0,-1022.815673828125,5904.0390625,9673.4365234375,7323.423828125,3100.236083984375,2826.054931640625,-8265.177734375,-5643.36767578125,7359.9814453125,-569.8204345703125,-2119.541259765625,10325.1142578125,-6097.15771484375,9098.84765625,7863.044921875,5721.2509765625,8244.5146484375,2828.43896484375,-1552.10498046875,5626.6787109375,-0.0,4643.59912109375,-15002.091796875,2433.458984375,12966.7919921875,2664.72509765625,-7220.109375,4525.9794921875,5007.5849609375,3621.578125,4296.302734375,3190.04052734375,-4390.87548828125,-10100.205078125,-5286.53466796875,2303.918212890625,-4350.34423828125,0.0,-6219.5458984375,0.0,-6953.875,-10272.662109375,3956.1591796875,-10172.5263671875,0.0,-13172.626953125,-1595.020263671875,0.0,-6651.08349609375,0.0,5140.3046875,-0.0,-5920.72802734375
-2612.27294921875,-3623.96240234375,12161.7314453125,-7747.0146484375,7754.1669921875,2803.0078125,3573.89453125,-5546.4111328125,0.0,-5060.037109375,-2217.292724609375,-11576.0166015625,0.0,0.0,0.0,-3522.237060546875,3067.65234375,11931.259765625,-0.0,-1019.6367797851562,5903.244140625,9672.6416015625,7325.013671875,3101.031005859375,2819.697021484375,-8267.5615234375,-5644.16259765625,7363.16064453125,-576.9729614257812,-2121.130615234375,10325.1142578125,-6097.9521484375,9098.84765625,7863.044921875,5720.45654296875,8245.30859375,2829.23388671875,-1549.720703125,5626.6787109375,-0.0,4643.59912109375,-15004.4755859375,2434.253662109375,12967.5869140625,2665.519775390625,-7217.72509765625,4521.2109375,5009.17431640625,3619.98876953125,4302.66064453125,3189.245849609375,-4388.4912109375,-10121.6630859375,-5290.50830078125,2295.970947265625,-4327.29736328125,0.0,-6220.3408203125,0.0,-6953.08056640625,-10279.814453125,3956.95361328125,-10169.3466796875,0.0,-13194.083984375,-1585.4835205078125,0.0,-6656.646484375,0.0,5138.71533203125,-0.0,-5922.3173828125
-2620.22021484375,-3637.472900390625,12151.400390625,-7749.39892578125,7747.0146484375,2797.444580078125,3574.689208984375,-5547.20556640625,0.0,-5058.447265625,-2229.213623046875,-11583.1689453125,0.0,0.0,0.0,-3520.647705078125,3061.29443359375,11926.4921875,-0.0,-1016.4578857421875,5896.09130859375,9667.873046875,7321.03955078125,3098.64697265625,2811.749755859375,-8271.53515625,-5647.34130859375,7363.16064453125,-584.12548828125,-2135.435791015625,10318.755859375,-6102.720703125,9089.310546875,7859.07080078125,5714.8935546875,8241.3359375,2829.23388671875,-1551.3101806640625,5613.962890625,-0.0,4635.65185546875,-15006.0654296875,2431.86962890625,12967.5869140625,2663.135498046875,-7215.34130859375,4503.72705078125,5006.7900390625,3611.246826171875,4301.8662109375,3189.245849609375,-4388.4912109375,-10142.326171875,-5312.7607421875,2288.023681640625,-4312.9921875,0.0,-6224.314453125,0.0,-6949.10693359375,-10283.7880859375,3953.77490234375,-10170.142578125,0.0,-13207.5947265625,-1595.020263671875,0.0,-6648.69921875,0.0,5151.4306640625,-0.0,-5909.6015625
-2608.29931640625,-3629.525390625,12151.400390625,-7740.65625,7747.0146484375,2805.39208984375,3574.689208984375,-5538.46337890625,0.0,-5050.50048828125,-2223.650634765625,-11579.1962890625,0.0,0.0,0.0,-3509.521484375,3064.473388671875,11930.4658203125,-0.0,-1012.4841918945312,5899.2705078125,9674.2314453125,7323.423828125,3104.2099609375,2810.160400390625,-8258.025390625,-5648.13623046875,7369.51806640625,-585.7149658203125,-2124.3095703125,10322.73046875,-6100.33642578125,9092.490234375,7864.63427734375,5718.072265625,8247.693359375,2829.23388671875,-1547.3365478515625,5614.75732421875,-0.0,4636.4462890625,-14993.349609375,2432.6640625,12975.533203125,2663.93017578125,-7208.98291015625,4505.31640625,5016.3271484375,3610.451904296875,4312.197265625,3188.451171875,-4382.92822265625,-10117.6904296875,-5321.5029296875,2288.023681640625,-4299.48193359375,0.0,-6214.77734375,0.0,-6935.5966796875,-10271.072265625,3956.1591796875,-10166.962890625,0.0,-13204.4150390625,-1591.84130859375,0.0,-6635.18896484375,0.0,5170.50390625,-0.0,-5888.14404296875
-2593.199462890625,-3616.809814453125,12160.9375,-7725.556640625,7757.345703125,2814.9287109375,3571.51025390625,-5532.900390625,0.0,-5054.4736328125,-2200.603515625,-11574.427734375,0.0,0.0,0.0,-3507.931884765625,3075.599609375,11938.4130859375,-0.0,-1018.8421020507812,5909.6015625,9684.5625,7327.39794921875,3110.56787109375,2812.544677734375,-8239.74609375,-5644.16259765625,7376.6708984375,-583.330810546875,-2103.646484375,10333.85546875,-6088.41552734375,9102.8212890625,7877.349609375,5726.01953125,8257.2294921875,2828.43896484375,-1543.3629150390625,5625.8837890625,-0.0,4645.9833984375,-14975.865234375,2435.84326171875,12981.09765625,2662.3408203125,-7208.98291015625,4521.2109375,5028.248046875,3616.809814453125,4321.73388671875,3186.86181640625,-4380.5439453125,-10093.052734375,-5302.42919921875,2289.613037109375,-4289.150390625,0.0,-6202.8564453125,0.0,-6940.36474609375,-10245.640625,3962.516845703125,-10166.962890625,0.0,-13178.984375,-1573.5626220703125,0.0,-6644.7255859375,0.0,5158.5830078125,-0.0,-5901.65478515625
-2596.37841796875,-3619.194091796875,12164.91015625,-7723.96728515625,7771.65087890625,2816.51806640625,3575.484130859375,-5535.28466796875,0.0,-5053.67919921875,-2195.835205078125,-11573.6318359375,0.0,0.0,0.0,-3512.700439453125,3077.189208984375,11940.796875,-0.0,-1019.6367797851562,5913.57568359375,9686.15234375,7332.96044921875,3114.541259765625,2817.31298828125,-8235.7724609375,-5634.6259765625,7372.697265625,-584.12548828125,-2095.69921875,10335.4453125,-6086.826171875,9104.4111328125,7879.73388671875,5729.9931640625,8258.8193359375,2831.6181640625,-1541.7734375,5627.47314453125,-0.0,4655.52001953125,-14973.4814453125,2440.611572265625,12980.3017578125,2664.72509765625,-7208.98291015625,4527.56884765625,5029.8369140625,3632.70458984375,4317.76025390625,3190.04052734375,-4380.5439453125,-10093.8486328125,-5288.9189453125,2290.407958984375,-4296.302734375,0.0,-6202.06201171875,0.0,-6942.7490234375,-10250.4091796875,3967.28515625,-10166.962890625,0.0,-13199.646484375,-1579.125732421875,0.0,-6637.5732421875,0.0,5151.4306640625,-0.0,-5904.83349609375
-2601.146728515625,-3627.93603515625,12149.810546875,-7730.3251953125,7763.70361328125,2810.955078125,3577.0732421875,-5536.07958984375,0.0,-5051.294921875,-2226.82958984375,-11599.8583984375,0.0,0.0,0.0,-3511.90576171875,3067.65234375,11933.64453125,-0.0,-1014.868408203125,5904.83349609375,9679.7939453125,7328.9873046875,3108.978271484375,2805.39208984375,-8236.5673828125,-5638.599609375,7367.92919921875,-596.0464477539062,-2097.288818359375,10328.29296875,-6097.15771484375,9094.8740234375,7871.787109375,5722.8408203125,8255.640625,2831.6181640625,-1545.7471923828125,5609.1943359375,-0.0,4644.39404296875,-14976.6611328125,2438.227294921875,12974.7392578125,2666.314453125,-7208.1884765625,4506.90625,5022.6845703125,3622.372802734375,4309.0185546875,3193.219482421875,-4382.92822265625,-10123.2529296875,-5287.3291015625,2279.28173828125,-4306.63427734375,0.0,-6207.625,0.0,-6938.775390625,-10265.509765625,3964.106201171875,-10166.16796875,0.0,-13234.615234375,-1606.146484375,0.0,-6624.06298828125,0.0,5156.19921875,-0.0,-5896.88623046875
-2594.788818359375,-3618.3994140625,12138.6845703125,-7724.76171875,7747.0146484375,2810.955078125,3574.689208984375,-5536.87451171875,0.0,-5053.67919921875,-2231.597900390625,-11587.9375,0.0,0.0,0.0,-3517.46875,3065.268310546875,11930.4658203125,-0.0,-1014.868408203125,5895.29638671875,9679.7939453125,7321.83447265625,3106.593994140625,2803.802490234375,-8221.466796875,-5652.904296875,7369.51806640625,-594.4569702148438,-2077.42041015625,10324.3193359375,-6093.97900390625,9089.310546875,7874.9658203125,5715.68798828125,8256.435546875,2831.6181640625,-1548.13134765625,5602.04150390625,-0.0,4630.0888671875,-14966.3291015625,2431.86962890625,12975.533203125,2665.519775390625,-7208.98291015625,4484.6533203125,5030.6318359375,3599.325927734375,4312.197265625,3191.630126953125,-4385.3125,-10114.5107421875,-5271.4345703125,2281.665771484375,-4290.73974609375,0.0,-6206.03564453125,0.0,-6945.13330078125,-10271.8671875,3960.132568359375,-10166.962890625,0.0,-13205.2109375,-1604.5570068359375,0.0,-6638.3681640625,0.0,5141.099609375,-0.0,-5909.6015625
-2582.867919921875,-3613.631103515625,12143.453125,-7735.88818359375,7745.4248046875,2802.212890625,3573.89453125,-5535.28466796875,0.0,-5048.91064453125,-2223.650634765625,-11549.7900390625,0.0,0.0,0.0,-3511.90576171875,3065.268310546875,11930.4658203125,-0.0,-1010.894775390625,5894.501953125,9675.0263671875,7323.423828125,3104.2099609375,2811.749755859375,-8247.693359375,-5653.69921875,7363.955078125,-586.5097045898438,-2126.69384765625,10323.5244140625,-6091.5947265625,9088.5166015625,7873.3759765625,5715.68798828125,8251.6669921875,2830.8232421875,-1548.13134765625,5606.015625,-0.0,4630.8837890625,-14975.865234375,2431.86962890625,12971.560546875,2665.519775390625,-7204.21435546875,4494.1904296875,5008.37939453125,3596.146728515625,4302.66064453125,3192.4248046875,-4382.13330078125,-10109.7421875,-5286.53466796875,2287.228759765625,-4322.52880859375,0.0,-6199.677734375,0.0,-6937.98046875,-10285.3779296875,3957.74853515625,-10165.3740234375,0.0,-13201.236328125,-1579.92041015625,0.0,-6626.447265625,0.0,5153.81494140625,-0.0,-5892.1181640625
-2566.973388671875,-3594.5576171875,12153.78515625,-7718.404296875,7756.55126953125,2815.723388671875,3577.0732421875,-5525.74755859375,0.0,-5038.57958984375,-2215.703369140625,-11516.412109375,0.0,0.0,0.0,-3496.010986328125,3079.573486328125,11940.001953125,-0.0,-1006.921142578125,5908.01220703125,9688.537109375,7331.37109375,3113.74658203125,2818.107666015625,-8227.0302734375,-5646.546875,7378.26025390625,-580.15185546875,-2111.593994140625,10335.4453125,-6078.08447265625,9102.02734375,7888.4765625,5726.01953125,8261.998046875,2833.207275390625,-1537.7998046875,5621.91015625,-0.0,4642.009765625,-14960.765625,2438.227294921875,12984.275390625,2665.519775390625,-7193.08837890625,4510.87939453125,5032.22119140625,3604.09423828125,4316.9658203125,3191.630126953125,-4368.623046875,-10098.6162109375,-5257.92431640625,2293.586669921875,-4315.37646484375,0.0,-6183.783203125,0.0,-6922.880859375,-10263.125,3967.28515625,-10159.015625,0.0,-13194.87890625,-1558.4627685546875,0.0,-6613.7314453125,0.0,5175.2724609375,-0.0,-5871.45458984375
-2572.536376953125,-3589.7890625,12158.552734375,-7698.5361328125,7759.72998046875,2834.002197265625,3576.27880859375,-5516.2109375,0.0,-5030.6318359375,-2208.55078125,-11564.890625,0.0,0.0,0.0,-3484.885009765625,3086.725830078125,11947.1552734375,-0.0,-1006.1264038085938,5911.98583984375,9699.662109375,7335.3447265625,3123.283447265625,2824.465576171875,-8180.93603515625,-5642.57275390625,7394.94921875,-574.5887451171875,-2067.089111328125,10341.8037109375,-6074.9052734375,9108.3837890625,7898.8076171875,5733.171875,8273.125,2831.6181640625,-1529.8525390625,5626.6787109375,-0.0,4645.9833984375,-14937.71875,2439.02197265625,12996.9912109375,2663.135498046875,-7186.73095703125,4518.8271484375,5065.60009765625,3608.862548828125,4338.42333984375,3190.835205078125,-4358.29150390625,-10085.10546875,-5247.5927734375,2299.149658203125,-4280.408203125,0.0,-6174.24609375,0.0,-6911.75439453125,-10245.640625,3975.232666015625,-10154.2470703125,0.0,-13186.931640625,-1571.97314453125,0.0,-6615.32080078125,0.0,5188.783203125,-0.0,-5855.560546875
-2591.60986328125,-3615.22021484375,12153.78515625,-7718.404296875,7754.1669921875,2821.286376953125,3575.484130859375,-5524.15869140625,0.0,-5044.14208984375,-2214.90869140625,-11591.1171875,0.0,0.0,0.0,-3492.832275390625,3076.394287109375,11938.4130859375,-0.0,-1014.07373046875,5905.62841796875,9687.7412109375,7330.57666015625,3116.925537109375,2813.33935546875,-8207.95703125,-5644.95703125,7385.41259765625,-585.7149658203125,-2091.7255859375,10334.6513671875,-6085.23681640625,9100.4375,7883.7080078125,5725.22509765625,8261.998046875,2830.028564453125,-1537.7998046875,5622.705078125,-0.0,4638.83056640625,-14953.61328125,2435.04833984375,12988.25,2661.5458984375,-7194.677734375,4515.64794921875,5034.60546875,3601.7099609375,4328.09228515625,3189.245849609375,-4367.03369140625,-10088.2841796875,-5281.7666015625,2288.023681640625,-4285.1767578125,0.0,-6182.19384765625,0.0,-6923.67578125,-10271.072265625,3967.28515625,-10162.1943359375,0.0,-13194.083984375,-1571.97314453125,0.0,-6628.03662109375,0.0,5162.55712890625,-0.0,-5872.24951171875
-2589.225830078125,-3622.372802734375,12157.7578125,-7741.451171875,7757.345703125,2798.239501953125,3576.27880859375,-5536.87451171875,0.0,-5054.4736328125,-2210.14013671875,-11538.6650390625,0.0,0.0,0.0,-3507.931884765625,3069.24169921875,11932.0556640625,-0.0,-1020.4315185546875,5905.62841796875,9673.4365234375,7328.9873046875,3104.2099609375,2814.1337890625,-8269.150390625,-5641.7783203125,7365.544921875,-583.330810546875,-2107.6201171875,10326.703125,-6092.3896484375,9098.84765625,7873.3759765625,5722.0458984375,8246.1044921875,2830.8232421875,-1545.7471923828125,5625.8837890625,-0.0,4643.59912109375,-14984.607421875,2436.637939453125,12972.3544921875,2663.93017578125,-7204.21435546875,4527.56884765625,5004.40576171875,3600.915283203125,4297.09765625,3190.835205078125,-4381.33837890625,-10089.8740234375,-5286.53466796875,2290.407958984375,-4324.9130859375,0.0,-6197.2939453125,0.0,-6937.98046875,-10264.7138671875,3960.927490234375,-10166.962890625,0.0,-13205.2109375,-1562.4364013671875,0.0,-6620.8837890625,0.0,5144.27783203125,-0.0,-5902.44921875
-2611.47802734375,-3623.167724609375,12151.400390625,-7743.04052734375,7752.5771484375,2797.444580078125,3575.484130859375,-5544.02685546875,0.0,-5057.65283203125,-2231.597900390625,-11550.5859375,0.0,0.0,0.0,-3523.82666015625,3064.473388671875,11927.287109375,-0.0,-1020.4315185546875,5899.2705078125,9668.66796875,7324.21875,3098.64697265625,2812.544677734375,-8259.6142578125,-5644.95703125,7360.7763671875,-582.5360717773438,-2100.4677734375,10321.9345703125,-6098.7470703125,9090.900390625,7870.197265625,5717.27734375,8242.1298828125,2828.43896484375,-1549.720703125,5621.115234375,-0.0,4640.42041015625,-14986.9921875,2432.6640625,12967.5869140625,2663.93017578125,-7208.98291015625,4516.44287109375,5006.7900390625,3596.146728515625,4300.2763671875,3190.835205078125,-4390.87548828125,-10104.9736328125,-5289.71337890625,2289.613037109375,-4328.09228515625,0.0,-6210.80419921875,0.0,-6949.9013671875,-10252.79296875,3955.3642578125,-10170.9365234375,0.0,-13203.62109375,-1568.794189453125,0.0,-6634.39404296875,0.0,5144.27783203125,-0.0,-5910.396484375
-2633.730712890625,-3623.96240234375,12145.0419921875,-7735.88818359375,7748.60400390625,2808.57080078125,3576.27880859375,-5535.28466796875,0.0,-5051.294921875,-2247.492431640625,-11573.6318359375,0.0,0.0,0.0,-3510.316162109375,3066.06298828125,11931.259765625,-0.0,-1010.1000366210938,5895.29638671875,9675.0263671875,7325.013671875,3105.004638671875,2803.802490234375,-8236.5673828125,-5650.5205078125,7378.26025390625,-590.4833374023438,-2098.878173828125,10323.5244140625,-6094.77392578125,9090.1064453125,7874.17138671875,5715.68798828125,8252.4619140625,2831.6181640625,-1543.3629150390625,5627.47314453125,-0.0,4633.26806640625,-14974.2763671875,2432.6640625,12980.3017578125,2666.314453125,-7205.00927734375,4499.75341796875,5017.12158203125,3587.405029296875,4324.9130859375,3193.219482421875,-4379.74951171875,-10114.5107421875,-5288.9189453125,2282.46044921875,-4302.66064453125,0.0,-6190.935546875,0.0,-6941.9541015625,-10261.53515625,3960.132568359375,-10167.7578125,0.0,-13175.8046875,-1598.993896484375,0.0,-6647.10986328125,0.0,5141.89404296875,-0.0,-5917.54931640625
-2637.7041015625,-3635.88330078125,12145.8369140625,-7743.04052734375,7746.2197265625,2798.239501953125,3576.27880859375,-5539.25830078125,0.0,-5050.50048828125,-2237.955810546875,-11589.52734375,0.0,0.0,0.0,-3512.700439453125,3059.705078125,11926.4921875,-0.0,-1009.3053588867188,5892.91259765625,9668.66796875,7321.83447265625,3099.44140625,2795.855224609375,-8254.05078125,-5652.904296875,7365.544921875,-600.8148193359375,-2115.5673828125,10317.166015625,-6100.33642578125,9088.5166015625,7867.0185546875,5713.30419921875,8244.5146484375,2831.6181640625,-1547.3365478515625,5632.24169921875,-0.0,4629.2939453125,-14984.607421875,2431.074951171875,12969.1767578125,2666.314453125,-7206.5986328125,4501.3427734375,5008.37939453125,3583.43115234375,4304.25,3193.219482421875,-4383.72265625,-10141.5322265625,-5308.787109375,2273.718505859375,-4326.50244140625,0.0,-6200.47216796875,0.0,-6941.9541015625,-10287.76171875,3954.5693359375,-10167.7578125,0.0,-13203.62109375,-1589.4571533203125,0.0,-6635.98388671875,0.0,5152.2255859375,-0.0,-5909.6015625
-2630.551513671875,-3636.677978515625,12146.6318359375,-7737.4775390625,7748.60400390625,2794.265625,3574.689208984375,-5545.6162109375,0.0,-5056.85791015625,-2226.82958984375,-11567.275390625,0.0,0.0,0.0,-3524.621337890625,3062.884033203125,11924.9033203125,-0.0,-1014.868408203125,5893.70703125,9670.2578125,7320.2451171875,3098.64697265625,2802.212890625,-8252.4619140625,-5653.69921875,7352.0341796875,-596.0464477539062,-2109.209716796875,10320.345703125,-6097.15771484375,9090.900390625,7870.197265625,5714.0986328125,8241.3359375,2829.23388671875,-1551.3101806640625,5622.705078125,-0.0,4632.47314453125,-14981.4287109375,2431.074951171875,12962.818359375,2664.72509765625,-7209.77783203125,4501.3427734375,5015.5322265625,3584.225830078125,4288.35546875,3191.630126953125,-4391.67041015625,-10133.583984375,-5302.42919921875,2279.28173828125,-4309.0185546875,0.0,-6214.77734375,0.0,-6949.9013671875,-10289.3515625,3952.97998046875,-10170.9365234375,0.0,-13206.7998046875,-1573.5626220703125,0.0,-6632.8046875,0.0,5146.662109375,-0.0,-5919.93310546875
-2604.325439453125,-3624.757080078125,12144.248046875,-7731.11962890625,7751.78271484375,2801.418212890625,3573.099853515625,-5540.84765625,0.0,-5059.2421875,-2224.4453125,-11563.30078125,0.0,0.0,0.0,-3523.031982421875,3066.06298828125,11929.6708984375,-0.0,-1018.8421020507812,5896.09130859375,9675.0263671875,7322.62939453125,3101.82568359375,2806.9814453125,-8242.9248046875,-5652.904296875,7359.9814453125,-591.278076171875,-2112.388671875,10325.908203125,-6093.97900390625,9089.310546875,7873.3759765625,5717.27734375,8244.5146484375,2827.644287109375,-1548.926025390625,5605.220703125,-0.0,4634.0625,-14976.6611328125,2431.074951171875,12967.5869140625,2661.5458984375,-7211.3671875,4501.3427734375,5022.6845703125,3586.610107421875,4300.2763671875,3188.451171875,-4390.0810546875,-10101.794921875,-5293.6875,2283.25537109375,-4309.0185546875,0.0,-6209.21484375,0.0,-6952.28564453125,-10271.8671875,3956.1591796875,-10170.9365234375,0.0,-13194.083984375,-1581.5098876953125,0.0,-6635.18896484375,0.0,5139.509765625,-0.0,-5923.90673828125
-2593.994140625,-3613.631103515625,12152.1953125,-7724.76171875,7758.935546875,2808.57080078125,3573.099853515625,-5536.87451171875,0.0,-5053.67919921875,-2220.4716796875,-11568.8642578125,0.0,0.0,0.0,-3515.08447265625,3073.215576171875,11938.4130859375,-0.0,-1018.8421020507812,5904.0390625,9682.97265625,7328.1923828125,3108.18359375,2815.723388671875,-8234.9775390625,-5647.34130859375,7366.33935546875,-583.330810546875,-2117.95166015625,10331.4716796875,-6086.826171875,9097.2587890625,7880.5283203125,5723.63525390625,8251.6669921875,2830.028564453125,-1542.5682373046875,5614.75732421875,-0.0,4641.21484375,-14969.5078125,2435.04833984375,12974.7392578125,2662.3408203125,-7205.00927734375,4514.05859375,5028.248046875,3592.968017578125,4307.4287109375,3189.245849609375,-4384.517578125,-10077.1591796875,-5294.48193359375,2291.20263671875,-4314.58154296875,0.0,-6202.8564453125,0.0,-6946.72265625,-10275.8408203125,3963.311767578125,-10166.962890625,0.0,-13178.189453125,-1576.7415771484375,0.0,-6637.5732421875,0.0,5145.07275390625,-0.0,-5917.54931640625
-2580.483642578125,-3615.22021484375,12154.5791015625,-7719.19873046875,7762.1142578125,2813.33935546875,3576.27880859375,-5528.9267578125,0.0,-5046.5263671875,-2217.292724609375,-11558.533203125,0.0,0.0,0.0,-3508.726806640625,3077.189208984375,11941.591796875,-0.0,-1014.07373046875,5907.21728515625,9686.947265625,7330.57666015625,3112.1572265625,2815.723388671875,-8233.3876953125,-5644.16259765625,7372.697265625,-582.5360717773438,-2102.05712890625,10333.85546875,-6086.826171875,9101.2314453125,7884.50244140625,5726.814453125,8258.025390625,2832.41259765625,-1538.5946044921875,5617.1416015625,-0.0,4645.9833984375,-14962.35546875,2435.84326171875,12980.3017578125,2664.72509765625,-7199.4462890625,4521.2109375,5034.60546875,3593.7626953125,4312.9921875,3191.630126953125,-4377.365234375,-10081.1318359375,-5285.73974609375,2291.20263671875,-4305.04443359375,0.0,-6195.7041015625,0.0,-6934.8017578125,-10268.6884765625,3968.080078125,-10163.7841796875,0.0,-13182.9580078125,-1570.3836669921875,0.0,-6643.13671875,0.0,5151.4306640625,-0.0,-5907.21728515625
-2585.251953125,-3616.809814453125,12148.220703125,-7717.609375,7760.52490234375,2815.723388671875,3577.0732421875,-5524.953125,0.0,-5044.14208984375,-2222.06103515625,-11550.5859375,0.0,0.0,0.0,-3501.57421875,3074.01025390625,11940.796875,-0.0,-1010.1000366210938,5904.83349609375,9685.357421875,7330.57666015625,3113.74658203125,2810.160400390625,-8230.208984375,-5644.16259765625,7378.26025390625,-587.304443359375,-2077.42041015625,10333.85546875,-6090.7998046875,9094.8740234375,7884.50244140625,5726.814453125,8260.4091796875,2832.41259765625,-1535.4156494140625,5608.39990234375,-0.0,4639.62548828125,-14959.17578125,2435.04833984375,12985.0703125,2666.314453125,-7197.06201171875,4510.87939453125,5037.78466796875,3592.968017578125,4317.76025390625,3191.630126953125,-4372.5966796875,-10104.1796875,-5269.05078125,2288.023681640625,-4299.48193359375,0.0,-6190.14111328125,0.0,-6928.44384765625,-10255.177734375,3966.490234375,-10163.7841796875,0.0,-13194.87890625,-1575.152099609375,0.0,-6638.3681640625,0.0,5149.04638671875,-0.0,-5892.91259765625
-2590.0205078125,-3633.4990234375,12143.453125,-7724.76171875,7756.55126953125,2813.33935546875,3576.27880859375,-5528.1318359375,0.0,-5044.93701171875,-2227.624267578125,-11566.4794921875,0.0,0.0,0.0,-3503.16357421875,3068.447021484375,11936.82421875,-0.0,-1008.5106201171875,5898.4755859375,9681.3837890625,7328.1923828125,3112.1572265625,2806.9814453125,-8234.9775390625,-5645.751953125,7376.6708984375,-589.6885986328125,-2086.16259765625,10329.0869140625,-6100.33642578125,9090.1064453125,7878.939453125,5722.0458984375,8257.2294921875,2831.6181640625,-1538.5946044921875,5606.015625,-0.0,4635.65185546875,-14962.35546875,2434.253662109375,12981.8916015625,2663.93017578125,-7197.06201171875,4503.72705078125,5031.4267578125,3588.19970703125,4316.9658203125,3192.4248046875,-4374.18603515625,-10128.021484375,-5273.81884765625,2284.8447265625,-4307.4287109375,0.0,-6190.935546875,0.0,-6933.21240234375,-10255.97265625,3963.311767578125,-10162.9892578125,0.0,-13193.2900390625,-1574.357421875,0.0,-6631.21533203125,0.0,5156.19921875,-0.0,-5882.5810546875
-2597.173095703125,-3637.472900390625,12141.068359375,-7735.88818359375,7752.5771484375,2803.802490234375,3576.27880859375,-5536.87451171875,0.0,-5051.294921875,-2226.034912109375,-11595.8857421875,0.0,0.0,0.0,-3518.263671875,3062.884033203125,11930.4658203125,-0.0,-1010.894775390625,5896.09130859375,9674.2314453125,7322.62939453125,3104.2099609375,2801.418212890625,-8246.1044921875,-5649.7255859375,7364.75,-595.251708984375,-2111.593994140625,10322.73046875,-6104.310546875,9085.337890625,7870.99169921875,5716.482421875,8249.283203125,2830.8232421875,-1546.5418701171875,5607.60498046875,-0.0,4633.26806640625,-14973.4814453125,2432.6640625,12973.1494140625,2663.93017578125,-7205.00927734375,4498.95849609375,5013.94287109375,3583.43115234375,4304.25,3192.4248046875,-4384.517578125,-10120.869140625,-5292.09765625,2277.692138671875,-4333.65478515625,0.0,-6206.03564453125,0.0,-6944.33837890625,-10263.919921875,3958.543212890625,-10168.552734375,0.0,-13201.236328125,-1585.4835205078125,0.0,-6639.16259765625,0.0,5155.40478515625,-0.0,-5897.6806640625
-2615.451904296875,-3623.167724609375,12152.1953125,-7728.7353515625,7758.935546875,2811.749755859375,3577.0732421875,-5533.6953125,0.0,-5049.70556640625,-2221.2666015625,-11582.375,0.0,0.0,0.0,-3515.87939453125,3074.01025390625,11936.82421875,-0.0,-1010.894775390625,5904.83349609375,9681.3837890625,7327.39794921875,3108.18359375,2807.776123046875,-8238.9521484375,-5648.13623046875,7371.90234375,-590.4833374023438,-2095.69921875,10330.6767578125,-6093.18408203125,9096.462890625,7879.73388671875,5722.8408203125,8254.05078125,2833.207275390625,-1540.978759765625,5620.32080078125,-0.0,4641.21484375,-14971.892578125,2435.84326171875,12978.712890625,2665.519775390625,-7203.419921875,4509.2900390625,5025.06884765625,3588.994384765625,4312.197265625,3193.219482421875,-4379.74951171875,-10099.4111328125,-5278.58740234375,2283.25537109375,-4316.17138671875,0.0,-6204.4462890625,0.0,-6943.5439453125,-10279.814453125,3963.311767578125,-10165.3740234375,0.0,-13200.4423828125,-1571.97314453125,0.0,-6631.21533203125,0.0,5153.81494140625,-0.0,-5903.244140625
-2614.6572265625,-3616.01513671875,12164.1162109375,-7720.78857421875,7768.47216796875,2819.697021484375,3577.0732421875,-5530.51611328125,0.0,-5045.73193359375,-2214.90869140625,-11568.0693359375,0.0,0.0,0.0,-3509.521484375,3082.752197265625,11944.7705078125,-0.0,-1010.1000366210938,5913.57568359375,9689.3310546875,7333.75537109375,3115.336181640625,2817.31298828125,-8229.4150390625,-5642.57275390625,7379.85009765625,-581.7413330078125,-2079.010009765625,10338.6240234375,-6082.05810546875,9107.58984375,7886.88671875,5728.40380859375,8259.6142578125,2833.207275390625,-1535.4156494140625,5633.8310546875,-0.0,4649.162109375,-14971.0966796875,2439.02197265625,12985.865234375,2666.314453125,-7199.4462890625,4522.00537109375,5038.57958984375,3594.5576171875,4322.52880859375,3191.630126953125,-4374.18603515625,-10093.052734375,-5269.845703125,2292.7919921875,-4293.91845703125,0.0,-6198.8828125,0.0,-6936.39111328125,-10279.01953125,3968.87451171875,-10162.9892578125,0.0,-13191.7001953125,-1583.099365234375,0.0,-6633.599609375,0.0,5154.60986328125,-0.0,-5887.349609375
-2597.9677734375,-3610.451904296875,12168.884765625,-7716.02001953125,7770.8564453125,2819.697021484375,3574.689208984375,-5529.7216796875,0.0,-5049.70556640625,-2208.55078125,-11562.5068359375,0.0,0.0,0.0,-3508.726806640625,3086.725830078125,11947.1552734375,-0.0,-1017.2525634765625,5916.75439453125,9693.3046875,7335.3447265625,3115.336181640625,2822.081298828125,-8227.8251953125,-5638.599609375,7382.23388671875,-573.7940673828125,-2076.625732421875,10341.8037109375,-6080.46875,9112.3583984375,7890.0654296875,5730.78759765625,8262.7939453125,2832.41259765625,-1536.21044921875,5640.9833984375,-0.0,4653.1357421875,-14968.712890625,2438.227294921875,12986.66015625,2663.135498046875,-7201.0361328125,4529.158203125,5042.552734375,3598.531005859375,4323.32373046875,3188.451171875,-4373.3916015625,-10095.4375,-5267.46142578125,2298.35498046875,-4293.12353515625,0.0,-6194.11474609375,0.0,-6937.185546875,-10262.330078125,3968.87451171875,-10164.578125,0.0,-13182.9580078125,-1585.4835205078125,0.0,-6635.18896484375,0.0,5146.662109375,-0.0,-5892.91259765625
-2586.841552734375,-3609.6572265625,12171.2685546875,-7712.04638671875,7772.44580078125,2822.8759765625,3573.89453125,-5528.9267578125,0.0,-5055.2685546875,-2197.424560546875,-11559.3271484375,0.0,0.0,0.0,-3507.931884765625,3088.315185546875,11949.5390625,-0.0,-1020.4315185546875,5919.138671875,9694.8935546875,7336.9345703125,3116.925537109375,2823.670654296875,-8225.44140625,-5637.8046875,7383.0283203125,-575.3834838867188,-2076.625732421875,10344.982421875,-6079.673828125,9113.9482421875,7893.24462890625,5733.966796875,8265.9716796875,2831.6181640625,-1533.826171875,5641.7783203125,-0.0,4657.904296875,-14961.560546875,2439.02197265625,12990.6337890625,2663.135498046875,-7202.62548828125,4533.1318359375,5044.93701171875,3599.325927734375,4326.50244140625,3190.04052734375,-4371.8017578125,-10098.6162109375,-5272.2294921875,2299.944580078125,-4286.76611328125,0.0,-6186.9619140625,0.0,-6940.36474609375,-10258.357421875,3971.258544921875,-10167.7578125,0.0,-13199.646484375,-1568.794189453125,0.0,-6635.18896484375,0.0,5149.84130859375,-0.0,-5916.75439453125
-2593.199462890625,-3611.246826171875,12171.2685546875,-7712.8408203125,7771.65087890625,2824.465576171875,3577.8681640625,-5524.953125,0.0,-5049.70556640625,-2179.145751953125,-11561.7109375,0.0,0.0,0.0,-3507.13720703125,3088.315185546875,11949.5390625,-0.0,-1014.07373046875,5919.93310546875,9694.8935546875,7336.9345703125,3117.720458984375,2825.26025390625,-8221.466796875,-5637.01025390625,7385.41259765625,-573.7940673828125,-2078.21533203125,10343.392578125,-6077.28955078125,9113.9482421875,7893.24462890625,5734.76171875,8268.3564453125,2834.002197265625,-1533.826171875,5642.57275390625,-0.0,4658.69921875,-14957.5869140625,2439.816650390625,12990.6337890625,2665.519775390625,-7197.85693359375,4530.748046875,5040.9638671875,3596.941650390625,4329.681640625,3193.219482421875,-4371.00732421875,-10095.4375,-5281.7666015625,2303.12353515625,-4278.81884765625,0.0,-6183.783203125,0.0,-6937.185546875,-10266.3037109375,3972.053466796875,-10163.7841796875,0.0,-13198.8525390625,-1555.283935546875,0.0,-6637.5732421875,0.0,5149.84130859375,-0.0,-5919.93310546875
-2624.19384765625,-3619.98876953125,12142.658203125,-7728.7353515625,7754.96142578125,2807.776123046875,3575.484130859375,-5532.900390625,0.0,-5051.294921875,-2229.213623046875,-11569.6591796875,0.0,0.0,0.0,-3511.111083984375,3072.4208984375,11932.0556640625,-0.0,-1014.07373046875,5899.2705078125,9678.2041015625,7324.21875,3104.2099609375,2803.0078125,-8235.7724609375,-5647.34130859375,7371.90234375,-593.6622314453125,-2092.5205078125,10327.498046875,-6091.5947265625,9092.490234375,7877.349609375,5720.45654296875,8253.2568359375,2830.8232421875,-1545.7471923828125,5615.55224609375,-0.0,4635.65185546875,-14970.302734375,2430.280029296875,12975.533203125,2663.135498046875,-7201.0361328125,4492.60107421875,5024.2744140625,3581.047119140625,4312.9921875,3189.245849609375,-4378.16015625,-10104.9736328125,-5300.044921875,2280.87109375,-4306.63427734375,0.0,-6192.525390625,0.0,-6937.98046875,-10275.0458984375,3959.337646484375,-10168.552734375,0.0,-13204.4150390625,-1582.3045654296875,0.0,-6629.6259765625,0.0,5149.04638671875,-0.0,-5900.85986328125
-2632.935791015625,-3627.141357421875,12142.658203125,-7728.7353515625,7754.96142578125,2804.59716796875,3573.099853515625,-5532.900390625,0.0,-5049.70556640625,-2239.545166015625,-11578.400390625,0.0,0.0,0.0,-3505.5478515625,3068.447021484375,11930.4658203125,-0.0,-1015.6631469726562,5898.4755859375,9675.8203125,7323.423828125,3105.004638671875,2806.186767578125,-8237.3623046875,-5645.751953125,7367.92919921875,-592.0728149414062,-2094.904541015625,10325.1142578125,-6097.9521484375,9089.310546875,7878.14404296875,5718.072265625,8250.873046875,2830.028564453125,-1547.3365478515625,5611.57861328125,-0.0,4635.65185546875,-14968.712890625,2430.280029296875,12975.533203125,2663.135498046875,-7199.4462890625,4497.369140625,5025.86376953125,3580.25244140625,4308.2236328125,3186.86181640625,-4377.365234375,-10106.5634765625,-5306.40283203125,2281.665771484375,-4320.939453125,0.0,-6195.7041015625,0.0,-6931.623046875,-10285.3779296875,3957.74853515625,-10167.7578125,0.0,-13202.826171875,-1594.2255859375,0.0,-6628.03662109375,0.0,5141.099609375,-0.0,-5897.6806640625
-2600.35205078125,-3611.246826171875,12164.1162109375,-7696.15185546875,7770.0615234375,2828.43896484375,3574.689208984375,-5518.59521484375,0.0,-5042.552734375,-2222.855712890625,-11592.7060546875,0.0,0.0,0.0,-3499.190185546875,3093.083740234375,11950.333984375,-0.0,-1013.2789306640625,5919.138671875,9698.8681640625,7337.72900390625,3120.899169921875,2826.849609375,-8196.8310546875,-5637.01025390625,7384.6181640625,-572.20458984375,-2025.7633056640625,10345.7763671875,-6074.9052734375,9111.5634765625,7903.57568359375,5734.76171875,8271.53515625,2833.207275390625,-1532.2366943359375,5632.24169921875,-0.0,4652.34130859375,-14936.923828125,2439.816650390625,12993.8125,2665.519775390625,-7189.90966796875,4519.62158203125,5071.9580078125,3593.7626953125,4330.47607421875,3191.630126953125,-4367.03369140625,-10099.4111328125,-5269.05078125,2302.328857421875,-4286.76611328125,0.0,-6181.39892578125,0.0,-6931.623046875,-10274.2509765625,3974.437744140625,-10160.60546875,0.0,-13174.2158203125,-1577.5362548828125,0.0,-6631.21533203125,0.0,5149.84130859375,-0.0,-5896.88623046875
-2585.251953125,-3607.273193359375,12161.7314453125,-7709.662109375,7770.0615234375,2818.90234375,3573.099853515625,-5530.51611328125,0.0,-5055.2685546875,-2207.756103515625,-11566.4794921875,0.0,0.0,0.0,-3515.87939453125,3089.110107421875,11947.1552734375,-0.0,-1021.2262573242188,5915.1650390625,9694.099609375,7332.96044921875,3115.336181640625,2830.028564453125,-8211.1357421875,-5639.39404296875,7373.49169921875,-567.4362182617188,-2055.168212890625,10341.8037109375,-6078.08447265625,9109.9736328125,7896.42333984375,5730.78759765625,8266.7666015625,2830.028564453125,-1540.18408203125,5629.857421875,-0.0,4652.34130859375,-14945.666015625,2437.4326171875,12985.865234375,2663.135498046875,-7199.4462890625,4517.2373046875,5052.08984375,3593.7626953125,4321.73388671875,3189.245849609375,-4378.16015625,-10097.8212890625,-5254.74560546875,2306.30224609375,-4293.12353515625,0.0,-6192.525390625,0.0,-6949.9013671875,-10275.8408203125,3970.464111328125,-10168.552734375,0.0,-13170.2421875,-1576.7415771484375,0.0,-6649.494140625,0.0,5141.099609375,-0.0,-5918.34423828125
-2580.483642578125,-3618.3994140625,12151.400390625,-7741.451171875,7765.29296875,2800.62353515625,3575.484130859375,-5538.46337890625,0.0,-5058.447265625,-2206.96142578125,-11539.458984375,0.0,0.0,0.0,-3524.621337890625,3074.01025390625,11936.82421875,-0.0,-1020.4315185546875,5906.4228515625,9675.0263671875,7328.9873046875,3105.004638671875,2822.8759765625,-8258.025390625,-5640.1884765625,7361.57080078125,-576.17822265625,-2150.53564453125,10329.0869140625,-6093.18408203125,9100.4375,7876.5556640625,5723.63525390625,8254.05078125,2830.8232421875,-1544.952392578125,5617.1416015625,-0.0,4645.18896484375,-14976.6611328125,2435.84326171875,12971.560546875,2663.93017578125,-7203.419921875,4511.67431640625,4994.07421875,3589.7890625,4301.8662109375,3190.04052734375,-4386.90185546875,-10099.4111328125,-5282.56103515625,2299.149658203125,-4318.55517578125,0.0,-6201.26708984375,0.0,-6951.49072265625,-10270.2783203125,3961.721923828125,-10172.5263671875,0.0,-13202.826171875,-1572.767822265625,0.0,-6653.4677734375,0.0,5140.3046875,-0.0,-5919.138671875
-2582.0732421875,-3609.6572265625,12158.552734375,-7722.3779296875,7771.65087890625,2814.9287109375,3575.484130859375,-5529.7216796875,0.0,-5051.294921875,-2218.08740234375,-11550.5859375,0.0,0.0,0.0,-3511.111083984375,3083.546875,11945.5654296875,-0.0,-1018.8421020507812,5915.1650390625,9686.947265625,7335.3447265625,3115.336181640625,2826.849609375,-8231.798828125,-5637.01025390625,7375.08154296875,-572.9993286132812,-2105.236083984375,10340.2138671875,-6079.673828125,9106.794921875,7889.27099609375,5731.58251953125,8265.177734375,2830.8232421875,-1536.21044921875,5629.0625,-0.0,4651.54638671875,-14959.9716796875,2438.227294921875,12982.6865234375,2662.3408203125,-7196.267578125,4520.416015625,5025.06884765625,3596.146728515625,4316.9658203125,3191.630126953125,-4375.77587890625,-10094.642578125,-5271.4345703125,2302.328857421875,-4299.48193359375,0.0,-6190.14111328125,0.0,-6940.36474609375,-10256.767578125,3971.258544921875,-10166.962890625,0.0,-13195.673828125,-1564.8206787109375,0.0,-6638.3681640625,0.0,5153.0205078125,-0.0,-5908.01220703125
-2601.94140625,-3602.504638671875,12168.08984375,-7710.45703125,7776.4189453125,2826.849609375,3577.8681640625,-5524.15869140625,0.0,-5047.3212890625,-2221.2666015625,-11552.9697265625,0.0,0.0,0.0,-3502.368896484375,3090.699462890625,11951.12890625,-0.0,-1017.2525634765625,5921.5224609375,9697.2783203125,7340.908203125,3121.69384765625,2824.465576171875,-8215.904296875,-5634.6259765625,7385.41259765625,-575.3834838867188,-2083.7783203125,10346.572265625,-6072.52099609375,9114.7421875,7897.2177734375,5737.14599609375,8273.9189453125,2834.002197265625,-1531.4420166015625,5637.8046875,-0.0,4657.10986328125,-14948.8447265625,2439.816650390625,12991.4287109375,2664.72509765625,-7193.08837890625,4530.748046875,5037.78466796875,3598.531005859375,4328.88671875,3192.4248046875,-4368.623046875,-10090.6689453125,-5267.46142578125,2299.149658203125,-4278.81884765625,0.0,-6182.19384765625,0.0,-6932.41748046875,-10252.79296875,3976.027099609375,-10162.1943359375,0.0,-13175.0107421875,-1559.257568359375,0.0,-6628.83154296875,0.0,5159.3779296875,-0.0,-5896.88623046875
-2628.16748046875,-3608.06787109375,12164.1162109375,-7712.04638671875,7771.65087890625,2825.26025390625,3581.047119140625,-5523.36376953125,0.0,-5043.34765625,-2214.90869140625,-11555.3544921875,0.0,0.0,0.0,-3499.98486328125,3090.699462890625,11947.94921875,-0.0,-1011.6895141601562,5918.34423828125,9696.4833984375,7339.31884765625,3120.1044921875,2813.33935546875,-8215.109375,-5637.8046875,7383.8232421875,-587.304443359375,-2086.16259765625,10344.1875,-6074.1103515625,9113.15234375,7896.42333984375,5736.35107421875,8271.53515625,2837.18115234375,-1530.647216796875,5636.21533203125,-0.0,4653.1357421875,-14947.2548828125,2439.02197265625,12992.22265625,2670.2880859375,-7189.90966796875,4522.00537109375,5038.57958984375,3591.37841796875,4329.681640625,3195.603515625,-4367.03369140625,-10098.6162109375,-5269.845703125,2288.818359375,-4280.408203125,0.0,-6179.8095703125,0.0,-6929.23876953125,-10268.6884765625,3976.82177734375,-10159.015625,0.0,-13180.5732421875,-1563.2310791015625,0.0,-6620.0888671875,0.0,5156.19921875,-0.0,-5893.70703125
-2627.372802734375,-3617.6044921875,12159.34765625,-7715.22509765625,7766.88232421875,2818.107666015625,3581.047119140625,-5525.74755859375,0.0,-5043.34765625,-2214.114013671875,-11594.2958984375,0.0,0.0,0.0,-3504.753173828125,3088.315185546875,11945.5654296875,-0.0,-1008.5106201171875,5912.78076171875,9690.9208984375,7333.75537109375,3116.925537109375,2806.186767578125,-8219.0830078125,-5644.16259765625,7379.05517578125,-593.6622314453125,-2088.546875,10341.0078125,-6075.7001953125,9107.58984375,7892.44921875,5730.78759765625,8266.7666015625,2834.796875,-1534.620849609375,5631.44677734375,-0.0,4648.3671875,-14952.0234375,2437.4326171875,12986.66015625,2667.90380859375,-7189.90966796875,4515.64794921875,5041.75830078125,3585.8154296875,4323.32373046875,3194.80908203125,-4369.41748046875,-10106.5634765625,-5273.81884765625,2281.665771484375,-4309.0185546875,0.0,-6187.7568359375,0.0,-6929.23876953125,-10298.0927734375,3970.464111328125,-10159.015625,0.0,-13187.7255859375,-1589.4571533203125,0.0,-6610.55224609375,0.0,5160.96728515625,-0.0,-5882.5810546875
-2609.888671875,-3622.372802734375,12150.60546875,-7708.07275390625,7762.9091796875,2825.26025390625,3578.662841796875,-5520.9794921875,0.0,-5040.9638671875,-2226.82958984375,-11598.26953125,0.0,0.0,0.0,-3499.190185546875,3085.93115234375,11946.3603515625,-0.0,-1004.5369873046875,5909.6015625,9693.3046875,7333.75537109375,3119.3095703125,2799.828857421875,-8202.3935546875,-5649.7255859375,7384.6181640625,-598.4306640625,-2061.526123046875,10341.8037109375,-6080.46875,9102.02734375,7894.0390625,5729.1982421875,8271.53515625,2833.207275390625,-1533.031494140625,5617.1416015625,-0.0,4644.39404296875,-14946.4609375,2435.84326171875,12992.22265625,2667.109130859375,-7186.73095703125,4503.72705078125,5060.83154296875,3581.841796875,4332.0654296875,3190.835205078125,-4368.623046875,-10120.07421875,-5292.892578125,2276.102783203125,-4298.68701171875,0.0,-6186.16748046875,0.0,-6927.64892578125,-10299.6826171875,3968.87451171875,-10159.015625,0.0,-13202.826171875,-1584.6888427734375,0.0,-6607.37353515625,0.0,5178.45166015625,-0.0,-5874.6337890625
-2583.662841796875,-3609.6572265625,12152.9892578125,-7705.6884765625,7768.47216796875,2822.8759765625,3577.8681640625,-5521.7744140625,0.0,-5040.1689453125,-2219.677001953125,-11572.837890625,0.0,0.0,0.0,-3496.805908203125,3086.725830078125,11946.3603515625,-0.0,-1005.3316650390625,5911.98583984375,9694.099609375,7334.55029296875,3118.51513671875,2809.365478515625,-8214.314453125,-5644.16259765625,7383.0283203125,-588.8939208984375,-2060.731201171875,10341.8037109375,-6082.85302734375,9103.6162109375,7894.83349609375,5731.58251953125,8269.150390625,2834.796875,-1531.4420166015625,5616.3466796875,-0.0,4647.57275390625,-14948.8447265625,2439.02197265625,12990.6337890625,2667.90380859375,-7185.93603515625,4507.70068359375,5057.65283203125,3587.405029296875,4326.50244140625,3192.4248046875,-4367.03369140625,-10112.921875,-5284.150390625,2285.639404296875,-4322.52880859375,0.0,-6209.21484375,0.0,-6923.67578125,-10279.814453125,3970.464111328125,-10158.2216796875,0.0,-13188.521484375,-1571.97314453125,0.0,-6604.19482421875,0.0,5180.8359375,-0.0,-5875.4287109375
-2575.71533203125,-3600.915283203125,12161.7314453125,-7717.609375,7773.24072265625,2819.697021484375,3579.45751953125,-5521.7744140625,0.0,-5036.1953125,-2212.5244140625,-11532.306640625,0.0,0.0,0.0,-3489.6533203125,3083.546875,11945.5654296875,-0.0,-1005.3316650390625,5913.57568359375,9690.125,7335.3447265625,3117.720458984375,2815.723388671875,-8234.9775390625,-5641.7783203125,7386.20751953125,-583.330810546875,-2106.03076171875,10341.0078125,-6086.03125,9107.58984375,7890.0654296875,5732.37744140625,8264.3828125,2836.386474609375,-1531.4420166015625,5629.0625,-0.0,4650.75146484375,-14960.765625,2439.816650390625,12990.6337890625,2668.698486328125,-7184.3466796875,4517.2373046875,5025.86376953125,3589.7890625,4322.52880859375,3194.80908203125,-4362.26513671875,-10108.1533203125,-5280.1767578125,2291.20263671875,-4333.65478515625,0.0,-6202.8564453125,0.0,-6921.29150390625,-10267.0986328125,3970.464111328125,-10158.2216796875,0.0,-13184.5478515625,-1560.846923828125,0.0,-6600.22119140625,0.0,5184.0146484375,-0.0,-5869.865234375
-2594.788818359375,-3611.246826171875,12156.1689453125,-7727.94091796875,7765.29296875,2810.955078125,3574.689208984375,-5528.9267578125,0.0,-5044.14208984375,-2225.239990234375,-11546.611328125,0.0,0.0,0.0,-3500.779296875,3074.01025390625,11937.6181640625,-0.0,-1012.4841918945312,5906.4228515625,9679.7939453125,7327.39794921875,3108.18359375,2809.365478515625,-8239.74609375,-5644.95703125,7377.4658203125,-588.8939208984375,-2115.5673828125,10329.8828125,-6093.97900390625,9099.642578125,7880.5283203125,5723.63525390625,8255.640625,2830.8232421875,-1540.978759765625,5620.32080078125,-0.0,4643.59912109375,-14966.3291015625,2435.84326171875,12981.8916015625,2665.519775390625,-7192.29345703125,4513.263671875,5018.7109375,3583.43115234375,4313.787109375,3190.04052734375,-4371.8017578125,-10116.89453125,-5282.56103515625,2284.8447265625,-4334.44970703125,0.0,-6201.26708984375,0.0,-6930.033203125,-10261.53515625,3962.516845703125,-10166.16796875,0.0,-13201.236328125,-1575.94677734375,0.0,-6609.7578125,0.0,5173.68310546875,-0.0,-5880.99169921875
