-5213.41943359375,-5535.28466796875,11822.3828125,-8018.81103515625,6874.40234375,2690.15625,3556.41064453125,-5780.85546875,0.0,-4839.10205078125,-2230.00830078125,-13426.14453125,0.0,0.0,0.0,-3452.301025390625,2674.26171875,11874.8349609375,-0.0,-536.4417724609375,5950.1328125,9538.3330078125,7189.115234375,2988.974365234375,2725.9189453125,-7302.76123046875,-5917.54931640625,7099.310546875,-1222.2926025390625,-3101.031005859375,10011.990234375,-6698.76708984375,8997.123046875,7662.77294921875,5661.646484375,7930.59619140625,2855.4599609375,-1273.1552734375,5231.69873046875,-0.0,4728.63525390625,-15085.5380859375,2816.51806640625,12838.8408203125,2685.387939453125,-7062.75341796875,4044.3740234375,4905.06494140625,6811.61865234375,4185.83544921875,3153.483154296875,-4416.30712890625,-11278.7880859375,-6248.951171875,2099.673095703125,-3492.832275390625,0.0,-5995.4326171875,0.0,-6766.3193359375,-11598.26953125,3836.155029296875,-9893.576171875,0.0,-14259.8154296875,-1822.312744140625,0.0,-7004.73779296875,0.0,4970.232421875,-0.0,-5957.28564453125
-5227.724609375,-5544.02685546875,11813.640625,-8025.16943359375,6871.2236328125,2686.977294921875,3554.821044921875,-5783.23974609375,0.0,-4840.69189453125,-2233.982177734375,-13434.88671875,0.0,0.0,0.0,-3453.095703125,2669.493408203125,11871.6552734375,-0.0,-537.2365112304688,5946.1591796875,9531.1806640625,7186.73095703125,2985.795166015625,2721.150634765625,-7310.70849609375,-5918.34423828125,7095.3369140625,-1226.2662353515625,-3110.56787109375,10006.427734375,-6704.33056640625,8992.3544921875,7655.62060546875,5658.4677734375,7925.03369140625,2855.4599609375,-1277.1287841796875,5224.5458984375,-0.0,4724.6611328125,-15092.6904296875,2815.723388671875,12834.072265625,2683.798583984375,-7066.7265625,4037.221435546875,4901.8857421875,6809.234375,4181.86181640625,3154.27783203125,-4417.896484375,-11274.0205078125,-6265.64013671875,2094.904541015625,-3501.57421875,0.0,-6000.20068359375,0.0,-6769.49853515625,-11592.7060546875,3832.97607421875,-9895.1650390625,0.0,-14263.7890625,-1823.107421875,0.0,-7013.4794921875,0.0,4970.232421875,-0.0,-5951.72265625
-5199.1142578125,-5547.20556640625,11808.078125,-8031.52734375,6864.86572265625,2682.208984375,3554.821044921875,-5784.82958984375,0.0,-4839.89697265625,-2233.982177734375,-13436.4765625,0.0,0.0,0.0,-3453.095703125,2662.3408203125,11869.271484375,-0.0,-537.2365112304688,5940.59619140625,9527.2060546875,7183.5517578125,2985.00048828125,2717.9716796875,-7316.271484375,-5923.90673828125,7091.36328125,-1229.445068359375,-3114.541259765625,10000.865234375,-6714.662109375,8985.2021484375,7648.4677734375,5655.28857421875,7921.85498046875,2854.6650390625,-1280.3077392578125,5220.57177734375,-0.0,4719.0986328125,-15097.458984375,2812.544677734375,12831.6875,2683.798583984375,-7068.31591796875,4030.06884765625,4897.11767578125,6806.0556640625,4177.09375,3152.688232421875,-4418.69091796875,-11271.6357421875,-6265.64013671875,2091.7255859375,-3504.753173828125,0.0,-6000.20068359375,0.0,-6767.90869140625,-11586.3486328125,3831.386474609375,-9896.7548828125,0.0,-14263.7890625,-1827.0810546875,0.0,-7007.1220703125,0.0,4974.20654296875,-0.0,-5947.74853515625
-5190.37255859375,-5549.58984375,11801.7197265625,-8032.32177734375,6859.302734375,2679.0302734375,3553.2314453125,-5788.80322265625,0.0,-4843.87060546875,-2236.3662109375,-13441.2451171875,0.0,0.0,0.0,-3459.45361328125,2660.75146484375,11865.2978515625,-0.0,-538.8259887695312,5937.41748046875,9524.822265625,7181.96240234375,2981.02685546875,2717.17724609375,-7321.83447265625,-5923.90673828125,7088.1845703125,-1231.03466796875,-3116.925537109375,9997.685546875,-6713.8671875,8982.8173828125,7646.87890625,5653.69921875,7917.880859375,2852.28076171875,-1282.69189453125,5222.9560546875,-0.0,4712.740234375,-15098.25390625,2810.955078125,12828.509765625,2683.003662109375,-7073.08447265625,4023.710693359375,4896.32275390625,6802.08203125,4172.3251953125,3150.30419921875,-4422.66455078125,-11285.1455078125,-6256.8984375,2090.13623046875,-3509.521484375,0.0,-6006.55908203125,0.0,-6771.88232421875,-11607.806640625,3829.00244140625,-9899.93359375,0.0,-14269.3515625,-1834.233642578125,0.0,-6998.38037109375,0.0,4971.822265625,-0.0,-5954.10693359375
-5206.26708984375,-5550.384765625,11799.3359375,-8033.91162109375,6857.71337890625,2677.440673828125,3554.0263671875,-5791.1875,0.0,-4843.87060546875,-2246.69775390625,-13442.833984375,0.0,0.0,0.0,-3461.043212890625,2659.161865234375,11862.119140625,-0.0,-540.4154663085938,5935.033203125,9523.232421875,7181.16748046875,2978.642822265625,2713.203369140625,-7322.62939453125,-5921.5224609375,7086.59521484375,-1235.802978515625,-3115.336181640625,9996.890625,-6713.8671875,8980.43359375,7645.2890625,5652.904296875,7915.4970703125,2854.6650390625,-1283.4866943359375,5211.03515625,-0.0,4710.3564453125,-15103.8173828125,2811.749755859375,12825.330078125,2683.798583984375,-7073.87939453125,4024.505615234375,4895.5283203125,6800.49267578125,4170.73583984375,3150.30419921875,-4422.66455078125,-11295.4775390625,-6251.3349609375,2083.7783203125,-3510.316162109375,0.0,-6012.12158203125,0.0,-6775.06103515625,-11609.3955078125,3827.412841796875,-9899.93359375,0.0,-14278.0947265625,-1836.6177978515625,0.0,-6999.1748046875,0.0,4967.84814453125,-0.0,-5953.31201171875
-5214.21435546875,-5549.58984375,11796.1572265625,-8036.2958984375,6859.302734375,2676.64599609375,3552.436767578125,-5791.98193359375,0.0,-4846.2548828125,-2245.903076171875,-13438.0654296875,0.0,0.0,0.0,-3458.658935546875,2655.98291015625,11860.5302734375,-0.0,-541.210205078125,5931.8544921875,9523.232421875,7181.16748046875,2978.642822265625,2712.40869140625,-7321.83447265625,-5919.138671875,7088.1845703125,-1236.59765625,-3112.1572265625,9996.0966796875,-6721.814453125,8975.6650390625,7640.5205078125,5650.5205078125,7914.70263671875,2854.6650390625,-1283.4866943359375,5190.37255859375,-0.0,4711.94580078125,-15108.5849609375,2811.749755859375,12826.125,2683.003662109375,-7074.67431640625,4025.300537109375,4894.7333984375,6801.287109375,4173.1201171875,3152.688232421875,-4421.86962890625,-11274.0205078125,-6252.92431640625,2083.7783203125,-3507.931884765625,0.0,-6011.3271484375,0.0,-6774.2666015625,-11597.4736328125,3825.823486328125,-9900.7294921875,0.0,-14276.5048828125,-1834.233642578125,0.0,-7003.1484375,0.0,4971.02734375,-0.0,-5954.9013671875
-5220.57177734375,-5553.5634765625,11797.74609375,-8033.91162109375,6861.6865234375,2679.82470703125,3551.64208984375,-5790.392578125,0.0,-4844.66552734375,-2249.876708984375,-13430.1181640625,0.0,0.0,0.0,-3453.890625,2655.188232421875,11862.9140625,-0.0,-538.8259887695312,5933.443359375,9524.02734375,7182.7568359375,2980.232177734375,2717.17724609375,-7317.86083984375,-5921.5224609375,7092.15771484375,-1231.829345703125,-3106.593994140625,9997.685546875,-6723.40380859375,8978.048828125,7640.5205078125,5652.904296875,7915.4970703125,2854.6650390625,-1281.1025390625,5196.72998046875,-0.0,4712.740234375,-15109.3798828125,2812.544677734375,12828.509765625,2683.003662109375,-7073.08447265625,4028.47900390625,4898.70703125,6802.08203125,4178.6826171875,3151.8935546875,-4420.2802734375,-11261.3037109375,-6250.5400390625,2090.930908203125,-3509.521484375,0.0,-6005.76416015625,0.0,-6771.087890625,-11590.3212890625,3827.412841796875,-9896.7548828125,0.0,-14278.0947265625,-1827.875732421875,0.0,-6998.38037109375,0.0,4973.41162109375,-0.0,-5958.080078125
-5237.26123046875,-5554.35791015625,11793.7724609375,-8037.884765625,6860.8916015625,2677.440673828125,3553.2314453125,-5791.98193359375,0.0,-4846.2548828125,-2254.64501953125,-13431.7080078125,0.0,0.0,0.0,-3454.685302734375,2652.80419921875,11860.5302734375,-0.0,-535.6470947265625,5931.0595703125,9520.8486328125,7179.578125,2977.84814453125,2713.203369140625,-7320.2451171875,-5921.5224609375,7092.95263671875,-1235.00830078125,-3109.77294921875,9994.5068359375,-6725.7880859375,8974.0751953125,7638.13623046875,5650.5205078125,7915.4970703125,2855.4599609375,-1281.897216796875,5203.08837890625,-0.0,4711.1513671875,-15113.353515625,2813.33935546875,12827.7138671875,2683.798583984375,-7074.67431640625,4024.505615234375,4896.32275390625,6800.49267578125,4177.09375,3151.098876953125,-4419.4853515625,-11281.1728515625,-6254.51416015625,2086.957275390625,-3514.289794921875,0.0,-6007.353515625,0.0,-6770.29296875,-11605.421875,3828.207763671875,-9898.3447265625,0.0,-14283.6572265625,-1825.4915771484375,0.0,-6999.9697265625,0.0,4972.61669921875,-0.0,-5957.28564453125
-5243.61962890625,-5553.5634765625,11796.951171875,-8044.24267578125,6863.27587890625,2672.67236328125,3552.436767578125,-5793.5712890625,0.0,-4849.43408203125,-2248.287109375,-13439.6552734375,0.0,0.0,0.0,-3459.45361328125,2650.419921875,11856.5556640625,-0.0,-538.8259887695312,5930.26513671875,9518.4638671875,7177.1943359375,2974.669189453125,2716.38232421875,-7328.1923828125,-5920.72802734375,7087.3896484375,-1232.6240234375,-3116.925537109375,9992.123046875,-6729.76171875,8973.28125,7636.546875,5648.13623046875,7911.52294921875,2854.6650390625,-1284.2813720703125,5206.26708984375,-0.0,4710.3564453125,-15117.328125,2812.544677734375,12825.330078125,2681.414306640625,-7078.6474609375,4031.658203125,4889.17041015625,6801.287109375,4170.73583984375,3151.8935546875,-4425.048828125,-11323.29296875,-6261.6669921875,2090.13623046875,-3511.90576171875,0.0,-6010.5322265625,0.0,-6775.85595703125,-11600.6533203125,3825.028564453125,-9900.7294921875,0.0,-14272.5302734375,-1829.4652099609375,0.0,-7006.3271484375,0.0,4969.43798828125,-0.0,-5957.28564453125
-5230.90380859375,-5557.537109375,11800.9248046875,-8045.037109375,6860.8916015625,2671.082763671875,3551.64208984375,-5793.5712890625,0.0,-4848.63916015625,-2247.492431640625,-13438.861328125,0.0,0.0,0.0,-3459.45361328125,2648.830322265625,11856.5556640625,-0.0,-538.8259887695312,5930.26513671875,9516.080078125,7177.1943359375,2973.874267578125,2713.203369140625,-7331.37109375,-5921.5224609375,7085.00537109375,-1235.00830078125,-3122.48876953125,9990.533203125,-6732.14599609375,8974.0751953125,7636.546875,5647.34130859375,7909.93408203125,2853.07568359375,-1286.66552734375,5204.677734375,-0.0,4708.76708984375,-15117.328125,2811.749755859375,12824.53515625,2681.414306640625,-7078.6474609375,4030.86328125,4886.7861328125,6800.49267578125,4167.556640625,3150.30419921875,-4428.22802734375,-11321.7041015625,-6265.64013671875,2086.957275390625,-3511.90576171875,0.0,-6011.3271484375,0.0,-6778.240234375,-11612.57421875,3823.439453125,-9899.1396484375,0.0,-14270.146484375,-1827.875732421875,0.0,-7005.53271484375,0.0,4967.84814453125,-0.0,-5958.080078125
-5218.98291015625,-5562.3056640625,11798.541015625,-8044.24267578125,6858.5078125,2667.90380859375,3554.821044921875,-5795.16064453125,0.0,-4852.61279296875,-2257.029296875,-13438.0654296875,0.0,0.0,0.0,-3464.221923828125,2647.240966796875,11855.76171875,-0.0,-541.210205078125,5927.880859375,9513.6953125,7175.6044921875,2973.07958984375,2710.8193359375,-7330.57666015625,-5922.3173828125,7083.416015625,-1238.9818115234375,-3125.66748046875,9989.73828125,-6732.9404296875,8972.4853515625,7635.75244140625,5647.34130859375,7910.728515625,2852.28076171875,-1289.844482421875,5199.9091796875,-0.0,4710.3564453125,-15114.1484375,2808.57080078125,12822.1513671875,2681.414306640625,-7077.8525390625,4025.300537109375,4886.7861328125,6798.1083984375,4165.17236328125,3150.30419921875,-4430.6123046875,-11297.06640625,-6269.61376953125,2084.572998046875,-3512.700439453125,0.0,-6012.91650390625,0.0,-6780.62451171875,-11614.1630859375,3821.849853515625,-9900.7294921875,0.0,-14274.1201171875,-1831.0546875,0.0,-7013.4794921875,0.0,4958.3115234375,-0.0,-5967.6171875
-5248.3876953125,-5570.2529296875,11792.1826171875,-8044.24267578125,6855.3291015625,2667.109130859375,3552.436767578125,-5795.16064453125,0.0,-4848.63916015625,-2261.002685546875,-13442.0390625,0.0,0.0,0.0,-3462.63232421875,2644.06201171875,11850.9931640625,-0.0,-538.8259887695312,5925.49658203125,9510.517578125,7174.81005859375,2969.90087890625,2706.05078125,-7328.1923828125,-5924.70166015625,7082.62109375,-1244.544921875,-3132.820068359375,9986.5595703125,-6737.708984375,8967.716796875,7634.1630859375,5643.36767578125,7908.34423828125,2852.28076171875,-1290.6392822265625,5196.72998046875,-0.0,4707.177734375,-15112.5595703125,2809.365478515625,12818.97265625,2681.414306640625,-7076.263671875,4022.121337890625,4885.19677734375,6795.724609375,4164.3779296875,3150.30419921875,-4428.22802734375,-11297.06640625,-6278.35595703125,2078.21533203125,-3515.08447265625,0.0,-6010.5322265625,0.0,-6776.65087890625,-11595.08984375,3821.849853515625,-9903.11328125,0.0,-14278.888671875,-1834.233642578125,0.0,-7006.3271484375,0.0,4963.875,-0.0,-5958.080078125
-5249.18212890625,-5572.63720703125,11789.00390625,-8042.6533203125,6854.5341796875,2664.72509765625,3552.436767578125,-5795.16064453125,0.0,-4847.8447265625,-2251.466064453125,-13442.833984375,0.0,0.0,0.0,-3461.837890625,2643.267333984375,11850.9931640625,-0.0,-536.4417724609375,5922.3173828125,9511.3115234375,7174.01513671875,2969.10595703125,2706.05078125,-7327.39794921875,-5923.90673828125,7081.82666015625,-1242.1607666015625,-3133.61474609375,9987.3544921875,-6733.7353515625,8965.3330078125,7635.75244140625,5643.36767578125,7905.9599609375,2853.870361328125,-1291.4339599609375,5188.783203125,-0.0,4703.99853515625,-15114.1484375,2810.160400390625,12818.1767578125,2682.208984375,-7076.263671875,4022.121337890625,4885.19677734375,6794.9296875,4162.78857421875,3149.509521484375,-4428.22802734375,-11305.0146484375,-6283.9189453125,2077.42041015625,-3524.621337890625,0.0,-6012.12158203125,0.0,-6776.65087890625,-11595.8857421875,3821.05517578125,-9900.7294921875,0.0,-14283.6572265625,-1836.6177978515625,0.0,-7006.3271484375,0.0,4965.46435546875,-0.0,-5955.6962890625
-5232.4931640625,-5590.12060546875,11792.1826171875,-8047.42138671875,6854.5341796875,2661.5458984375,3553.2314453125,-5799.92919921875,0.0,-4849.43408203125,-2257.029296875,-13452.37109375,0.0,0.0,0.0,-3465.0166015625,2644.06201171875,11850.9931640625,-0.0,-539.6207275390625,5922.3173828125,9508.927734375,7173.22021484375,2965.92724609375,2704.46142578125,-7341.703125,-5925.49658203125,7077.8525390625,-1244.544921875,-3139.97265625,9985.7646484375,-6741.6826171875,8970.1015625,7631.77880859375,5643.36767578125,7904.3701171875,2853.07568359375,-1293.818115234375,5199.1142578125,-0.0,4705.587890625,-15119.7119140625,2810.955078125,12815.79296875,2683.003662109375,-7077.8525390625,4022.121337890625,4882.017578125,6794.9296875,4158.81494140625,3148.71484375,-4432.201171875,-11316.140625,-6289.48193359375,2076.625732421875,-3527.00537109375,0.0,-6019.2744140625,0.0,-6779.82958984375,-11611.779296875,3817.876220703125,-9902.318359375,0.0,-14289.2197265625,-1839.001953125,0.0,-7009.50634765625,0.0,4962.28564453125,-0.0,-5962.8486328125
-5230.90380859375,-5595.68408203125,11792.9775390625,-8045.037109375,6855.3291015625,2663.93017578125,3553.2314453125,-5799.92919921875,0.0,-4847.0498046875,-2264.181884765625,-13453.166015625,0.0,0.0,0.0,-3462.63232421875,2646.4462890625,11851.787109375,-0.0,-540.4154663085938,5924.70166015625,9512.9013671875,7174.81005859375,2965.92724609375,2705.256103515625,-7337.72900390625,-5926.291015625,7078.6474609375,-1240.5714111328125,-3135.9990234375,9987.3544921875,-6738.50390625,8969.306640625,7634.9580078125,5644.95703125,7905.9599609375,2852.28076171875,-1291.4339599609375,5194.34619140625,-0.0,4706.3828125,-15113.353515625,2810.160400390625,12816.5888671875,2682.208984375,-7075.46875,4019.7373046875,4889.17041015625,6794.9296875,4161.99365234375,3151.098876953125,-4429.8173828125,-11304.2197265625,-6283.9189453125,2080.599609375,-3524.621337890625,0.0,-6018.47998046875,0.0,-6775.85595703125,-11587.9375,3818.6708984375,-9902.318359375,0.0,-14280.478515625,-1837.4124755859375,0.0,-7012.68505859375,0.0,4963.875,-0.0,-5967.6171875
-5245.208984375,-5583.76318359375,11791.388671875,-8042.6533203125,6856.91845703125,2665.519775390625,3550.847412109375,-5798.33984375,0.0,-4846.2548828125,-2257.823974609375,-13456.3447265625,0.0,0.0,0.0,-3463.42724609375,2647.240966796875,11852.58203125,-0.0,-538.03125,5927.0859375,9515.28515625,7175.6044921875,2968.311279296875,2710.024658203125,-7330.57666015625,-5923.1123046875,7078.6474609375,-1235.802978515625,-3131.230712890625,9989.73828125,-6732.14599609375,8970.1015625,7638.13623046875,5645.751953125,7908.34423828125,2853.07568359375,-1291.4339599609375,5192.7568359375,-0.0,4707.177734375,-15106.201171875,2809.365478515625,12816.5888671875,2683.003662109375,-7074.67431640625,4014.174072265625,4886.7861328125,6798.1083984375,4163.58349609375,3153.483154296875,-4429.8173828125,-11296.2724609375,-6278.35595703125,2084.572998046875,-3526.210693359375,0.0,-6020.0693359375,0.0,-6775.85595703125,-11587.9375,3821.05517578125,-9902.318359375,0.0,-14278.888671875,-1842.180908203125,0.0,-7009.50634765625,0.0,4966.2587890625,-0.0,-5958.080078125
-5250.77197265625,-5578.19970703125,11793.7724609375,-8041.064453125,6856.12353515625,2663.93017578125,3552.436767578125,-5797.544921875,0.0,-4849.43408203125,-2252.260986328125,-13455.5498046875,0.0,0.0,0.0,-3468.195556640625,2646.4462890625,11852.58203125,-0.0,-538.8259887695312,5926.291015625,9514.4912109375,7174.01513671875,2968.311279296875,2710.024658203125,-7326.60302734375,-5923.90673828125,7075.46875,-1239.776611328125,-3135.204345703125,9990.533203125,-6730.556640625,8970.1015625,7637.341796875,5644.16259765625,7909.93408203125,2852.28076171875,-1294.6129150390625,5187.98828125,-0.0,4707.97216796875,-15101.4326171875,2810.160400390625,12813.4091796875,2683.798583984375,-7076.263671875,4018.9423828125,4885.99169921875,6798.90283203125,4161.19921875,3153.483154296875,-4432.99609375,-11305.0146484375,-6283.9189453125,2081.394287109375,-3521.4423828125,0.0,-6021.658203125,0.0,-6781.41943359375,-11603.83203125,3820.26025390625,-9903.11328125,0.0,-14282.8623046875,-1846.154541015625,0.0,-7012.68505859375,0.0,4958.3115234375,-0.0,-5950.927734375
-5244.4140625,-5571.04736328125,11795.361328125,-8039.474609375,6858.5078125,2665.519775390625,3554.821044921875,-5795.95556640625,0.0,-4849.43408203125,-2248.287109375,-13453.166015625,0.0,0.0,0.0,-3465.8115234375,2648.830322265625,11853.376953125,-0.0,-538.03125,5928.67529296875,9515.28515625,7175.6044921875,2970.695556640625,2713.998046875,-7322.62939453125,-5923.1123046875,7077.05810546875,-1234.2135009765625,-3128.846435546875,9991.328125,-6728.96728515625,8972.4853515625,7638.93115234375,5646.546875,7911.52294921875,2852.28076171875,-1292.228759765625,5193.5517578125,-0.0,4711.94580078125,-15095.8701171875,2810.955078125,12814.9990234375,2683.798583984375,-7072.2900390625,4029.27392578125,4883.607421875,6802.08203125,4161.99365234375,3153.483154296875,-4431.40673828125,-11305.80859375,-6271.20361328125,2087.752197265625,-3519.852783203125,0.0,-6017.68505859375,0.0,-6777.4453125,-11607.806640625,3823.439453125,-9901.5234375,0.0,-14278.0947265625,-1849.3333740234375,0.0,-7011.095703125,0.0,4957.51708984375,-0.0,-5950.927734375
-5237.26123046875,-5567.07373046875,11795.361328125,-8037.884765625,6860.8916015625,2669.493408203125,3553.2314453125,-5791.1875,0.0,-4840.69189453125,-2249.081787109375,-13453.166015625,0.0,0.0,0.0,-3457.0693359375,2651.214599609375,11855.76171875,-0.0,-536.4417724609375,5930.26513671875,9518.4638671875,7177.1943359375,2974.669189453125,2719.561279296875,-7318.6552734375,-5923.1123046875,7081.82666015625,-1228.650390625,-3124.078125,9992.9169921875,-6726.5830078125,8974.0751953125,7641.3154296875,5648.13623046875,7915.4970703125,2853.07568359375,-1288.255126953125,5197.52490234375,-0.0,4712.740234375,-15087.921875,2811.749755859375,12821.3564453125,2683.003662109375,-7065.13720703125,4029.27392578125,4885.99169921875,6802.876953125,4165.96728515625,3152.688232421875,-4425.84375,-11285.94140625,-6265.64013671875,2094.10986328125,-3515.87939453125,0.0,-6006.55908203125,0.0,-6767.1142578125,-11614.958984375,3826.6181640625,-9898.3447265625,0.0,-14277.298828125,-1848.5386962890625,0.0,-6996.79052734375,0.0,4976.5908203125,-0.0,-5941.39111328125
-5228.51953125,-5556.7421875,11805.693359375,-8030.73193359375,6864.86572265625,2675.056396484375,3553.2314453125,-5788.00830078125,0.0,-4839.89697265625,-2237.955810546875,-13445.2177734375,0.0,0.0,0.0,-3455.47998046875,2659.161865234375,11861.32421875,-0.0,-538.03125,5937.41748046875,9524.822265625,7180.37255859375,2979.4375,2725.9189453125,-7311.5029296875,-5919.138671875,7083.416015625,-1223.0872802734375,-3117.720458984375,9998.48046875,-6716.25146484375,8983.6123046875,7648.4677734375,5653.69921875,7921.85498046875,2852.28076171875,-1285.870849609375,5213.41943359375,-0.0,4719.0986328125,-15076.796875,2812.544677734375,12823.7412109375,2681.414306640625,-7061.16357421875,4039.605712890625,4893.9384765625,6807.6455078125,4169.94091796875,3151.098876953125,-4423.45947265625,-11266.072265625,-6255.30859375,2098.878173828125,-3509.521484375,0.0,-6000.20068359375,0.0,-6766.3193359375,-11607.806640625,3829.00244140625,-9897.5498046875,0.0,-14265.3779296875,-1842.180908203125,0.0,-7001.55859375,0.0,4967.84814453125,-0.0,-5951.72265625
-5246.7978515625,-5565.484375,11807.2822265625,-8029.9375,6865.66015625,2675.85107421875,3552.436767578125,-5785.6240234375,0.0,-4835.923828125,-2241.134765625,-13444.423828125,0.0,0.0,0.0,-3450.71142578125,2656.777587890625,11860.5302734375,-0.0,-534.8523559570312,5936.62255859375,9524.02734375,7178.783203125,2978.642822265625,2722.740234375,-7310.70849609375,-5918.34423828125,7085.80029296875,-1226.2662353515625,-3119.3095703125,9997.685546875,-6721.01953125,8982.8173828125,7647.67333984375,5652.904296875,7921.85498046875,2852.28076171875,-1285.076171875,5216.5986328125,-0.0,4720.68798828125,-15075.20703125,2811.749755859375,12824.53515625,2681.414306640625,-7059.57421875,4041.19482421875,4893.9384765625,6808.43994140625,4169.94091796875,3151.098876953125,-4420.2802734375,-11272.4306640625,-6252.92431640625,2094.10986328125,-3507.931884765625,0.0,-5994.63818359375,0.0,-6760.755859375,-11612.57421875,3829.00244140625,-9896.7548828125,0.0,-14264.583984375,-1838.207275390625,0.0,-6992.81689453125,0.0,4977.38525390625,-0.0,-5939.0068359375
-5265.87158203125,-5572.63720703125,11807.2822265625,-8034.7060546875,6864.07080078125,2674.26171875,3550.847412109375,-5787.2138671875,0.0,-4839.89697265625,-2245.903076171875,-13447.6025390625,0.0,0.0,0.0,-3453.890625,2653.598876953125,11858.9404296875,-0.0,-538.8259887695312,5935.82763671875,9520.8486328125,7177.1943359375,2975.4638671875,2719.561279296875,-7314.68212890625,-5918.34423828125,7085.00537109375,-1227.855712890625,-3124.078125,9996.0966796875,-6726.5830078125,8982.0224609375,7642.90478515625,5650.5205078125,7917.08642578125,2850.691650390625,-1286.66552734375,5218.18798828125,-0.0,4717.5087890625,-15083.1533203125,2810.160400390625,12822.9453125,2681.414306640625,-7062.75341796875,4044.3740234375,4889.96484375,6806.8505859375,4167.556640625,3149.509521484375,-4421.86962890625,-11288.3251953125,-6255.30859375,2091.7255859375,-3509.521484375,0.0,-5997.02197265625,0.0,-6764.72998046875,-11609.3955078125,3825.823486328125,-9899.93359375,0.0,-14265.3779296875,-1835.0283203125,0.0,-7001.55859375,0.0,4967.84814453125,-0.0,-5945.3642578125
-5252.361328125,-5563.10009765625,11806.48828125,-8034.7060546875,6862.4814453125,2673.467041015625,3552.436767578125,-5788.80322265625,0.0,-4843.076171875,-2257.823974609375,-13443.62890625,0.0,0.0,0.0,-3457.864013671875,2655.188232421875,11858.9404296875,-0.0,-541.210205078125,5935.033203125,9520.8486328125,7177.98876953125,2976.258544921875,2715.587646484375,-7313.88720703125,-5918.34423828125,7086.59521484375,-1231.829345703125,-3126.462158203125,9996.890625,-6723.40380859375,8982.0224609375,7642.1103515625,5648.93115234375,7917.880859375,2851.486328125,-1285.870849609375,5218.18798828125,-0.0,4714.330078125,-15087.1279296875,2810.160400390625,12823.7412109375,2682.208984375,-7063.5478515625,4042.7841796875,4893.14404296875,6804.46630859375,4168.3515625,3150.30419921875,-4421.86962890625,-11305.0146484375,-6253.71923828125,2089.34130859375,-3509.521484375,0.0,-6001.79052734375,0.0,-6770.29296875,-11612.57421875,3825.823486328125,-9899.93359375,0.0,-14271.736328125,-1829.4652099609375,0.0,-7015.86376953125,0.0,4952.74853515625,-0.0,-5960.46435546875
-5224.5458984375,-5560.71630859375,11800.9248046875,-8038.68017578125,6861.6865234375,2674.26171875,3554.821044921875,-5789.59814453125,0.0,-4839.89697265625,-2268.1552734375,-13437.271484375,0.0,0.0,0.0,-3455.47998046875,2652.80419921875,11857.3505859375,-0.0,-536.4417724609375,5930.26513671875,9519.259765625,7177.1943359375,2975.4638671875,2712.40869140625,-7315.47705078125,-5920.72802734375,7088.1845703125,-1234.2135009765625,-3124.078125,9995.30078125,-6724.19873046875,8975.6650390625,7639.72607421875,5648.93115234375,7916.291015625,2853.07568359375,-1285.870849609375,5204.677734375,-0.0,4711.1513671875,-15093.4853515625,2810.955078125,12824.53515625,2685.387939453125,-7064.34228515625,4029.27392578125,4896.32275390625,6801.287109375,4172.3251953125,3154.27783203125,-4421.0751953125,-11309.783203125,-6260.0771484375,2086.16259765625,-3511.111083984375,0.0,-6001.79052734375,0.0,-6768.70361328125,-11610.984375,3824.23388671875,-9898.3447265625,0.0,-14283.6572265625,-1834.233642578125,0.0,-7015.0693359375,0.0,4959.9013671875,-0.0,-5955.6962890625
-5211.03515625,-5576.6103515625,11792.1826171875,-8049.8056640625,6859.302734375,2665.519775390625,3554.821044921875,-5796.75048828125,0.0,-4843.076171875,-2265.771240234375,-13448.3974609375,0.0,0.0,0.0,-3463.42724609375,2640.88330078125,11850.1982421875,-0.0,-538.03125,5922.3173828125,9510.517578125,7170.8359375,2968.311279296875,2709.229736328125,-7329.7822265625,-5922.3173828125,7079.4423828125,-1238.1871337890625,-3135.204345703125,9984.9697265625,-6739.29833984375,8966.9228515625,7626.21533203125,5642.57275390625,7907.5498046875,2852.28076171875,-1292.228759765625,5189.57763671875,-0.0,4703.99853515625,-15106.9951171875,2810.160400390625,12817.3828125,2686.1826171875,-7069.90576171875,4019.7373046875,4883.607421875,6798.1083984375,4163.58349609375,3155.072509765625,-4430.6123046875,-11310.5771484375,-6282.32958984375,2082.18896484375,-3523.031982421875,0.0,-6012.12158203125,0.0,-6776.65087890625,-11605.421875,3818.6708984375,-9901.5234375,0.0,-14289.2197265625,-1842.180908203125,0.0,-7026.990234375,0.0,4952.74853515625,-0.0,-5956.4912109375
-5236.466796875,-5596.47900390625,11784.236328125,-8053.77978515625,6853.7392578125,2660.75146484375,3554.0263671875,-5800.72412109375,0.0,-4844.66552734375,-2272.129150390625,-13461.9072265625,0.0,0.0,0.0,-3468.990234375,2633.730712890625,11846.224609375,-0.0,-534.8523559570312,5915.9599609375,9506.54296875,7169.24658203125,2962.748291015625,2700.48779296875,-7336.9345703125,-5925.49658203125,7075.46875,-1248.5185546875,-3135.9990234375,9978.6123046875,-6746.45068359375,8961.3603515625,7620.65283203125,5637.8046875,7901.19189453125,2852.28076171875,-1293.818115234375,5183.2197265625,-0.0,4700.02490234375,-15115.73828125,2807.776123046875,12814.2041015625,2684.59326171875,-7073.87939453125,4014.96875,4882.017578125,6793.34033203125,4159.609375,3153.483154296875,-4433.79052734375,-11318.5244140625,-6298.22412109375,2075.036376953125,-3529.3896484375,0.0,-6018.47998046875,0.0,-6776.65087890625,-11618.931640625,3815.491943359375,-9903.908203125,0.0,-14287.630859375,-1850.128173828125,0.0,-7030.9638671875,0.0,4949.56982421875,-0.0,-5963.6435546875
-5277.79248046875,-5607.60498046875,11784.236328125,-8052.18994140625,6850.560546875,2663.135498046875,3550.847412109375,-5799.134765625,0.0,-4846.2548828125,-2276.102783203125,-13469.85546875,0.0,0.0,0.0,-3461.837890625,2636.11474609375,11847.01953125,-0.0,-535.6470947265625,5917.54931640625,9506.54296875,7169.24658203125,2964.337646484375,2694.924560546875,-7336.1396484375,-5926.291015625,7080.23681640625,-1254.081787109375,-3128.846435546875,9980.2021484375,-6744.86181640625,8961.3603515625,7622.2421875,5637.8046875,7902.78125,2850.691650390625,-1293.0234375,5188.783203125,-0.0,4700.02490234375,-15118.1220703125,2807.776123046875,12818.1767578125,2683.798583984375,-7071.4951171875,4011.789794921875,4886.7861328125,6790.1611328125,4161.99365234375,3151.098876953125,-4429.0224609375,-11324.8828125,-6300.6083984375,2068.6787109375,-3533.36328125,0.0,-6015.30078125,0.0,-6773.4716796875,-11631.6484375,3817.08154296875,-9903.908203125,0.0,-14309.0888671875,-1843.7703857421875,0.0,-7013.4794921875,0.0,4964.669921875,-0.0,-5958.875
-5273.02392578125,-5600.45263671875,11783.4404296875,-8045.83251953125,6847.3818359375,2667.109130859375,3549.258056640625,-5796.75048828125,0.0,-4846.2548828125,-2266.56591796875,-13462.703125,0.0,0.0,0.0,-3457.0693359375,2641.677734375,11848.609375,-0.0,-537.2365112304688,5919.138671875,9509.72265625,7171.630859375,2968.311279296875,2693.335205078125,-7331.37109375,-5927.880859375,7085.80029296875,-1253.2869873046875,-3125.66748046875,9982.5859375,-6737.708984375,8963.744140625,7627.80517578125,5638.599609375,7904.3701171875,2849.896728515625,-1290.6392822265625,5184.0146484375,-0.0,4698.435546875,-15114.1484375,2806.186767578125,12822.1513671875,2680.619384765625,-7071.4951171875,4008.611083984375,4889.17041015625,6790.1611328125,4166.76171875,3150.30419921875,-4426.63818359375,-11312.9619140625,-6292.6611328125,2067.8837890625,-3542.10546875,0.0,-6010.5322265625,0.0,-6772.6767578125,-11626.083984375,3818.6708984375,-9903.908203125,0.0,-14317.0361328125,-1833.4388427734375,0.0,-7011.095703125,0.0,4966.2587890625,-0.0,-5946.9541015625
-5257.92431640625,-5582.96826171875,11783.4404296875,-8041.064453125,6848.970703125,2675.056396484375,3550.847412109375,-5791.1875,0.0,-4837.51318359375,-2257.029296875,-13441.2451171875,0.0,0.0,0.0,-3445.1484375,2646.4462890625,11853.376953125,-0.0,-533.2628784179688,5922.3173828125,9515.28515625,7174.81005859375,2974.669189453125,2696.51416015625,-7322.62939453125,-5927.880859375,7093.74755859375,-1251.697509765625,-3121.69384765625,9988.1484375,-6729.76171875,8967.716796875,7634.9580078125,5643.36767578125,7910.728515625,2850.691650390625,-1285.076171875,5196.72998046875,-0.0,4699.22998046875,-15108.5849609375,2807.776123046875,12828.509765625,2680.619384765625,-7065.13720703125,4010.995361328125,4890.759765625,6792.54541015625,4175.50439453125,3150.30419921875,-4419.4853515625,-11303.4248046875,-6270.40869140625,2068.6787109375,-3519.852783203125,0.0,-6000.20068359375,0.0,-6762.345703125,-11626.8798828125,3822.64453125,-9899.1396484375,0.0,-14291.6044921875,-1823.902099609375,0.0,-7003.94287109375,0.0,4975.7958984375,-0.0,-5940.59619140625
-5249.97705078125,-5568.6630859375,11790.5927734375,-8034.7060546875,6857.71337890625,2682.208984375,3550.847412109375,-5787.2138671875,0.0,-4836.71826171875,-2251.466064453125,-13430.1181640625,0.0,0.0,0.0,-3444.353759765625,2652.00927734375,11862.119140625,-0.0,-534.8523559570312,5928.67529296875,9522.4384765625,7179.578125,2980.232177734375,2702.8720703125,-7317.06640625,-5923.1123046875,7097.72119140625,-1245.3397216796875,-3111.362548828125,9996.890625,-6725.7880859375,8973.28125,7641.3154296875,5649.7255859375,7917.08642578125,2852.28076171875,-1280.3077392578125,5208.65087890625,-0.0,4706.3828125,-15104.611328125,2810.955078125,12834.072265625,2682.208984375,-7064.34228515625,4024.505615234375,4900.296875,6797.3134765625,4182.65673828125,3148.71484375,-4413.9228515625,-11302.630859375,-6253.71923828125,2075.8310546875,-3491.24267578125,0.0,-5998.611328125,0.0,-6764.72998046875,-11618.931640625,3829.00244140625,-9896.7548828125,0.0,-14270.94140625,-1819.928466796875,0.0,-6995.201171875,0.0,4986.921875,-0.0,-5945.3642578125
-5237.26123046875,-5567.07373046875,11799.3359375,-8035.50048828125,6866.455078125,2682.208984375,3550.847412109375,-5786.4189453125,0.0,-4837.51318359375,-2246.69775390625,-13430.1181640625,0.0,0.0,0.0,-3445.1484375,2655.98291015625,11865.2978515625,-0.0,-533.2628784179688,5931.0595703125,9526.412109375,7182.7568359375,2982.616455078125,2714.79296875,-7318.6552734375,-5919.93310546875,7098.51611328125,-1235.00830078125,-3110.56787109375,10000.865234375,-6723.40380859375,8978.84375,7642.90478515625,5655.28857421875,7917.880859375,2853.870361328125,-1278.7183837890625,5199.1142578125,-0.0,4717.5087890625,-15106.201171875,2813.33935546875,12836.4560546875,2683.798583984375,-7065.13720703125,4034.837158203125,4898.70703125,6803.67138671875,4183.451171875,3149.509521484375,-4413.1279296875,-11292.2978515625,-6245.77197265625,2087.752197265625,-3488.8583984375,0.0,-6000.20068359375,0.0,-6763.14013671875,-11617.3427734375,3831.386474609375,-9895.9609375,0.0,-14267.76171875,-1823.902099609375,0.0,-6992.81689453125,0.0,4989.30615234375,-0.0,-5942.18603515625
-5213.41943359375,-5567.86865234375,11807.2822265625,-8028.34814453125,6874.40234375,2690.15625,3555.61572265625,-5782.4453125,0.0,-4835.923828125,-2225.239990234375,-13415.0185546875,0.0,0.0,0.0,-3439.58544921875,2664.72509765625,11875.6298828125,-0.0,-531.6734619140625,5943.775390625,9535.1533203125,7189.115234375,2988.974365234375,2727.508544921875,-7313.88720703125,-5915.1650390625,7106.462890625,-1223.882080078125,-3101.031005859375,10011.1962890625,-6713.072265625,8986.791015625,7650.05712890625,5664.03076171875,7925.03369140625,2858.638671875,-1273.1552734375,5200.7041015625,-0.0,4727.04541015625,-15103.0224609375,2818.90234375,12841.224609375,2686.1826171875,-7061.16357421875,4039.605712890625,4905.06494140625,6814.0029296875,4188.2197265625,3153.483154296875,-4407.564453125,-11282.76171875,-6238.619140625,2099.673095703125,-3482.500732421875,0.0,-5994.63818359375,0.0,-6757.57763671875,-11592.7060546875,3837.744384765625,-9890.3974609375,0.0,-14259.0205078125,-1815.954833984375,0.0,-6986.45947265625,0.0,4987.716796875,-0.0,-5949.33837890625
-5209.44580078125,-5575.021484375,11803.3095703125,-8030.73193359375,6874.40234375,2687.77197265625,3554.821044921875,-5785.6240234375,0.0,-4842.28125,-2232.392578125,-13414.2236328125,0.0,0.0,0.0,-3442.76416015625,2663.93017578125,11874.0400390625,-0.0,-536.4417724609375,5942.18603515625,9532.76953125,7187.525390625,2985.00048828125,2725.9189453125,-7318.6552734375,-5914.3701171875,7104.07861328125,-1223.882080078125,-3107.388671875,10007.22265625,-6716.25146484375,8984.40625,7647.67333984375,5662.44140625,7924.2392578125,2857.843994140625,-1276.3341064453125,5203.8828125,-0.0,4725.4560546875,-15109.3798828125,2818.107666015625,12837.2509765625,2683.003662109375,-7066.7265625,4033.24755859375,4902.6806640625,6816.38720703125,4185.83544921875,3153.483154296875,-4411.53857421875,-11285.1455078125,-6246.56689453125,2098.08349609375,-3485.6796875,0.0,-5997.02197265625,0.0,-6763.93505859375,-11586.3486328125,3837.744384765625,-9893.576171875,0.0,-14264.583984375,-1819.928466796875,0.0,-6990.4326171875,0.0,4979.76904296875,-0.0,-5962.0537109375
-5216.5986328125,-5563.89453125,11804.8984375,-8032.32177734375,6872.81298828125,2683.798583984375,3554.821044921875,-5788.00830078125,0.0,-4846.2548828125,-2242.72412109375,-13418.197265625,0.0,0.0,0.0,-3448.327392578125,2662.3408203125,11871.6552734375,-0.0,-538.8259887695312,5942.18603515625,9530.384765625,7187.525390625,2982.616455078125,2725.124267578125,-7320.2451171875,-5916.75439453125,7099.310546875,-1224.6767578125,-3114.541259765625,10006.427734375,-6717.04638671875,8985.2021484375,7646.87890625,5660.05712890625,7921.0595703125,2854.6650390625,-1278.7183837890625,5211.830078125,-0.0,4723.86669921875,-15111.763671875,2814.9287109375,12834.8662109375,2682.208984375,-7071.4951171875,4031.658203125,4905.06494140625,6814.0029296875,4182.65673828125,3152.688232421875,-4416.30712890625,-11291.50390625,-6248.951171875,2098.878173828125,-3491.24267578125,0.0,-6002.5849609375,0.0,-6768.70361328125,-11618.1376953125,3835.3603515625,-9895.9609375,0.0,-14272.5302734375,-1826.286376953125,0.0,-6996.79052734375,0.0,4977.38525390625,-0.0,-5958.875
-5232.4931640625,-5558.33203125,11808.078125,-8033.91162109375,6871.2236328125,2682.208984375,3553.2314453125,-5788.00830078125,0.0,-4846.2548828125,-2243.518798828125,-13418.197265625,0.0,0.0,0.0,-3449.1220703125,2662.3408203125,11869.271484375,-0.0,-537.2365112304688,5942.18603515625,9529.5908203125,7185.93603515625,2981.82177734375,2725.124267578125,-7320.2451171875,-5918.34423828125,7097.72119140625,-1225.471435546875,-3111.362548828125,10005.6337890625,-6716.25146484375,8986.791015625,7644.49462890625,5658.4677734375,7921.0595703125,2854.6650390625,-1280.3077392578125,5215.8037109375,-0.0,4722.27734375,-15109.3798828125,2814.1337890625,12833.27734375,2683.003662109375,-7071.4951171875,4034.837158203125,4902.6806640625,6810.82373046875,4182.65673828125,3152.688232421875,-4415.51220703125,-11300.24609375,-6250.5400390625,2096.493896484375,-3492.832275390625,0.0,-6000.20068359375,0.0,-6769.49853515625,-11628.46875,3832.18115234375,-9895.9609375,0.0,-14278.0947265625,-1828.6705322265625,0.0,-6995.99609375,0.0,4979.76904296875,-0.0,-5950.927734375
-5260.30859375,-5563.89453125,11804.103515625,-8037.09033203125,6865.66015625,2679.0302734375,3552.436767578125,-5787.2138671875,0.0,-4843.076171875,-2243.518798828125,-13428.5283203125,0.0,0.0,0.0,-3449.1220703125,2658.3671875,11865.2978515625,-0.0,-536.4417724609375,5938.2119140625,9525.6162109375,7181.16748046875,2979.4375,2720.35595703125,-7323.423828125,-5919.138671875,7094.5419921875,-1229.445068359375,-3123.283447265625,10000.0693359375,-6719.4306640625,8984.40625,7639.72607421875,5655.28857421875,7918.67529296875,2855.4599609375,-1283.4866943359375,5204.677734375,-0.0,4715.91943359375,-15105.4072265625,2813.33935546875,12830.0986328125,2683.003662109375,-7069.11083984375,4030.06884765625,4898.70703125,6805.26123046875,4179.4775390625,3151.098876953125,-4416.30712890625,-11306.603515625,-6258.48779296875,2093.315185546875,-3496.010986328125,0.0,-5999.40625,0.0,-6765.5244140625,-11618.1376953125,3828.207763671875,-9899.1396484375,0.0,-14274.9150390625,-1828.6705322265625,0.0,-6993.61181640625,0.0,4985.33251953125,-0.0,-5942.18603515625
-5259.513671875,-5570.2529296875,11795.361328125,-8035.50048828125,6860.09716796875,2676.64599609375,3553.2314453125,-5786.4189453125,0.0,-4838.3076171875,-2249.876708984375,-13430.9130859375,0.0,0.0,0.0,-3447.53271484375,2652.80419921875,11862.119140625,-0.0,-534.8523559570312,5930.26513671875,9523.232421875,7178.783203125,2977.84814453125,2716.38232421875,-7323.423828125,-5920.72802734375,7094.5419921875,-1231.829345703125,-3126.462158203125,9994.5068359375,-6728.17236328125,8975.6650390625,7638.13623046875,5651.3154296875,7915.4970703125,2854.6650390625,-1285.076171875,5199.1142578125,-0.0,4711.94580078125,-15103.0224609375,2810.955078125,12826.919921875,2682.208984375,-7066.7265625,4019.7373046875,4898.70703125,6800.49267578125,4176.298828125,3150.30419921875,-4417.1015625,-11305.0146484375,-6258.48779296875,2089.34130859375,-3497.6005859375,0.0,-6000.20068359375,0.0,-6762.345703125,-11599.0634765625,3826.6181640625,-9899.1396484375,0.0,-14274.9150390625,-1827.875732421875,0.0,-6990.4326171875,0.0,4992.48486328125,-0.0,-5929.47021484375
-5231.69873046875,-5570.2529296875,11792.9775390625,-8037.884765625,6858.5078125,2678.2353515625,3554.821044921875,-5784.03466796875,0.0,-4834.333984375,-2261.797607421875,-13430.9130859375,0.0,0.0,0.0,-3442.76416015625,2652.00927734375,11862.119140625,-0.0,-531.6734619140625,5930.26513671875,9521.6435546875,7179.578125,2979.4375,2713.203369140625,-7320.2451171875,-5919.138671875,7095.3369140625,-1233.4188232421875,-3115.336181640625,9996.0966796875,-6729.76171875,8974.8701171875,7639.72607421875,5650.5205078125,7917.08642578125,2854.6650390625,-1281.897216796875,5200.7041015625,-0.0,4710.3564453125,-15099.8427734375,2811.749755859375,12828.509765625,2683.798583984375,-7065.13720703125,4019.7373046875,4892.34912109375,6800.49267578125,4177.88818359375,3153.483154296875,-4413.9228515625,-11291.50390625,-6255.30859375,2085.367919921875,-3504.753173828125,0.0,-5997.81640625,0.0,-6755.98779296875,-11576.8115234375,3826.6181640625,-9895.9609375,0.0,-14275.7099609375,-1809.5970458984375,0.0,-6984.86962890625,0.0,4998.04833984375,-0.0,-5919.93310546875
-5235.671875,-5571.84228515625,11796.1572265625,-8035.50048828125,6860.8916015625,2679.82470703125,3554.0263671875,-5787.2138671875,0.0,-4838.3076171875,-2257.823974609375,-13430.9130859375,0.0,0.0,0.0,-3445.943115234375,2656.777587890625,11862.9140625,-0.0,-534.8523559570312,5932.64892578125,9526.412109375,7180.37255859375,2979.4375,2713.203369140625,-7312.2978515625,-5919.93310546875,7092.95263671875,-1232.6240234375,-3104.2099609375,9998.48046875,-6728.17236328125,8977.25390625,7642.1103515625,5652.904296875,7917.880859375,2853.870361328125,-1281.897216796875,5201.49853515625,-0.0,4711.94580078125,-15097.458984375,2812.544677734375,12830.0986328125,2683.798583984375,-7066.7265625,4026.094970703125,4894.7333984375,6802.876953125,4179.4775390625,3151.8935546875,-4415.51220703125,-11279.5830078125,-6257.69287109375,2087.752197265625,-3502.368896484375,0.0,-6001.79052734375,0.0,-6760.755859375,-11576.8115234375,3826.6181640625,-9896.7548828125,0.0,-14270.94140625,-1807.212890625,0.0,-6992.81689453125,0.0,4986.12744140625,-0.0,-5931.0595703125
-5243.61962890625,-5584.55810546875,11798.541015625,-8032.32177734375,6863.27587890625,2682.208984375,3552.436767578125,-5787.2138671875,0.0,-4838.3076171875,-2250.67138671875,-13427.734375,0.0,0.0,0.0,-3448.327392578125,2656.777587890625,11862.9140625,-0.0,-534.8523559570312,5934.23828125,9528.7958984375,7181.96240234375,2979.4375,2713.998046875,-7313.0927734375,-5919.93310546875,7096.1318359375,-1231.829345703125,-3103.415283203125,10000.0693359375,-6724.9931640625,8978.048828125,7643.69970703125,5654.49365234375,7921.0595703125,2853.870361328125,-1281.1025390625,5202.29345703125,-0.0,4712.740234375,-15098.25390625,2813.33935546875,12832.482421875,2684.59326171875,-7067.521484375,4027.6845703125,4897.91259765625,6803.67138671875,4184.24609375,3153.483154296875,-4415.51220703125,-11289.1201171875,-6258.48779296875,2088.546875,-3496.805908203125,0.0,-6004.1748046875,0.0,-6763.14013671875,-11610.1904296875,3828.207763671875,-9895.9609375,0.0,-14269.3515625,-1831.0546875,0.0,-6993.61181640625,0.0,4986.12744140625,-0.0,-5935.033203125
-5247.5927734375,-5580.583984375,11794.5673828125,-8032.32177734375,6862.4814453125,2683.003662109375,3551.64208984375,-5787.2138671875,0.0,-4842.28125,-2252.260986328125,-13427.734375,0.0,0.0,0.0,-3450.71142578125,2655.98291015625,11862.9140625,-0.0,-534.0576171875,5931.8544921875,9524.822265625,7180.37255859375,2981.02685546875,2709.229736328125,-7313.88720703125,-5919.138671875,7096.1318359375,-1236.59765625,-3106.593994140625,9999.275390625,-6721.814453125,8976.4599609375,7642.90478515625,5653.69921875,7919.470703125,2853.870361328125,-1283.4866943359375,5202.29345703125,-0.0,4710.3564453125,-15099.8427734375,2811.749755859375,12830.8935546875,2684.59326171875,-7067.521484375,4022.121337890625,4895.5283203125,6803.67138671875,4185.83544921875,3151.8935546875,-4417.896484375,-11313.755859375,-6261.6669921875,2086.16259765625,-3498.395263671875,0.0,-6004.1748046875,0.0,-6769.49853515625,-11614.958984375,3828.207763671875,-9897.5498046875,0.0,-14278.0947265625,-1833.4388427734375,0.0,-6997.58544921875,0.0,4977.38525390625,-0.0,-5945.3642578125
-5262.69287109375,-5567.86865234375,11794.5673828125,-8032.32177734375,6864.07080078125,2682.208984375,3551.64208984375,-5791.1875,0.0,-4854.9970703125,-2249.876708984375,-13422.9658203125,0.0,0.0,0.0,-3460.248291015625,2659.161865234375,11863.708984375,-0.0,-542.0048828125,5933.443359375,9525.6162109375,7180.37255859375,2979.4375,2715.587646484375,-7310.70849609375,-5916.75439453125,7092.15771484375,-1230.2398681640625,-3107.388671875,9999.275390625,-6721.814453125,8977.25390625,7642.90478515625,5652.904296875,7919.470703125,2853.07568359375,-1285.076171875,5206.26708984375,-0.0,4714.330078125,-15093.4853515625,2811.749755859375,12828.509765625,2684.59326171875,-7073.87939453125,4022.916259765625,4897.11767578125,6804.46630859375,4182.65673828125,3151.8935546875,-4424.25390625,-11325.6767578125,-6254.51416015625,2090.13623046875,-3501.57421875,0.0,-6004.1748046875,0.0,-6782.2138671875,-11598.26953125,3827.412841796875,-9899.93359375,0.0,-14281.2724609375,-1828.6705322265625,0.0,-7021.42724609375,0.0,4947.98046875,-0.0,-5981.92236328125
-5266.66650390625,-5559.12646484375,11799.3359375,-8032.32177734375,6866.455078125,2681.414306640625,3550.847412109375,-5788.80322265625,0.0,-4854.9970703125,-2248.287109375,-13417.4033203125,0.0,0.0,0.0,-3458.658935546875,2659.956787109375,11864.5029296875,-0.0,-542.7996215820312,5935.033203125,9525.6162109375,7181.96240234375,2981.02685546875,2717.17724609375,-7308.32421875,-5918.34423828125,7093.74755859375,-1229.445068359375,-3107.388671875,10000.0693359375,-6724.19873046875,8982.8173828125,7645.2890625,5654.49365234375,7922.6494140625,2853.870361328125,-1283.4866943359375,5207.8564453125,-0.0,4715.91943359375,-15089.51171875,2812.544677734375,12830.0986328125,2683.798583984375,-7072.2900390625,4028.47900390625,4897.91259765625,6806.8505859375,4180.2724609375,3150.30419921875,-4422.66455078125,-11323.29296875,-6250.5400390625,2092.5205078125,-3498.395263671875,0.0,-5999.40625,0.0,-6780.62451171875,-11598.26953125,3828.207763671875,-9898.3447265625,0.0,-14284.451171875,-1823.107421875,0.0,-7019.04296875,0.0,4944.80126953125,-0.0,-5987.4853515625
-5271.4345703125,-5560.71630859375,11804.8984375,-8027.5537109375,6866.455078125,2682.208984375,3553.2314453125,-5783.23974609375,0.0,-4847.0498046875,-2248.287109375,-13418.197265625,0.0,0.0,0.0,-3451.50634765625,2661.5458984375,11864.5029296875,-0.0,-538.03125,5935.033203125,9528.7958984375,7182.7568359375,2983.4111328125,2716.38232421875,-7305.1455078125,-5919.138671875,7096.92626953125,-1231.03466796875,-3109.77294921875,10001.6591796875,-6721.814453125,8985.2021484375,7648.4677734375,5658.4677734375,7925.828125,2853.07568359375,-1281.897216796875,5217.3935546875,-0.0,4718.3037109375,-15079.1806640625,2812.544677734375,12831.6875,2683.003662109375,-7067.521484375,4037.221435546875,4898.70703125,6806.0556640625,4181.06689453125,3149.509521484375,-4419.4853515625,-11324.087890625,-6251.3349609375,2090.930908203125,-3493.626953125,0.0,-5992.25390625,0.0,-6770.29296875,-11614.1630859375,3829.797119140625,-9896.7548828125,0.0,-14281.2724609375,-1818.3389892578125,0.0,-7003.94287109375,0.0,4957.51708984375,-0.0,-5969.20654296875
-5265.87158203125,-5564.689453125,11805.693359375,-8022.78515625,6863.27587890625,2685.387939453125,3551.64208984375,-5781.650390625,0.0,-4840.69189453125,-2247.492431640625,-13418.9921875,0.0,0.0,0.0,-3445.943115234375,2661.5458984375,11865.2978515625,-0.0,-537.2365112304688,5935.82763671875,9530.384765625,7181.96240234375,2984.2060546875,2717.17724609375,-7298.78759765625,-5917.54931640625,7099.310546875,-1232.6240234375,-3111.362548828125,10000.865234375,-6721.01953125,8983.6123046875,7650.05712890625,5656.08349609375,7928.21240234375,2853.07568359375,-1280.3077392578125,5212.625,-0.0,4717.5087890625,-15068.8486328125,2812.544677734375,12835.662109375,2681.414306640625,-7061.95849609375,4035.631591796875,4902.6806640625,6805.26123046875,4185.83544921875,3150.30419921875,-4416.30712890625,-11336.0087890625,-6247.36181640625,2089.34130859375,-3488.063720703125,0.0,-5985.10107421875,0.0,-6764.72998046875,-11617.3427734375,3830.591796875,-9896.7548828125,0.0,-14274.9150390625,-1813.5706787109375,0.0,-6990.4326171875,0.0,4969.43798828125,-0.0,-5956.4912109375
-5245.208984375,-5577.4052734375,11802.513671875,-8023.57958984375,6863.27587890625,2683.003662109375,3550.052734375,-5784.82958984375,0.0,-4842.28125,-2250.67138671875,-13424.5556640625,0.0,0.0,0.0,-3451.50634765625,2659.161865234375,11863.708984375,-0.0,-540.4154663085938,5935.033203125,9528.0009765625,7180.37255859375,2982.616455078125,2718.766357421875,-7298.78759765625,-5918.34423828125,7095.3369140625,-1229.445068359375,-3119.3095703125,9997.685546875,-6723.40380859375,8981.2275390625,7647.67333984375,5654.49365234375,7925.03369140625,2852.28076171875,-1284.2813720703125,5203.08837890625,-0.0,4715.91943359375,-15068.0546875,2811.749755859375,12831.6875,2680.619384765625,-7062.75341796875,4030.86328125,4906.654296875,6805.26123046875,4183.451171875,3151.098876953125,-4419.4853515625,-11316.140625,-6247.36181640625,2093.315185546875,-3495.21630859375,0.0,-5988.27978515625,0.0,-6767.90869140625,-11615.7529296875,3829.797119140625,-9899.1396484375,0.0,-14275.7099609375,-1817.5443115234375,0.0,-6997.58544921875,0.0,4963.875,-0.0,-5962.0537109375
-5218.98291015625,-5574.2265625,11796.951171875,-8024.375,6864.07080078125,2679.0302734375,3551.64208984375,-5786.4189453125,0.0,-4845.46044921875,-2250.67138671875,-13428.5283203125,0.0,0.0,0.0,-3456.274658203125,2658.3671875,11863.708984375,-0.0,-540.4154663085938,5931.8544921875,9526.412109375,7178.783203125,2980.232177734375,2720.35595703125,-7301.96630859375,-5918.34423828125,7090.568359375,-1227.0609130859375,-3116.130859375,9998.48046875,-6724.9931640625,8980.43359375,7646.083984375,5654.49365234375,7922.6494140625,2850.691650390625,-1286.66552734375,5201.49853515625,-0.0,4714.330078125,-15074.412109375,2811.749755859375,12827.7138671875,2683.003662109375,-7065.13720703125,4026.094970703125,4904.27001953125,6803.67138671875,4179.4775390625,3150.30419921875,-4421.0751953125,-11287.5302734375,-6252.1298828125,2095.69921875,-3509.521484375,0.0,-5994.63818359375,0.0,-6772.6767578125,-11618.1376953125,3828.207763671875,-9901.5234375,0.0,-14282.0673828125,-1825.4915771484375,0.0,-7002.353515625,0.0,4957.51708984375,-0.0,-5966.822265625
-5211.03515625,-5572.63720703125,11796.1572265625,-8019.6064453125,6863.27587890625,2684.59326171875,3552.436767578125,-5780.85546875,0.0,-4840.69189453125,-2254.64501953125,-13428.5283203125,0.0,0.0,0.0,-3448.327392578125,2660.75146484375,11866.88671875,-0.0,-535.6470947265625,5934.23828125,9530.384765625,7180.37255859375,2983.4111328125,2717.17724609375,-7298.78759765625,-5919.93310546875,7096.1318359375,-1231.829345703125,-3108.18359375,10001.6591796875,-6723.40380859375,8981.2275390625,7647.67333984375,5656.8779296875,7925.03369140625,2853.07568359375,-1282.69189453125,5196.72998046875,-0.0,4715.12451171875,-15072.822265625,2812.544677734375,12832.482421875,2684.59326171875,-7061.16357421875,4023.710693359375,4912.2177734375,6803.67138671875,4183.451171875,3149.509521484375,-4417.1015625,-11285.94140625,-6259.28271484375,2090.13623046875,-3515.87939453125,0.0,-5996.22705078125,0.0,-6767.1142578125,-11599.0634765625,3829.797119140625,-9897.5498046875,0.0,-14280.478515625,-1827.875732421875,0.0,-6992.81689453125,0.0,4971.02734375,-0.0,-5953.31201171875
-5233.28759765625,-5594.0947265625,11795.361328125,-8029.1435546875,6860.09716796875,2682.208984375,3550.847412109375,-5785.6240234375,0.0,-4841.486328125,-2264.9765625,-13434.88671875,0.0,0.0,0.0,-3450.71142578125,2655.98291015625,11863.708984375,-0.0,-536.4417724609375,5931.8544921875,9526.412109375,7177.98876953125,2980.232177734375,2708.43505859375,-7308.32421875,-5922.3173828125,7093.74755859375,-1239.776611328125,-3114.541259765625,9999.275390625,-6729.76171875,8976.4599609375,7642.90478515625,5654.49365234375,7918.67529296875,2853.07568359375,-1283.4866943359375,5191.16748046875,-0.0,4711.94580078125,-15082.359375,2811.749755859375,12830.8935546875,2683.003662109375,-7065.13720703125,4021.32666015625,4899.501953125,6800.49267578125,4181.06689453125,3148.71484375,-4417.1015625,-11304.2197265625,-6268.0244140625,2079.8046875,-3511.111083984375,0.0,-6000.99560546875,0.0,-6768.70361328125,-11616.5478515625,3828.207763671875,-9897.5498046875,0.0,-14283.6572265625,-1835.0283203125,0.0,-6993.61181640625,0.0,4973.41162109375,-0.0,-5949.33837890625
-5253.15625,-5616.3466796875,11789.798828125,-8037.09033203125,6858.5078125,2678.2353515625,3551.64208984375,-5789.59814453125,0.0,-4845.46044921875,-2266.56591796875,-13438.0654296875,0.0,0.0,0.0,-3455.47998046875,2652.00927734375,11860.5302734375,-0.0,-536.4417724609375,5929.47021484375,9524.02734375,7177.98876953125,2976.258544921875,2706.845458984375,-7314.68212890625,-5924.70166015625,7091.36328125,-1240.5714111328125,-3116.925537109375,9996.890625,-6732.14599609375,8973.28125,7637.341796875,5652.904296875,7917.08642578125,2852.28076171875,-1287.4603271484375,5190.37255859375,-0.0,4709.56201171875,-15094.2802734375,2811.749755859375,12826.919921875,2680.619384765625,-7069.90576171875,4015.763671875,4890.759765625,6798.90283203125,4179.4775390625,3148.71484375,-4419.4853515625,-11315.345703125,-6269.61376953125,2079.8046875,-3505.5478515625,0.0,-6004.1748046875,0.0,-6771.087890625,-11634.826171875,3827.412841796875,-9897.5498046875,0.0,-14286.041015625,-1837.4124755859375,0.0,-6997.58544921875,0.0,4972.61669921875,-0.0,-5954.10693359375
-5257.1298828125,-5605.220703125,11788.208984375,-8038.68017578125,6859.302734375,2677.440673828125,3551.64208984375,-5788.80322265625,0.0,-4844.66552734375,-2260.2080078125,-13430.9130859375,0.0,0.0,0.0,-3455.47998046875,2650.419921875,11860.5302734375,-0.0,-536.4417724609375,5930.26513671875,9524.02734375,7180.37255859375,2975.4638671875,2707.640380859375,-7316.271484375,-5923.90673828125,7092.95263671875,-1240.5714111328125,-3116.130859375,9995.30078125,-6733.7353515625,8973.28125,7634.1630859375,5652.904296875,7919.470703125,2853.07568359375,-1285.076171875,5189.57763671875,-0.0,4710.3564453125,-15099.048828125,2811.749755859375,12826.919921875,2679.82470703125,-7068.31591796875,4014.96875,4889.96484375,6801.287109375,4179.4775390625,3148.71484375,-4420.2802734375,-11309.783203125,-6264.84521484375,2080.599609375,-3504.753173828125,0.0,-6003.3798828125,0.0,-6772.6767578125,-11628.46875,3827.412841796875,-9897.5498046875,0.0,-14280.478515625,-1830.2598876953125,0.0,-7003.1484375,0.0,4969.43798828125,-0.0,-5955.6962890625
-5248.3876953125,-5578.19970703125,11792.1826171875,-8039.474609375,6861.6865234375,2679.0302734375,3552.436767578125,-5788.80322265625,0.0,-4840.69189453125,-2257.029296875,-13428.5283203125,0.0,0.0,0.0,-3451.50634765625,2652.00927734375,11863.708984375,-0.0,-535.6470947265625,5931.8544921875,9522.4384765625,7181.16748046875,2977.84814453125,2706.845458984375,-7313.88720703125,-5922.3173828125,7095.3369140625,-1241.3660888671875,-3110.56787109375,9996.0966796875,-6735.32470703125,8973.28125,7634.9580078125,5654.49365234375,7919.470703125,2854.6650390625,-1285.076171875,5190.37255859375,-0.0,4711.1513671875,-15099.048828125,2811.749755859375,12830.0986328125,2681.414306640625,-7066.7265625,4022.121337890625,4893.9384765625,6801.287109375,4179.4775390625,3151.098876953125,-4418.69091796875,-11308.193359375,-6259.28271484375,2079.010009765625,-3510.316162109375,0.0,-5997.81640625,0.0,-6770.29296875,-11611.779296875,3828.207763671875,-9895.9609375,0.0,-14282.8623046875,-1821.5179443359375,0.0,-6998.38037109375,0.0,4972.61669921875,-0.0,-5952.51708984375
-5246.7978515625,-5561.5107421875,11793.7724609375,-8037.884765625,6860.8916015625,2679.0302734375,3553.2314453125,-5790.392578125,0.0,-4839.89697265625,-2253.850341796875,-13424.5556640625,0.0,0.0,0.0,-3449.916748046875,2654.3935546875,11862.9140625,-0.0,-534.8523559570312,5931.8544921875,9523.232421875,7180.37255859375,2977.84814453125,2706.845458984375,-7314.68212890625,-5922.3173828125,7095.3369140625,-1242.1607666015625,-3108.18359375,9997.685546875,-6734.52978515625,8974.0751953125,7634.1630859375,5656.8779296875,7919.470703125,2853.07568359375,-1283.4866943359375,5192.7568359375,-0.0,4710.3564453125,-15100.638671875,2813.33935546875,12830.0986328125,2683.003662109375,-7066.7265625,4029.27392578125,4896.32275390625,6800.49267578125,4180.2724609375,3152.688232421875,-4417.1015625,-11308.193359375,-6257.69287109375,2079.010009765625,-3517.46875,0.0,-5997.81640625,0.0,-6770.29296875,-11610.984375,3827.412841796875,-9896.7548828125,0.0,-14282.0673828125,-1817.5443115234375,0.0,-6996.79052734375,0.0,4978.1796875,-0.0,-5950.927734375
-5250.77197265625,-5560.71630859375,11796.1572265625,-8038.68017578125,6858.5078125,2679.0302734375,3553.2314453125,-5792.7763671875,0.0,-4841.486328125,-2258.61865234375,-13420.58203125,0.0,0.0,0.0,-3449.916748046875,2655.98291015625,11864.5029296875,-0.0,-532.4681396484375,5932.64892578125,9523.232421875,7179.578125,2977.84814453125,2706.05078125,-7318.6552734375,-5924.70166015625,7096.1318359375,-1241.3660888671875,-3111.362548828125,9998.48046875,-6731.3515625,8975.6650390625,7634.9580078125,5654.49365234375,7917.880859375,2852.28076171875,-1285.076171875,5197.52490234375,-0.0,4708.76708984375,-15104.611328125,2810.160400390625,12829.3037109375,2682.208984375,-7069.11083984375,4029.27392578125,4897.11767578125,6798.1083984375,4179.4775390625,3151.098876953125,-4418.69091796875,-11313.755859375,-6257.69287109375,2079.010009765625,-3503.95849609375,0.0,-6001.79052734375,0.0,-6770.29296875,-11637.2109375,3825.823486328125,-9897.5498046875,0.0,-14280.478515625,-1821.5179443359375,0.0,-6999.1748046875,0.0,4976.5908203125,-0.0,-5950.1328125
-5253.95068359375,-5564.689453125,11799.3359375,-8041.064453125,6857.71337890625,2678.2353515625,3551.64208984375,-5794.3662109375,0.0,-4846.2548828125,-2261.797607421875,-13421.3759765625,0.0,0.0,0.0,-3457.0693359375,2655.98291015625,11865.2978515625,-0.0,-536.4417724609375,5932.64892578125,9524.02734375,7179.578125,2977.053466796875,2708.43505859375,-7320.2451171875,-5924.70166015625,7094.5419921875,-1240.5714111328125,-3116.925537109375,9999.275390625,-6731.3515625,8977.25390625,7636.546875,5653.69921875,7917.08642578125,2852.28076171875,-1285.870849609375,5206.26708984375,-0.0,4709.56201171875,-15107.791015625,2810.160400390625,12828.509765625,2683.003662109375,-7072.2900390625,4026.889892578125,4896.32275390625,6798.1083984375,4180.2724609375,3151.098876953125,-4421.0751953125,-11324.8828125,-6260.8720703125,2080.599609375,-3495.21630859375,0.0,-6009.7373046875,0.0,-6775.06103515625,-11639.5947265625,3826.6181640625,-9899.93359375,0.0,-14279.68359375,-1827.0810546875,0.0,-7009.50634765625,0.0,4967.84814453125,-0.0,-5961.25927734375
-5261.10302734375,-5565.484375,11796.951171875,-8039.474609375,6860.8916015625,2679.82470703125,3552.436767578125,-5795.16064453125,0.0,-4853.4072265625,-2264.9765625,-13414.2236328125,0.0,0.0,0.0,-3462.63232421875,2655.188232421875,11864.5029296875,-0.0,-541.210205078125,5933.443359375,9524.822265625,7179.578125,2977.84814453125,2712.40869140625,-7321.83447265625,-5921.5224609375,7092.95263671875,-1235.802978515625,-3113.74658203125,10000.0693359375,-6733.7353515625,8978.048828125,7637.341796875,5656.08349609375,7917.880859375,2853.07568359375,-1287.4603271484375,5203.8828125,-0.0,4711.94580078125,-15109.3798828125,2811.749755859375,12827.7138671875,2683.003662109375,-7075.46875,4030.06884765625,4900.296875,6800.49267578125,4181.06689453125,3151.098876953125,-4425.048828125,-11334.4189453125,-6270.40869140625,2084.572998046875,-3493.626953125,0.0,-6013.71142578125,0.0,-6783.0087890625,-11593.5009765625,3825.823486328125,-9900.7294921875,0.0,-14278.0947265625,-1823.107421875,0.0,-7029.37451171875,0.0,4949.56982421875,-0.0,-5980.3330078125
-5257.92431640625,-5591.71044921875,11796.951171875,-8036.2958984375,6862.4814453125,2681.414306640625,3553.2314453125,-5793.5712890625,0.0,-4851.81787109375,-2261.002685546875,-13416.607421875,0.0,0.0,0.0,-3456.274658203125,2656.777587890625,11866.0927734375,-0.0,-539.6207275390625,5934.23828125,9525.6162109375,7181.96240234375,2977.053466796875,2713.203369140625,-7322.62939453125,-5919.138671875,7094.5419921875,-1235.00830078125,-3116.925537109375,9999.275390625,-6730.556640625,8978.84375,7637.341796875,5656.08349609375,7921.0595703125,2854.6650390625,-1285.870849609375,5206.26708984375,-0.0,4712.740234375,-15110.1748046875,2812.544677734375,12830.0986328125,2683.798583984375,-7074.67431640625,4028.47900390625,4903.47509765625,6801.287109375,4181.06689453125,3152.688232421875,-4423.45947265625,-11343.9560546875,-6295.83984375,2085.367919921875,-3492.03759765625,0.0,-6008.94287109375,0.0,-6779.82958984375,-11583.1689453125,3827.412841796875,-9898.3447265625,0.0,-14279.68359375,-1826.286376953125,0.0,-7024.6064453125,0.0,4958.3115234375,-0.0,-5973.18017578125
-5246.7978515625,-5598.86328125,11799.3359375,-8032.32177734375,6864.07080078125,2680.619384765625,3552.436767578125,-5794.3662109375,0.0,-4852.61279296875,-2249.876708984375,-13421.3759765625,0.0,0.0,0.0,-3457.0693359375,2657.572509765625,11867.6826171875,-0.0,-538.8259887695312,5935.033203125,9528.0009765625,7181.96240234375,2977.053466796875,2717.9716796875,-7322.62939453125,-5919.93310546875,7094.5419921875,-1230.2398681640625,-3119.3095703125,10000.0693359375,-6729.76171875,8981.2275390625,7639.72607421875,5654.49365234375,7918.67529296875,2854.6650390625,-1285.076171875,5204.677734375,-0.0,4715.12451171875,-15110.1748046875,2814.1337890625,12829.3037109375,2683.798583984375,-7074.67431640625,4025.300537109375,4906.654296875,6804.46630859375,4181.06689453125,3151.098876953125,-4424.25390625,-11342.3662109375,-6299.01904296875,2090.13623046875,-3497.6005859375,0.0,-6006.55908203125,0.0,-6780.62451171875,-11612.57421875,3830.591796875,-9898.3447265625,0.0,-14276.5048828125,-1830.2598876953125,0.0,-7026.1953125,0.0,4955.1328125,-0.0,-5976.35888671875
-5261.89794921875,-5590.12060546875,11791.388671875,-8036.2958984375,6861.6865234375,2679.0302734375,3551.64208984375,-5793.5712890625,0.0,-4851.81787109375,-2253.0556640625,-13421.3759765625,0.0,0.0,0.0,-3457.864013671875,2655.98291015625,11865.2978515625,-0.0,-536.4417724609375,5933.443359375,9526.412109375,7180.37255859375,2976.258544921875,2713.203369140625,-7324.21875,-5921.5224609375,7092.15771484375,-1235.00830078125,-3126.462158203125,9999.275390625,-6730.556640625,8976.4599609375,7638.13623046875,5653.69921875,7915.4970703125,2853.870361328125,-1286.66552734375,5199.1142578125,-0.0,4712.740234375,-15113.353515625,2812.544677734375,12827.7138671875,2683.798583984375,-7073.87939453125,4018.9423828125,4905.06494140625,6799.69775390625,4177.09375,3150.30419921875,-4423.45947265625,-11313.755859375,-6282.32958984375,2086.957275390625,-3507.931884765625,0.0,-6006.55908203125,0.0,-6779.82958984375,-11661.8466796875,3828.207763671875,-9897.5498046875,0.0,-14278.0947265625,-1828.6705322265625,0.0,-7017.45361328125,0.0,4960.69580078125,-0.0,-5971.59033203125
-5284.94482421875,-5589.326171875,11784.236328125,-8041.85888671875,6856.12353515625,2676.64599609375,3554.0263671875,-5791.98193359375,0.0,-4847.0498046875,-2267.360595703125,-13420.58203125,0.0,0.0,0.0,-3453.890625,2649.625,11861.32421875,-0.0,-530.8787231445312,5929.47021484375,9520.0537109375,7177.98876953125,2976.258544921875,2698.103759765625,-7329.7822265625,-5924.70166015625,7092.95263671875,-1251.697509765625,-3129.641357421875,9996.0966796875,-6737.708984375,8970.1015625,7633.3681640625,5651.3154296875,7913.11279296875,2853.870361328125,-1285.076171875,5192.7568359375,-0.0,4705.587890625,-15118.1220703125,2811.749755859375,12829.3037109375,2684.59326171875,-7069.11083984375,4010.200439453125,4901.09130859375,6794.134765625,4174.70947265625,3151.8935546875,-4420.2802734375,-11317.7294921875,-6260.0771484375,2070.267822265625,-3507.931884765625,0.0,-6001.79052734375,0.0,-6775.85595703125,-11643.5693359375,3826.6181640625,-9895.9609375,0.0,-14293.193359375,-1823.107421875,0.0,-7007.1220703125,0.0,4969.43798828125,-0.0,-5961.25927734375
-5284.94482421875,-5583.76318359375,11792.1826171875,-8044.24267578125,6857.71337890625,2675.85107421875,3553.2314453125,-5788.80322265625,0.0,-4843.076171875,-2261.002685546875,-13418.197265625,0.0,0.0,0.0,-3452.301025390625,2648.830322265625,11862.119140625,-0.0,-531.6734619140625,5931.8544921875,9519.259765625,7179.578125,2977.84814453125,2702.8720703125,-7328.9873046875,-5923.90673828125,7093.74755859375,-1248.5185546875,-3120.899169921875,9997.685546875,-6740.09326171875,8974.0751953125,7633.3681640625,5651.3154296875,7916.291015625,2854.6650390625,-1284.2813720703125,5199.1142578125,-0.0,4707.177734375,-15114.943359375,2813.33935546875,12829.3037109375,2686.1826171875,-7068.31591796875,4022.121337890625,4890.759765625,6796.51904296875,4174.70947265625,3153.483154296875,-4420.2802734375,-11324.8828125,-6254.51416015625,2075.036376953125,-3498.395263671875,0.0,-5998.611328125,0.0,-6772.6767578125,-11604.626953125,3829.00244140625,-9893.576171875,0.0,-14294.783203125,-1821.5179443359375,0.0,-7005.53271484375,0.0,4971.02734375,-0.0,-5956.4912109375
-5270.64013671875,-5580.583984375,11796.951171875,-8041.85888671875,6857.71337890625,2675.85107421875,3553.2314453125,-5787.2138671875,0.0,-4839.10205078125,-2249.876708984375,-13418.9921875,0.0,0.0,0.0,-3451.50634765625,2649.625,11862.9140625,-0.0,-530.8787231445312,5931.0595703125,9520.0537109375,7177.98876953125,2977.84814453125,2702.8720703125,-7321.83447265625,-5924.70166015625,7092.95263671875,-1246.1343994140625,-3112.951904296875,9996.0966796875,-6741.6826171875,8974.0751953125,7634.1630859375,5652.10986328125,7919.470703125,2853.870361328125,-1285.076171875,5201.49853515625,-0.0,4709.56201171875,-15106.201171875,2814.1337890625,12828.509765625,2686.1826171875,-7065.931640625,4028.47900390625,4890.759765625,6795.724609375,4176.298828125,3151.098876953125,-4419.4853515625,-11334.4189453125,-6259.28271484375,2075.8310546875,-3499.98486328125,0.0,-5998.611328125,0.0,-6768.70361328125,-11612.57421875,3826.6181640625,-9895.1650390625,0.0,-14302.73046875,-1824.6968994140625,0.0,-7003.1484375,0.0,4973.41162109375,-0.0,-5950.927734375
-5262.69287109375,-5571.84228515625,11788.208984375,-8041.85888671875,6856.12353515625,2676.64599609375,3554.0263671875,-5788.00830078125,0.0,-4840.69189453125,-2258.61865234375,-13420.58203125,0.0,0.0,0.0,-3453.095703125,2646.4462890625,11862.119140625,-0.0,-531.6734619140625,5925.49658203125,9516.875,7175.6044921875,2977.84814453125,2702.0771484375,-7318.6552734375,-5924.70166015625,7092.15771484375,-1244.544921875,-3109.77294921875,9991.328125,-6742.4775390625,8966.9228515625,7634.1630859375,5649.7255859375,7917.880859375,2854.6650390625,-1286.66552734375,5189.57763671875,-0.0,4706.3828125,-15100.638671875,2812.544677734375,12829.3037109375,2684.59326171875,-7066.7265625,4023.710693359375,4891.55419921875,6794.9296875,4176.298828125,3151.8935546875,-4421.0751953125,-11328.0615234375,-6259.28271484375,2077.42041015625,-3504.753173828125,0.0,-5997.81640625,0.0,-6767.90869140625,-11626.083984375,3825.028564453125,-9894.37109375,0.0,-14298.7568359375,-1827.875732421875,0.0,-7006.3271484375,0.0,4973.41162109375,-0.0,-5950.1328125
-5263.4873046875,-5572.63720703125,11779.4677734375,-8045.037109375,6854.5341796875,2673.467041015625,3551.64208984375,-5793.5712890625,0.0,-4846.2548828125,-2276.8974609375,-13419.787109375,0.0,0.0,0.0,-3457.864013671875,2641.677734375,11858.9404296875,-0.0,-535.6470947265625,5921.5224609375,9512.9013671875,7175.6044921875,2973.07958984375,2702.0771484375,-7322.62939453125,-5921.5224609375,7088.1845703125,-1244.544921875,-3118.51513671875,9987.3544921875,-6749.6298828125,8961.3603515625,7628.599609375,5646.546875,7914.70263671875,2854.6650390625,-1290.6392822265625,5182.4248046875,-0.0,4700.02490234375,-15104.611328125,2811.749755859375,12825.330078125,2683.003662109375,-7071.4951171875,4013.379638671875,4889.96484375,6793.34033203125,4172.3251953125,3151.8935546875,-4425.048828125,-11316.140625,-6266.43505859375,2076.625732421875,-3501.57421875,0.0,-6000.99560546875,0.0,-6774.2666015625,-11621.31640625,3822.64453125,-9897.5498046875,0.0,-14294.783203125,-1827.875732421875,0.0,-7011.890625,0.0,4963.080078125,-0.0,-5959.66943359375
-5262.69287109375,-5591.71044921875,11781.056640625,-8045.83251953125,6856.12353515625,2670.2880859375,3551.64208984375,-5795.95556640625,0.0,-4844.66552734375,-2283.25537109375,-13426.14453125,0.0,0.0,0.0,-3457.0693359375,2640.08837890625,11855.76171875,-0.0,-534.8523559570312,5919.93310546875,9512.1064453125,7174.81005859375,2969.90087890625,2702.0771484375,-7326.60302734375,-5923.1123046875,7085.80029296875,-1244.544921875,-3130.43603515625,9985.7646484375,-6747.24560546875,8961.3603515625,7625.4208984375,5644.95703125,7909.93408203125,2853.870361328125,-1292.228759765625,5191.16748046875,-0.0,4700.8193359375,-15110.1748046875,2809.365478515625,12820.5615234375,2682.208984375,-7070.7001953125,4014.96875,4888.3759765625,6793.34033203125,4168.3515625,3151.8935546875,-4425.84375,-11316.140625,-6269.61376953125,2075.036376953125,-3500.779296875,0.0,-6004.96923828125,0.0,-6771.88232421875,-11632.4423828125,3818.6708984375,-9897.5498046875,0.0,-14292.3994140625,-1833.4388427734375,0.0,-6999.9697265625,0.0,4971.822265625,-0.0,-5953.31201171875
-5249.18212890625,-5597.2734375,11784.236328125,-8045.037109375,6858.5078125,2670.2880859375,3553.2314453125,-5795.16064453125,0.0,-4843.87060546875,-2271.33447265625,-13427.734375,0.0,0.0,0.0,-3457.864013671875,2641.677734375,11854.9658203125,-0.0,-532.4681396484375,5923.1123046875,9514.4912109375,7174.81005859375,2970.695556640625,2706.05078125,-7325.80810546875,-5920.72802734375,7085.80029296875,-1242.1607666015625,-3125.66748046875,9986.5595703125,-6741.6826171875,8965.3330078125,7628.599609375,5647.34130859375,7908.34423828125,2855.4599609375,-1291.4339599609375,5184.0146484375,-0.0,4704.79345703125,-15110.1748046875,2810.955078125,12819.7666015625,2683.798583984375,-7072.2900390625,4016.55810546875,4889.17041015625,6795.724609375,4168.3515625,3152.688232421875,-4425.048828125,-11321.7041015625,-6260.8720703125,2078.21533203125,-3505.5478515625,0.0,-6006.55908203125,0.0,-6772.6767578125,-11645.158203125,3819.465576171875,-9898.3447265625,0.0,-14286.041015625,-1831.8494873046875,0.0,-7004.73779296875,0.0,4973.41162109375,-0.0,-5949.33837890625
-5251.56640625,-5584.55810546875,11783.4404296875,-8041.85888671875,6857.71337890625,2672.67236328125,3553.2314453125,-5793.5712890625,0.0,-4843.076171875,-2264.9765625,-13422.171875,0.0,0.0,0.0,-3457.0693359375,2645.651611328125,11857.3505859375,-0.0,-531.6734619140625,5925.49658203125,9516.080078125,7176.3994140625,2973.874267578125,2707.640380859375,-7322.62939453125,-5921.5224609375,7087.3896484375,-1243.750244140625,-3116.130859375,9989.73828125,-6739.29833984375,8968.5126953125,7631.77880859375,5649.7255859375,7912.318359375,2855.4599609375,-1290.6392822265625,5189.57763671875,-0.0,4703.20361328125,-15106.9951171875,2810.160400390625,12822.9453125,2685.387939453125,-7069.90576171875,4013.379638671875,4893.14404296875,6797.3134765625,4169.94091796875,3151.098876953125,-4425.048828125,-11320.1142578125,-6250.5400390625,2079.8046875,-3507.931884765625,0.0,-6004.96923828125,0.0,-6771.087890625,-11629.263671875,3820.26025390625,-9898.3447265625,0.0,-14281.2724609375,-1827.875732421875,0.0,-7007.1220703125,0.0,4973.41162109375,-0.0,-5950.1328125
-5264.2822265625,-5571.04736328125,11783.4404296875,-8040.26904296875,6857.71337890625,2671.082763671875,3552.436767578125,-5791.1875,0.0,-4842.28125,-2261.797607421875,-13417.4033203125,0.0,0.0,0.0,-3453.890625,2647.240966796875,11856.5556640625,-0.0,-530.083984375,5925.49658203125,9516.875,7176.3994140625,2974.669189453125,2706.845458984375,-7317.86083984375,-5924.70166015625,7088.1845703125,-1242.1607666015625,-3109.77294921875,9990.533203125,-6740.09326171875,8969.306640625,7632.57373046875,5648.93115234375,7914.70263671875,2854.6650390625,-1289.0498046875,5191.9619140625,-0.0,4703.99853515625,-15101.4326171875,2810.160400390625,12823.7412109375,2685.387939453125,-7068.31591796875,4010.995361328125,4892.34912109375,6796.51904296875,4172.3251953125,3151.8935546875,-4422.66455078125,-11316.935546875,-6241.00341796875,2079.8046875,-3511.111083984375,0.0,-6001.79052734375,0.0,-6767.90869140625,-11609.3955078125,3821.849853515625,-9896.7548828125,0.0,-14281.2724609375,-1828.6705322265625,0.0,-7001.55859375,0.0,4974.20654296875,-0.0,-5952.51708984375
-5258.71875,-5573.431640625,11790.5927734375,-8039.474609375,6860.09716796875,2673.467041015625,3552.436767578125,-5788.80322265625,0.0,-4843.87060546875,-2261.002685546875,-13421.3759765625,0.0,0.0,0.0,-3454.685302734375,2648.03564453125,11858.9404296875,-0.0,-532.4681396484375,5927.880859375,9517.669921875,7178.783203125,2975.4638671875,2710.024658203125,-7313.88720703125,-5922.3173828125,7087.3896484375,-1238.9818115234375,-3110.56787109375,9992.123046875,-6741.6826171875,8970.1015625,7636.546875,5651.3154296875,7917.880859375,2853.870361328125,-1289.844482421875,5188.783203125,-0.0,4707.177734375,-15094.2802734375,2810.160400390625,12823.7412109375,2683.798583984375,-7065.931640625,4019.7373046875,4890.759765625,6796.51904296875,4173.1201171875,3151.8935546875,-4425.048828125,-11314.5517578125,-6244.9775390625,2082.983642578125,-3509.521484375,0.0,-5998.611328125,0.0,-6769.49853515625,-11614.1630859375,3825.028564453125,-9896.7548828125,0.0,-14281.2724609375,-1833.4388427734375,0.0,-7002.353515625,0.0,4963.875,-0.0,-5959.66943359375
-5257.92431640625,-5582.96826171875,11784.236328125,-8045.037109375,6855.3291015625,2667.90380859375,3551.64208984375,-5794.3662109375,0.0,-4844.66552734375,-2284.050048828125,-13432.5029296875,0.0,0.0,0.0,-3457.864013671875,2642.472412109375,11854.9658203125,-0.0,-534.0576171875,5922.3173828125,9514.4912109375,7173.22021484375,2973.07958984375,2702.0771484375,-7317.06640625,-5923.90673828125,7083.416015625,-1245.3397216796875,-3117.720458984375,9985.7646484375,-6744.06689453125,8963.744140625,7632.57373046875,5647.34130859375,7913.11279296875,2850.691650390625,-1291.4339599609375,5176.8623046875,-0.0,4702.4091796875,-15093.4853515625,2807.776123046875,12820.5615234375,2682.208984375,-7067.521484375,4016.55810546875,4883.607421875,6793.34033203125,4167.556640625,3151.098876953125,-4427.43310546875,-11326.47265625,-6256.8984375,2075.8310546875,-3515.08447265625,0.0,-6000.20068359375,0.0,-6771.087890625,-11623.7001953125,3822.64453125,-9902.318359375,0.0,-14293.98828125,-1839.001953125,0.0,-7002.353515625,0.0,4963.875,-0.0,-5955.6962890625
-5259.513671875,-5583.76318359375,11778.671875,-8044.24267578125,6852.14990234375,2667.109130859375,3552.436767578125,-5789.59814453125,0.0,-4834.333984375,-2284.050048828125,-13436.4765625,0.0,0.0,0.0,-3449.1220703125,2640.08837890625,11854.171875,-0.0,-529.2892456054688,5918.34423828125,9512.9013671875,7174.01513671875,2973.07958984375,2698.103759765625,-7314.68212890625,-5926.291015625,7085.00537109375,-1250.108154296875,-3124.078125,9984.17578125,-6740.09326171875,8961.3603515625,7630.189453125,5645.751953125,7913.11279296875,2850.691650390625,-1289.844482421875,5176.0673828125,-0.0,4700.02490234375,-15090.306640625,2806.9814453125,12821.3564453125,2684.59326171875,-7061.95849609375,4009.405517578125,4882.8125,6790.9560546875,4168.3515625,3151.098876953125,-4420.2802734375,-11323.29296875,-6255.30859375,2071.062744140625,-3515.08447265625,0.0,-5992.25390625,0.0,-6760.755859375,-11642.7734375,3822.64453125,-9897.5498046875,0.0,-14295.578125,-1839.796630859375,0.0,-6984.0751953125,0.0,4987.716796875,-0.0,-5932.64892578125
-5253.95068359375,-5584.55810546875,11782.646484375,-8039.474609375,6856.91845703125,2672.67236328125,3553.2314453125,-5785.6240234375,0.0,-4830.3603515625,-2268.9501953125,-13429.32421875,0.0,0.0,0.0,-3444.353759765625,2647.240966796875,11858.1455078125,-0.0,-526.1103515625,5922.3173828125,9516.080078125,7178.783203125,2977.053466796875,2703.666748046875,-7309.91357421875,-5923.1123046875,7093.74755859375,-1246.1343994140625,-3116.925537109375,9989.73828125,-6732.9404296875,8968.5126953125,7635.75244140625,5650.5205078125,7917.880859375,2853.07568359375,-1285.870849609375,5185.60400390625,-0.0,4702.4091796875,-15085.5380859375,2810.160400390625,12827.7138671875,2686.977294921875,-7058.779296875,4010.200439453125,4890.759765625,6794.9296875,4175.50439453125,3152.688232421875,-4414.71728515625,-11320.1142578125,-6249.74560546875,2075.036376953125,-3507.13720703125,0.0,-5988.27978515625,0.0,-6756.78271484375,-11669.794921875,3824.23388671875,-9892.78125,0.0,-14292.3994140625,-1832.6441650390625,0.0,-6984.0751953125,0.0,4991.68994140625,-0.0,-5927.0859375
-5241.2353515625,-5593.2998046875,11781.8515625,-8040.26904296875,6856.91845703125,2671.877685546875,3550.052734375,-5791.98193359375,0.0,-4843.87060546875,-2263.386962890625,-13426.14453125,0.0,0.0,0.0,-3457.864013671875,2643.267333984375,11855.76171875,-0.0,-534.0576171875,5923.1123046875,9515.28515625,7178.783203125,2975.4638671875,2708.43505859375,-7309.91357421875,-5920.72802734375,7088.1845703125,-1242.1607666015625,-3114.541259765625,9986.5595703125,-6740.88818359375,8963.744140625,7634.1630859375,5649.7255859375,7916.291015625,2853.07568359375,-1289.844482421875,5181.63037109375,-0.0,4703.20361328125,-15089.51171875,2810.160400390625,12825.330078125,2683.798583984375,-7064.34228515625,4022.121337890625,4891.55419921875,6794.9296875,4174.70947265625,3150.30419921875,-4423.45947265625,-11317.7294921875,-6252.1298828125,2080.599609375,-3507.13720703125,0.0,-5997.02197265625,0.0,-6771.087890625,-11626.083984375,3821.05517578125,-9896.7548828125,0.0,-14294.783203125,-1829.4652099609375,0.0,-7007.1220703125,0.0,4962.28564453125,-0.0,-5955.6962890625
-5241.2353515625,-5585.3525390625,11777.8779296875,-8043.4482421875,6858.5078125,2673.467041015625,3550.847412109375,-5794.3662109375,0.0,-4847.0498046875,-2259.41357421875,-13426.9404296875,0.0,0.0,0.0,-3461.043212890625,2637.7041015625,11856.5556640625,-0.0,-538.03125,5923.1123046875,9512.9013671875,7178.783203125,2973.874267578125,2709.229736328125,-7315.47705078125,-5920.72802734375,7088.1845703125,-1238.1871337890625,-3118.51513671875,9984.9697265625,-6748.04052734375,8958.1806640625,7629.39453125,5648.13623046875,7913.11279296875,2851.486328125,-1289.844482421875,5170.50390625,-0.0,4703.20361328125,-15097.458984375,2810.160400390625,12824.53515625,2681.414306640625,-7068.31591796875,4021.32666015625,4893.9384765625,6796.51904296875,4173.1201171875,3151.8935546875,-4425.84375,-11320.908203125,-6253.71923828125,2083.7783203125,-3508.726806640625,0.0,-6000.99560546875,0.0,-6775.85595703125,-11579.1962890625,3821.05517578125,-9898.3447265625,0.0,-14294.783203125,-1828.6705322265625,0.0,-7013.4794921875,0.0,4953.54296875,-0.0,-5966.822265625
-5259.513671875,-5587.73681640625,11779.4677734375,-8044.24267578125,6861.6865234375,2674.26171875,3552.436767578125,-5793.5712890625,0.0,-4843.87060546875,-2256.234375,-13425.3505859375,0.0,0.0,0.0,-3454.685302734375,2639.293701171875,11857.3505859375,-0.0,-536.4417724609375,5922.3173828125,9513.6953125,7179.578125,2976.258544921875,2709.229736328125,-7321.03955078125,-5919.93310546875,7092.15771484375,-1238.9818115234375,-3119.3095703125,9985.7646484375,-6751.21923828125,8959.7705078125,7627.80517578125,5649.7255859375,7913.9072265625,2854.6650390625,-1287.4603271484375,5173.68310546875,-0.0,4703.20361328125,-15103.0224609375,2810.160400390625,12827.7138671875,2684.59326171875,-7065.931640625,4013.379638671875,4889.96484375,6798.1083984375,4175.50439453125,3151.8935546875,-4420.2802734375,-11332.8291015625,-6261.6669921875,2081.394287109375,-3507.931884765625,0.0,-5997.02197265625,0.0,-6768.70361328125,-11607.806640625,3823.439453125,-9896.7548828125,0.0,-14289.2197265625,-1827.875732421875,0.0,-7007.9169921875,0.0,4961.49072265625,-0.0,-5963.6435546875
-5273.02392578125,-5588.53125,11785.0302734375,-8037.09033203125,6864.86572265625,2678.2353515625,3554.0263671875,-5786.4189453125,0.0,-4837.51318359375,-2253.0556640625,-13419.787109375,0.0,0.0,0.0,-3445.1484375,2645.651611328125,11861.32421875,-0.0,-529.2892456054688,5927.0859375,9518.4638671875,7181.96240234375,2981.02685546875,2712.40869140625,-7317.06640625,-5919.138671875,7098.51611328125,-1237.3924560546875,-3116.130859375,9991.328125,-6744.06689453125,8966.1279296875,7632.57373046875,5653.69921875,7917.08642578125,2855.4599609375,-1281.897216796875,5188.783203125,-0.0,4708.76708984375,-15103.0224609375,2814.1337890625,12833.27734375,2686.1826171875,-7061.95849609375,4014.174072265625,4894.7333984375,6801.287109375,4182.65673828125,3154.27783203125,-4412.3330078125,-11334.4189453125,-6264.05078125,2085.367919921875,-3501.57421875,0.0,-5992.25390625,0.0,-6761.55078125,-11632.4423828125,3826.6181640625,-9889.6025390625,0.0,-14282.8623046875,-1824.6968994140625,0.0,-6991.2275390625,0.0,4976.5908203125,-0.0,-5952.51708984375
-5280.1767578125,-5595.68408203125,11787.4140625,-8031.52734375,6864.07080078125,2681.414306640625,3557.999755859375,-5785.6240234375,0.0,-4835.923828125,-2258.61865234375,-13415.8134765625,0.0,0.0,0.0,-3445.943115234375,2648.03564453125,11864.5029296875,-0.0,-527.6997680664062,5927.0859375,9520.8486328125,7183.5517578125,2981.82177734375,2710.024658203125,-7313.88720703125,-5919.93310546875,7100.900390625,-1238.9818115234375,-3110.56787109375,9993.712890625,-6740.09326171875,8971.69140625,7637.341796875,5655.28857421875,7918.67529296875,2856.254638671875,-1279.5130615234375,5195.935546875,-0.0,4710.3564453125,-15101.4326171875,2813.33935546875,12834.8662109375,2686.977294921875,-7061.95849609375,4012.584716796875,4904.27001953125,6800.49267578125,4184.24609375,3153.483154296875,-4412.3330078125,-11335.2138671875,-6266.43505859375,2082.18896484375,-3498.395263671875,0.0,-5993.04833984375,0.0,-6764.72998046875,-11632.4423828125,3830.591796875,-9888.80859375,0.0,-14286.8359375,-1821.5179443359375,0.0,-6991.2275390625,0.0,4981.35888671875,-0.0,-5944.56982421875
-5292.892578125,-5609.1943359375,11785.8251953125,-8041.064453125,6861.6865234375,2677.440673828125,3554.0263671875,-5791.1875,0.0,-4843.076171875,-2265.771240234375,-13422.171875,0.0,0.0,0.0,-3453.890625,2644.06201171875,11858.1455078125,-0.0,-531.6734619140625,5923.1123046875,9515.28515625,7180.37255859375,2976.258544921875,2703.666748046875,-7320.2451171875,-5922.3173828125,7095.3369140625,-1245.3397216796875,-3117.720458984375,9988.1484375,-6745.65625,8967.716796875,7631.77880859375,5652.10986328125,7913.9072265625,2853.870361328125,-1284.2813720703125,5190.37255859375,-0.0,4706.3828125,-15110.1748046875,2810.955078125,12829.3037109375,2685.387939453125,-7068.31591796875,4010.200439453125,4895.5283203125,6796.51904296875,4178.6826171875,3150.30419921875,-4417.896484375,-11332.03515625,-6268.8193359375,2078.21533203125,-3507.931884765625,0.0,-6003.3798828125,0.0,-6772.6767578125,-11628.46875,3824.23388671875,-9895.9609375,0.0,-14290.015625,-1832.6441650390625,0.0,-6998.38037109375,0.0,4970.232421875,-0.0,-5957.28564453125
-5288.9189453125,-5606.015625,11781.8515625,-8047.42138671875,6856.12353515625,2671.082763671875,3551.64208984375,-5796.75048828125,0.0,-4850.22900390625,-2270.53955078125,-13424.5556640625,0.0,0.0,0.0,-3459.45361328125,2640.08837890625,11854.9658203125,-0.0,-536.4417724609375,5921.5224609375,9510.517578125,7177.1943359375,2972.284912109375,2697.308837890625,-7326.60302734375,-5923.90673828125,7089.7734375,-1251.697509765625,-3127.257080078125,9984.17578125,-6751.21923828125,8962.154296875,7625.4208984375,5647.34130859375,7908.34423828125,2853.07568359375,-1289.0498046875,5184.80908203125,-0.0,4699.22998046875,-15118.9169921875,2809.365478515625,12825.330078125,2683.798583984375,-7074.67431640625,4007.81640625,4891.55419921875,6791.75048828125,4172.3251953125,3149.509521484375,-4424.25390625,-11336.0087890625,-6271.998046875,2070.267822265625,-3519.852783203125,0.0,-6009.7373046875,0.0,-6779.03515625,-11628.46875,3819.465576171875,-9899.93359375,0.0,-14292.3994140625,-1842.9755859375,0.0,-7011.095703125,0.0,4962.28564453125,-0.0,-5967.6171875
-5279.38232421875,-5593.2998046875,11786.6201171875,-8046.626953125,6855.3291015625,2670.2880859375,3551.64208984375,-5796.75048828125,0.0,-4851.0234375,-2271.33447265625,-13428.5283203125,0.0,0.0,0.0,-3461.043212890625,2640.88330078125,11855.76171875,-0.0,-538.03125,5923.1123046875,9509.72265625,7176.3994140625,2969.10595703125,2702.0771484375,-7331.37109375,-5919.93310546875,7089.7734375,-1246.92919921875,-3126.462158203125,9984.9697265625,-6752.80908203125,8965.3330078125,7624.6259765625,5647.34130859375,7907.5498046875,2851.486328125,-1289.844482421875,5195.935546875,-0.0,4700.02490234375,-15125.2744140625,2810.160400390625,12824.53515625,2682.208984375,-7079.4423828125,4014.174072265625,4895.5283203125,6793.34033203125,4171.5302734375,3151.098876953125,-4425.048828125,-11355.08203125,-6279.9453125,2072.652099609375,-3531.77392578125,0.0,-6012.12158203125,0.0,-6781.41943359375,-11630.8525390625,3820.26025390625,-9900.7294921875,0.0,-14296.3720703125,-1842.9755859375,0.0,-7015.0693359375,0.0,4964.669921875,-0.0,-5968.412109375
-5289.71337890625,-5578.99462890625,11792.9775390625,-8052.18994140625,6860.09716796875,2669.493408203125,3553.2314453125,-5798.33984375,0.0,-4851.81787109375,-2270.53955078125,-13432.5029296875,0.0,0.0,0.0,-3460.248291015625,2643.267333984375,11858.1455078125,-0.0,-538.8259887695312,5925.49658203125,9510.517578125,7179.578125,2969.10595703125,2709.229736328125,-7337.72900390625,-5917.54931640625,7088.97900390625,-1240.5714111328125,-3124.872802734375,9986.5595703125,-6748.04052734375,8969.306640625,7623.8310546875,5650.5205078125,7906.75439453125,2854.6650390625,-1291.4339599609375,5194.34619140625,-0.0,4704.79345703125,-15130.837890625,2811.749755859375,12823.7412109375,2683.003662109375,-7079.4423828125,4025.300537109375,4891.55419921875,6796.51904296875,4171.5302734375,3151.8935546875,-4425.84375,-11343.9560546875,-6284.7138671875,2080.599609375,-3519.852783203125,0.0,-6015.30078125,0.0,-6780.62451171875,-11634.826171875,3821.849853515625,-9899.93359375,0.0,-14302.73046875,-1838.207275390625,0.0,-7019.837890625,0.0,4966.2587890625,-0.0,-5967.6171875
-5290.50830078125,-5579.78955078125,11795.361328125,-8052.18994140625,6862.4814453125,2671.877685546875,3553.2314453125,-5796.75048828125,0.0,-4848.63916015625,-2269.744873046875,-13426.14453125,0.0,0.0,0.0,-3457.0693359375,2647.240966796875,11859.734375,-0.0,-535.6470947265625,5927.0859375,9512.1064453125,7181.16748046875,2972.284912109375,2710.024658203125,-7333.75537109375,-5918.34423828125,7091.36328125,-1240.5714111328125,-3119.3095703125,9988.9443359375,-6744.86181640625,8972.4853515625,7624.6259765625,5652.904296875,7906.75439453125,2856.254638671875,-1288.255126953125,5195.935546875,-0.0,4708.76708984375,-15130.837890625,2810.955078125,12826.919921875,2685.387939453125,-7074.67431640625,4024.505615234375,4890.759765625,6797.3134765625,4173.91455078125,3153.483154296875,-4423.45947265625,-11327.2666015625,-6278.35595703125,2082.18896484375,-3499.98486328125,0.0,-6011.3271484375,0.0,-6778.240234375,-11634.0322265625,3825.028564453125,-9897.5498046875,0.0,-14301.9365234375,-1835.822998046875,0.0,-7024.6064453125,0.0,4963.875,-0.0,-5964.43798828125
-5263.4873046875,-5598.068359375,11788.208984375,-8050.60107421875,6860.09716796875,2675.056396484375,3553.2314453125,-5795.16064453125,0.0,-4846.2548828125,-2265.771240234375,-13423.7607421875,0.0,0.0,0.0,-3454.685302734375,2645.651611328125,11857.3505859375,-0.0,-531.6734619140625,5926.291015625,9512.9013671875,7181.16748046875,2973.07958984375,2705.256103515625,-7334.55029296875,-5921.5224609375,7094.5419921875,-1246.92919921875,-3116.130859375,9989.73828125,-6744.86181640625,8968.5126953125,7625.4208984375,5651.3154296875,7907.5498046875,2853.07568359375,-1287.4603271484375,5189.57763671875,-0.0,4705.587890625,-15134.0166015625,2810.160400390625,12830.0986328125,2685.387939453125,-7074.67431640625,4010.995361328125,4893.9384765625,6796.51904296875,4177.88818359375,3154.27783203125,-4421.0751953125,-11328.0615234375,-6279.150390625,2077.42041015625,-3497.6005859375,0.0,-6010.5322265625,0.0,-6775.85595703125,-11628.46875,3822.64453125,-9894.37109375,0.0,-14305.115234375,-1837.4124755859375,0.0,-7015.86376953125,0.0,4971.02734375,-0.0,-5961.25927734375
-5266.66650390625,-5617.1416015625,11775.4931640625,-8052.18994140625,6854.5341796875,2669.493408203125,3554.0263671875,-5801.51904296875,0.0,-4854.9970703125,-2276.8974609375,-13426.14453125,0.0,0.0,0.0,-3463.42724609375,2637.7041015625,11854.171875,-0.0,-534.8523559570312,5920.72802734375,9507.3388671875,7176.3994140625,2966.7216796875,2696.51416015625,-7340.908203125,-5924.70166015625,7088.1845703125,-1254.081787109375,-3118.51513671875,9984.9697265625,-6754.3984375,8958.9755859375,7619.06298828125,5646.546875,7904.3701171875,2853.870361328125,-1291.4339599609375,5176.0673828125,-0.0,4699.22998046875,-15138.78515625,2808.57080078125,12824.53515625,2683.798583984375,-7082.62109375,4004.63720703125,4895.5283203125,6791.75048828125,4172.3251953125,3153.483154296875,-4428.22802734375,-11348.724609375,-6286.30322265625,2068.6787109375,-3505.5478515625,0.0,-6017.68505859375,0.0,-6784.59765625,-11639.5947265625,3817.08154296875,-9899.1396484375,0.0,-14317.830078125,-1840.5914306640625,0.0,-7023.8115234375,0.0,4960.69580078125,-0.0,-5973.18017578125
-5279.38232421875,-5602.83642578125,11776.2880859375,-8056.9580078125,6855.3291015625,2667.90380859375,3554.821044921875,-5799.92919921875,0.0,-4852.61279296875,-2276.102783203125,-13426.14453125,0.0,0.0,0.0,-3461.043212890625,2635.320068359375,11853.376953125,-0.0,-534.8523559570312,5919.138671875,9504.9541015625,7174.81005859375,2967.5166015625,2698.8984375,-7343.2919921875,-5925.49658203125,7088.1845703125,-1250.108154296875,-3121.69384765625,9982.5859375,-6758.3720703125,8958.1806640625,7616.6787109375,5644.95703125,7901.986328125,2853.870361328125,-1291.4339599609375,5180.041015625,-0.0,4699.22998046875,-15140.3740234375,2808.57080078125,12823.7412109375,2683.003662109375,-7081.03173828125,4010.995361328125,4887.5810546875,6791.75048828125,4171.5302734375,3151.098876953125,-4425.84375,-11352.6982421875,-6279.9453125,2071.857421875,-3510.316162109375,0.0,-6016.095703125,0.0,-6779.82958984375,-11638.0048828125,3816.286865234375,-9898.3447265625,0.0,-14306.7041015625,-1842.180908203125,0.0,-7013.4794921875,0.0,4971.02734375,-0.0,-5962.0537109375
-5257.1298828125,-5578.99462890625,11782.646484375,-8054.57421875,6858.5078125,2674.26171875,3551.64208984375,-5793.5712890625,0.0,-4845.46044921875,-2268.1552734375,-13420.58203125,0.0,0.0,0.0,-3450.71142578125,2639.293701171875,11857.3505859375,-0.0,-530.083984375,5922.3173828125,9509.72265625,7179.578125,2973.874267578125,2704.46142578125,-7332.166015625,-5921.5224609375,7095.3369140625,-1242.95556640625,-3116.130859375,9986.5595703125,-6757.57763671875,8964.5390625,7621.447265625,5648.13623046875,7906.75439453125,2855.4599609375,-1286.66552734375,5184.80908203125,-0.0,4703.99853515625,-15131.6328125,2810.955078125,12829.3037109375,2683.003662109375,-7073.08447265625,4018.14794921875,4886.7861328125,6792.54541015625,4177.09375,3153.483154296875,-4419.4853515625,-11320.908203125,-6267.2294921875,2078.21533203125,-3507.931884765625,0.0,-6007.353515625,0.0,-6771.087890625,-11613.369140625,3821.05517578125,-9894.37109375,0.0,-14291.6044921875,-1835.0283203125,0.0,-6999.9697265625,0.0,4982.1533203125,-0.0,-5950.927734375
-5242.82470703125,-5567.86865234375,11785.0302734375,-8045.037109375,6859.302734375,2679.82470703125,3554.0263671875,-5787.2138671875,0.0,-4839.89697265625,-2268.9501953125,-13408.6611328125,0.0,0.0,0.0,-3442.76416015625,2644.06201171875,11860.5302734375,-0.0,-527.6997680664062,5925.49658203125,9513.6953125,7180.37255859375,2979.4375,2707.640380859375,-7320.2451171875,-5920.72802734375,7101.69482421875,-1241.3660888671875,-3106.593994140625,9989.73828125,-6749.6298828125,8967.716796875,7628.599609375,5652.10986328125,7916.291015625,2854.6650390625,-1281.1025390625,5184.0146484375,-0.0,4703.99853515625,-15116.5322265625,2811.749755859375,12833.27734375,2683.003662109375,-7065.931640625,4015.763671875,4894.7333984375,6794.134765625,4185.83544921875,3154.27783203125,-4413.1279296875,-11308.193359375,-6254.51416015625,2079.8046875,-3498.395263671875,0.0,-5996.22705078125,0.0,-6763.93505859375,-11599.8583984375,3825.028564453125,-9890.3974609375,0.0,-14285.2470703125,-1822.312744140625,0.0,-6990.4326171875,0.0,4988.51171875,-0.0,-5944.56982421875
-5249.97705078125,-5580.583984375,11779.4677734375,-8041.85888671875,6856.91845703125,2679.0302734375,3554.0263671875,-5787.2138671875,0.0,-4840.69189453125,-2269.744873046875,-13411.044921875,0.0,0.0,0.0,-3445.943115234375,2643.267333984375,11860.5302734375,-0.0,-528.4945068359375,5922.3173828125,9514.4912109375,7178.783203125,2977.053466796875,2702.8720703125,-7319.4501953125,-5921.5224609375,7099.310546875,-1246.92919921875,-3108.978271484375,9987.3544921875,-6748.04052734375,8964.5390625,7627.80517578125,5649.7255859375,7917.08642578125,2853.870361328125,-1282.69189453125,5181.63037109375,-0.0,4701.6142578125,-15109.3798828125,2810.160400390625,12833.27734375,2683.798583984375,-7065.931640625,4008.611083984375,4893.14404296875,6791.75048828125,4181.86181640625,3153.483154296875,-4413.9228515625,-11316.935546875,-6252.1298828125,2075.036376953125,-3497.6005859375,0.0,-5997.81640625,0.0,-6763.93505859375,-11613.369140625,3824.23388671875,-9891.1923828125,0.0,-14286.041015625,-1824.6968994140625,0.0,-6995.201171875,0.0,4984.53759765625,-0.0,-5946.9541015625
-5253.15625,-5589.326171875,11775.4931640625,-8044.24267578125,6856.12353515625,2678.2353515625,3554.821044921875,-5790.392578125,0.0,-4843.076171875,-2263.386962890625,-13417.4033203125,0.0,0.0,0.0,-3453.095703125,2642.472412109375,11858.1455078125,-0.0,-532.4681396484375,5920.72802734375,9513.6953125,7177.98876953125,2976.258544921875,2700.48779296875,-7320.2451171875,-5921.5224609375,7096.1318359375,-1249.3133544921875,-3116.130859375,9987.3544921875,-6746.45068359375,8962.94921875,7628.599609375,5647.34130859375,7913.9072265625,2854.6650390625,-1285.870849609375,5179.24658203125,-0.0,4700.02490234375,-15109.3798828125,2809.365478515625,12831.6875,2685.387939453125,-7068.31591796875,4007.021484375,4889.96484375,6790.9560546875,4177.09375,3152.688232421875,-4417.1015625,-11324.8828125,-6257.69287109375,2073.447021484375,-3503.16357421875,0.0,-6004.1748046875,0.0,-6769.49853515625,-11634.826171875,3821.849853515625,-9891.9873046875,0.0,-14286.8359375,-1832.6441650390625,0.0,-7007.1220703125,0.0,4972.61669921875,-0.0,-5956.4912109375
-5260.30859375,-5594.0947265625,11778.671875,-8051.3955078125,6856.12353515625,2672.67236328125,3552.436767578125,-5792.7763671875,0.0,-4847.0498046875,-2262.59228515625,-13422.171875,0.0,0.0,0.0,-3457.0693359375,2640.88330078125,11854.171875,-0.0,-534.0576171875,5920.72802734375,9511.3115234375,7177.1943359375,2973.07958984375,2696.51416015625,-7325.80810546875,-5922.3173828125,7091.36328125,-1254.081787109375,-3123.283447265625,9985.7646484375,-6748.04052734375,8963.744140625,7625.4208984375,5647.34130859375,7909.138671875,2853.07568359375,-1288.255126953125,5183.2197265625,-0.0,4700.02490234375,-15120.505859375,2810.160400390625,12827.7138671875,2684.59326171875,-7073.08447265625,4009.405517578125,4884.40185546875,6790.9560546875,4173.91455078125,3152.688232421875,-4422.66455078125,-11330.4453125,-6266.43505859375,2071.062744140625,-3508.726806640625,0.0,-6008.1484375,0.0,-6773.4716796875,-11661.8466796875,3820.26025390625,-9895.9609375,0.0,-14291.6044921875,-1838.207275390625,0.0,-7010.30126953125,0.0,4967.0537109375,-0.0,-5963.6435546875
-5253.15625,-5594.0947265625,11783.4404296875,-8052.18994140625,6858.5078125,2671.877685546875,3552.436767578125,-5795.16064453125,0.0,-4849.43408203125,-2267.360595703125,-13426.9404296875,0.0,0.0,0.0,-3458.658935546875,2640.08837890625,11854.9658203125,-0.0,-534.0576171875,5923.90673828125,9511.3115234375,7177.98876953125,2972.284912109375,2698.103759765625,-7328.1923828125,-5921.5224609375,7088.97900390625,-1250.90283203125,-3135.9990234375,9985.7646484375,-6747.24560546875,8965.3330078125,7625.4208984375,5648.93115234375,7908.34423828125,2851.486328125,-1288.255126953125,5187.98828125,-0.0,4703.20361328125,-15122.095703125,2810.160400390625,12826.125,2684.59326171875,-7075.46875,4018.14794921875,4885.19677734375,6793.34033203125,4171.5302734375,3152.688232421875,-4425.048828125,-11325.6767578125,-6269.61376953125,2073.447021484375,-3512.700439453125,0.0,-6008.94287109375,0.0,-6776.65087890625,-11657.8740234375,3821.05517578125,-9895.9609375,0.0,-14290.015625,-1840.5914306640625,0.0,-7012.68505859375,0.0,4965.46435546875,-0.0,-5962.8486328125
-5241.2353515625,-5598.86328125,11785.0302734375,-8044.24267578125,6863.27587890625,2676.64599609375,3553.2314453125,-5792.7763671875,0.0,-4850.22900390625,-2272.129150390625,-13421.3759765625,0.0,0.0,0.0,-3458.658935546875,2642.472412109375,11859.734375,-0.0,-533.2628784179688,5926.291015625,9516.080078125,7180.37255859375,2974.669189453125,2706.845458984375,-7322.62939453125,-5919.138671875,7092.15771484375,-1242.1607666015625,-3137.58837890625,9988.1484375,-6750.4248046875,8967.716796875,7627.80517578125,5652.10986328125,7915.4970703125,2852.28076171875,-1285.870849609375,5187.193359375,-0.0,4704.79345703125,-15114.943359375,2812.544677734375,12830.0986328125,2684.59326171875,-7074.67431640625,4022.121337890625,4893.14404296875,6798.90283203125,4176.298828125,3152.688232421875,-4425.048828125,-11318.5244140625,-6264.84521484375,2081.394287109375,-3513.4951171875,0.0,-6006.55908203125,0.0,-6778.240234375,-11623.7001953125,3823.439453125,-9895.1650390625,0.0,-14288.42578125,-1835.0283203125,0.0,-7015.0693359375,0.0,4955.1328125,-0.0,-5971.59033203125
-5273.81884765625,-5602.04150390625,11782.646484375,-8043.4482421875,6860.8916015625,2677.440673828125,3553.2314453125,-5791.1875,0.0,-4846.2548828125,-2278.487060546875,-13423.7607421875,0.0,0.0,0.0,-3451.50634765625,2640.88330078125,11858.9404296875,-0.0,-530.083984375,5923.1123046875,9513.6953125,7180.37255859375,2975.4638671875,2703.666748046875,-7320.2451171875,-5921.5224609375,7094.5419921875,-1246.92919921875,-3126.462158203125,9988.9443359375,-6753.603515625,8965.3330078125,7627.80517578125,5650.5205078125,7913.9072265625,2855.4599609375,-1285.076171875,5184.0146484375,-0.0,4704.79345703125,-15111.763671875,2811.749755859375,12832.482421875,2685.387939453125,-7069.90576171875,4010.200439453125,4897.11767578125,6794.9296875,4177.88818359375,3151.8935546875,-4421.86962890625,-11334.4189453125,-6268.8193359375,2075.8310546875,-3531.77392578125,0.0,-6001.79052734375,0.0,-6771.087890625,-11628.46875,3823.439453125,-9893.576171875,0.0,-14299.5517578125,-1835.0283203125,0.0,-7003.94287109375,0.0,4966.2587890625,-0.0,-5960.46435546875
-5322.29736328125,-5594.88916015625,11782.646484375,-8044.24267578125,6859.302734375,2676.64599609375,3555.61572265625,-5789.59814453125,0.0,-4842.28125,-2274.51318359375,-13430.9130859375,0.0,0.0,0.0,-3449.916748046875,2643.267333984375,11858.1455078125,-0.0,-529.2892456054688,5923.1123046875,9513.6953125,7179.578125,2976.258544921875,2696.51416015625,-7321.03955078125,-5923.1123046875,7093.74755859375,-1250.108154296875,-3118.51513671875,9988.1484375,-6747.24560546875,8967.716796875,7630.98388671875,5650.5205078125,7913.9072265625,2857.04931640625,-1285.076171875,5193.5517578125,-0.0,4705.587890625,-15108.5849609375,2810.955078125,12830.8935546875,2684.59326171875,-7066.7265625,4006.22705078125,4893.9384765625,6795.724609375,4177.09375,3152.688232421875,-4419.4853515625,-11356.6708984375,-6274.38232421875,2071.857421875,-3529.3896484375,0.0,-6002.5849609375,0.0,-6767.1142578125,-11649.92578125,3824.23388671875,-9892.78125,0.0,-14296.3720703125,-1842.180908203125,0.0,-6995.99609375,0.0,4978.1796875,-0.0,-5951.72265625
-5311.1708984375,-5594.0947265625,11784.236328125,-8044.24267578125,6860.8916015625,2675.85107421875,3556.41064453125,-5789.59814453125,0.0,-4840.69189453125,-2268.9501953125,-13434.0927734375,0.0,0.0,0.0,-3451.50634765625,2644.856689453125,11858.9404296875,-0.0,-530.8787231445312,5923.90673828125,9515.28515625,7178.783203125,2977.053466796875,2698.8984375,-7316.271484375,-5923.1123046875,7092.15771484375,-1250.108154296875,-3119.3095703125,9987.3544921875,-6744.86181640625,8968.5126953125,7632.57373046875,5650.5205078125,7916.291015625,2857.04931640625,-1285.870849609375,5199.1142578125,-0.0,4706.3828125,-15099.8427734375,2811.749755859375,12829.3037109375,2684.59326171875,-7064.34228515625,4007.81640625,4893.14404296875,6797.3134765625,4174.70947265625,3154.27783203125,-4421.86962890625,-11355.876953125,-6274.38232421875,2071.857421875,-3514.289794921875,0.0,-6002.5849609375,0.0,-6765.5244140625,-11652.310546875,3823.439453125,-9893.576171875,0.0,-14293.193359375,-1843.7703857421875,0.0,-6995.201171875,0.0,4985.33251953125,-0.0,-5946.1591796875
-5287.3291015625,-5595.68408203125,11780.26171875,-8038.68017578125,6859.302734375,2675.85107421875,3555.61572265625,-5788.80322265625,0.0,-4843.076171875,-2270.53955078125,-13425.3505859375,0.0,0.0,0.0,-3453.095703125,2647.240966796875,11858.1455078125,-0.0,-529.2892456054688,5924.70166015625,9516.875,7178.783203125,2977.84814453125,2697.308837890625,-7309.11865234375,-5921.5224609375,7094.5419921875,-1252.4923095703125,-3112.1572265625,9988.9443359375,-6746.45068359375,8966.9228515625,7632.57373046875,5651.3154296875,7917.880859375,2855.4599609375,-1285.870849609375,5188.783203125,-0.0,4703.99853515625,-15091.1015625,2811.749755859375,12830.8935546875,2684.59326171875,-7063.5478515625,4005.43212890625,4893.9384765625,6796.51904296875,4178.6826171875,3153.483154296875,-4421.86962890625,-11352.6982421875,-6259.28271484375,2071.062744140625,-3505.5478515625,0.0,-6001.79052734375,0.0,-6767.90869140625,-11645.158203125,3823.439453125,-9892.78125,0.0,-14296.3720703125,-1838.207275390625,0.0,-6999.9697265625,0.0,4978.1796875,-0.0,-5946.9541015625
-5280.1767578125,-5592.5048828125,11774.69921875,-8037.884765625,6857.71337890625,2674.26171875,3552.436767578125,-5793.5712890625,0.0,-4848.63916015625,-2267.360595703125,-13420.58203125,0.0,0.0,0.0,-3458.658935546875,2644.06201171875,11856.5556640625,-0.0,-534.0576171875,5923.1123046875,9513.6953125,7176.3994140625,2974.669189453125,2702.0771484375,-7310.70849609375,-5920.72802734375,7089.7734375,-1249.3133544921875,-3111.362548828125,9987.3544921875,-6747.24560546875,8963.744140625,7632.57373046875,5649.7255859375,7914.70263671875,2853.870361328125,-1289.0498046875,5176.8623046875,-0.0,4700.8193359375,-15093.4853515625,2810.160400390625,12826.919921875,2683.798583984375,-7069.11083984375,4001.458740234375,4895.5283203125,6794.134765625,4177.09375,3153.483154296875,-4427.43310546875,-11353.4931640625,-6256.103515625,2074.24169921875,-3505.5478515625,0.0,-6004.1748046875,0.0,-6775.85595703125,-11622.111328125,3821.05517578125,-9898.3447265625,0.0,-14289.2197265625,-1838.207275390625,0.0,-7010.30126953125,0.0,4960.69580078125,-0.0,-5962.8486328125
-5277.79248046875,-5590.91552734375,11776.2880859375,-8043.4482421875,6857.71337890625,2671.082763671875,3552.436767578125,-5798.33984375,0.0,-4849.43408203125,-2267.360595703125,-13427.734375,0.0,0.0,0.0,-3462.63232421875,2641.677734375,11853.376953125,-0.0,-535.6470947265625,5919.138671875,9508.927734375,7174.81005859375,2970.695556640625,2702.0771484375,-7317.86083984375,-5923.1123046875,7084.2109375,-1248.5185546875,-3119.3095703125,9984.17578125,-6749.6298828125,8958.9755859375,7628.599609375,5646.546875,7913.11279296875,2853.07568359375,-1293.0234375,5170.50390625,-0.0,4700.02490234375,-15098.25390625,2810.160400390625,12823.7412109375,2683.003662109375,-7073.08447265625,4003.8427734375,4889.96484375,6791.75048828125,4170.73583984375,3151.8935546875,-4430.6123046875,-11351.9033203125,-6260.8720703125,2072.652099609375,-3510.316162109375,0.0,-6008.1484375,0.0,-6778.240234375,-11634.0322265625,3818.6708984375,-9899.93359375,0.0,-14290.8095703125,-1844.5650634765625,0.0,-7012.68505859375,0.0,4961.49072265625,-0.0,-5962.8486328125
-5277.79248046875,-5600.45263671875,11773.904296875,-8052.18994140625,6853.7392578125,2664.72509765625,3552.436767578125,-5801.51904296875,0.0,-4847.0498046875,-2275.307861328125,-13436.4765625,0.0,0.0,0.0,-3463.42724609375,2636.909423828125,11848.609375,-0.0,-534.0576171875,5914.3701171875,9504.9541015625,7171.630859375,2965.92724609375,2696.51416015625,-7325.013671875,-5924.70166015625,7081.03173828125,-1253.2869873046875,-3130.43603515625,9979.4072265625,-6754.3984375,8955.7958984375,7621.447265625,5641.7783203125,7908.34423828125,2852.28076171875,-1295.4075927734375,5166.53076171875,-0.0,4696.05126953125,-15109.3798828125,2806.9814453125,12819.7666015625,2681.414306640625,-7075.46875,4004.63720703125,4882.017578125,6786.98193359375,4165.96728515625,3150.30419921875,-4430.6123046875,-11350.314453125,-6271.998046875,2067.8837890625,-3518.263671875,0.0,-6011.3271484375,0.0,-6777.4453125,-11663.4365234375,3813.902587890625,-9899.93359375,0.0,-14297.9619140625,-1850.128173828125,0.0,-7008.71142578125,0.0,4969.43798828125,-0.0,-5951.72265625
-5269.845703125,-5600.45263671875,11781.056640625,-8048.216796875,6858.5078125,2669.493408203125,3554.0263671875,-5797.544921875,0.0,-4847.0498046875,-2274.51318359375,-13423.7607421875,0.0,0.0,0.0,-3461.043212890625,2641.677734375,11853.376953125,-0.0,-530.8787231445312,5920.72802734375,9511.3115234375,7174.81005859375,2972.284912109375,2698.8984375,-7321.83447265625,-5923.1123046875,7086.59521484375,-1250.108154296875,-3127.257080078125,9984.9697265625,-6750.4248046875,8962.154296875,7625.4208984375,5647.34130859375,7909.138671875,2854.6650390625,-1292.228759765625,5176.0673828125,-0.0,4701.6142578125,-15109.3798828125,2808.57080078125,12822.9453125,2683.798583984375,-7071.4951171875,4017.35302734375,4888.3759765625,6793.34033203125,4171.5302734375,3152.688232421875,-4427.43310546875,-11336.0087890625,-6271.20361328125,2071.857421875,-3510.316162109375,0.0,-6004.1748046875,0.0,-6776.65087890625,-11646.748046875,3817.08154296875,-9899.1396484375,0.0,-14293.98828125,-1836.6177978515625,0.0,-7011.095703125,0.0,4963.080078125,-0.0,-5961.25927734375
-5266.66650390625,-5602.04150390625,11785.8251953125,-8048.216796875,6860.8916015625,2670.2880859375,3552.436767578125,-5799.134765625,0.0,-4851.81787109375,-2268.9501953125,-13425.3505859375,0.0,0.0,0.0,-3463.42724609375,2644.06201171875,11854.171875,-0.0,-534.0576171875,5923.90673828125,9508.927734375,7175.6044921875,2972.284912109375,2703.666748046875,-7324.21875,-5922.3173828125,7086.59521484375,-1246.92919921875,-3124.078125,9985.7646484375,-6749.6298828125,8966.1279296875,7627.01025390625,5648.13623046875,7909.138671875,2854.6650390625,-1292.228759765625,5188.783203125,-0.0,4705.587890625,-15113.353515625,2809.365478515625,12822.1513671875,2683.798583984375,-7073.87939453125,4026.094970703125,4888.3759765625,6796.51904296875,4171.5302734375,3151.8935546875,-4429.8173828125,-11355.876953125,-6274.38232421875,2078.21533203125,-3511.90576171875,0.0,-6005.76416015625,0.0,-6780.62451171875,-11626.8798828125,3816.286865234375,-9897.5498046875,0.0,-14286.041015625,-1834.233642578125,0.0,-7012.68505859375,0.0,4959.9013671875,-0.0,-5970.7958984375
-5266.66650390625,-5598.068359375,11785.0302734375,-8049.8056640625,6859.302734375,2669.493408203125,3551.64208984375,-5799.134765625,0.0,-4852.61279296875,-2264.181884765625,-13430.1181640625,0.0,0.0,0.0,-3464.221923828125,2644.06201171875,11854.171875,-0.0,-536.4417724609375,5922.3173828125,9508.927734375,7174.01513671875,2969.90087890625,2706.05078125,-7326.60302734375,-5922.3173828125,7085.80029296875,-1243.750244140625,-3124.872802734375,9984.9697265625,-6748.04052734375,8962.94921875,7626.21533203125,5646.546875,7906.75439453125,2852.28076171875,-1292.228759765625,5176.0673828125,-0.0,4703.99853515625,-15115.73828125,2808.57080078125,12822.1513671875,2682.208984375,-7074.67431640625,4023.710693359375,4887.5810546875,6795.724609375,4168.3515625,3149.509521484375,-4429.8173828125,-11355.876953125,-6279.9453125,2081.394287109375,-3515.08447265625,0.0,-6008.1484375,0.0,-6780.62451171875,-11611.779296875,3817.08154296875,-9899.93359375,0.0,-14284.451171875,-1836.6177978515625,0.0,-7015.86376953125,0.0,4962.28564453125,-0.0,-5967.6171875
-5263.4873046875,-5597.2734375,11780.26171875,-8051.3955078125,6856.12353515625,2667.90380859375,3551.64208984375,-5799.92919921875,0.0,-4851.0234375,-2268.1552734375,-13429.32421875,0.0,0.0,0.0,-3462.63232421875,2640.08837890625,11850.9931640625,-0.0,-534.8523559570312,5919.93310546875,9507.3388671875,7173.22021484375,2967.5166015625,2703.666748046875,-7328.9873046875,-5924.70166015625,7085.80029296875,-1246.1343994140625,-3122.48876953125,9982.5859375,-6751.21923828125,8961.3603515625,7624.6259765625,5643.36767578125,7905.16552734375,2851.486328125,-1293.0234375,5179.24658203125,-0.0,4701.6142578125,-15118.9169921875,2806.186767578125,12820.5615234375,2683.003662109375,-7073.08447265625,4014.96875,4886.7861328125,6790.9560546875,4168.3515625,3151.098876953125,-4429.8173828125,-11335.2138671875,-6278.35595703125,2075.036376953125,-3515.87939453125,0.0,-6008.94287109375,0.0,-6778.240234375,-11618.1376953125,3815.491943359375,-9900.7294921875,0.0,-14291.6044921875,-1838.207275390625,0.0,-7010.30126953125,0.0,4967.84814453125,-0.0,-5962.0537109375
-5281.7666015625,-5606.015625,11781.056640625,-8052.9853515625,6852.94482421875,2665.519775390625,3551.64208984375,-5803.1083984375,0.0,-4854.9970703125,-2275.307861328125,-13427.734375,0.0,0.0,0.0,-3465.8115234375,2639.293701171875,11847.01953125,-0.0,-535.6470947265625,5916.75439453125,9503.3642578125,7170.8359375,2965.132568359375,2698.8984375,-7331.37109375,-5927.0859375,7084.2109375,-1250.108154296875,-3126.462158203125,9982.5859375,-6754.3984375,8962.94921875,7621.447265625,5641.7783203125,7903.57568359375,2849.896728515625,-1296.2022705078125,5187.98828125,-0.0,4697.64111328125,-15122.890625,2806.186767578125,12819.7666015625,2683.003662109375,-7077.8525390625,4014.96875,4885.99169921875,6786.1875,4165.96728515625,3150.30419921875,-4432.99609375,-11356.6708984375,-6283.9189453125,2072.652099609375,-3518.263671875,0.0,-6012.12158203125,0.0,-6783.80322265625,-11659.462890625,3812.31298828125,-9902.318359375,0.0,-14297.16796875,-1837.4124755859375,0.0,-7020.63232421875,0.0,4959.9013671875,-0.0,-5969.20654296875
-5307.19775390625,-5617.9365234375,11774.69921875,-8053.77978515625,6850.560546875,2663.135498046875,3552.436767578125,-5806.287109375,0.0,-4854.9970703125,-2275.307861328125,-13431.7080078125,0.0,0.0,0.0,-3468.195556640625,2636.11474609375,11844.634765625,-0.0,-534.8523559570312,5913.57568359375,9502.5703125,7170.04150390625,2961.953369140625,2697.308837890625,-7335.3447265625,-5927.880859375,7081.82666015625,-1252.4923095703125,-3132.820068359375,9978.6123046875,-6755.193359375,8958.1806640625,7620.65283203125,5637.8046875,7901.19189453125,2851.486328125,-1296.2022705078125,5179.24658203125,-0.0,4693.6669921875,-15127.6591796875,2805.39208984375,12817.3828125,2683.003662109375,-7079.4423828125,4012.584716796875,4888.3759765625,6783.80322265625,4164.3779296875,3149.509521484375,-4434.58544921875,-11355.876953125,-6295.04541015625,2070.267822265625,-3520.647705078125,0.0,-6016.095703125,0.0,-6786.1875,-11659.462890625,3810.7236328125,-9901.5234375,0.0,-14297.9619140625,-1842.180908203125,0.0,-7023.0166015625,0.0,4959.9013671875,-0.0,-5967.6171875
-5306.40283203125,-5629.0625,11778.671875,-8057.75341796875,6852.94482421875,2662.3408203125,3553.2314453125,-5803.9033203125,0.0,-4851.0234375,-2257.029296875,-13431.7080078125,0.0,0.0,0.0,-3465.8115234375,2636.909423828125,11847.01953125,-0.0,-530.083984375,5916.75439453125,9501.7744140625,7171.630859375,2962.748291015625,2699.69287109375,-7341.703125,-5926.291015625,7083.416015625,-1251.697509765625,-3135.204345703125,9978.6123046875,-6757.57763671875,8959.7705078125,7619.85791015625,5640.9833984375,7899.60205078125,2853.870361328125,-1294.6129150390625,5185.60400390625,-0.0,4696.84619140625,-15133.2216796875,2807.776123046875,12819.7666015625,2683.798583984375,-7077.8525390625,4010.995361328125,4884.40185546875,6788.57177734375,4162.78857421875,3151.8935546875,-4432.99609375,-11324.8828125,-6294.25048828125,2071.062744140625,-3528.594970703125,0.0,-6015.30078125,0.0,-6783.0087890625,-11653.10546875,3812.31298828125,-9899.93359375,0.0,-14302.73046875,-1836.6177978515625,0.0,-7015.0693359375,0.0,4965.46435546875,-0.0,-5960.46435546875
-5311.1708984375,-5624.29443359375,11785.8251953125,-8055.369140625,6856.91845703125,2663.93017578125,3553.2314453125,-5803.1083984375,0.0,-4853.4072265625,-2264.181884765625,-13427.734375,0.0,0.0,0.0,-3465.0166015625,2640.08837890625,11849.4033203125,-0.0,-531.6734619140625,5920.72802734375,9503.3642578125,7174.81005859375,2967.5166015625,2699.69287109375,-7340.908203125,-5924.70166015625,7084.2109375,-1250.90283203125,-3137.58837890625,9982.5859375,-6749.6298828125,8964.5390625,7625.4208984375,5644.16259765625,7901.19189453125,2853.870361328125,-1294.6129150390625,5188.783203125,-0.0,4700.02490234375,-15133.2216796875,2809.365478515625,12820.5615234375,2684.59326171875,-7079.4423828125,4014.96875,4889.17041015625,6790.1611328125,4164.3779296875,3151.8935546875,-4430.6123046875,-11329.650390625,-6279.9453125,2071.857421875,-3523.82666015625,0.0,-6015.30078125,0.0,-6782.2138671875,-11649.1318359375,3813.902587890625,-9898.3447265625,0.0,-14305.115234375,-1832.6441650390625,0.0,-7013.4794921875,0.0,4965.46435546875,-0.0,-5963.6435546875
-5308.787109375,-5613.962890625,11786.6201171875,-8049.01123046875,6859.302734375,2668.698486328125,3554.0263671875,-5799.134765625,0.0,-4851.81787109375,-2278.487060546875,-13420.58203125,0.0,0.0,0.0,-3460.248291015625,2644.856689453125,11851.787109375,-0.0,-530.8787231445312,5923.90673828125,9508.1328125,7178.783203125,2969.90087890625,2704.46142578125,-7334.55029296875,-5922.3173828125,7088.1845703125,-1245.3397216796875,-3131.230712890625,9987.3544921875,-6744.86181640625,8967.716796875,7632.57373046875,5648.13623046875,7904.3701171875,2854.6650390625,-1289.844482421875,5190.37255859375,-0.0,4700.8193359375,-15133.2216796875,2809.365478515625,12825.330078125,2685.387939453125,-7077.8525390625,4016.55810546875,4896.32275390625,6792.54541015625,4170.73583984375,3151.8935546875,-4425.84375,-11351.9033203125,-6275.1767578125,2075.8310546875,-3510.316162109375,0.0,-6010.5322265625,0.0,-6778.240234375,-11631.6484375,3816.286865234375,-9896.7548828125,0.0,-14304.3203125,-1845.35986328125,0.0,-7007.9169921875,0.0,4971.822265625,-0.0,-5959.66943359375
-5295.27685546875,-5612.37353515625,11783.4404296875,-8048.216796875,6857.71337890625,2668.698486328125,3554.0263671875,-5799.92919921875,0.0,-4854.2021484375,-2280.87109375,-13418.9921875,0.0,0.0,0.0,-3461.837890625,2642.472412109375,11851.787109375,-0.0,-530.083984375,5921.5224609375,9507.3388671875,7177.1943359375,2969.90087890625,2698.8984375,-7335.3447265625,-5922.3173828125,7088.97900390625,-1248.5185546875,-3126.462158203125,9985.7646484375,-6746.45068359375,8966.1279296875,7630.189453125,5644.95703125,7902.78125,2854.6650390625,-1290.6392822265625,5185.60400390625,-0.0,4700.8193359375,-15134.0166015625,2810.160400390625,12825.330078125,2684.59326171875,-7079.4423828125,4016.55810546875,4896.32275390625,6791.75048828125,4168.3515625,3151.8935546875,-4426.63818359375,-11352.6982421875,-6280.740234375,2071.857421875,-3511.90576171875,0.0,-6012.12158203125,0.0,-6780.62451171875,-11630.05859375,3816.286865234375,-9898.3447265625,0.0,-14304.3203125,-1839.796630859375,0.0,-7015.0693359375,0.0,4969.43798828125,-0.0,-5961.25927734375
-5292.09765625,-5605.220703125,11784.236328125,-8047.42138671875,6858.5078125,2669.493408203125,3553.2314453125,-5798.33984375,0.0,-4849.43408203125,-2276.8974609375,-13412.634765625,0.0,0.0,0.0,-3458.658935546875,2640.88330078125,11852.58203125,-0.0,-530.083984375,5920.72802734375,9509.72265625,7176.3994140625,2969.90087890625,2695.719482421875,-7329.7822265625,-5922.3173828125,7092.15771484375,-1253.2869873046875,-3120.1044921875,9986.5595703125,-6748.8349609375,8964.5390625,7628.599609375,5645.751953125,7903.57568359375,2854.6650390625,-1289.844482421875,5177.65673828125,-0.0,4703.20361328125,-15130.837890625,2807.776123046875,12826.919921875,2683.798583984375,-7077.05810546875,4018.9423828125,4897.11767578125,6792.54541015625,4172.3251953125,3149.509521484375,-4424.25390625,-11336.8037109375,-6277.56103515625,2067.089111328125,-3520.647705078125,0.0,-6008.94287109375,0.0,-6775.85595703125,-11645.953125,3816.286865234375,-9896.7548828125,0.0,-14298.7568359375,-1828.6705322265625,0.0,-7007.9169921875,0.0,4973.41162109375,-0.0,-5950.927734375
-5266.66650390625,-5598.068359375,11785.0302734375,-8045.037109375,6861.6865234375,2672.67236328125,3554.0263671875,-5794.3662109375,0.0,-4842.28125,-2272.923828125,-13409.455078125,0.0,0.0,0.0,-3450.71142578125,2644.856689453125,11855.76171875,-0.0,-526.905029296875,5925.49658203125,9512.1064453125,7178.783203125,2973.874267578125,2698.103759765625,-7329.7822265625,-5923.90673828125,7094.5419921875,-1251.697509765625,-3115.336181640625,9988.9443359375,-6746.45068359375,8966.9228515625,7632.57373046875,5648.93115234375,7908.34423828125,2857.04931640625,-1285.076171875,5176.0673828125,-0.0,4707.177734375,-15126.0693359375,2808.57080078125,12830.0986328125,2685.387939453125,-7070.7001953125,4020.5322265625,4898.70703125,6793.34033203125,4177.09375,3151.8935546875,-4420.2802734375,-11324.087890625,-6268.0244140625,2071.062744140625,-3515.87939453125,0.0,-6001.79052734375,0.0,-6770.29296875,-11650.7216796875,3820.26025390625,-9891.9873046875,0.0,-14286.8359375,-1825.4915771484375,0.0,-6996.79052734375,0.0,4983.7431640625,-0.0,-5940.59619140625
-5238.85107421875,-5590.12060546875,11781.056640625,-8043.4482421875,6864.07080078125,2673.467041015625,3550.847412109375,-5795.16064453125,0.0,-4851.0234375,-2264.9765625,-13408.6611328125,0.0,0.0,0.0,-3453.095703125,2644.856689453125,11857.3505859375,-0.0,-533.2628784179688,5925.49658203125,9513.6953125,7180.37255859375,2974.669189453125,2707.640380859375,-7328.1923828125,-5922.3173828125,7092.95263671875,-1242.95556640625,-3111.362548828125,9991.328125,-6749.6298828125,8967.716796875,7634.9580078125,5651.3154296875,7909.138671875,2853.870361328125,-1287.4603271484375,5182.4248046875,-0.0,4707.97216796875,-15118.9169921875,2809.365478515625,12830.8935546875,2683.003662109375,-7073.08447265625,4013.379638671875,4897.91259765625,6796.51904296875,4176.298828125,3151.098876953125,-4421.86962890625,-11328.0615234375,-6256.8984375,2080.599609375,-3503.16357421875,0.0,-6000.20068359375,0.0,-6775.85595703125,-11638.0048828125,3821.849853515625,-9894.37109375,0.0,-14285.2470703125,-1820.72314453125,0.0,-7007.9169921875,0.0,4968.64306640625,-0.0,-5961.25927734375
-5249.18212890625,-5587.73681640625,11781.8515625,-8045.037109375,6865.66015625,2671.082763671875,3552.436767578125,-5794.3662109375,0.0,-4849.43408203125,-2260.2080078125,-13414.2236328125,0.0,0.0,0.0,-3453.095703125,2641.677734375,11855.76171875,-0.0,-530.083984375,5926.291015625,9511.3115234375,7180.37255859375,2975.4638671875,2710.8193359375,-7320.2451171875,-5920.72802734375,7093.74755859375,-1238.1871337890625,-3112.1572265625,9988.1484375,-6754.3984375,8964.5390625,7633.3681640625,5650.5205078125,7909.138671875,2852.28076171875,-1285.870849609375,5179.24658203125,-0.0,4708.76708984375,-15114.1484375,2809.365478515625,12829.3037109375,2683.798583984375,-7069.90576171875,4015.763671875,4892.34912109375,6799.69775390625,4177.09375,3150.30419921875,-4421.86962890625,-11360.6455078125,-6256.8984375,2084.572998046875,-3502.368896484375,0.0,-6000.99560546875,0.0,-6770.29296875,-11624.4951171875,3818.6708984375,-9894.37109375,0.0,-14283.6572265625,-1823.902099609375,0.0,-7011.890625,0.0,4964.669921875,-0.0,-5959.66943359375
